CollectionTime,7/10/2024 3:51:18 PM
ExposureUsed,3
CalibratedSpectrum
-962.7078968117929,1237
-959.9714848408522,1299
-957.2358232597828,1330
-954.5009119013725,1343
-951.7667505983302,1325
-949.0333391832855,1350
-946.3006774887896,1325
-943.5687653473143,1367
-940.837602591253,1325
-938.1071890529199,1278
-935.3775245645503,1367
-932.6486089583007,1376
-929.9204420662485,1331
-927.1930237203925,1316
-924.4663537526524,1325
-921.7404319948689,1314
-919.0152582788041,1357
-916.2908324361409,1397
-913.5671542984834,1352
-910.8442236973568,1305
-908.1220404642074,1305
-905.4006044304027,1482
-902.679915427231,1356
-899.959973285902,1387
-897.2407778375464,1365
-894.5223289132158,1372
-891.8046263438832,1398
-889.0876699604426,1308
-886.3714595937089,1353
-883.6559950744183,1374
-880.9412762332282,1390
-878.2273029007168,1364
-875.5140749073835,1380
-872.8015920836489,1316
-870.0898542598545,1324
-867.3788612662631,1323
-864.6686129330585,1374
-861.9591090903457,1415
-859.2503495681506,1365
-856.5423341964203,1374
-853.8350628050229,1352
-851.1285352237478,1398
-848.4227512823054,1377
-845.7177108103272,1453
-843.0134136373656,1381
-840.3098595928943,1425
-837.6070485063082,1384
-834.9049802069229,1445
-832.2036545239757,1406
-829.5030712866244,1381
-826.8032303239481,1424
-824.1041314649472,1365
-821.4057745385428,1377
-818.7081593735775,1372
-816.0112857988148,1389
-813.3151536429393,1417
-810.6197627345566,1423
-807.9251129021936,1376
-805.2312039742981,1445
-802.5380357792392,1456
-799.8456081453069,1438
-797.1539209007124,1431
-794.462973873588,1425
-791.772766891987,1501
-789.083299783884,1450
-786.3945723771743,1438
-783.7065844996748,1472
-781.0193359791231,1374
-778.3328266431781,1471
-775.6470563194197,1364
-772.9620248353489,1406
-770.2777320183878,1422
-767.5941776958798,1409
-764.9113616950891,1379
-762.2292838432011,1445
-759.5479439673222,1478
-756.8673418944801,1443
-754.1874774516235,1476
-751.5083504656222,1462
-748.8299607632671,1482
-746.15230817127,1451
-743.475392516264,1472
-740.7992136248035,1474
-738.1237713233636,1474
-735.4490654383407,1493
-732.7750957960521,1530
-730.1018622227365,1482
-727.4293645445534,1537
-724.7576025875837,1576
-722.0865761778291,1515
-719.4162851412126,1446
-716.7467293035781,1516
-714.0779084906909,1584
-711.409822528237,1526
-708.7424712418238,1539
-706.0758544569796,1493
-703.4099719991541,1529
-700.7448236937178,1523
-698.0804093659622,1598
-695.4167288411002,1566
-692.7537819442656,1597
-690.0915685005134,1597
-687.4300883348199,1581
-684.7693412720819,1568
-682.1093271371178,1531
-679.4500457546669,1572
-676.7914969493897,1564
-674.1336805458676,1523
-671.4765963686034,1598
-668.8202442420206,1594
-666.1646239904642,1562
-663.5097354382001,1603
-660.8555784094151,1625
-658.2021527282176,1595
-655.5494582186366,1578
-652.8974947046223,1585
-650.2462620100463,1611
-647.5957599587009,1623
-644.9459883742998,1632
-642.2969470804776,1580
-639.6486359007902,1674
-637.0010546587141,1612
-634.3542031776476,1609
-631.7080812809096,1639
-629.0626887917401,1661
-626.4180255333008,1668
-623.7740913286734,1621
-621.1308860008619,1697
-618.4884093727904,1625
-615.8466612673046,1658
-613.2056415071715,1594
-610.5653499150785,1703
-607.9257863136347,1708
-605.28695052537,1718
-602.6488423727357,1678
-600.0114616781036,1703
-597.3748082637674,1714
-594.7388819519412,1683
-592.1036825647604,1731
-589.4692099242818,1760
-586.8354638524829,1771
-584.2024441712624,1738
-581.5701507024403,1672
-578.9385832677575,1682
-576.3077416888759,1776
-573.6776257873787,1705
-571.0482353847704,1699
-568.4195703024757,1687
-565.7916303618415,1780
-563.164415384135,1752
-560.5379251905453,1714
-557.9121596021815,1762
-555.2871184400748,1771
-552.6628015251767,1749
-550.0392086783606,1770
-547.4163397204204,1832
-544.794194472071,1800
-542.1727727539491,1750
-539.5520743866118,1809
-536.9320991905377,1797
-534.3128469861261,1853
-531.6943175936979,1840
-529.0765108334947,1799
-526.4594265256793,1964
-523.8430644903358,2033
-521.2274245474689,2126
-518.612506517005,2189
-515.9983102187913,2223
-513.3848354725959,2284
-510.77208209810846,2296
-508.16004991493924,2241
-505.5487387426199,2407
-502.9381484006032,2574
-500.3282787082628,2653
-497.71912948489364,2783
-495.1107005497117,2645
-492.5029917218539,2560
-489.8960028203786,2366
-487.28973366426493,2278
-484.68418407241325,2187
-482.07935386364494,2153
-479.47524285670266,2047
-476.87185087025,2075
-474.2691777228715,1971
-471.66722323307334,2060
-469.0659872192821,2040
-466.4654694998459,2010
-463.86566989303384,1927
-461.26658821703614,2045
-458.66822428996414,2025
-456.07057792985,2069
-453.4736489546475,1946
-450.877437182231,1942
-448.28194243039627,1943
-445.68716451686,1907
-443.09310325926003,1954
-440.49975847515555,1942
-437.9071299820263,1946
-435.31521759727354,1945
-432.72402113821954,1910
-430.13354042210767,1995
-427.5437752661022,1960
-424.95472548728867,1992
-422.36639090267386,1995
-419.7787713291855,2047
-417.1918665836721,2074
-414.60567648290385,2164
-412.0202008435715,2063
-409.4354394822874,2037
-406.8513922155845,2088
-404.26805885991723,2114
-401.685439231661,2131
-399.103533147112,2112
-396.522340422488,2036
-393.9418608739278,2040
-391.3620943174908,2013
-388.7830405691583,1932
-386.2046994448317,1857
-383.6270707603344,1741
-381.05015433141045,1721
-378.473949973725,1536
-375.8984575028645,1483
-373.32367673433623,1241
-370.74960748356875,1101
-368.1762495659117,1040
-365.60360279663576,920
-363.03166699093265,769
-360.4604419639154,678
-357.8899275306178,625
-355.32012350599507,578
-352.7510297049233,549
-350.1826459421999,507
-347.61497203254316,508
-345.04800779059235,483
-342.4817530309082,471
-339.91620756797226,489
-337.35137121618743,503
-334.7872437898774,527
-332.22382510328725,562
-329.66111497058273,514
-327.09911320585127,515
-324.53781962310075,514
-321.9772340362607,503
-319.4173562591816,497
-316.8581861056348,475
-314.2997233893127,522
-311.7419679238294,495
-309.1849195227194,504
-306.62857799943856,545
-304.0729431673641,585
-301.51801483979375,570
-298.963792829947,543
-296.41027695096386,534
-293.85746701590574,589
-291.3053628377552,578
-288.7539642294155,570
-286.2032710037115,562
-283.65328297338897,578
-281.1039999511146,567
-278.5554217494762,629
-276.007548180983,668
-273.4603790580651,617
-270.9139141930734,553
-268.3681533982807,574
-265.8230964858798,614
-263.27874326798565,669
-260.7350935566336,615
-258.1921471637804,650
-255.6499039013039,626
-253.10836358100266,644
-250.56752601459698,660
-248.02739101372765,614
-245.48795838995704,653
-242.94922795476816,678
-240.41119951956557,643
-237.8738728956746,676
-235.33724789434166,699
-232.80132432673452,702
-230.2661020039418,638
-227.73158073697357,655
-225.19776033676033,656
-222.66464061415422,649
-220.1322213799284,644
-217.60050244477725,624
-215.06948361931552,652
-212.53916471408013,652
-210.00954553952818,761
-207.48062590603843,844
-204.9524056239104,740
-202.4248845033651,684
-199.8980623545441,735
-197.37193898751036,751
-194.84651421224817,745
-192.32178783866232,773
-189.79775967657952,830
-187.27442953574644,844
-184.7517972258321,875
-182.2298625564256,894
-179.7086253370378,826
-177.18808537710026,786
-174.66824248596583,788
-172.14909647290835,746
-169.6306471471229,845
-167.11289431772548,922
-164.59583779375328,917
-162.07947738416453,905
-159.5638128978386,957
-157.04884414357605,1036
-154.53457093009854,1004
-152.02099306604828,970
-149.50811035998936,867
-146.99592262040665,851
-144.48442965570587,869
-141.97363127421409,1103
-139.46352728417958,1163
-136.95411749377126,1056
-134.44540171107985,958
-131.93737974411636,998
-129.43005140081357,990
-126.92341648902493,1350
-124.41747481652521,1753
-121.91222619101006,2124
-119.40767042009657,2266
-116.90380731132257,2513
-114.40063667214702,2639
-111.8981583099503,2700
-109.3963720320337,2169
-106.89527764561933,1758
-104.39487495785067,1656
-101.89516377579241,2357
-99.39614390642998,3178
-96.89781515667039,4034
-94.40017733334128,3880
-91.90323024319173,3030
-89.40697369289148,2853
-86.91140748903172,4220
-84.41653143812482,5188
-81.92234534660395,4967
-79.42884902082358,4696
-76.93604226705907,5435
-74.4439248915071,9157
-71.95249670028534,14866
-69.46175749943245,20116
-66.97170709490854,20990
-64.48234529259423,18619
-61.99367189829195,15229
-59.50568671772464,12855
-57.01838955653636,9217
-54.53178022029283,7524
-52.045858514480074,8829
-49.560624244506016,9613
-47.07607721569923,9351
-44.59221723330904,10641
-42.10904410250669,11105
-39.62655762838392,10698
-37.14475761595372,10162
-34.66364387015028,11831
-32.18321619582866,12862
-29.70347439776515,11398
-27.224418280657005,11613
-24.74604764912317,12805
-22.26836230770266,15324
-19.7913620608565,23809
-17.315046712966478,40795
-14.83941606833514,56410
-12.36446993118659,65038
-9.89020810566592,65038
-7.416630395839093,65038
-4.94373660569363,65038
-2.471526539137585,65038
-6.821210263296962E-13,65038
2.47084320796705,65038
4.941003281093458,65038
7.410480415786196,65038
9.879274808531363,65038
12.347386655893956,65038
14.814816154518212,65038
17.28156350112681,65038
19.74762889252179,65038
22.21301252558385,65038
24.67771459727237,21741
27.141735304626195,5208
29.605074844762612,3390
32.06773341487792,2983
34.52971121224755,2756
36.99100843422559,2878
39.45162527824516,3207
41.91156194181792,2366
44.370818622535126,1717
46.82939551806646,1628
49.287292826160524,1577
51.74451074464503,2097
54.201049471426245,2047
56.65690920448981,1926
59.112090141899785,1485
61.56659248179983,1405
64.02041642241159,1177
66.4735621620365,1107
68.92602989905402,1146
71.37781983192338,1235
73.82893215918205,1450
76.27936707944684,1604
78.72912479141326,1647
81.17820549385567,1449
83.62660938562783,1280
86.07433666566146,1442
88.5213875329681,1303
90.96776218663751,1084
93.41346082583925,1047
95.85848364982041,1078
98.30283085790859,1222
100.7465026495089,1425
103.18949922410604,1350
105.63182078126385,1185
108.07346752062438,1096
110.51443964190923,1177
112.95473734491827,1122
115.39436082953114,1035
117.83331029570547,1258
120.27158594347827,1259
122.7091879729652,1204
125.1461165843615,1178
127.58237197794062,1147
130.01795435405518,1092
132.4528639131364,1077
134.88710085569494,1211
137.32066538231982,1151
139.75355769367923,1044
142.1857779905207,967
144.61732647366978,893
147.04820334403132,978
149.47840880258934,1037
151.90794305040674,1093
154.33680628862487,1246
156.76499871846443,1409
159.19252054122433,1632
161.61937195828352,1868
164.04555317109896,2117
166.47106438120693,2425
168.89590579022217,2638
171.320077599839,2832
173.7435800118302,3094
176.16641322804742,3264
178.58857745042144,3518
181.01007288096173,3587
183.43089972175687,3618
185.85105817497413,3670
188.27054844285988,3661
190.6893707277394,3648
193.10752523201643,3712
195.5250121581745,3869
197.9418317087751,3995
200.3579840864594,4032
202.7734694939469,4011
205.18828813403627,4106
207.6024402096051,4309
210.01592592360964,4228
212.42874547908548,4074
214.84089907914665,4162
217.2523869269868,4031
219.66320922587727,4146
222.0733661791695,4226
224.48285799029293,4089
226.8916848627572,4087
229.29984700014882,4036
231.7073446061355,4234
234.11417788446204,4146
236.520347038953,4092
238.92585227351185,4120
241.33069379212054,4203
243.73487179884035,4173
246.1383864978112,3987
248.541238093252,4193
250.9434267894609,4144
253.34495279081432,4271
255.74581630176783,4206
258.1460175268563,4182
260.54555667069314,4163
262.9444339379703,4134
265.3426495334594,4154
267.7402036620107,4150
270.1370965285529,4113
272.53332833809407,4136
274.9288992957214,4016
277.32380960660055,3921
279.718059475976,3892
282.1116491091717,3843
284.5045787115897,4004
286.89684848871195,4057
289.2884586460981,3958
291.67940938938807,4043
294.0697009242996,4057
296.4593334566299,3987
298.84830719225477,3981
301.23662233712923,3985
303.6242790972866,3922
306.01127767884,3846
308.39761828798066,3833
310.78330113097934,3833
313.16832641418534,3766
315.5526943440269,3804
317.9364051270112,3610
320.3194589697242,3755
322.70185607883093,3764
325.0835966610754,3722
327.4646809232805,3730
329.8451090723478,3637
332.2248813152577,3604
334.6039978590701,3620
336.9824589109231,3642
339.36026467803447,3590
341.7374153677,3467
344.113911187295,3567
346.48975234427337,3640
348.8649390461686,3519
351.2394715005918,3577
353.61334991523415,3522
355.9865744978655,3507
358.35914545633375,3497
360.73106299856715,3541
363.10232733257146,3540
365.47293866643247,3534
367.84289720831396,3523
370.2122031664593,3485
372.5808567491905,3473
374.9488581649083,3365
377.31620762209275,3423
379.6829053293021,3440
382.0489514951745,3499
384.4143463284262,3434
386.7790900378528,3329
389.14318283232853,3406
391.50662492080653,3347
393.86941651231916,3411
396.23155781597745,3401
398.5930490409713,3460
400.9538903965696,3403
403.3140820921202,3331
405.6736243370498,3294
408.03251734086336,3280
410.3907613131465,3275
412.74835646356166,3349
415.10530300185144,3402
417.4616011378372,3352
419.81725108141893,3356
422.1722530425758,3474
424.5266072313656,3371
426.880313857925,3287
429.2333731324701,3418
431.58578526529516,3367
433.9375504667738,3313
436.2886689473588,3245
438.63914091758113,3230
440.9889665880513,3273
443.33814616945835,3260
445.68667987257015,3290
448.03456790823395,3300
450.3818104873759,3221
452.72840782100013,3215
455.07436012019105,3193
457.41966759611057,3165
459.7643304600007,3204
462.10834892318155,3341
464.4517231970525,3203
466.79445349309174,3253
469.1365400228566,3290
471.4779829979826,3299
473.81878263018564,3287
476.15893913125876,3285
478.4984527130747,3274
480.8373235875855,3356
483.17555196682144,3423
485.5131380628919,3438
487.8500820879857,3482
490.1863842543697,3675
492.52204477439034,3780
494.8570638604725,4067
497.1914417251204,4444
499.52517858091653,4599
501.85827464052306,4865
504.19073011668036,4967
506.5225452222086,4603
508.85372017000566,4657
511.18425517304956,4549
513.514150444396,4690
515.8434061971808,5109
518.1720226446176,5945
520.4999999999999,6090
522.8273384766991,5948
525.1540382881666,5618
527.480099647932,5192
529.8055227696037,4608
532.1303078668694,4067
534.454455153496,3735
536.777964843328,3552
539.1008371502907,3584
541.4230722883866,3427
543.744670471698,3353
546.0656319143858,3434
548.3859568306899,3381
550.7056454349294,3396
553.0246979415016,3279
555.3431145648834,3377
557.6608955196306,3341
559.978041020377,3307
562.2945512818363,3288
564.6104265188006,3471
566.9256669461412,3452
569.2402727788082,3422
571.5542442318302,3416
573.8675815203156,3402
576.1802848594508,3450
578.4923544645015,3517
580.8037905508126,3518
583.114593333807,3399
585.4247630289875,3492
587.7342998519354,3469
590.0432040183106,3530
592.3514757438526,3443
594.6591152443794,3476
596.9661227357875,3454
599.2724984340531,3416
601.578242555231,3423
603.8833553154542,3362
606.1878369309362,3445
608.4916876179676,3465
610.7949075929192,3472
613.0974970722403,3432
615.3994562724587,3472
617.7007854101818,3400
620.0014847020951,3418
622.3015543649641,3404
624.6009946156324,3436
626.8998056710224,3421
629.1979877481361,3452
631.4955410640538,3434
633.7924658359349,3418
636.0887622810175,3424
638.3844306166192,3484
640.6794710601358,3385
642.9738838290426,3416
645.2676691408932,3455
647.5608272133207,3373
649.853358264037,3484
652.1452625108324,3390
654.4365401715764,3418
656.7271914642178,3340
659.0172166067838,3362
661.3066158173809,3354
663.5953893141935,3291
665.8835373154867,3382
668.1710600396028,3462
670.4579577049639,3424
672.7442305300709,3444
675.0298787335033,3357
677.3149025339197,3378
679.599302150058,3352
681.8830778007342,3403
684.1662297048437,3341
686.4487580813608,3421
688.7306631493387,3427
691.0119451279091,3372
693.2926042362834,3410
695.5726406937516,3438
697.8520547196814,3485
700.1308465335215,3361
702.4090163547982,3421
704.6865644031171,3433
706.9634908981619,3302
709.2397960596965,3314
711.5154801075631,3319
713.7905432616823,3343
716.0649857420548,3359
718.3388077687592,3418
720.612009561953,3338
722.8845913418733,3350
725.1565533288352,3254
727.427895743234,3344
729.6986188055427,3347
731.9687227363137,3351
734.238207756178,3411
736.5070740858458,3391
738.7753219461066,3356
741.0429515578281,3415
743.3099631419569,3375
745.5763569195191,3420
747.8421331116193,3315
750.1072919394409,3391
752.3718336242467,3366
754.6357583873777,3407
756.8990664502545,3246
759.1617580343765,3294
761.423833361321,3348
763.6852926527457,3308
765.9461361303862,3324
768.206364016058,3386
770.4659765316536,3402
772.7249738991469,3419
774.9833563405886,3443
777.2411240781092,3471
779.4982773339183,3365
781.7548163303044,3414
784.010741289634,3434
786.2660524343538,3511
788.5207499869881,3309
790.7748341701416,3429
793.0283052064964,3399
795.2811633188143,3403
797.5334087299362,3409
799.7850416627813,3378
802.0360623403484,3430
804.2864709857143,3427
806.5362678220353,3379
808.7854530725468,3405
811.0340269605625,3392
813.2819897094754,3308
815.5293415427581,3507
817.77608268396,3369
820.0222133567116,3426
822.2677337847211,3451
824.5126441917765,3284
826.7569448017433,3355
829.0006358385675,3415
831.2437175262731,3368
833.4861900889629,3326
835.7280537508192,3447
837.9693087361026,3455
840.2099552691533,3402
842.4499935743896,3403
844.689423876309,3361
846.9282463994886,3355
849.1664613685833,3344
851.4040690083276,3305
853.6410695435349,3418
855.877463199097,3302
858.1132501999847,3351
860.3484307712487,3456
862.5830051380175,3449
864.8169735254988,3467
867.0503361589791,3451
869.2830932638243,3489
871.5152450654786,3387
873.7467917894654,3407
875.9777336613873,3364
878.2080709069252,3392
880.4378037518389,3463
882.666932421968,3414
884.8954571432301,3361
887.1233781416219,3482
889.3506956432192,3529
891.5774098741766,3483
893.803521060728,3410
896.0290294291852,3570
898.2539352059397,3550
900.4782386174619,3428
902.7019398903011,3388
904.925039251085,3489
907.147536926521,3455
909.3694331433943,3398
911.59072812857,3361
913.8114221089921,3329
916.0315153116827,3459
918.2510079637437,3367
920.4699002923547,3394
922.6881925247761,3403
924.905884888345,3289
927.1229776104793,3298
929.3394709186747,3313
931.555365040506,3453
933.7706602036275,3351
935.9853566357709,3331
938.1994545647489,3340
940.4129542184515,3276
942.6258558248488,3327
944.8381596119883,3323
947.0498658079974,3382
949.2609746410825,3342
951.4714863395287,3268
953.6814011316998,3251
955.8907192460387,3318
958.0994409110671,3292
960.3075663553858,3274
962.5150958076741,3245
964.7220294966913,3328
966.928367651274,3295
969.1341105003388,3259
971.3392582728806,3190
973.5438111979742,3253
975.747769504772,3271
977.9511334225061,3315
980.153903180487,3238
982.3560790081052,3108
984.5576611348289,3267
986.7586497902058,3255
988.9590452038618,3276
991.158847605503,3225
993.3580572249133,3180
995.5566742919558,3183
997.7546990365728,3083
999.952131688785,3019
1002.1489724786926,3127
1004.3452216364743,3076
1006.5408793923874,3038
1008.7359459767691,3034
1010.9304216200343,3040
1013.1243065526781,3089
1015.3176010052733,2972
1017.510305208472,3042
1019.7024193930064,3038
1021.8939437896848,2914
1024.0848786293977,2937
1026.2752241431122,2954
1028.4649805618747,3042
1030.6541481168115,2911
1032.842727039127,2919
1035.0307175601051,2985
1037.2181199111074,2986
1039.4049343235752,2997
1041.591161029029,3022
1043.7768002590683,2993
1045.9618522453698,2897
1048.1463172196918,2937
1050.3301954138697,2950
1052.513487059818,3026
1054.69619238953,3035
1056.8783116350783,3011
1059.0598450286152,2908
1061.2407928023704,3031
1063.4211551886528,2965
1065.6009324198508,3011
1067.780124728432,2940
1069.9587323469414,2902
1072.1367555080046,2986
1074.314194444325,2957
1076.4910493886855,2932
1078.667320573947,2953
1080.843008233051,2968
1083.0181125990161,2927
1085.1926339049414,2856
1087.3665723840027,2854
1089.5399282694575,2825
1091.7127017946405,2913
1093.8848931929647,2865
1096.0565026979243,2885
1098.2275305430899,2801
1100.3979769621128,2813
1102.567842188722,2828
1104.737126456726,2861
1106.9058300000124,2882
1109.0739530525475,2905
1111.2414958483764,2859
1113.4084586216231,2876
1115.5748416064907,2848
1117.7406450372605,2799
1119.9058691482942,2892
1122.0705141740304,2916
1124.2345803489884,2837
1126.3980679077658,2831
1128.5609770850388,2833
1130.7233081155623,2807
1132.8850612341707,2837
1135.0462366757774,2824
1137.2068346753745,2887
1139.3668554680326,2713
1141.526299288901,2818
1143.68516637321,2804
1145.8434569562655,2818
1148.001171273455,2842
1150.158309560244,2793
1152.3148720521767,2841
1154.470858984876,2796
1156.626270594044,2809
1158.7811071154629,2824
1160.9353687849912,2817
1163.089055838569,2864
1165.242168512213,2764
1167.3947070420209,2775
1169.5466716641677,2759
1171.6980626149075,2851
1173.8488801305748,2727
1175.9991244475814,2817
1178.1487958024186,2744
1180.2978944316555,2738
1182.4464205719428,2805
1184.5943744600072,2781
1186.7417563326567,2791
1188.8885664267755,2821
1191.0348049793297,2780
1193.1804722273619,2833
1195.325568407995,2760
1197.4700937584303,2763
1199.614048515948,2869
1201.7574329179074,2792
1203.900247201746,2750
1206.042491604982,2884
1208.1841663652099,2804
1210.3252717201053,2800
1212.465807907422,2849
1214.6057751649923,2924
1216.7451737307279,2854
1218.8840038426192,2802
1221.0222657387353,2867
1223.1599596572241,2770
1225.2970858363137,2815
1227.4336445143094,2814
1229.5696359295966,2837
1231.705060320639,2881
1233.8399179259786,2896
1235.9742089842384,2825
1238.107933734118,2808
1240.2410924143974,2855
1242.373685263935,2824
1244.5057125216676,2854
1246.6371744266116,2815
1248.7680712178621,2906
1250.898403134593,2916
1253.028170416058,2866
1255.1573733015875,2845
1257.2860120305932,2977
1259.4140868425648,2840
1261.54159797707,2824
1263.6685456737569,2873
1265.7949301723515,2855
1267.9207517126597,2939
1270.046010534565,2915
1272.1707068780306,2966
1274.2948409830983,2841
1276.4184130898889,2887
1278.541423438603,2877
1280.6638722695184,2939
1282.785759822993,2939
1284.9070863394636,2920
1287.0278520594447,2926
1289.1480572235314,2994
1291.2677020723963,2920
1293.3867868467923,2960
1295.5053117875495,3050
1297.623277135579,2974
1299.740683131868,2949
1301.8575300174857,2969
1303.973818033578,3043
1306.0895474213703,2988
1308.2047184221678,3092
1310.3193312773528,3004
1312.4333862283888,2968
1314.5468835168163,3058
1316.659823384255,2974
1318.7722060724045,3008
1320.8840318230418,2959
1322.9953008780249,3026
1325.1060134792888,3026
1327.2161698688478,2946
1329.3257702887959,3088
1331.4348149813054,3076
1333.5433041886276,2979
1335.6512381530933,2979
1337.7586171171101,2909
1339.8654413231675,3001
1341.9717110138317,2992
1344.0774264317488,2976
1346.1825878196432,3018
1348.2871954203192,2978
1350.3912494766587,2928
1352.4947502316231,2864
1354.5976979282532,2978
1356.7000928096686,2974
1358.8019351190665,2971
1360.9032250997243,3045
1363.0039629949988,2975
1365.1041490483235,2975
1367.2037835032133,2933
1369.3028666032606,2970
1371.401398592137,2894
1373.4993797135926,3002
1375.5968102114575,3045
1377.6936903296396,3078
1379.7900203121262,3014
1381.8858004029835,2958
1383.9810308463561,2974
1386.075711886469,3012
1388.1698437676241,2912
1390.2634267342032,2988
1392.356461030667,2984
1394.4489469015557,3006
1396.5408845914872,2954
1398.6322743451592,3074
1400.7231164073469,3067
1402.813411022907,3025
1404.903158436773,3011
1406.9923588939578,2962
1409.0810126395531,3079
1411.1691199187303,3066
1413.2566809767386,3123
1415.343696058907,3102
1417.4301654106425,3093
1419.5160892774315,3088
1421.6014679048399,3098
1423.6863015385125,3071
1425.7705904241707,3183
1427.8543348076178,2963
1429.9375349347342,3099
1432.0201910514802,3076
1434.102303403894,3203
1436.1838722380944,3142
1438.2648978002767,3164
1440.3453803367174,3187
1442.4253200937692,3087
1444.5047173178677,3201
1446.5835722555234,3258
1448.6618851533285,3220
1450.739656257952,3154
1452.8168858161434,3216
1454.8935740747306,3293
1456.96972128062,3395
1459.045327680797,3382
1461.120393522327,3289
1463.1949190523528,3288
1465.2689045180973,3361
1467.3423501668608,3468
1469.415256246024,3393
1471.4876230030463,3471
1473.559450685465,3414
1475.6307395408976,3469
1477.7014898170391,3536
1479.771701761665,3604
1481.8413756226287,3626
1483.9105116478618,3503
1485.9791100853772,3532
1488.0471711832643,3678
1490.1146951896926,3677
1492.1816823529098,3723
1494.2481329212433,3761
1496.3140471430984,3809
1498.3794252669609,3823
1500.4442675413939,3826
1502.5085742150404,3718
1504.572345536622,3789
1506.6355817549388,3926
1508.6982831188702,3907
1510.7604498773744,3889
1512.8220822794883,3939
1514.8831805743293,4016
1516.9437450110909,4047
1519.003775839048,4037
1521.0632733075522,4115
1523.1222376660367,4176
1525.1806691640113,4242
1527.2385680510652,4177
1529.2959345768668,4296
1531.3527689911643,4350
1533.4090715437833,4312
1535.4648424846291,4310
1537.5200820636855,4461
1539.5747905310159,4514
1541.6289681367616,4623
1543.6826151311434,4532
1545.7357317644614,4452
1547.7883182870937,4667
1549.8403749494987,4743
1551.8919020022113,4746
1553.9428996958477,4961
1555.9933682811015,4920
1558.0433080087469,5001
1560.0927191296346,5167
1562.1416018946961,5055
1564.1899565549415,5175
1566.2377833614592,5179
1568.2850825654164,5085
1570.3318544180606,4936
1572.3780991707158,4962
1574.423817074788,4811
1576.4690083817595,4598
1578.5136733431923,4509
1580.5578122107272,4383
1582.601425236085,4259
1584.6445126710646,4196
1586.6870747675434,3985
1588.7291117774776,3761
1590.7706239529034,3715
1592.8116115459347,3647
1594.8520748087658,3566
1596.8920139936686,3516
1598.9314293529933,3523
1600.9703211391711,3412
1603.008689604711,3436
1605.0465350022005,3384
1607.0838575843068,3364
1609.1206576037753,3337
1611.1569353134305,3301
1613.1926909661765,3241
1615.2279248149953,3181
1617.2626371129481,3316
1619.2968281131757,3149
1621.3304980688963,3189
1623.3636472334088,3161
1625.39627586009,3086
1627.428384202396,3089
1629.459972513861,3055
1631.4910410480993,2969
1633.5215900588028,3081
1635.551619799744,3028
1637.5811305247717,3063
1639.6101224878166,2936
1641.6385959428862,3044
1643.6665511440683,3024
1645.693988345528,3106
1647.7209078015112,3060
1649.7473097663405,3019
1651.7731944944203,2966
1653.7985622402307,2979
1655.823413258333,3095
1657.847747803366,2999
1659.8715661300494,3036
1661.8948684931793,2957
1663.9176551476316,2940
1665.9399263483624,3018
1667.9616823504057,2977
1669.982923408873,3025
1672.0036497789574,2978
1674.0238617159293,2918
1676.043559475138,3038
1678.0627433120121,3001
1680.081413482059,2920
1682.0995702408654,2925
1684.117213844096,2918
1686.134344547495,2989
1688.1509626068864,2821
1690.1670682781705,2922
1692.182661817329,3012
1694.1977434804217,3109
1696.2123135235875,2850
1698.226372203043,2996
1700.2399197750851,2982
1702.2529564960905,2998
1704.2654826225112,2979
1706.277498410882,3041
1708.2890041178139,3052
1710.2999999999988,2998
1712.3104863142066,2976
1714.3204633172854,2875
1716.329931266163,2893
1718.3388904178469,2915
1720.3473410294214,2962
1722.3552833580516,2815
1724.3627176609807,2965
1726.3696441955308,3035
1728.3760632191033,2967
1730.3819749891782,2906
1732.3873797633146,2922
1734.3922777991502,2872
1736.3966693544012,2910
1738.4005546868639,2946
1740.4039340544127,2918
1742.406807715001,2954
1744.4091759266616,2904
1746.4110389475054,2907
1748.4123970357223,2869
1750.413250449582,2867
1752.4135994474318,2950
1754.4134442876993,2850
1756.4127852288902,2850
1758.4116225295893,2931
1760.4099564484595,2889
1762.407787244244,2895
1764.405115175764,2911
1766.4019405019203,2929
1768.3982634816916,2864
1770.3940843741357,2932
1772.3894034383907,2892
1774.3842209336717,2756
1776.378537119274,2878
1778.372352254571,2832
1780.3656665990156,2908
1782.3584804121397,2816
1784.3507939535534,2903
1786.3426074829463,2997
1788.3339212600863,2985
1790.3247355448211,2865
1792.3150505970766,2979
1794.3048666768573,2794
1796.2941840442477,2920
1798.2830029594106,2860
1800.2713236825884,2844
1802.2591464741004,2876
1804.2464715943465,2930
1806.2332993038058,2894
1808.2196298630352,2865
1810.2054635326708,2883
1812.190800573428,2906
1814.175641246101,2923
1816.1599858115628,2835
1818.1438345307652,2909
1820.127187664738,2803
1822.1100454745924,2835
1824.092408221516,2868
1826.0742761667766,2888
1828.055649571721,2844
1830.0365286977735,2816
1832.0169138064398,2889
1833.9968051593014,2772
1835.9762030180214,2903
1837.9551076443408,2882
1839.9335193000788,2844
1841.9114382471344,2829
1843.888864747485,2810
1845.8657990631878,2797
1847.842241456378,2919
1849.8181921892697,2836
1851.7936515241558,2819
1853.7686197234098,2833
1855.7430970494815,2852
1857.7170837649014,2879
1859.6905801322787,2805
1861.6635864143004,2883
1863.6361028737338,2905
1865.608129773424,2888
1867.5796673762961,2786
1869.5507159453537,2876
1871.521275743678,2914
1873.4913470344313,2910
1875.4609300808534,2903
1877.4300251462632,2809
1879.3986324940588,2812
1881.366752387717,2762
1883.3343850907936,2924
1885.3015308669228,2861
1887.268189979819,2907
1889.2343626932739,2817
1891.2000492711595,2830
1893.1652499774254,2879
1895.1299650761011,2827
1897.0941948312952,2915
1899.0579395071945,2854
1901.0211993680641,2906
1902.98397467825,2888
1904.9462657021745,2834
1906.9080727043415,2866
1908.869395949332,2899
1910.8302357018065,2838
1912.790592226504,2869
1914.7504657882428,2838
1916.7098566519212,2846
1918.6687650825133,2820
1920.6271913450764,2800
1922.5851357047422,2754
1924.5425984267245,2887
1926.499579776314,2927
1928.4560800188833,2787
1930.4120994198802,2834
1932.367638244833,2850
1934.32269675935,2850
1936.2772752291175,2831
1938.231373919899,2843
1940.1849930975404,2836
1942.1381330279637,2847
1944.0907939771696,2929
1946.0429762112412,2871
1947.9946799963363,2836
1949.9459055986945,2784
1951.896653284633,2762
1953.8469233205478,2883
1955.7967159729142,2947
1957.7460315082863,2881
1959.6948701932974,2800
1961.6432322946594,2826
1963.5911180791632,2836
1965.5385278136787,2766
1967.4854617651545,2784
1969.4319202006182,2857
1971.377903387176,2850
1973.3234115920136,2873
1975.268445082395,2891
1977.2130041256642,2826
1979.1570889892423,2737
1981.1006999406304,2792
1983.04383724741,2761
1984.986501177238,2873
1986.928691997853,2842
1988.8704099770712,2865
1990.811655382789,2861
1992.7524284829801,2865
1994.692729545698,2753
1996.6325588390755,2821
1998.5719166313224,2873
2000.5108031907307,2789
2002.4492187856677,2885
2004.387163684583,2866
2006.3246381560011,2764
2008.2616424685298,2796
2010.1981768908527,2795
2012.1342416917332,2806
2014.069837140014,2846
2016.0049635046162,2780
2017.9396210545406,2731
2019.8738100588666,2786
2021.8075307867502,2799
2023.740783507431,2844
2025.6735684902228,2755
2027.6058860045214,2737
2029.5377363198004,2780
2031.4691197056118,2720
2033.4000364315875,2752
2035.3304867674374,2782
2037.260470982952,2743
2039.189989347998,2790
2041.1190421325232,2739
2043.047629606554,2807
2044.9757520401945,2774
2046.9034097036288,2754
2048.8306028671195,2828
2050.7573318010086,2821
2052.683596775716,2800
2054.609398061742,2765
2056.5347359296647,2701
2058.4596106501403,2722
2060.384022493906,2767
2062.3079717317764,2800
2064.231458634646,2806
2066.1544834734873,2748
2068.077046519352,2751
2069.99914804337,2694
2071.9207883167524,2771
2073.8419676107865,2810
2075.7626861968406,2737
2077.6829443463607,2726
2079.6027423308715,2759
2081.522080421977,2685
2083.440958891362,2808
2085.359378010786,2699
2087.2773380520907,2735
2089.194839287196,2755
2091.111881988101,2802
2093.0284664268825,2798
2094.9445928756973,2730
2096.86026160678,2708
2098.775472892446,2802
2100.690227005088,2773
2102.604524217178,2845
2104.5183648012676,2818
2106.431749029985,2814
2108.34467717604,2774
2110.2571495122206,2785
2112.169166311393,2821
2114.080727846503,2689
2115.9918343905747,2840
2117.902486216711,2773
2119.8126835980956,2761
2121.722426807987,2747
2123.6317161197285,2822
2125.5405518067364,2819
2127.448934142509,2787
2129.356863400624,2823
2131.264339854737,2792
2133.1713637785815,2782
2135.077935445972,2816
2136.9840551308002,2781
2138.889723107037,2881
2140.7949396487334,2858
2142.699705030018,2898
2144.6040195250994,2819
2146.507883408264,2904
2148.4112969538774,2809
2150.3142604363848,2871
2152.2167741303097,2941
2154.1188383102535,2802
2156.0204532508997,2971
2157.9216192270064,2874
2159.822336513414,2932
2161.7226053850413,2862
2163.622426116884,2805
2165.5217989840185,2842
2167.4207242616,2917
2169.319202224862,2944
2171.2172331491165,2830
2173.1148173097563,2884
2175.0119549822507,2868
2176.90864644215,2877
2178.8048919650823,2881
2180.7006918267534,2931
2182.596046302952,2957
2184.4909556695407,2797
2186.3854202024645,2873
2188.279440177746,2823
2190.173015871487,2895
2192.066147559868,2893
2193.958835519149,2942
2195.851080025667,2879
2197.7428813558417,2875
2199.6342397861667,3008
2201.5251555932186,2876
2203.415629053651,2922
2205.3056604441986,2870
2207.19525004167,2891
2209.084398122958,2897
2210.9731049650327,2964
2212.861370844941,2994
2214.749196039812,2947
2216.636580826851,2963
2218.523525483344,2945
2220.410030286655,2952
2222.296095514226,2932
2224.1817214435805,2880
2226.066908352319,2899
2227.951656518121,2855
2229.835966218746,2930
2231.71983773203,2994
2233.6032713358913,3009
2235.486267308324,2998
2237.3688259274036,2884
2239.2509474712824,2885
2241.132632218193,2921
2243.013880446447,2878
2244.8946924344323,2887
2246.7750684606203,2911
2248.6550088035574,2844
2250.534513741871,2852
2252.413583554265,2915
2254.292218519526,2855
2256.170418916517,2839
2258.0481850241786,2872
2259.925517121534,2897
2261.8024154876825,2857
2263.678880401803,2835
2265.5549121431536,2855
2267.430510991071,2899
2269.305677224971,2889
2271.180411124348,2931
2273.0547129687766,2888
2274.9285830379076,2835
2276.8020216114737,2856
2278.6750289692845,2786
2280.5476053912294,2924
2282.4197511572766,2879
2284.2914665474727,2858
2286.162751841943,2893
2288.0336073208937,2827
2289.904033264608,2880
2291.774029953448,2871
2293.6435976678554,2834
2295.5127366883517,2813
2297.381447295534,2834
2299.2497297700825,2817
2301.1175843927526,2781
2302.9850114443825,2711
2304.852011205885,2769
2306.7185839582553,2690
2308.5847299825664,2661
2310.4504495599676,2685
2312.3157429716925,2639
2314.1806104990483,2622
2316.0450524234247,2553
2317.9090690262888,2575
2319.772660589186,2637
2321.635827393742,2667
2323.498569721661,2613
2325.3608878547248,2551
2327.2227820747967,2544
2329.0842526638157,2596
2330.945299903803,2564
2332.805924076857,2583
2334.6661254651535,2580
2336.525904350951,2671
2338.3852610165827,2622
2340.244195744464,2538
2342.102708817088,2578
2343.9608005170253,2609
2345.8184711269287,2628
2347.675720929526,2605
2349.532550207628,2615
2351.38895924412,2662
2353.24494832197,2550
2355.100517724223,2623
2356.955667734004,2605
2358.810398634514,2580
2360.664710709037,2573
2362.5186042409337,2704
2364.3720795136437,2644
2366.225136810686,2616
2368.0777764156583,2620
2369.929998612237,2545
2371.7818036841777,2604
2373.633191915315,2599
2375.484163589562,2676
2377.3347189909114,2557
2379.184858403434,2635
2381.03458211128,2568
2382.8838903986775,2657
2384.732783549936,2666
2386.5812618494406,2609
2388.4293255816588,2622
2390.2769750311327,2586
2392.1242104824883,2610
2393.971032220427,2650
2395.8174405297295,2601
2397.6634356952563,2568
2399.509018001947,2628
2401.3541877348193,2627
2403.1989451789705,2640
2405.043290619576,2615
2406.8872243418905,2669
2408.730746631247,2634
2410.5738577730594,2734
2412.4165580528183,2561
2414.258847756095,2651
2416.100727168537,2657
2417.9421965758734,2607
2419.783256263912,2630
2421.623906518538,2541
2423.4641476257157,2618
2425.303979871491,2668
2427.143403541984,2598
2428.9824189233977,2598
2430.821026302012,2583
2432.6592259641866,2611
2434.497018196361,2597
2436.33440328505,2601
2438.171381516851,2566
2440.00795317844,2576
2441.844118556569,2645
2443.6798779380724,2567
2445.5152316098606,2611
2447.3501798589255,2585
2449.1847229723357,2637
2451.0188612372403,2579
2452.8525949408663,2550
2454.6859243705203,2622
2456.518849813587,2623
2458.3513715575314,2646
2460.183489889895,2587
2462.015205098301,2578
2463.8465174704493,2608
2465.67742729412,2579
2467.5079348571717,2558
2469.338040447542,2593
2471.1677443532476,2632
2472.9970468623833,2594
2474.825948263123,2628
2476.6544488437207,2581
2478.482548892508,2628
2480.310248697896,2568
2482.137548548374,2613
2483.9644487325118,2565
2485.790949538956,2646
2487.617051256433,2641
2489.44275417375,2647
2491.26805857979,2601
2493.0929647635157,2703
2494.917473013971,2622
2496.741583620276,2607
2498.5652968716304,2589
2500.3886130573137,2754
2502.2115324666834,2668
2504.0340553891765,2616
2505.856182114308,2671
2507.6779129316733,2697
2509.499248130945,2613
2511.3201880018764,2654
2513.140732834298,2670
2514.9608829181198,2653
2516.780638543331,2653
2518.6,2633
2520.418967578273,2562
2522.237541568376,2681
2524.0557222606144,2620
2525.8735099453706,2617
2527.6909049131086,2662
2529.507907454368,2635
2531.32451785977,2589
2533.140736420014,2683
2534.9565634258774,2690
2536.771999168218,2741
2538.5870439379714,2698
2540.4016980261526,2647
2542.2159617238544,2755
2544.02983532225,2655
2545.8433191125914,2699
2547.656413386209,2657
2549.4691184345115,2770
2551.2814345489874,2719
2553.093362021204,2750
2554.904901142808,2733
2556.716052205523,2692
2558.526815501153,2608
2560.3371913215824,2680
2562.147179958771,2696
2563.956781704761,2726
2565.7659968516705,2702
2567.5748256916986,2774
2569.3832685171224,2741
2571.1913256202984,2791
2572.9989972936614,2745
2574.806283829725,2767
2576.613185521084,2732
2578.4197026604074,2763
2580.2258355404483,2774
2582.031584454035,2748
2583.836949694077,2707
2585.6419315535613,2838
2587.4465303255533,2813
2589.2507463032002,2892
2591.0545797797245,2825
2592.8580310484303,2795
2594.6611004026995,2831
2596.463788135992,2953
2598.266094541849,2901
2600.0680199138874,2785
2601.869564545807,2880
2603.670728731383,2866
2605.4715127644704,2830
2607.2719169390048,2823
2609.071941548998,2935
2610.8715868885433,2870
2612.670853251811,2939
2614.469740933052,2936
2616.268250226594,2862
2618.0663814268455,2926
2619.864134828292,2765
2621.6615107255006,2872
2623.458509413115,2869
2625.2551311858597,2810
2627.0513763385347,2842
2628.8472451660223,2816
2630.6427379632833,2871
2632.4378550253564,2788
2634.232596647359,2840
2636.026963124488,2761
2637.8209547520187,2735
2639.6145718253065,2748
2641.407814639785,2770
2643.200683490966,2856
2644.9931786744414,2751
2646.7853004858807,2737
2648.577049221034,2710
2650.3684251757277,2753
2652.1594286458712,2697
2653.9500599274484,2820
2655.740319316525,2674
2657.5302071092437,2561
2659.3197236018286,2778
2661.10886909058,2756
2662.8976438718782,2712
2664.686048242183,2710
2666.4740824980327,2676
2668.2617469360443,2644
2670.0490418529134,2647
2671.8359675454153,2681
2673.622524310403,2679
2675.408712444811,2640
2677.1945322456495,2623
2678.979984010009,2545
2680.76506803506,2549
2682.5497846180497,2620
2684.334134056306,2569
2686.1181166472343,2538
2687.9017326883213,2504
2689.6849824771293,2538
2691.4678663113013,2562
2693.2503844885596,2539
2695.032537306705,2495
2696.8143250636167,2564
2698.5957480572542,2506
2700.3768065856534,2566
2702.1575009469316,2595
2703.937831439283,2521
2705.717798360982,2556
2707.4974020103837,2527
2709.276642685917,2513
2711.055520686095,2569
2712.834036309506,2460
2714.612189854819,2637
2716.389981620782,2472
2718.1674119062204,2514
2719.944481010041,2517
2721.721189231226,2436
2723.4975368688415,2454
2725.273524222027,2537
2727.0491515900053,2477
2728.824419272075,2370
2730.5993275676146,2452
2732.3738767760838,2467
2734.148067197016,2497
2735.921899130031,2436
2737.6953728748194,2529
2739.468488731156,2537
2741.2412469988926,2475
2743.0136479779617,2474
2744.785691968372,2449
2746.5573792702116,2457
2748.3287101836504,2442
2750.099685008934,2468
2751.870304046388,2481
2753.640567596418,2462
2755.4104759595057,2403
2757.1800294362156,2429
2758.949228327187,2394
2760.7180729331412,2459
2762.486563554877,2497
2764.254700493272,2453
2766.022484049284,2401
2767.789914523947,2549
2769.5569922183786,2519
2771.3237174337705,2475
2773.090090471394,2514
2774.8561116326036,2402
2776.6217812188274,2531
2778.3870995315756,2445
2780.1520668724356,2435
2781.9166835430747,2354
2783.6809498452394,2416
2785.444866080754,2456
2787.2084325515225,2446
2788.971649559527,2470
2790.73451740683,2422
2792.4970363955713,2469
2794.2592068279705,2408
2796.0210290063264,2472
2797.7825032330147,2476
2799.543629810493,2367
2801.304409041296,2435
2803.0648412280366,2476
2804.8249266734088,2500
2806.5846656801846,2515
2808.344058551212,2372
2810.1031055894246,2431
2811.8618070978273,2476
2813.6201633795085,2427
2815.378174737636,2475
2817.1358414754536,2464
2818.893163896285,2489
2820.6501423035334,2411
2822.4067770006814,2443
2824.1630682912883,2430
2825.9190164789957,2417
2827.6746218675207,2453
2829.429884760661,2361
2831.184805462294,2458
2832.9393842763743,2430
2834.693621506936,2491
2836.4475174580916,2433
2838.201072434034,2413
2839.954286739034,2461
2841.707160677441,2443
2843.459694553685,2463
2845.2118886722724,2435
2846.96374333779,2450
2848.7152588549034,2489
2850.4664355283567,2534
2852.217273662973,2401
2853.9677735636546,2457
2855.7179355353833,2484
2857.4677598832186,2421
2859.217246912299,2390
2860.9663969278427,2399
2862.715210235146,2484
2864.4636871395846,2359
2866.211827946614,2433
2867.9596329617652,2434
2869.7071024906536,2441
2871.4542368389684,2381
2873.20103631248,2393
2874.947501217038,2495
2876.6936318585695,2394
2878.4394285430812,2458
2880.1848915766604,2492
2881.9300212654707,2384
2883.6748179157553,2477
2885.4192818338374,2424
2887.1634133261173,2377
2888.907212699077,2429
2890.6506802592744,2410
2892.393816313348,2421
2894.1366211680142,2375
2895.8790951300693,2419
2897.621238506388,2317
2899.363051603925,2394
2901.1045347297118,2347
2902.8456881908596,2393
2904.58651229456,2429
2906.327007348081,2444
2908.067173658772,2470
2909.8070115340597,2389
2911.5465212814497,2405
2913.285703208527,2428
2915.0245576229563,2405
2916.7630848324807,2336
2918.5012851449196,2402
2920.2391588681758,2360
2921.976706310227,2360
2923.7139277791334,2360
2925.4508235830313,2387
2927.187394030137,2397
2928.923639428745,2334
2930.6595600872306,2409
2932.395156314046,2389
2934.1304284177218,2454
2935.8653767068713,2474
2937.6000014901815,2415
2939.3343030764227,2423
2941.068281774442,2434
2942.8019378931644,2456
2944.5352717415976,2418
2946.2682836288236,2424
2948.0009738640065,2377
2949.7333427563885,2399
2951.465390615289,2445
2953.1971177501086,2406
2954.9285244703265,2428
2956.6596110855,2460
2958.3903779052657,2373
2960.1208252393385,2378
2961.8509533975125,2366
2963.5807626896617,2412
2965.3102534257378,2362
2967.0394259157715,2438
2968.768280469873,2457
2970.496817398232,2335
2972.2250370111146,2329
2973.952939618869,2374
2975.6805255319196,2431
2977.4077950607707,2470
2979.134748516006,2405
2980.861386208289,2456
2982.587708448359,2370
2984.313715547037,2465
2986.039407815222,2474
2987.764785563891,2409
2989.489849104102,2461
2991.2145987469908,2347
2992.9390348037705,2415
2994.6631575857346,2322
2996.3869674042576,2310
2998.1104645707887,2346
2999.83364939686,2324
3001.5565221940783,2372
3003.2790832741334,2329
3005.0013329487924,2361
3006.7232715298996,2341
3008.4448993293804,2345
3010.166216659239,2416
3011.887223831558,2373
3013.607921158498,2297
3015.3283089522993,2337
3017.0483875252826,2319
3018.7681571898443,2382
3020.4876182584626,2354
3022.2067710436927,2448
3023.9256158581707,2287
3025.644153014609,2442
3027.362382825801,2410
3029.0803056046193,2366
3030.797921664012,2315
3032.5152313170106,2356
3034.2322348767225,2380
3035.9489326563353,2379
3037.665324969115,2338
3039.3814121284063,2334
3041.097194447633,2344
3042.812672240299,2345
3044.5278458199855,2330
3046.2427155003525,2333
3047.9572815951406,2394
3049.671544418167,2425
3051.38550428333,2393
3053.0991615046073,2330
3054.812516396051,2335
3056.5255692717974,2348
3058.2383204460575,2416
3059.9507702331257,2330
3061.662918947372,2391
3063.3747669032446,2330
3065.0863144152736,2395
3066.7975617980674,2426
3068.508509366309,2426
3070.219157434767,2397
3071.9295063182844,2339
3073.639556331785,2419
3075.3493077902704,2321
3077.058761008821,2408
3078.7679163025964,2397
3080.476773986837,2438
3082.1853343768594,2368
3083.89359778806,2424
3085.6015645359153,2358
3087.3092349359786,2272
3089.016609303884,2453
3090.7236879553434,2392
3092.4304712061476,2386
3094.136959372166,2373
3095.843152769349,2338
3097.5490517137237,2370
3099.2546565213966,2336
3100.959967508554,2353
3102.66498499146,2401
3104.3697092864577,2344
3106.0741407099695,2335
3107.778279578498,2406
3109.482126208622,2312
3111.1856809170004,2378
3112.8889440203716,2384
3114.5919158355528,2437
3116.294596679439,2431
3117.996986869006,2380
3119.6990867213062,2349
3121.4008965534726,2357
3123.102416682717,2366
3124.803647426329,2389
3126.5045891016784,2374
3128.205242026213,2436
3129.90560651746,2326
3131.605682893025,2399
3133.3054714705922,2372
3135.0049725679282,2391
3136.7041865028714,2417
3138.4031135933465,2413
3140.101754157353,2320
3141.800108512971,2357
3143.498176978357,2266
3145.1959598717494,2305
3146.8934575114636,2280
3148.5906702158954,2378
3150.2875983035183,2353
3151.9842420928853,2281
3153.680601902627,2254
3155.376678051456,2367
3157.07247085816,2301
3158.767980641609,2317
3160.463207720748,2343
3162.158152414606,2290
3163.8528150422862,2346
3165.5471959229726,2402
3167.2412953759303,2450
3168.9351137204976,2325
3170.628651276098,2350
3172.3219083622307,2310
3174.014885298474,2391
3175.707582404485,2410
3177.4000000000005,2349
3179.092138404835,2360
3180.7839979388846,2375
3182.47557892212,2334
3184.166881674594,2362
3185.8579065164386,2342
3187.5486537678626,2308
3189.2391237491547,2361
3190.9293167806827,2276
3192.6192331828934,2376
3194.3088732763117,2421
3195.998237381542,2417
3197.687325819268,2318
3199.376138910251,2376
3201.064676975334,2343
3202.7529403354347,2303
3204.4409293115523,2368
3206.1286442247647,2313
3207.816085396229,2347
3209.5032531471825,2254
3211.190147798936,2316
3212.8767696728846,2227
3214.5631190905015,2275
3216.2491963733373,2348
3217.9350018430214,2292
3219.6205358212637,2220
3221.305798629851,2220
3222.990790590651,2280
3224.6755120256103,2248
3226.359963256751,2211
3228.0441446061795,2349
3229.7280563960758,2227
3231.411698948703,2347
3233.0950725863995,2304
3234.778177631587,2316
3236.461014406761,2365
3238.1435832345005,2334
3239.8258844374595,2265
3241.507918338374,2331
3243.1896852600576,2386
3244.8711855254023,2239
3246.552419457381,2298
3248.233387379042,2320
3249.914089613516,2378
3251.59452648401,2351
3253.274698313813,2378
3254.95460542629,2329
3256.6342481448855,2382
3258.313626793125,2270
3259.9927416946084,2224
3261.6715931730196,2214
3263.3501815521176,2196
3265.0285071557437,2272
3266.706570307815,2250
3268.3843713323286,2339
3270.0619105533615,2276
3271.739188295068,2250
3273.4162048816834,2200
3275.0929606375184,2304
3276.769455886966,2309
3278.445690954498,2273
3280.1216661646613,2297
3281.797381842087,2340
3283.4728383114807,2324
3285.1480358976296,2312
3286.8229749253996,2338
3288.4976557197333,2153
3290.172078605655,2317
3291.846243908266,2327
3293.5201519527463,2268
3295.193803064357,2277
3296.8671975684374,2220
3298.5403357904024,2220
3300.21321805575,2245
3301.8858446900567,2215
3303.558216018975,2238
3305.23033236824,2275
3306.9021940636603,2209
3308.57380143113,2276
3310.2451547966184,2256
3311.916254486174,2278
3313.5871008259246,2265
3315.2576941420766,2276
3316.9280347609147,2247
3318.5981230088046,2374
3320.2679592121895,2258
3321.9375436975924,2168
3323.606876791612,2252
3325.27595882093,2249
3326.944790112305,2260
3328.6133709925753,2268
3330.2817017886573,2217
3331.949782827547,2208
3333.617614436319,2182
3335.2851969421245,2234
3336.952530672199,2407
3338.619615953853,2302
3340.286453114475,2330
3341.9530424815357,2282
3343.619384382583,2299
3345.2854791452437,2353
3346.951327097224,2292
3348.6169285663073,2269
3350.2822838803577,2362
3351.947393367319,2355
3353.61225735521,2313
3355.2768761721345,2222
3356.9412501462693,2184
3358.605379605873,2294
3360.2692648792827,2299
3361.9329062949146,2248
3363.596304181263,2233
