CollectionTime,7/10/2024 3:52:33 PM
ExposureUsed,3
CalibratedSpectrum
-962.7078968117929,909
-959.9714848408522,912
-957.2358232597828,969
-954.5009119013725,950
-951.7667505983302,1040
-949.0333391832855,939
-946.3006774887896,1049
-943.5687653473143,964
-940.837602591253,993
-938.1071890529199,971
-935.3775245645503,999
-932.6486089583007,991
-929.9204420662485,987
-927.1930237203925,996
-924.4663537526524,962
-921.7404319948689,973
-919.0152582788041,985
-916.2908324361409,1011
-913.5671542984834,1063
-910.8442236973568,1018
-908.1220404642074,1018
-905.4006044304027,991
-902.679915427231,992
-899.959973285902,990
-897.2407778375464,978
-894.5223289132158,981
-891.8046263438832,1016
-889.0876699604426,969
-886.3714595937089,983
-883.6559950744183,944
-880.9412762332282,1014
-878.2273029007168,949
-875.5140749073835,974
-872.8015920836489,955
-870.0898542598545,948
-867.3788612662631,907
-864.6686129330585,1029
-861.9591090903457,1026
-859.2503495681506,1009
-856.5423341964203,894
-853.8350628050229,982
-851.1285352237478,949
-848.4227512823054,992
-845.7177108103272,988
-843.0134136373656,989
-840.3098595928943,1045
-837.6070485063082,999
-834.9049802069229,1028
-832.2036545239757,975
-829.5030712866244,975
-826.8032303239481,980
-824.1041314649472,984
-821.4057745385428,974
-818.7081593735775,979
-816.0112857988148,1006
-813.3151536429393,1037
-810.6197627345566,965
-807.9251129021936,966
-805.2312039742981,1018
-802.5380357792392,1006
-799.8456081453069,1056
-797.1539209007124,1015
-794.462973873588,1016
-791.772766891987,1032
-789.083299783884,1039
-786.3945723771743,1005
-783.7065844996748,994
-781.0193359791231,1059
-778.3328266431781,955
-775.6470563194197,1038
-772.9620248353489,1058
-770.2777320183878,993
-767.5941776958798,1033
-764.9113616950891,1074
-762.2292838432011,1058
-759.5479439673222,1018
-756.8673418944801,1005
-754.1874774516235,1011
-751.5083504656222,1065
-748.8299607632671,1042
-746.15230817127,1025
-743.475392516264,1058
-740.7992136248035,1037
-738.1237713233636,1041
-735.4490654383407,1059
-732.7750957960521,1069
-730.1018622227365,1047
-727.4293645445534,1067
-724.7576025875837,1052
-722.0865761778291,1075
-719.4162851412126,1028
-716.7467293035781,1094
-714.0779084906909,1068
-711.409822528237,1092
-708.7424712418238,1106
-706.0758544569796,1066
-703.4099719991541,1094
-700.7448236937178,1132
-698.0804093659622,1085
-695.4167288411002,1112
-692.7537819442656,1070
-690.0915685005134,1069
-687.4300883348199,1118
-684.7693412720819,1156
-682.1093271371178,1086
-679.4500457546669,1130
-676.7914969493897,1126
-674.1336805458676,1194
-671.4765963686034,1119
-668.8202442420206,1095
-666.1646239904642,1160
-663.5097354382001,1139
-660.8555784094151,1127
-658.2021527282176,1110
-655.5494582186366,1143
-652.8974947046223,1152
-650.2462620100463,1182
-647.5957599587009,1183
-644.9459883742998,1118
-642.2969470804776,1171
-639.6486359007902,1150
-637.0010546587141,1159
-634.3542031776476,1150
-631.7080812809096,1148
-629.0626887917401,1156
-626.4180255333008,1159
-623.7740913286734,1166
-621.1308860008619,1248
-618.4884093727904,1189
-615.8466612673046,1188
-613.2056415071715,1145
-610.5653499150785,1198
-607.9257863136347,1216
-605.28695052537,1216
-602.6488423727357,1200
-600.0114616781036,1184
-597.3748082637674,1222
-594.7388819519412,1272
-592.1036825647604,1207
-589.4692099242818,1218
-586.8354638524829,1190
-584.2024441712624,1218
-581.5701507024403,1187
-578.9385832677575,1228
-576.3077416888759,1285
-573.6776257873787,1188
-571.0482353847704,1234
-568.4195703024757,1244
-565.7916303618415,1178
-563.164415384135,1199
-560.5379251905453,1210
-557.9121596021815,1237
-555.2871184400748,1196
-552.6628015251767,1237
-550.0392086783606,1256
-547.4163397204204,1203
-544.794194472071,1219
-542.1727727539491,1247
-539.5520743866118,1214
-536.9320991905377,1303
-534.3128469861261,1278
-531.6943175936979,1320
-529.0765108334947,1350
-526.4594265256793,1382
-523.8430644903358,1430
-521.2274245474689,1568
-518.612506517005,1597
-515.9983102187913,1643
-513.3848354725959,1586
-510.77208209810846,1675
-508.16004991493924,1696
-505.5487387426199,1816
-502.9381484006032,1945
-500.3282787082628,2022
-497.71912948489364,2088
-495.1107005497117,2033
-492.5029917218539,1868
-489.8960028203786,1738
-487.28973366426493,1691
-484.68418407241325,1613
-482.07935386364494,1518
-479.47524285670266,1532
-476.87185087025,1456
-474.2691777228715,1457
-471.66722323307334,1463
-469.0659872192821,1441
-466.4654694998459,1469
-463.86566989303384,1471
-461.26658821703614,1465
-458.66822428996414,1448
-456.07057792985,1449
-453.4736489546475,1436
-450.877437182231,1457
-448.28194243039627,1409
-445.68716451686,1349
-443.09310325926003,1369
-440.49975847515555,1348
-437.9071299820263,1399
-435.31521759727354,1410
-432.72402113821954,1398
-430.13354042210767,1425
-427.5437752661022,1415
-424.95472548728867,1459
-422.36639090267386,1445
-419.7787713291855,1426
-417.1918665836721,1458
-414.60567648290385,1467
-412.0202008435715,1471
-409.4354394822874,1524
-406.8513922155845,1612
-404.26805885991723,1520
-401.685439231661,1501
-399.103533147112,1462
-396.522340422488,1519
-393.9418608739278,1491
-391.3620943174908,1453
-388.7830405691583,1455
-386.2046994448317,1359
-383.6270707603344,1324
-381.05015433141045,1240
-378.473949973725,1185
-375.8984575028645,1069
-373.32367673433623,964
-370.74960748356875,926
-368.1762495659117,832
-365.60360279663576,746
-363.03166699093265,682
-360.4604419639154,611
-357.8899275306178,594
-355.32012350599507,533
-352.7510297049233,525
-350.1826459421999,539
-347.61497203254316,502
-345.04800779059235,512
-342.4817530309082,496
-339.91620756797226,485
-337.35137121618743,457
-334.7872437898774,494
-332.22382510328725,512
-329.66111497058273,511
-327.09911320585127,505
-324.53781962310075,473
-321.9772340362607,460
-319.4173562591816,504
-316.8581861056348,496
-314.2997233893127,501
-311.7419679238294,466
-309.1849195227194,546
-306.62857799943856,543
-304.0729431673641,556
-301.51801483979375,562
-298.963792829947,573
-296.41027695096386,510
-293.85746701590574,534
-291.3053628377552,569
-288.7539642294155,576
-286.2032710037115,563
-283.65328297338897,589
-281.1039999511146,588
-278.5554217494762,584
-276.007548180983,570
-273.4603790580651,593
-270.9139141930734,580
-268.3681533982807,560
-265.8230964858798,557
-263.27874326798565,583
-260.7350935566336,614
-258.1921471637804,612
-255.6499039013039,619
-253.10836358100266,635
-250.56752601459698,624
-248.02739101372765,594
-245.48795838995704,674
-242.94922795476816,710
-240.41119951956557,723
-237.8738728956746,714
-235.33724789434166,708
-232.80132432673452,691
-230.2661020039418,708
-227.73158073697357,777
-225.19776033676033,728
-222.66464061415422,795
-220.1322213799284,857
-217.60050244477725,807
-215.06948361931552,798
-212.53916471408013,764
-210.00954553952818,854
-207.48062590603843,758
-204.9524056239104,766
-202.4248845033651,752
-199.8980623545441,730
-197.37193898751036,740
-194.84651421224817,823
-192.32178783866232,865
-189.79775967657952,788
-187.27442953574644,861
-184.7517972258321,898
-182.2298625564256,892
-179.7086253370378,779
-177.18808537710026,765
-174.66824248596583,718
-172.14909647290835,799
-169.6306471471229,965
-167.11289431772548,935
-164.59583779375328,895
-162.07947738416453,848
-159.5638128978386,861
-157.04884414357605,1007
-154.53457093009854,1108
-152.02099306604828,1157
-149.50811035998936,1008
-146.99592262040665,887
-144.48442965570587,938
-141.97363127421409,1251
-139.46352728417958,1452
-136.95411749377126,1527
-134.44540171107985,1371
-131.93737974411636,1399
-129.43005140081357,1589
-126.92341648902493,2032
-124.41747481652521,2480
-121.91222619101006,2684
-119.40767042009657,2989
-116.90380731132257,3991
-114.40063667214702,3735
-111.8981583099503,3836
-109.3963720320337,6195
-106.89527764561933,10309
-104.39487495785067,12991
-101.89516377579241,11961
-99.39614390642998,9801
-96.89781515667039,10588
-94.40017733334128,14604
-91.90323024319173,18800
-89.40697369289148,22821
-86.91140748903172,22472
-84.41653143812482,20362
-81.92234534660395,18824
-79.42884902082358,15975
-76.93604226705907,11333
-74.4439248915071,7542
-71.95249670028534,5779
-69.46175749943245,7057
-66.97170709490854,9744
-64.48234529259423,10253
-61.99367189829195,9702
-59.50568671772464,7935
-57.01838955653636,6162
-54.53178022029283,6109
-52.045858514480074,7335
-49.560624244506016,9029
-47.07607721569923,9486
-44.59221723330904,10295
-42.10904410250669,10416
-39.62655762838392,10089
-37.14475761595372,9066
-34.66364387015028,10427
-32.18321619582866,11328
-29.70347439776515,9852
-27.224418280657005,10504
-24.74604764912317,11980
-22.26836230770266,15300
-19.7913620608565,24103
-17.315046712966478,40049
-14.83941606833514,55170
-12.36446993118659,65039
-9.89020810566592,65039
-7.416630395839093,65039
-4.94373660569363,65039
-2.471526539137585,65039
-6.821210263296962E-13,65039
2.47084320796705,65039
4.941003281093458,65039
7.410480415786196,65039
9.879274808531363,65039
12.347386655893956,65039
14.814816154518212,65039
17.28156350112681,65039
19.74762889252179,65039
22.21301252558385,65039
24.67771459727237,22547
27.141735304626195,5604
29.605074844762612,4014
32.06773341487792,3353
34.52971121224755,2898
36.99100843422559,2830
39.45162527824516,2976
41.91156194181792,2094
44.370818622535126,1816
46.82939551806646,1785
49.287292826160524,1787
51.74451074464503,2156
54.201049471426245,1823
56.65690920448981,1767
59.112090141899785,1804
61.56659248179983,1617
64.02041642241159,1559
66.4735621620365,1522
68.92602989905402,1577
71.37781983192338,1510
73.82893215918205,1519
76.27936707944684,1640
78.72912479141326,1713
81.17820549385567,1396
83.62660938562783,1224
86.07433666566146,1454
88.5213875329681,1272
90.96776218663751,1068
93.41346082583925,1053
95.85848364982041,1283
98.30283085790859,1436
100.7465026495089,1443
103.18949922410604,1546
105.63182078126385,1502
108.07346752062438,1346
110.51443964190923,1389
112.95473734491827,1285
115.39436082953114,1314
117.83331029570547,1224
120.27158594347827,1253
122.7091879729652,1066
125.1461165843615,1025
127.58237197794062,941
130.01795435405518,926
132.4528639131364,1048
134.88710085569494,1085
137.32066538231982,1177
139.75355769367923,1112
142.1857779905207,949
144.61732647366978,1042
147.04820334403132,1000
149.47840880258934,1009
151.90794305040674,1104
154.33680628862487,1284
156.76499871846443,1302
159.19252054122433,1438
161.61937195828352,1722
164.04555317109896,1821
166.47106438120693,2053
168.89590579022217,2264
171.320077599839,2354
173.7435800118302,2588
176.16641322804742,2789
178.58857745042144,2980
181.01007288096173,3008
183.43089972175687,3097
185.85105817497413,3026
188.27054844285988,3133
190.6893707277394,3265
193.10752523201643,3240
195.5250121581745,3338
197.9418317087751,3502
200.3579840864594,3514
202.7734694939469,3436
205.18828813403627,3435
207.6024402096051,3647
210.01592592360964,3734
212.42874547908548,3530
214.84089907914665,3522
217.2523869269868,3440
219.66320922587727,3466
222.0733661791695,3504
224.48285799029293,3597
226.8916848627572,3580
229.29984700014882,3577
231.7073446061355,3645
234.11417788446204,3612
236.520347038953,3547
238.92585227351185,3560
241.33069379212054,3690
243.73487179884035,3544
246.1383864978112,3540
248.541238093252,3681
250.9434267894609,3652
253.34495279081432,3718
255.74581630176783,3638
258.1460175268563,3579
260.54555667069314,3487
262.9444339379703,3630
265.3426495334594,3627
267.7402036620107,3565
270.1370965285529,3473
272.53332833809407,3515
274.9288992957214,3429
277.32380960660055,3344
279.718059475976,3381
282.1116491091717,3414
284.5045787115897,3530
286.89684848871195,3452
289.2884586460981,3435
291.67940938938807,3514
294.0697009242996,3476
296.4593334566299,3371
298.84830719225477,3485
301.23662233712923,3451
303.6242790972866,3458
306.01127767884,3326
308.39761828798066,3355
310.78330113097934,3334
313.16832641418534,3319
315.5526943440269,3227
317.9364051270112,3212
320.3194589697242,3313
322.70185607883093,3164
325.0835966610754,3158
327.4646809232805,3092
329.8451090723478,3243
332.2248813152577,3312
334.6039978590701,3212
336.9824589109231,3188
339.36026467803447,3078
341.7374153677,3141
344.113911187295,3167
346.48975234427337,3140
348.8649390461686,3160
351.2394715005918,3137
353.61334991523415,3103
355.9865744978655,3117
358.35914545633375,3053
360.73106299856715,3080
363.10232733257146,3093
365.47293866643247,3059
367.84289720831396,3121
370.2122031664593,3062
372.5808567491905,3033
374.9488581649083,3070
377.31620762209275,3029
379.6829053293021,2943
382.0489514951745,3035
384.4143463284262,3003
386.7790900378528,2979
389.14318283232853,2964
391.50662492080653,2983
393.86941651231916,3020
396.23155781597745,3026
398.5930490409713,2983
400.9538903965696,2979
403.3140820921202,3021
405.6736243370498,2993
408.03251734086336,2952
410.3907613131465,2869
412.74835646356166,2987
415.10530300185144,2910
417.4616011378372,2958
419.81725108141893,2963
422.1722530425758,2919
424.5266072313656,2960
426.880313857925,2955
429.2333731324701,2966
431.58578526529516,2985
433.9375504667738,3060
436.2886689473588,2979
438.63914091758113,2947
440.9889665880513,2939
443.33814616945835,2879
445.68667987257015,2868
448.03456790823395,2950
450.3818104873759,2898
452.72840782100013,2877
455.07436012019105,2849
457.41966759611057,2860
459.7643304600007,2917
462.10834892318155,2952
464.4517231970525,2919
466.79445349309174,2960
469.1365400228566,2959
471.4779829979826,2868
473.81878263018564,2919
476.15893913125876,3020
478.4984527130747,3051
480.8373235875855,3146
483.17555196682144,3015
485.5131380628919,3188
487.8500820879857,3220
490.1863842543697,3305
492.52204477439034,3487
494.8570638604725,3743
497.1914417251204,3904
499.52517858091653,4176
501.85827464052306,4289
504.19073011668036,4205
506.5225452222086,4269
508.85372017000566,4210
511.18425517304956,4109
513.514150444396,4194
515.8434061971808,4790
518.1720226446176,5485
520.4999999999999,5882
522.8273384766991,5549
525.1540382881666,5215
527.480099647932,4840
529.8055227696037,4190
532.1303078668694,3641
534.454455153496,3410
536.777964843328,3219
539.1008371502907,3197
541.4230722883866,3191
543.744670471698,3205
546.0656319143858,3133
548.3859568306899,3143
550.7056454349294,3165
553.0246979415016,3065
555.3431145648834,3064
557.6608955196306,3013
559.978041020377,3059
562.2945512818363,2976
564.6104265188006,3138
566.9256669461412,3212
569.2402727788082,3142
571.5542442318302,3132
573.8675815203156,3134
576.1802848594508,3152
578.4923544645015,3169
580.8037905508126,3216
583.114593333807,3235
585.4247630289875,3181
587.7342998519354,3216
590.0432040183106,3164
592.3514757438526,3144
594.6591152443794,3177
596.9661227357875,3165
599.2724984340531,3232
601.578242555231,3153
603.8833553154542,3167
606.1878369309362,3191
608.4916876179676,3239
610.7949075929192,3248
613.0974970722403,3243
615.3994562724587,3089
617.7007854101818,3106
620.0014847020951,3079
622.3015543649641,3054
624.6009946156324,3032
626.8998056710224,3061
629.1979877481361,3152
631.4955410640538,3153
633.7924658359349,3162
636.0887622810175,3106
638.3844306166192,3095
640.6794710601358,3052
642.9738838290426,3167
645.2676691408932,3226
647.5608272133207,3102
649.853358264037,3114
652.1452625108324,3186
654.4365401715764,3094
656.7271914642178,3142
659.0172166067838,3165
661.3066158173809,3148
663.5953893141935,3194
665.8835373154867,3141
668.1710600396028,3102
670.4579577049639,3047
672.7442305300709,3138
675.0298787335033,3126
677.3149025339197,3082
679.599302150058,3200
681.8830778007342,3020
684.1662297048437,3042
686.4487580813608,3106
688.7306631493387,3154
691.0119451279091,3162
693.2926042362834,3145
695.5726406937516,3106
697.8520547196814,3148
700.1308465335215,3071
702.4090163547982,3169
704.6865644031171,3139
706.9634908981619,3161
709.2397960596965,3047
711.5154801075631,3108
713.7905432616823,3165
716.0649857420548,3137
718.3388077687592,3117
720.612009561953,3133
722.8845913418733,3045
725.1565533288352,3178
727.427895743234,3149
729.6986188055427,3084
731.9687227363137,3111
734.238207756178,3111
736.5070740858458,3102
738.7753219461066,3144
741.0429515578281,3061
743.3099631419569,3095
745.5763569195191,3151
747.8421331116193,3084
750.1072919394409,3110
752.3718336242467,3110
754.6357583873777,3038
756.8990664502545,3206
759.1617580343765,3145
761.423833361321,3033
763.6852926527457,3142
765.9461361303862,3145
768.206364016058,3227
770.4659765316536,3127
772.7249738991469,3089
774.9833563405886,3145
777.2411240781092,3193
779.4982773339183,3107
781.7548163303044,3151
784.010741289634,3128
786.2660524343538,3194
788.5207499869881,3149
790.7748341701416,3154
793.0283052064964,3173
795.2811633188143,3103
797.5334087299362,3159
799.7850416627813,3229
802.0360623403484,3192
804.2864709857143,3250
806.5362678220353,3141
808.7854530725468,3153
811.0340269605625,3277
813.2819897094754,3280
815.5293415427581,3088
817.77608268396,3162
820.0222133567116,3248
822.2677337847211,3191
824.5126441917765,3200
826.7569448017433,3089
829.0006358385675,3148
831.2437175262731,3049
833.4861900889629,3154
835.7280537508192,3111
837.9693087361026,3148
840.2099552691533,3192
842.4499935743896,3135
844.689423876309,3157
846.9282463994886,3071
849.1664613685833,3238
851.4040690083276,3148
853.6410695435349,3091
855.877463199097,3239
858.1132501999847,3163
860.3484307712487,3135
862.5830051380175,3242
864.8169735254988,3209
867.0503361589791,3215
869.2830932638243,3305
871.5152450654786,3276
873.7467917894654,3155
875.9777336613873,3226
878.2080709069252,3196
880.4378037518389,3125
882.666932421968,3221
884.8954571432301,3324
887.1233781416219,3280
889.3506956432192,3269
891.5774098741766,3175
893.803521060728,3276
896.0290294291852,3225
898.2539352059397,3242
900.4782386174619,3188
902.7019398903011,3253
904.925039251085,3202
907.147536926521,3157
909.3694331433943,3223
911.59072812857,3208
913.8114221089921,3202
916.0315153116827,3205
918.2510079637437,3089
920.4699002923547,3166
922.6881925247761,3089
924.905884888345,3040
927.1229776104793,3139
929.3394709186747,3191
931.555365040506,3131
933.7706602036275,3164
935.9853566357709,3126
938.1994545647489,3126
940.4129542184515,3090
942.6258558248488,3065
944.8381596119883,3074
947.0498658079974,3030
949.2609746410825,3095
951.4714863395287,3069
953.6814011316998,3037
955.8907192460387,3043
958.0994409110671,3123
960.3075663553858,3130
962.5150958076741,3127
964.7220294966913,3109
966.928367651274,3083
969.1341105003388,3098
971.3392582728806,2951
973.5438111979742,3165
975.747769504772,3145
977.9511334225061,3065
980.153903180487,3035
982.3560790081052,2976
984.5576611348289,3086
986.7586497902058,3029
988.9590452038618,2970
991.158847605503,2972
993.3580572249133,2972
995.5566742919558,3049
997.7546990365728,2993
999.952131688785,2931
1002.1489724786926,2928
1004.3452216364743,2903
1006.5408793923874,2883
1008.7359459767691,2841
1010.9304216200343,2826
1013.1243065526781,2815
1015.3176010052733,2846
1017.510305208472,2904
1019.7024193930064,2872
1021.8939437896848,2842
1024.0848786293977,2840
1026.2752241431122,2764
1028.4649805618747,2907
1030.6541481168115,2771
1032.842727039127,2754
1035.0307175601051,2861
1037.2181199111074,2782
1039.4049343235752,2919
1041.591161029029,2764
1043.7768002590683,2798
1045.9618522453698,2821
1048.1463172196918,2813
1050.3301954138697,2849
1052.513487059818,2882
1054.69619238953,2806
1056.8783116350783,2972
1059.0598450286152,2827
1061.2407928023704,2842
1063.4211551886528,2873
1065.6009324198508,2778
1067.780124728432,2836
1069.9587323469414,2814
1072.1367555080046,2817
1074.314194444325,2812
1076.4910493886855,2811
1078.667320573947,2783
1080.843008233051,2769
1083.0181125990161,2821
1085.1926339049414,2758
1087.3665723840027,2677
1089.5399282694575,2772
1091.7127017946405,2748
1093.8848931929647,2825
1096.0565026979243,2759
1098.2275305430899,2690
1100.3979769621128,2753
1102.567842188722,2779
1104.737126456726,2732
1106.9058300000124,2663
1109.0739530525475,2770
1111.2414958483764,2755
1113.4084586216231,2744
1115.5748416064907,2636
1117.7406450372605,2776
1119.9058691482942,2763
1122.0705141740304,2715
1124.2345803489884,2839
1126.3980679077658,2836
1128.5609770850388,2708
1130.7233081155623,2701
1132.8850612341707,2837
1135.0462366757774,2713
1137.2068346753745,2737
1139.3668554680326,2822
1141.526299288901,2770
1143.68516637321,2843
1145.8434569562655,2701
1148.001171273455,2717
1150.158309560244,2774
1152.3148720521767,2774
1154.470858984876,2742
1156.626270594044,2689
1158.7811071154629,2638
1160.9353687849912,2724
1163.089055838569,2657
1165.242168512213,2738
1167.3947070420209,2712
1169.5466716641677,2677
1171.6980626149075,2742
1173.8488801305748,2719
1175.9991244475814,2746
1178.1487958024186,2728
1180.2978944316555,2658
1182.4464205719428,2707
1184.5943744600072,2688
1186.7417563326567,2633
1188.8885664267755,2696
1191.0348049793297,2634
1193.1804722273619,2691
1195.325568407995,2717
1197.4700937584303,2643
1199.614048515948,2696
1201.7574329179074,2713
1203.900247201746,2709
1206.042491604982,2719
1208.1841663652099,2675
1210.3252717201053,2688
1212.465807907422,2764
1214.6057751649923,2759
1216.7451737307279,2703
1218.8840038426192,2751
1221.0222657387353,2755
1223.1599596572241,2694
1225.2970858363137,2782
1227.4336445143094,2705
1229.5696359295966,2731
1231.705060320639,2766
1233.8399179259786,2753
1235.9742089842384,2792
1238.107933734118,2768
1240.2410924143974,2747
1242.373685263935,2738
1244.5057125216676,2779
1246.6371744266116,2795
1248.7680712178621,2763
1250.898403134593,2824
1253.028170416058,2808
1255.1573733015875,2827
1257.2860120305932,2709
1259.4140868425648,2739
1261.54159797707,2796
1263.6685456737569,2741
1265.7949301723515,2801
1267.9207517126597,2801
1270.046010534565,2803
1272.1707068780306,2778
1274.2948409830983,2811
1276.4184130898889,2848
1278.541423438603,2811
1280.6638722695184,2891
1282.785759822993,2784
1284.9070863394636,2876
1287.0278520594447,2889
1289.1480572235314,2907
1291.2677020723963,2922
1293.3867868467923,2892
1295.5053117875495,2856
1297.623277135579,2851
1299.740683131868,2914
1301.8575300174857,2883
1303.973818033578,3020
1306.0895474213703,2969
1308.2047184221678,2946
1310.3193312773528,2943
1312.4333862283888,2945
1314.5468835168163,2950
1316.659823384255,3008
1318.7722060724045,2946
1320.8840318230418,2851
1322.9953008780249,2931
1325.1060134792888,2986
1327.2161698688478,2974
1329.3257702887959,2953
1331.4348149813054,2913
1333.5433041886276,2934
1335.6512381530933,2933
1337.7586171171101,2960
1339.8654413231675,3007
1341.9717110138317,2861
1344.0774264317488,2930
1346.1825878196432,2995
1348.2871954203192,2920
1350.3912494766587,2941
1352.4947502316231,2892
1354.5976979282532,2893
1356.7000928096686,2972
1358.8019351190665,2954
1360.9032250997243,2901
1363.0039629949988,2939
1365.1041490483235,2940
1367.2037835032133,2919
1369.3028666032606,2984
1371.401398592137,2923
1373.4993797135926,3012
1375.5968102114575,3021
1377.6936903296396,3014
1379.7900203121262,2923
1381.8858004029835,3013
1383.9810308463561,2953
1386.075711886469,3043
1388.1698437676241,2946
1390.2634267342032,2955
1392.356461030667,3050
1394.4489469015557,3022
1396.5408845914872,3032
1398.6322743451592,2928
1400.7231164073469,2942
1402.813411022907,2994
1404.903158436773,3050
1406.9923588939578,3075
1409.0810126395531,3045
1411.1691199187303,2987
1413.2566809767386,3023
1415.343696058907,3044
1417.4301654106425,2982
1419.5160892774315,2958
1421.6014679048399,3060
1423.6863015385125,3032
1425.7705904241707,3030
1427.8543348076178,3060
1429.9375349347342,3014
1432.0201910514802,3107
1434.102303403894,3041
1436.1838722380944,3099
1438.2648978002767,3108
1440.3453803367174,3101
1442.4253200937692,3046
1444.5047173178677,3181
1446.5835722555234,3128
1448.6618851533285,3123
1450.739656257952,3216
1452.8168858161434,3139
1454.8935740747306,3210
1456.96972128062,3140
1459.045327680797,3248
1461.120393522327,3189
1463.1949190523528,3264
1465.2689045180973,3377
1467.3423501668608,3363
1469.415256246024,3365
1471.4876230030463,3433
1473.559450685465,3441
1475.6307395408976,3455
1477.7014898170391,3376
1479.771701761665,3482
1481.8413756226287,3355
1483.9105116478618,3547
1485.9791100853772,3481
1488.0471711832643,3517
1490.1146951896926,3608
1492.1816823529098,3616
1494.2481329212433,3694
1496.3140471430984,3633
1498.3794252669609,3742
1500.4442675413939,3711
1502.5085742150404,3811
1504.572345536622,3716
1506.6355817549388,3774
1508.6982831188702,3805
1510.7604498773744,3903
1512.8220822794883,3860
1514.8831805743293,3875
1516.9437450110909,3965
1519.003775839048,4011
1521.0632733075522,3869
1523.1222376660367,4105
1525.1806691640113,4125
1527.2385680510652,4190
1529.2959345768668,4188
1531.3527689911643,4167
1533.4090715437833,4171
1535.4648424846291,4224
1537.5200820636855,4313
1539.5747905310159,4311
1541.6289681367616,4361
1543.6826151311434,4491
1545.7357317644614,4512
1547.7883182870937,4477
1549.8403749494987,4610
1551.8919020022113,4618
1553.9428996958477,4628
1555.9933682811015,4737
1558.0433080087469,4728
1560.0927191296346,4901
1562.1416018946961,4883
1564.1899565549415,4929
1566.2377833614592,5055
1568.2850825654164,4859
1570.3318544180606,4772
1572.3780991707158,4747
1574.423817074788,4447
1576.4690083817595,4401
1578.5136733431923,4369
1580.5578122107272,4279
1582.601425236085,4033
1584.6445126710646,4113
1586.6870747675434,3795
1588.7291117774776,3850
1590.7706239529034,3757
1592.8116115459347,3674
1594.8520748087658,3491
1596.8920139936686,3583
1598.9314293529933,3467
1600.9703211391711,3443
1603.008689604711,3448
1605.0465350022005,3382
1607.0838575843068,3308
1609.1206576037753,3279
1611.1569353134305,3299
1613.1926909661765,3313
1615.2279248149953,3206
1617.2626371129481,3245
1619.2968281131757,3206
1621.3304980688963,3195
1623.3636472334088,3201
1625.39627586009,3053
1627.428384202396,3072
1629.459972513861,3043
1631.4910410480993,3069
1633.5215900588028,3134
1635.551619799744,3100
1637.5811305247717,3099
1639.6101224878166,3041
1641.6385959428862,3018
1643.6665511440683,3059
1645.693988345528,3021
1647.7209078015112,3073
1649.7473097663405,3064
1651.7731944944203,3071
1653.7985622402307,2997
1655.823413258333,2979
1657.847747803366,2916
1659.8715661300494,2997
1661.8948684931793,3027
1663.9176551476316,2952
1665.9399263483624,3008
1667.9616823504057,2957
1669.982923408873,3068
1672.0036497789574,2887
1674.0238617159293,3012
1676.043559475138,3004
1678.0627433120121,2979
1680.081413482059,3016
1682.0995702408654,3039
1684.117213844096,3016
1686.134344547495,3064
1688.1509626068864,2957
1690.1670682781705,2888
1692.182661817329,2954
1694.1977434804217,2986
1696.2123135235875,2975
1698.226372203043,2887
1700.2399197750851,3048
1702.2529564960905,3057
1704.2654826225112,3014
1706.277498410882,2918
1708.2890041178139,2946
1710.2999999999988,3047
1712.3104863142066,2982
1714.3204633172854,2944
1716.329931266163,3007
1718.3388904178469,2973
1720.3473410294214,2951
1722.3552833580516,3026
1724.3627176609807,3026
1726.3696441955308,2924
1728.3760632191033,2956
1730.3819749891782,2990
1732.3873797633146,2987
1734.3922777991502,2865
1736.3966693544012,2937
1738.4005546868639,3050
1740.4039340544127,3013
1742.406807715001,2948
1744.4091759266616,2954
1746.4110389475054,2974
1748.4123970357223,2897
1750.413250449582,2899
1752.4135994474318,2940
1754.4134442876993,2926
1756.4127852288902,2857
1758.4116225295893,2945
1760.4099564484595,2886
1762.407787244244,2966
1764.405115175764,2924
1766.4019405019203,3021
1768.3982634816916,2911
1770.3940843741357,2938
1772.3894034383907,2885
1774.3842209336717,2854
1776.378537119274,2818
1778.372352254571,2974
1780.3656665990156,2950
1782.3584804121397,2936
1784.3507939535534,2951
1786.3426074829463,2927
1788.3339212600863,2904
1790.3247355448211,2945
1792.3150505970766,2967
1794.3048666768573,2923
1796.2941840442477,2820
1798.2830029594106,2856
1800.2713236825884,2925
1802.2591464741004,2926
1804.2464715943465,2995
1806.2332993038058,2939
1808.2196298630352,2889
1810.2054635326708,2935
1812.190800573428,2965
1814.175641246101,3064
1816.1599858115628,3007
1818.1438345307652,2890
1820.127187664738,2933
1822.1100454745924,2937
1824.092408221516,2998
1826.0742761667766,2950
1828.055649571721,2940
1830.0365286977735,2867
1832.0169138064398,2960
1833.9968051593014,2951
1835.9762030180214,2954
1837.9551076443408,2947
1839.9335193000788,2888
1841.9114382471344,2876
1843.888864747485,2891
1845.8657990631878,2911
1847.842241456378,2948
1849.8181921892697,2977
1851.7936515241558,2853
1853.7686197234098,2952
1855.7430970494815,2925
1857.7170837649014,2849
1859.6905801322787,2831
1861.6635864143004,2992
1863.6361028737338,2942
1865.608129773424,2911
1867.5796673762961,2922
1869.5507159453537,2941
1871.521275743678,2920
1873.4913470344313,2940
1875.4609300808534,2903
1877.4300251462632,2932
1879.3986324940588,2914
1881.366752387717,2990
1883.3343850907936,2948
1885.3015308669228,2933
1887.268189979819,2915
1889.2343626932739,2976
1891.2000492711595,2957
1893.1652499774254,2958
1895.1299650761011,2941
1897.0941948312952,2879
1899.0579395071945,2940
1901.0211993680641,2997
1902.98397467825,3038
1904.9462657021745,3024
1906.9080727043415,3044
1908.869395949332,2955
1910.8302357018065,2815
1912.790592226504,2975
1914.7504657882428,2941
1916.7098566519212,2952
1918.6687650825133,2923
1920.6271913450764,2931
1922.5851357047422,3000
1924.5425984267245,2962
1926.499579776314,2976
1928.4560800188833,3000
1930.4120994198802,2835
1932.367638244833,2882
1934.32269675935,2943
1936.2772752291175,2901
1938.231373919899,3000
1940.1849930975404,3043
1942.1381330279637,2885
1944.0907939771696,2910
1946.0429762112412,2929
1947.9946799963363,2933
1949.9459055986945,2954
1951.896653284633,3003
1953.8469233205478,2963
1955.7967159729142,2956
1957.7460315082863,2904
1959.6948701932974,2958
1961.6432322946594,2905
1963.5911180791632,2905
1965.5385278136787,2968
1967.4854617651545,2944
1969.4319202006182,2975
1971.377903387176,2979
1973.3234115920136,2944
1975.268445082395,2957
1977.2130041256642,3011
1979.1570889892423,2949
1981.1006999406304,3001
1983.04383724741,2912
1984.986501177238,2872
1986.928691997853,3050
1988.8704099770712,2974
1990.811655382789,2989
1992.7524284829801,2911
1994.692729545698,2985
1996.6325588390755,2908
1998.5719166313224,2970
2000.5108031907307,2931
2002.4492187856677,3059
2004.387163684583,2876
2006.3246381560011,2963
2008.2616424685298,2995
2010.1981768908527,2922
2012.1342416917332,2907
2014.069837140014,2943
2016.0049635046162,2990
2017.9396210545406,2958
2019.8738100588666,2932
2021.8075307867502,2932
2023.740783507431,2878
2025.6735684902228,2958
2027.6058860045214,2952
2029.5377363198004,2941
2031.4691197056118,2978
2033.4000364315875,2983
2035.3304867674374,2955
2037.260470982952,2922
2039.189989347998,2932
2041.1190421325232,2963
2043.047629606554,2977
2044.9757520401945,2961
2046.9034097036288,3025
2048.8306028671195,2955
2050.7573318010086,2865
2052.683596775716,2940
2054.609398061742,2923
2056.5347359296647,2970
2058.4596106501403,2925
2060.384022493906,2981
2062.3079717317764,3021
2064.231458634646,2983
2066.1544834734873,3013
2068.077046519352,2917
2069.99914804337,3028
2071.9207883167524,2927
2073.8419676107865,2972
2075.7626861968406,3014
2077.6829443463607,2904
2079.6027423308715,3056
2081.522080421977,2920
2083.440958891362,2924
2085.359378010786,2929
2087.2773380520907,3010
2089.194839287196,2976
2091.111881988101,3005
2093.0284664268825,2949
2094.9445928756973,2972
2096.86026160678,2918
2098.775472892446,2988
2100.690227005088,2919
2102.604524217178,2945
2104.5183648012676,2979
2106.431749029985,2966
2108.34467717604,2979
2110.2571495122206,2931
2112.169166311393,2980
2114.080727846503,2939
2115.9918343905747,3049
2117.902486216711,3000
2119.8126835980956,3004
2121.722426807987,2943
2123.6317161197285,3036
2125.5405518067364,3012
2127.448934142509,2959
2129.356863400624,2960
2131.264339854737,3011
2133.1713637785815,2978
2135.077935445972,3019
2136.9840551308002,3060
2138.889723107037,3059
2140.7949396487334,3040
2142.699705030018,3165
2144.6040195250994,3033
2146.507883408264,3085
2148.4112969538774,2978
2150.3142604363848,3019
2152.2167741303097,3031
2154.1188383102535,3023
2156.0204532508997,2963
2157.9216192270064,3014
2159.822336513414,2992
2161.7226053850413,3020
2163.622426116884,3020
2165.5217989840185,3093
2167.4207242616,3063
2169.319202224862,3072
2171.2172331491165,2992
2173.1148173097563,3073
2175.0119549822507,3067
2176.90864644215,3072
2178.8048919650823,3125
2180.7006918267534,3087
2182.596046302952,3187
2184.4909556695407,3117
2186.3854202024645,3159
2188.279440177746,3130
2190.173015871487,3090
2192.066147559868,3132
2193.958835519149,3061
2195.851080025667,3094
2197.7428813558417,3200
2199.6342397861667,3154
2201.5251555932186,3166
2203.415629053651,3137
2205.3056604441986,3065
2207.19525004167,3129
2209.084398122958,3108
2210.9731049650327,3159
2212.861370844941,3218
2214.749196039812,3153
2216.636580826851,3128
2218.523525483344,3128
2220.410030286655,3220
2222.296095514226,3085
2224.1817214435805,3164
2226.066908352319,3147
2227.951656518121,3147
2229.835966218746,3167
2231.71983773203,3195
2233.6032713358913,3159
2235.486267308324,3147
2237.3688259274036,3017
2239.2509474712824,3108
2241.132632218193,3070
2243.013880446447,3127
2244.8946924344323,3148
2246.7750684606203,3075
2248.6550088035574,3136
2250.534513741871,3123
2252.413583554265,3100
2254.292218519526,3199
2256.170418916517,3120
2258.0481850241786,3120
2259.925517121534,3103
2261.8024154876825,3079
2263.678880401803,3117
2265.5549121431536,3097
2267.430510991071,3169
2269.305677224971,3133
2271.180411124348,3163
2273.0547129687766,3115
2274.9285830379076,3096
2276.8020216114737,3024
2278.6750289692845,3046
2280.5476053912294,3144
2282.4197511572766,3180
2284.2914665474727,3082
2286.162751841943,3103
2288.0336073208937,3094
2289.904033264608,3199
2291.774029953448,3031
2293.6435976678554,3127
2295.5127366883517,3069
2297.381447295534,2968
2299.2497297700825,3075
2301.1175843927526,3013
2302.9850114443825,3006
2304.852011205885,2988
2306.7185839582553,2989
2308.5847299825664,2985
2310.4504495599676,2983
2312.3157429716925,2908
2314.1806104990483,2986
2316.0450524234247,2910
2317.9090690262888,3033
2319.772660589186,3046
2321.635827393742,3063
2323.498569721661,2997
2325.3608878547248,2959
2327.2227820747967,2961
2329.0842526638157,2887
2330.945299903803,2907
2332.805924076857,2955
2334.6661254651535,2954
2336.525904350951,3035
2338.3852610165827,2986
2340.244195744464,2953
2342.102708817088,2982
2343.9608005170253,2919
2345.8184711269287,2941
2347.675720929526,2913
2349.532550207628,2992
2351.38895924412,3066
2353.24494832197,2911
2355.100517724223,3024
2356.955667734004,2976
2358.810398634514,2924
2360.664710709037,2958
2362.5186042409337,3050
2364.3720795136437,2936
2366.225136810686,2958
2368.0777764156583,3038
2369.929998612237,2956
2371.7818036841777,2965
2373.633191915315,3026
2375.484163589562,3021
2377.3347189909114,3074
2379.184858403434,3038
2381.03458211128,2966
2382.8838903986775,3011
2384.732783549936,3057
2386.5812618494406,3041
2388.4293255816588,3040
2390.2769750311327,3010
2392.1242104824883,3022
2393.971032220427,3063
2395.8174405297295,2999
2397.6634356952563,2918
2399.509018001947,2918
2401.3541877348193,2964
2403.1989451789705,3035
2405.043290619576,2977
2406.8872243418905,3013
2408.730746631247,2947
2410.5738577730594,2961
2412.4165580528183,3031
2414.258847756095,2962
2416.100727168537,2973
2417.9421965758734,2975
2419.783256263912,2933
2421.623906518538,3066
2423.4641476257157,2934
2425.303979871491,3012
2427.143403541984,2961
2428.9824189233977,2942
2430.821026302012,2948
2432.6592259641866,3026
2434.497018196361,2926
2436.33440328505,3033
2438.171381516851,3104
2440.00795317844,3044
2441.844118556569,2978
2443.6798779380724,2990
2445.5152316098606,3070
2447.3501798589255,2944
2449.1847229723357,3064
2451.0188612372403,3041
2452.8525949408663,3072
2454.6859243705203,3009
2456.518849813587,3037
2458.3513715575314,3046
2460.183489889895,3016
2462.015205098301,2948
2463.8465174704493,2982
2465.67742729412,3042
2467.5079348571717,3114
2469.338040447542,3098
2471.1677443532476,3009
2472.9970468623833,3047
2474.825948263123,3038
2476.6544488437207,2974
2478.482548892508,3090
2480.310248697896,3129
2482.137548548374,3062
2483.9644487325118,3100
2485.790949538956,3061
2487.617051256433,3137
2489.44275417375,3132
2491.26805857979,3117
2493.0929647635157,3136
2494.917473013971,3124
2496.741583620276,3105
2498.5652968716304,3017
2500.3886130573137,3086
2502.2115324666834,3143
2504.0340553891765,3140
2505.856182114308,3133
2507.6779129316733,3085
2509.499248130945,3099
2511.3201880018764,3156
2513.140732834298,3099
2514.9608829181198,3024
2516.780638543331,3128
2518.6,3129
2520.418967578273,3234
2522.237541568376,3086
2524.0557222606144,3142
2525.8735099453706,3092
2527.6909049131086,3141
2529.507907454368,3106
2531.32451785977,3058
2533.140736420014,3073
2534.9565634258774,2995
2536.771999168218,3049
2538.5870439379714,3162
2540.4016980261526,3210
2542.2159617238544,3196
2544.02983532225,3185
2545.8433191125914,3273
2547.656413386209,3194
2549.4691184345115,3149
2551.2814345489874,3175
2553.093362021204,3137
2554.904901142808,3149
2556.716052205523,3148
2558.526815501153,3227
2560.3371913215824,3246
2562.147179958771,3367
2563.956781704761,3259
2565.7659968516705,3337
2567.5748256916986,3283
2569.3832685171224,3248
2571.1913256202984,3318
2572.9989972936614,3238
2574.806283829725,3244
2576.613185521084,3259
2578.4197026604074,3168
2580.2258355404483,3282
2582.031584454035,3311
2583.836949694077,3358
2585.6419315535613,3395
2587.4465303255533,3289
2589.2507463032002,3384
2591.0545797797245,3347
2592.8580310484303,3346
2594.6611004026995,3258
2596.463788135992,3421
2598.266094541849,3307
2600.0680199138874,3412
2601.869564545807,3285
2603.670728731383,3368
2605.4715127644704,3448
2607.2719169390048,3442
2609.071941548998,3459
2610.8715868885433,3358
2612.670853251811,3387
2614.469740933052,3284
2616.268250226594,3359
2618.0663814268455,3354
2619.864134828292,3372
2621.6615107255006,3325
2623.458509413115,3372
2625.2551311858597,3362
2627.0513763385347,3368
2628.8472451660223,3397
2630.6427379632833,3427
2632.4378550253564,3371
2634.232596647359,3389
2636.026963124488,3344
2637.8209547520187,3316
2639.6145718253065,3316
2641.407814639785,3342
2643.200683490966,3387
2644.9931786744414,3198
2646.7853004858807,3252
2648.577049221034,3277
2650.3684251757277,3257
2652.1594286458712,3275
2653.9500599274484,3357
2655.740319316525,3311
2657.5302071092437,3312
2659.3197236018286,3286
2661.10886909058,3126
2662.8976438718782,3319
2664.686048242183,3287
2666.4740824980327,3165
2668.2617469360443,3246
2670.0490418529134,3246
2671.8359675454153,3257
2673.622524310403,3177
2675.408712444811,3226
2677.1945322456495,3254
2678.979984010009,3203
2680.76506803506,3229
2682.5497846180497,3114
2684.334134056306,3279
2686.1181166472343,3175
2687.9017326883213,3165
2689.6849824771293,3191
2691.4678663113013,3155
2693.2503844885596,3198
2695.032537306705,3114
2696.8143250636167,3141
2698.5957480572542,3151
2700.3768065856534,3226
2702.1575009469316,3193
2703.937831439283,3183
2705.717798360982,3123
2707.4974020103837,3116
2709.276642685917,3194
2711.055520686095,3110
2712.834036309506,3145
2714.612189854819,3194
2716.389981620782,3153
2718.1674119062204,3115
2719.944481010041,3271
2721.721189231226,3163
2723.4975368688415,3114
2725.273524222027,3053
2727.0491515900053,3139
2728.824419272075,3182
2730.5993275676146,3216
2732.3738767760838,3166
2734.148067197016,3102
2735.921899130031,3121
2737.6953728748194,3104
2739.468488731156,3100
2741.2412469988926,3078
2743.0136479779617,3081
2744.785691968372,3049
2746.5573792702116,3102
2748.3287101836504,3107
2750.099685008934,3186
2751.870304046388,3164
2753.640567596418,3157
2755.4104759595057,3119
2757.1800294362156,3177
2758.949228327187,3092
2760.7180729331412,3194
2762.486563554877,3224
2764.254700493272,3135
2766.022484049284,3181
2767.789914523947,3154
2769.5569922183786,3179
2771.3237174337705,3116
2773.090090471394,3094
2774.8561116326036,3218
2776.6217812188274,3265
2778.3870995315756,3093
2780.1520668724356,3167
2781.9166835430747,3075
2783.6809498452394,3217
2785.444866080754,3220
2787.2084325515225,3146
2788.971649559527,3106
2790.73451740683,3224
2792.4970363955713,3238
2794.2592068279705,3199
2796.0210290063264,3151
2797.7825032330147,3172
2799.543629810493,3158
2801.304409041296,3154
2803.0648412280366,3154
2804.8249266734088,3145
2806.5846656801846,3197
2808.344058551212,3205
2810.1031055894246,3147
2811.8618070978273,3244
2813.6201633795085,3158
2815.378174737636,3201
2817.1358414754536,3154
2818.893163896285,3218
2820.6501423035334,3187
2822.4067770006814,3116
2824.1630682912883,3190
2825.9190164789957,3123
2827.6746218675207,3227
2829.429884760661,3274
2831.184805462294,3359
2832.9393842763743,3235
2834.693621506936,3216
2836.4475174580916,3196
2838.201072434034,3164
2839.954286739034,3182
2841.707160677441,3184
2843.459694553685,3176
2845.2118886722724,3186
2846.96374333779,3217
2848.7152588549034,3194
2850.4664355283567,3134
2852.217273662973,3294
2853.9677735636546,3244
2855.7179355353833,3298
2857.4677598832186,3129
2859.217246912299,3154
2860.9663969278427,3222
2862.715210235146,3143
2864.4636871395846,3141
2866.211827946614,3138
2867.9596329617652,3140
2869.7071024906536,3266
2871.4542368389684,3287
2873.20103631248,3245
2874.947501217038,3253
2876.6936318585695,3249
2878.4394285430812,3164
2880.1848915766604,3210
2881.9300212654707,3169
2883.6748179157553,3227
2885.4192818338374,3155
2887.1634133261173,3198
2888.907212699077,3172
2890.6506802592744,3268
2892.393816313348,3212
2894.1366211680142,3204
2895.8790951300693,3113
2897.621238506388,3181
2899.363051603925,3218
2901.1045347297118,3284
2902.8456881908596,3236
2904.58651229456,3135
2906.327007348081,3141
2908.067173658772,3199
2909.8070115340597,3204
2911.5465212814497,3233
2913.285703208527,3130
2915.0245576229563,3197
2916.7630848324807,3112
2918.5012851449196,3224
2920.2391588681758,3191
2921.976706310227,3208
2923.7139277791334,3187
2925.4508235830313,3242
2927.187394030137,3265
2928.923639428745,3353
2930.6595600872306,3237
2932.395156314046,3248
2934.1304284177218,3296
2935.8653767068713,3230
2937.6000014901815,3293
2939.3343030764227,3278
2941.068281774442,3260
2942.8019378931644,3220
2944.5352717415976,3313
2946.2682836288236,3335
2948.0009738640065,3335
2949.7333427563885,3357
2951.465390615289,3345
2953.1971177501086,3165
2954.9285244703265,3235
2956.6596110855,3159
2958.3903779052657,3197
2960.1208252393385,3280
2961.8509533975125,3188
2963.5807626896617,3179
2965.3102534257378,3243
2967.0394259157715,3167
2968.768280469873,3208
2970.496817398232,3259
2972.2250370111146,3221
2973.952939618869,3347
2975.6805255319196,3200
2977.4077950607707,3288
2979.134748516006,3236
2980.861386208289,3354
2982.587708448359,3356
2984.313715547037,3306
2986.039407815222,3389
2987.764785563891,3281
2989.489849104102,3309
2991.2145987469908,3301
2992.9390348037705,3228
2994.6631575857346,3229
2996.3869674042576,3283
2998.1104645707887,3221
2999.83364939686,3243
3001.5565221940783,3226
3003.2790832741334,3206
3005.0013329487924,3253
3006.7232715298996,3205
3008.4448993293804,3316
3010.166216659239,3178
3011.887223831558,3216
3013.607921158498,3237
3015.3283089522993,3211
3017.0483875252826,3227
3018.7681571898443,3261
3020.4876182584626,3304
3022.2067710436927,3281
3023.9256158581707,3322
3025.644153014609,3336
3027.362382825801,3281
3029.0803056046193,3320
3030.797921664012,3210
3032.5152313170106,3230
3034.2322348767225,3204
3035.9489326563353,3331
3037.665324969115,3361
3039.3814121284063,3232
3041.097194447633,3212
3042.812672240299,3335
3044.5278458199855,3276
3046.2427155003525,3239
3047.9572815951406,3256
3049.671544418167,3294
3051.38550428333,3251
3053.0991615046073,3234
3054.812516396051,3268
3056.5255692717974,3171
3058.2383204460575,3221
3059.9507702331257,3278
3061.662918947372,3305
3063.3747669032446,3283
3065.0863144152736,3284
3066.7975617980674,3249
3068.508509366309,3368
3070.219157434767,3302
3071.9295063182844,3320
3073.639556331785,3368
3075.3493077902704,3334
3077.058761008821,3268
3078.7679163025964,3301
3080.476773986837,3299
3082.1853343768594,3460
3083.89359778806,3319
3085.6015645359153,3329
3087.3092349359786,3258
3089.016609303884,3320
3090.7236879553434,3354
3092.4304712061476,3383
3094.136959372166,3313
3095.843152769349,3295
3097.5490517137237,3324
3099.2546565213966,3297
3100.959967508554,3274
3102.66498499146,3295
3104.3697092864577,3253
3106.0741407099695,3295
3107.778279578498,3400
3109.482126208622,3214
3111.1856809170004,3345
3112.8889440203716,3349
3114.5919158355528,3419
3116.294596679439,3341
3117.996986869006,3363
3119.6990867213062,3247
3121.4008965534726,3381
3123.102416682717,3264
3124.803647426329,3334
3126.5045891016784,3292
3128.205242026213,3379
3129.90560651746,3409
3131.605682893025,3490
3133.3054714705922,3393
3135.0049725679282,3341
3136.7041865028714,3345
3138.4031135933465,3427
3140.101754157353,3230
3141.800108512971,3283
3143.498176978357,3357
3145.1959598717494,3346
3146.8934575114636,3358
3148.5906702158954,3326
3150.2875983035183,3356
3151.9842420928853,3272
3153.680601902627,3281
3155.376678051456,3301
3157.07247085816,3350
3158.767980641609,3359
3160.463207720748,3235
3162.158152414606,3301
3163.8528150422862,3394
3165.5471959229726,3384
3167.2412953759303,3387
3168.9351137204976,3397
3170.628651276098,3436
3172.3219083622307,3389
3174.014885298474,3393
3175.707582404485,3420
3177.4000000000005,3418
3179.092138404835,3373
3180.7839979388846,3325
3182.47557892212,3346
3184.166881674594,3449
3185.8579065164386,3413
3187.5486537678626,3359
3189.2391237491547,3430
3190.9293167806827,3373
3192.6192331828934,3453
3194.3088732763117,3376
3195.998237381542,3341
3197.687325819268,3504
3199.376138910251,3379
3201.064676975334,3260
3202.7529403354347,3296
3204.4409293115523,3397
3206.1286442247647,3273
3207.816085396229,3379
3209.5032531471825,3329
3211.190147798936,3286
3212.8767696728846,3310
3214.5631190905015,3392
3216.2491963733373,3280
3217.9350018430214,3304
3219.6205358212637,3320
3221.305798629851,3300
3222.990790590651,3246
3224.6755120256103,3291
3226.359963256751,3320
3228.0441446061795,3285
3229.7280563960758,3283
3231.411698948703,3290
3233.0950725863995,3322
3234.778177631587,3339
3236.461014406761,3395
3238.1435832345005,3413
3239.8258844374595,3438
3241.507918338374,3359
3243.1896852600576,3327
3244.8711855254023,3376
3246.552419457381,3280
3248.233387379042,3370
3249.914089613516,3267
3251.59452648401,3402
3253.274698313813,3376
3254.95460542629,3365
3256.6342481448855,3375
3258.313626793125,3413
3259.9927416946084,3283
3261.6715931730196,3188
3263.3501815521176,3336
3265.0285071557437,3346
3266.706570307815,3363
3268.3843713323286,3339
3270.0619105533615,3352
3271.739188295068,3356
3273.4162048816834,3268
3275.0929606375184,3369
3276.769455886966,3301
3278.445690954498,3356
3280.1216661646613,3405
3281.797381842087,3367
3283.4728383114807,3330
3285.1480358976296,3290
3286.8229749253996,3284
3288.4976557197333,3386
3290.172078605655,3284
3291.846243908266,3282
3293.5201519527463,3339
3295.193803064357,3261
3296.8671975684374,3362
3298.5403357904024,3344
3300.21321805575,3437
3301.8858446900567,3367
3303.558216018975,3272
3305.23033236824,3351
3306.9021940636603,3413
3308.57380143113,3445
3310.2451547966184,3391
3311.916254486174,3312
3313.5871008259246,3472
3315.2576941420766,3313
3316.9280347609147,3342
3318.5981230088046,3285
3320.2679592121895,3352
3321.9375436975924,3271
3323.606876791612,3310
3325.27595882093,3315
3326.944790112305,3291
3328.6133709925753,3363
3330.2817017886573,3286
3331.949782827547,3323
3333.617614436319,3350
3335.2851969421245,3291
3336.952530672199,3445
3338.619615953853,3484
3340.286453114475,3344
3341.9530424815357,3403
3343.619384382583,3475
3345.2854791452437,3435
3346.951327097224,3377
3348.6169285663073,3414
3350.2822838803577,3412
3351.947393367319,3360
3353.61225735521,3396
3355.2768761721345,3440
3356.9412501462693,3400
3358.605379605873,3488
3360.2692648792827,3403
3361.9329062949146,3356
3363.596304181263,3359
