CollectionTime,7/10/2024 3:48:23 PM
ExposureUsed,3
CalibratedSpectrum
-962.7078968117929,500
-959.9714848408522,527
-957.2358232597828,575
-954.5009119013725,564
-951.7667505983302,539
-949.0333391832855,592
-946.3006774887896,579
-943.5687653473143,560
-940.837602591253,541
-938.1071890529199,534
-935.3775245645503,553
-932.6486089583007,538
-929.9204420662485,605
-927.1930237203925,598
-924.4663537526524,590
-921.7404319948689,582
-919.0152582788041,594
-916.2908324361409,646
-913.5671542984834,611
-910.8442236973568,606
-908.1220404642074,573
-905.4006044304027,611
-902.679915427231,598
-899.959973285902,570
-897.2407778375464,554
-894.5223289132158,564
-891.8046263438832,556
-889.0876699604426,578
-886.3714595937089,572
-883.6559950744183,589
-880.9412762332282,579
-878.2273029007168,520
-875.5140749073835,583
-872.8015920836489,580
-870.0898542598545,559
-867.3788612662631,560
-864.6686129330585,556
-861.9591090903457,541
-859.2503495681506,530
-856.5423341964203,523
-853.8350628050229,551
-851.1285352237478,546
-848.4227512823054,571
-845.7177108103272,580
-843.0134136373656,547
-840.3098595928943,566
-837.6070485063082,595
-834.9049802069229,608
-832.2036545239757,569
-829.5030712866244,579
-826.8032303239481,580
-824.1041314649472,590
-821.4057745385428,558
-818.7081593735775,554
-816.0112857988148,572
-813.3151536429393,585
-810.6197627345566,563
-807.9251129021936,617
-805.2312039742981,598
-802.5380357792392,574
-799.8456081453069,585
-797.1539209007124,569
-794.462973873588,580
-791.772766891987,563
-789.083299783884,571
-786.3945723771743,599
-783.7065844996748,606
-781.0193359791231,587
-778.3328266431781,595
-775.6470563194197,567
-772.9620248353489,590
-770.2777320183878,578
-767.5941776958798,579
-764.9113616950891,582
-762.2292838432011,605
-759.5479439673222,609
-756.8673418944801,600
-754.1874774516235,642
-751.5083504656222,654
-748.8299607632671,594
-746.15230817127,614
-743.475392516264,615
-740.7992136248035,600
-738.1237713233636,601
-735.4490654383407,609
-732.7750957960521,603
-730.1018622227365,628
-727.4293645445534,607
-724.7576025875837,596
-722.0865761778291,601
-719.4162851412126,597
-716.7467293035781,607
-714.0779084906909,629
-711.409822528237,640
-708.7424712418238,633
-706.0758544569796,609
-703.4099719991541,642
-700.7448236937178,650
-698.0804093659622,656
-695.4167288411002,626
-692.7537819442656,597
-690.0915685005134,640
-687.4300883348199,670
-684.7693412720819,654
-682.1093271371178,641
-679.4500457546669,650
-676.7914969493897,640
-674.1336805458676,652
-671.4765963686034,650
-668.8202442420206,672
-666.1646239904642,637
-663.5097354382001,679
-660.8555784094151,649
-658.2021527282176,644
-655.5494582186366,648
-652.8974947046223,624
-650.2462620100463,689
-647.5957599587009,681
-644.9459883742998,686
-642.2969470804776,656
-639.6486359007902,668
-637.0010546587141,702
-634.3542031776476,704
-631.7080812809096,703
-629.0626887917401,672
-626.4180255333008,697
-623.7740913286734,690
-621.1308860008619,706
-618.4884093727904,678
-615.8466612673046,713
-613.2056415071715,710
-610.5653499150785,712
-607.9257863136347,727
-605.28695052537,687
-602.6488423727357,699
-600.0114616781036,682
-597.3748082637674,678
-594.7388819519412,726
-592.1036825647604,753
-589.4692099242818,830
-586.8354638524829,765
-584.2024441712624,699
-581.5701507024403,713
-578.9385832677575,727
-576.3077416888759,748
-573.6776257873787,731
-571.0482353847704,731
-568.4195703024757,745
-565.7916303618415,734
-563.164415384135,740
-560.5379251905453,712
-557.9121596021815,716
-555.2871184400748,730
-552.6628015251767,738
-550.0392086783606,746
-547.4163397204204,734
-544.794194472071,741
-542.1727727539491,729
-539.5520743866118,766
-536.9320991905377,797
-534.3128469861261,885
-531.6943175936979,841
-529.0765108334947,839
-526.4594265256793,861
-523.8430644903358,978
-521.2274245474689,1086
-518.612506517005,1150
-515.9983102187913,1180
-513.3848354725959,1261
-510.77208209810846,1214
-508.16004991493924,1308
-505.5487387426199,1419
-502.9381484006032,1697
-500.3282787082628,1687
-497.71912948489364,1740
-495.1107005497117,1627
-492.5029917218539,1546
-489.8960028203786,1396
-487.28973366426493,1260
-484.68418407241325,1148
-482.07935386364494,1015
-479.47524285670266,984
-476.87185087025,1027
-474.2691777228715,1008
-471.66722323307334,953
-469.0659872192821,955
-466.4654694998459,1000
-463.86566989303384,996
-461.26658821703614,965
-458.66822428996414,968
-456.07057792985,918
-453.4736489546475,944
-450.877437182231,881
-448.28194243039627,890
-445.68716451686,901
-443.09310325926003,886
-440.49975847515555,844
-437.9071299820263,896
-435.31521759727354,906
-432.72402113821954,955
-430.13354042210767,966
-427.5437752661022,927
-424.95472548728867,924
-422.36639090267386,977
-419.7787713291855,984
-417.1918665836721,1022
-414.60567648290385,1033
-412.0202008435715,1051
-409.4354394822874,1065
-406.8513922155845,1089
-404.26805885991723,1018
-401.685439231661,994
-399.103533147112,1040
-396.522340422488,1000
-393.9418608739278,1008
-391.3620943174908,1006
-388.7830405691583,966
-386.2046994448317,936
-383.6270707603344,882
-381.05015433141045,831
-378.473949973725,831
-375.8984575028645,800
-373.32367673433623,762
-370.74960748356875,707
-368.1762495659117,675
-365.60360279663576,625
-363.03166699093265,594
-360.4604419639154,554
-357.8899275306178,560
-355.32012350599507,531
-352.7510297049233,524
-350.1826459421999,515
-347.61497203254316,482
-345.04800779059235,488
-342.4817530309082,502
-339.91620756797226,484
-337.35137121618743,518
-334.7872437898774,520
-332.22382510328725,588
-329.66111497058273,556
-327.09911320585127,529
-324.53781962310075,506
-321.9772340362607,491
-319.4173562591816,480
-316.8581861056348,509
-314.2997233893127,492
-311.7419679238294,476
-309.1849195227194,541
-306.62857799943856,545
-304.0729431673641,554
-301.51801483979375,559
-298.963792829947,564
-296.41027695096386,537
-293.85746701590574,597
-291.3053628377552,618
-288.7539642294155,594
-286.2032710037115,584
-283.65328297338897,588
-281.1039999511146,650
-278.5554217494762,715
-276.007548180983,667
-273.4603790580651,600
-270.9139141930734,544
-268.3681533982807,587
-265.8230964858798,575
-263.27874326798565,590
-260.7350935566336,636
-258.1921471637804,681
-255.6499039013039,639
-253.10836358100266,604
-250.56752601459698,633
-248.02739101372765,591
-245.48795838995704,593
-242.94922795476816,652
-240.41119951956557,611
-237.8738728956746,681
-235.33724789434166,739
-232.80132432673452,704
-230.2661020039418,718
-227.73158073697357,665
-225.19776033676033,755
-222.66464061415422,724
-220.1322213799284,694
-217.60050244477725,659
-215.06948361931552,653
-212.53916471408013,721
-210.00954553952818,809
-207.48062590603843,818
-204.9524056239104,757
-202.4248845033651,842
-199.8980623545441,770
-197.37193898751036,758
-194.84651421224817,794
-192.32178783866232,801
-189.79775967657952,834
-187.27442953574644,931
-184.7517972258321,1013
-182.2298625564256,1015
-179.7086253370378,852
-177.18808537710026,822
-174.66824248596583,785
-172.14909647290835,836
-169.6306471471229,826
-167.11289431772548,927
-164.59583779375328,939
-162.07947738416453,971
-159.5638128978386,980
-157.04884414357605,1061
-154.53457093009854,1025
-152.02099306604828,921
-149.50811035998936,874
-146.99592262040665,844
-144.48442965570587,869
-141.97363127421409,1048
-139.46352728417958,1033
-136.95411749377126,1012
-134.44540171107985,961
-131.93737974411636,967
-129.43005140081357,998
-126.92341648902493,1307
-124.41747481652521,1834
-121.91222619101006,2228
-119.40767042009657,2348
-116.90380731132257,2678
-114.40063667214702,2940
-111.8981583099503,2965
-109.3963720320337,2439
-106.89527764561933,2061
-104.39487495785067,1774
-101.89516377579241,2709
-99.39614390642998,4232
-96.89781515667039,5413
-94.40017733334128,5026
-91.90323024319173,3817
-89.40697369289148,3287
-86.91140748903172,4757
-84.41653143812482,6366
-81.92234534660395,6138
-79.42884902082358,5961
-76.93604226705907,8024
-74.4439248915071,13042
-71.95249670028534,20841
-69.46175749943245,26652
-66.97170709490854,28270
-64.48234529259423,23544
-61.99367189829195,18168
-59.50568671772464,14904
-57.01838955653636,10830
-54.53178022029283,7130
-52.045858514480074,7559
-49.560624244506016,10042
-47.07607721569923,10847
-44.59221723330904,11322
-42.10904410250669,12306
-39.62655762838392,13181
-37.14475761595372,12299
-34.66364387015028,12986
-32.18321619582866,13196
-29.70347439776515,12905
-27.224418280657005,13684
-24.74604764912317,15994
-22.26836230770266,20889
-19.7913620608565,30844
-17.315046712966478,48902
-14.83941606833514,65037
-12.36446993118659,65037
-9.89020810566592,65037
-7.416630395839093,65037
-4.94373660569363,65037
-2.471526539137585,65037
-6.821210263296962E-13,65037
2.47084320796705,65037
4.941003281093458,65037
7.410480415786196,65037
9.879274808531363,65037
12.347386655893956,65037
14.814816154518212,65037
17.28156350112681,65037
19.74762889252179,65037
22.21301252558385,65037
24.67771459727237,10959
27.141735304626195,4127
29.605074844762612,3146
32.06773341487792,2695
34.52971121224755,2640
36.99100843422559,3068
39.45162527824516,3115
41.91156194181792,2101
44.370818622535126,1693
46.82939551806646,1504
49.287292826160524,1704
51.74451074464503,2149
54.201049471426245,1912
56.65690920448981,1571
59.112090141899785,1555
61.56659248179983,1575
64.02041642241159,1275
66.4735621620365,1198
68.92602989905402,1260
71.37781983192338,1264
73.82893215918205,1321
76.27936707944684,1483
78.72912479141326,1595
81.17820549385567,1384
83.62660938562783,1313
86.07433666566146,1356
88.5213875329681,1176
90.96776218663751,1070
93.41346082583925,1052
95.85848364982041,1085
98.30283085790859,1214
100.7465026495089,1347
103.18949922410604,1306
105.63182078126385,1100
108.07346752062438,1215
110.51443964190923,1212
112.95473734491827,1049
115.39436082953114,1006
117.83331029570547,993
120.27158594347827,1016
122.7091879729652,1179
125.1461165843615,1139
127.58237197794062,875
130.01795435405518,853
132.4528639131364,960
134.88710085569494,1067
137.32066538231982,1006
139.75355769367923,915
142.1857779905207,864
144.61732647366978,861
147.04820334403132,939
149.47840880258934,966
151.90794305040674,1024
154.33680628862487,1198
156.76499871846443,1319
159.19252054122433,1426
161.61937195828352,1592
164.04555317109896,1683
166.47106438120693,1891
168.89590579022217,2033
171.320077599839,2111
173.7435800118302,2249
176.16641322804742,2508
178.58857745042144,2601
181.01007288096173,2617
183.43089972175687,2741
185.85105817497413,2653
188.27054844285988,2594
190.6893707277394,2615
193.10752523201643,2627
195.5250121581745,2735
197.9418317087751,2787
200.3579840864594,2757
202.7734694939469,2756
205.18828813403627,2786
207.6024402096051,2988
210.01592592360964,2968
212.42874547908548,2914
214.84089907914665,2877
217.2523869269868,2826
219.66320922587727,2762
222.0733661791695,2743
224.48285799029293,2859
226.8916848627572,2836
229.29984700014882,2895
231.7073446061355,2876
234.11417788446204,2747
236.520347038953,2815
238.92585227351185,2841
241.33069379212054,2841
243.73487179884035,2877
246.1383864978112,3022
248.541238093252,2936
250.9434267894609,2836
253.34495279081432,2911
255.74581630176783,2888
258.1460175268563,2934
260.54555667069314,2983
262.9444339379703,2938
265.3426495334594,2895
267.7402036620107,2917
270.1370965285529,2827
272.53332833809407,2854
274.9288992957214,2793
277.32380960660055,2786
279.718059475976,2696
282.1116491091717,2723
284.5045787115897,2813
286.89684848871195,2717
289.2884586460981,2778
291.67940938938807,2739
294.0697009242996,2765
296.4593334566299,2746
298.84830719225477,2797
301.23662233712923,2744
303.6242790972866,2638
306.01127767884,2615
308.39761828798066,2660
310.78330113097934,2517
313.16832641418534,2528
315.5526943440269,2469
317.9364051270112,2457
320.3194589697242,2518
322.70185607883093,2504
325.0835966610754,2489
327.4646809232805,2487
329.8451090723478,2457
332.2248813152577,2397
334.6039978590701,2362
336.9824589109231,2465
339.36026467803447,2360
341.7374153677,2384
344.113911187295,2429
346.48975234427337,2328
348.8649390461686,2440
351.2394715005918,2317
353.61334991523415,2273
355.9865744978655,2239
358.35914545633375,2249
360.73106299856715,2318
363.10232733257146,2311
365.47293866643247,2282
367.84289720831396,2235
370.2122031664593,2329
372.5808567491905,2356
374.9488581649083,2255
377.31620762209275,2215
379.6829053293021,2186
382.0489514951745,2244
384.4143463284262,2236
386.7790900378528,2148
389.14318283232853,2174
391.50662492080653,2149
393.86941651231916,2150
396.23155781597745,2178
398.5930490409713,2143
400.9538903965696,2118
403.3140820921202,2235
405.6736243370498,2211
408.03251734086336,2201
410.3907613131465,2135
412.74835646356166,2081
415.10530300185144,2122
417.4616011378372,2124
419.81725108141893,2175
422.1722530425758,2145
424.5266072313656,2152
426.880313857925,2156
429.2333731324701,2200
431.58578526529516,2146
433.9375504667738,2118
436.2886689473588,2077
438.63914091758113,2150
440.9889665880513,2037
443.33814616945835,2133
445.68667987257015,1984
448.03456790823395,2094
450.3818104873759,2028
452.72840782100013,2096
455.07436012019105,1971
457.41966759611057,2072
459.7643304600007,2062
462.10834892318155,2098
464.4517231970525,2107
466.79445349309174,2093
469.1365400228566,2059
471.4779829979826,2051
473.81878263018564,2060
476.15893913125876,2081
478.4984527130747,2102
480.8373235875855,2212
483.17555196682144,2297
485.5131380628919,2297
487.8500820879857,2420
490.1863842543697,2575
492.52204477439034,2792
494.8570638604725,3029
497.1914417251204,3384
499.52517858091653,3589
501.85827464052306,3781
504.19073011668036,3856
506.5225452222086,3768
508.85372017000566,3745
511.18425517304956,3517
513.514150444396,3550
515.8434061971808,4165
518.1720226446176,4928
520.4999999999999,5307
522.8273384766991,4996
525.1540382881666,4629
527.480099647932,4174
529.8055227696037,3486
532.1303078668694,2955
534.454455153496,2558
536.777964843328,2465
539.1008371502907,2339
541.4230722883866,2365
543.744670471698,2324
546.0656319143858,2332
548.3859568306899,2430
550.7056454349294,2341
553.0246979415016,2273
555.3431145648834,2186
557.6608955196306,2210
559.978041020377,2223
562.2945512818363,2245
564.6104265188006,2266
566.9256669461412,2225
569.2402727788082,2292
571.5542442318302,2238
573.8675815203156,2277
576.1802848594508,2216
578.4923544645015,2199
580.8037905508126,2378
583.114593333807,2372
585.4247630289875,2289
587.7342998519354,2270
590.0432040183106,2275
592.3514757438526,2277
594.6591152443794,2278
596.9661227357875,2265
599.2724984340531,2314
601.578242555231,2327
603.8833553154542,2243
606.1878369309362,2301
608.4916876179676,2344
610.7949075929192,2166
613.0974970722403,2258
615.3994562724587,2185
617.7007854101818,2238
620.0014847020951,2200
622.3015543649641,2200
624.6009946156324,2345
626.8998056710224,2222
629.1979877481361,2183
631.4955410640538,2211
633.7924658359349,2169
636.0887622810175,2246
638.3844306166192,2286
640.6794710601358,2194
642.9738838290426,2240
645.2676691408932,2237
647.5608272133207,2276
649.853358264037,2201
652.1452625108324,2164
654.4365401715764,2184
656.7271914642178,2192
659.0172166067838,2266
661.3066158173809,2227
663.5953893141935,2189
665.8835373154867,2244
668.1710600396028,2167
670.4579577049639,2137
672.7442305300709,2169
675.0298787335033,2223
677.3149025339197,2203
679.599302150058,2177
681.8830778007342,2171
684.1662297048437,2122
686.4487580813608,2262
688.7306631493387,2295
691.0119451279091,2193
693.2926042362834,2251
695.5726406937516,2181
697.8520547196814,2200
700.1308465335215,2171
702.4090163547982,2223
704.6865644031171,2206
706.9634908981619,2225
709.2397960596965,2170
711.5154801075631,2204
713.7905432616823,2073
716.0649857420548,2124
718.3388077687592,2177
720.612009561953,2202
722.8845913418733,2186
725.1565533288352,2217
727.427895743234,2200
729.6986188055427,2182
731.9687227363137,2176
734.238207756178,2213
736.5070740858458,2272
738.7753219461066,2214
741.0429515578281,2240
743.3099631419569,2164
745.5763569195191,2162
747.8421331116193,2178
750.1072919394409,2191
752.3718336242467,2182
754.6357583873777,2251
756.8990664502545,2191
759.1617580343765,2170
761.423833361321,2229
763.6852926527457,2218
765.9461361303862,2283
768.206364016058,2237
770.4659765316536,2243
772.7249738991469,2227
774.9833563405886,2257
777.2411240781092,2222
779.4982773339183,2194
781.7548163303044,2200
784.010741289634,2255
786.2660524343538,2305
788.5207499869881,2239
790.7748341701416,2310
793.0283052064964,2209
795.2811633188143,2267
797.5334087299362,2277
799.7850416627813,2321
802.0360623403484,2280
804.2864709857143,2215
806.5362678220353,2246
808.7854530725468,2250
811.0340269605625,2342
813.2819897094754,2268
815.5293415427581,2277
817.77608268396,2204
820.0222133567116,2262
822.2677337847211,2248
824.5126441917765,2221
826.7569448017433,2204
829.0006358385675,2283
831.2437175262731,2309
833.4861900889629,2222
835.7280537508192,2144
837.9693087361026,2210
840.2099552691533,2156
842.4499935743896,2213
844.689423876309,2260
846.9282463994886,2267
849.1664613685833,2329
851.4040690083276,2261
853.6410695435349,2362
855.877463199097,2309
858.1132501999847,2300
860.3484307712487,2268
862.5830051380175,2288
864.8169735254988,2246
867.0503361589791,2308
869.2830932638243,2345
871.5152450654786,2241
873.7467917894654,2321
875.9777336613873,2247
878.2080709069252,2365
880.4378037518389,2351
882.666932421968,2395
884.8954571432301,2337
887.1233781416219,2408
889.3506956432192,2322
891.5774098741766,2319
893.803521060728,2303
896.0290294291852,2333
898.2539352059397,2372
900.4782386174619,2415
902.7019398903011,2347
904.925039251085,2327
907.147536926521,2284
909.3694331433943,2231
911.59072812857,2235
913.8114221089921,2234
916.0315153116827,2298
918.2510079637437,2247
920.4699002923547,2280
922.6881925247761,2248
924.905884888345,2253
927.1229776104793,2359
929.3394709186747,2228
931.555365040506,2268
933.7706602036275,2318
935.9853566357709,2292
938.1994545647489,2260
940.4129542184515,2247
942.6258558248488,2297
944.8381596119883,2270
947.0498658079974,2189
949.2609746410825,2123
951.4714863395287,2251
953.6814011316998,2141
955.8907192460387,2234
958.0994409110671,2158
960.3075663553858,2137
962.5150958076741,2164
964.7220294966913,2199
966.928367651274,2168
969.1341105003388,2142
971.3392582728806,2190
973.5438111979742,2143
975.747769504772,2185
977.9511334225061,2181
980.153903180487,2095
982.3560790081052,2133
984.5576611348289,2148
986.7586497902058,2081
988.9590452038618,2120
991.158847605503,2066
993.3580572249133,2065
995.5566742919558,2029
997.7546990365728,2035
999.952131688785,1939
1002.1489724786926,1955
1004.3452216364743,1959
1006.5408793923874,1985
1008.7359459767691,1894
1010.9304216200343,1887
1013.1243065526781,1882
1015.3176010052733,1906
1017.510305208472,1925
1019.7024193930064,1917
1021.8939437896848,1910
1024.0848786293977,1900
1026.2752241431122,1877
1028.4649805618747,1738
1030.6541481168115,1851
1032.842727039127,1855
1035.0307175601051,1857
1037.2181199111074,1802
1039.4049343235752,1790
1041.591161029029,1878
1043.7768002590683,1803
1045.9618522453698,1752
1048.1463172196918,1805
1050.3301954138697,1757
1052.513487059818,1830
1054.69619238953,1857
1056.8783116350783,1832
1059.0598450286152,1702
1061.2407928023704,1841
1063.4211551886528,1804
1065.6009324198508,1825
1067.780124728432,1799
1069.9587323469414,1787
1072.1367555080046,1860
1074.314194444325,1839
1076.4910493886855,1764
1078.667320573947,1811
1080.843008233051,1813
1083.0181125990161,1744
1085.1926339049414,1731
1087.3665723840027,1769
1089.5399282694575,1742
1091.7127017946405,1753
1093.8848931929647,1730
1096.0565026979243,1834
1098.2275305430899,1753
1100.3979769621128,1716
1102.567842188722,1782
1104.737126456726,1829
1106.9058300000124,1693
1109.0739530525475,1719
1111.2414958483764,1750
1113.4084586216231,1699
1115.5748416064907,1772
1117.7406450372605,1787
1119.9058691482942,1757
1122.0705141740304,1834
1124.2345803489884,1715
1126.3980679077658,1750
1128.5609770850388,1747
1130.7233081155623,1656
1132.8850612341707,1661
1135.0462366757774,1719
1137.2068346753745,1744
1139.3668554680326,1715
1141.526299288901,1709
1143.68516637321,1689
1145.8434569562655,1743
1148.001171273455,1718
1150.158309560244,1705
1152.3148720521767,1736
1154.470858984876,1665
1156.626270594044,1742
1158.7811071154629,1719
1160.9353687849912,1642
1163.089055838569,1693
1165.242168512213,1657
1167.3947070420209,1672
1169.5466716641677,1691
1171.6980626149075,1670
1173.8488801305748,1627
1175.9991244475814,1650
1178.1487958024186,1713
1180.2978944316555,1724
1182.4464205719428,1667
1184.5943744600072,1699
1186.7417563326567,1672
1188.8885664267755,1651
1191.0348049793297,1657
1193.1804722273619,1646
1195.325568407995,1635
1197.4700937584303,1718
1199.614048515948,1604
1201.7574329179074,1660
1203.900247201746,1656
1206.042491604982,1619
1208.1841663652099,1671
1210.3252717201053,1617
1212.465807907422,1595
1214.6057751649923,1668
1216.7451737307279,1646
1218.8840038426192,1692
1221.0222657387353,1628
1223.1599596572241,1703
1225.2970858363137,1705
1227.4336445143094,1690
1229.5696359295966,1712
1231.705060320639,1694
1233.8399179259786,1723
1235.9742089842384,1709
1238.107933734118,1685
1240.2410924143974,1685
1242.373685263935,1774
1244.5057125216676,1661
1246.6371744266116,1754
1248.7680712178621,1693
1250.898403134593,1764
1253.028170416058,1754
1255.1573733015875,1747
1257.2860120305932,1756
1259.4140868425648,1704
1261.54159797707,1690
1263.6685456737569,1755
1265.7949301723515,1776
1267.9207517126597,1755
1270.046010534565,1730
1272.1707068780306,1718
1274.2948409830983,1757
1276.4184130898889,1774
1278.541423438603,1790
1280.6638722695184,1743
1282.785759822993,1786
1284.9070863394636,1784
1287.0278520594447,1833
1289.1480572235314,1767
1291.2677020723963,1759
1293.3867868467923,1771
1295.5053117875495,1823
1297.623277135579,1874
1299.740683131868,1800
1301.8575300174857,1832
1303.973818033578,1757
1306.0895474213703,1856
1308.2047184221678,1844
1310.3193312773528,1849
1312.4333862283888,1830
1314.5468835168163,1822
1316.659823384255,1844
1318.7722060724045,1841
1320.8840318230418,1817
1322.9953008780249,1842
1325.1060134792888,1849
1327.2161698688478,1841
1329.3257702887959,1887
1331.4348149813054,1821
1333.5433041886276,1804
1335.6512381530933,1797
1337.7586171171101,1816
1339.8654413231675,1814
1341.9717110138317,1750
1344.0774264317488,1806
1346.1825878196432,1853
1348.2871954203192,1785
1350.3912494766587,1796
1352.4947502316231,1787
1354.5976979282532,1781
1356.7000928096686,1840
1358.8019351190665,1856
1360.9032250997243,1827
1363.0039629949988,1789
1365.1041490483235,1771
1367.2037835032133,1805
1369.3028666032606,1794
1371.401398592137,1830
1373.4993797135926,1802
1375.5968102114575,1819
1377.6936903296396,1811
1379.7900203121262,1840
1381.8858004029835,1803
1383.9810308463561,1834
1386.075711886469,1862
1388.1698437676241,1816
1390.2634267342032,1807
1392.356461030667,1825
1394.4489469015557,1858
1396.5408845914872,1847
1398.6322743451592,1889
1400.7231164073469,1873
1402.813411022907,1874
1404.903158436773,1854
1406.9923588939578,1863
1409.0810126395531,1929
1411.1691199187303,1948
1413.2566809767386,1902
1415.343696058907,1912
1417.4301654106425,1839
1419.5160892774315,1909
1421.6014679048399,1918
1423.6863015385125,2057
1425.7705904241707,1908
1427.8543348076178,1964
1429.9375349347342,1990
1432.0201910514802,1934
1434.102303403894,1986
1436.1838722380944,1955
1438.2648978002767,1922
1440.3453803367174,1953
1442.4253200937692,1997
1444.5047173178677,1941
1446.5835722555234,1988
1448.6618851533285,2006
1450.739656257952,2028
1452.8168858161434,1997
1454.8935740747306,1966
1456.96972128062,2031
1459.045327680797,2080
1461.120393522327,2136
1463.1949190523528,2103
1465.2689045180973,2078
1467.3423501668608,2135
1469.415256246024,2162
1471.4876230030463,2181
1473.559450685465,2217
1475.6307395408976,2230
1477.7014898170391,2204
1479.771701761665,2180
1481.8413756226287,2321
1483.9105116478618,2308
1485.9791100853772,2314
1488.0471711832643,2374
1490.1146951896926,2391
1492.1816823529098,2410
1494.2481329212433,2361
1496.3140471430984,2429
1498.3794252669609,2438
1500.4442675413939,2487
1502.5085742150404,2455
1504.572345536622,2506
1506.6355817549388,2494
1508.6982831188702,2522
1510.7604498773744,2577
1512.8220822794883,2552
1514.8831805743293,2670
1516.9437450110909,2630
1519.003775839048,2658
1521.0632733075522,2651
1523.1222376660367,2675
1525.1806691640113,2707
1527.2385680510652,2686
1529.2959345768668,2785
1531.3527689911643,2832
1533.4090715437833,2877
1535.4648424846291,2923
1537.5200820636855,2911
1539.5747905310159,3006
1541.6289681367616,2949
1543.6826151311434,3083
1545.7357317644614,3049
1547.7883182870937,3096
1549.8403749494987,3151
1551.8919020022113,3262
1553.9428996958477,3216
1555.9933682811015,3388
1558.0433080087469,3353
1560.0927191296346,3366
1562.1416018946961,3411
1564.1899565549415,3516
1566.2377833614592,3478
1568.2850825654164,3460
1570.3318544180606,3440
1572.3780991707158,3311
1574.423817074788,3261
1576.4690083817595,3220
1578.5136733431923,3141
1580.5578122107272,2981
1582.601425236085,2852
1584.6445126710646,2764
1586.6870747675434,2687
1588.7291117774776,2586
1590.7706239529034,2569
1592.8116115459347,2419
1594.8520748087658,2295
1596.8920139936686,2325
1598.9314293529933,2231
1600.9703211391711,2175
1603.008689604711,2129
1605.0465350022005,2177
1607.0838575843068,2112
1609.1206576037753,2066
1611.1569353134305,1965
1613.1926909661765,2003
1615.2279248149953,1957
1617.2626371129481,1999
1619.2968281131757,1970
1621.3304980688963,1964
1623.3636472334088,1930
1625.39627586009,1980
1627.428384202396,1896
1629.459972513861,1840
1631.4910410480993,1859
1633.5215900588028,1900
1635.551619799744,1945
1637.5811305247717,1892
1639.6101224878166,1884
1641.6385959428862,1817
1643.6665511440683,1892
1645.693988345528,1879
1647.7209078015112,1845
1649.7473097663405,1786
1651.7731944944203,1920
1653.7985622402307,1946
1655.823413258333,1887
1657.847747803366,1755
1659.8715661300494,1757
1661.8948684931793,1838
1663.9176551476316,1873
1665.9399263483624,1841
1667.9616823504057,1862
1669.982923408873,1813
1672.0036497789574,1772
1674.0238617159293,1805
1676.043559475138,1778
1678.0627433120121,1828
1680.081413482059,1784
1682.0995702408654,1766
1684.117213844096,1777
1686.134344547495,1758
1688.1509626068864,1790
1690.1670682781705,1786
1692.182661817329,1815
1694.1977434804217,1785
1696.2123135235875,1846
1698.226372203043,1845
1700.2399197750851,1817
1702.2529564960905,1794
1704.2654826225112,1770
1706.277498410882,1860
1708.2890041178139,1818
1710.2999999999988,1832
1712.3104863142066,1768
1714.3204633172854,1783
1716.329931266163,1802
1718.3388904178469,1744
1720.3473410294214,1808
1722.3552833580516,1702
1724.3627176609807,1789
1726.3696441955308,1817
1728.3760632191033,1754
1730.3819749891782,1705
1732.3873797633146,1806
1734.3922777991502,1727
1736.3966693544012,1732
1738.4005546868639,1755
1740.4039340544127,1713
1742.406807715001,1805
1744.4091759266616,1725
1746.4110389475054,1793
1748.4123970357223,1662
1750.413250449582,1675
1752.4135994474318,1689
1754.4134442876993,1782
1756.4127852288902,1672
1758.4116225295893,1718
1760.4099564484595,1758
1762.407787244244,1741
1764.405115175764,1735
1766.4019405019203,1751
1768.3982634816916,1733
1770.3940843741357,1769
1772.3894034383907,1801
1774.3842209336717,1762
1776.378537119274,1761
1778.372352254571,1762
1780.3656665990156,1753
1782.3584804121397,1700
1784.3507939535534,1701
1786.3426074829463,1726
1788.3339212600863,1745
1790.3247355448211,1729
1792.3150505970766,1682
1794.3048666768573,1728
1796.2941840442477,1721
1798.2830029594106,1739
1800.2713236825884,1726
1802.2591464741004,1691
1804.2464715943465,1736
1806.2332993038058,1725
1808.2196298630352,1714
1810.2054635326708,1759
1812.190800573428,1706
1814.175641246101,1747
1816.1599858115628,1774
1818.1438345307652,1737
1820.127187664738,1730
1822.1100454745924,1745
1824.092408221516,1777
1826.0742761667766,1713
1828.055649571721,1731
1830.0365286977735,1710
1832.0169138064398,1712
1833.9968051593014,1705
1835.9762030180214,1787
1837.9551076443408,1819
1839.9335193000788,1734
1841.9114382471344,1707
1843.888864747485,1669
1845.8657990631878,1737
1847.842241456378,1740
1849.8181921892697,1669
1851.7936515241558,1685
1853.7686197234098,1763
1855.7430970494815,1690
1857.7170837649014,1713
1859.6905801322787,1698
1861.6635864143004,1679
1863.6361028737338,1746
1865.608129773424,1659
1867.5796673762961,1690
1869.5507159453537,1739
1871.521275743678,1765
1873.4913470344313,1710
1875.4609300808534,1706
1877.4300251462632,1729
1879.3986324940588,1689
1881.366752387717,1714
1883.3343850907936,1772
1885.3015308669228,1759
1887.268189979819,1738
1889.2343626932739,1711
1891.2000492711595,1727
1893.1652499774254,1733
1895.1299650761011,1703
1897.0941948312952,1716
1899.0579395071945,1714
1901.0211993680641,1702
1902.98397467825,1660
1904.9462657021745,1781
1906.9080727043415,1751
1908.869395949332,1693
1910.8302357018065,1673
1912.790592226504,1666
1914.7504657882428,1740
1916.7098566519212,1732
1918.6687650825133,1703
1920.6271913450764,1756
1922.5851357047422,1744
1924.5425984267245,1757
1926.499579776314,1710
1928.4560800188833,1698
1930.4120994198802,1704
1932.367638244833,1762
1934.32269675935,1748
1936.2772752291175,1696
1938.231373919899,1733
1940.1849930975404,1673
1942.1381330279637,1726
1944.0907939771696,1678
1946.0429762112412,1728
1947.9946799963363,1671
1949.9459055986945,1634
1951.896653284633,1738
1953.8469233205478,1592
1955.7967159729142,1701
1957.7460315082863,1691
1959.6948701932974,1749
1961.6432322946594,1716
1963.5911180791632,1755
1965.5385278136787,1696
1967.4854617651545,1678
1969.4319202006182,1684
1971.377903387176,1732
1973.3234115920136,1763
1975.268445082395,1693
1977.2130041256642,1702
1979.1570889892423,1684
1981.1006999406304,1689
1983.04383724741,1759
1984.986501177238,1760
1986.928691997853,1658
1988.8704099770712,1686
1990.811655382789,1671
1992.7524284829801,1711
1994.692729545698,1688
1996.6325588390755,1762
1998.5719166313224,1733
2000.5108031907307,1712
2002.4492187856677,1757
2004.387163684583,1732
2006.3246381560011,1717
2008.2616424685298,1729
2010.1981768908527,1657
2012.1342416917332,1730
2014.069837140014,1683
2016.0049635046162,1705
2017.9396210545406,1679
2019.8738100588666,1674
2021.8075307867502,1694
2023.740783507431,1721
2025.6735684902228,1657
2027.6058860045214,1652
2029.5377363198004,1661
2031.4691197056118,1692
2033.4000364315875,1670
2035.3304867674374,1662
2037.260470982952,1623
2039.189989347998,1686
2041.1190421325232,1685
2043.047629606554,1693
2044.9757520401945,1668
2046.9034097036288,1666
2048.8306028671195,1711
2050.7573318010086,1642
2052.683596775716,1717
2054.609398061742,1766
2056.5347359296647,1707
2058.4596106501403,1600
2060.384022493906,1661
2062.3079717317764,1677
2064.231458634646,1681
2066.1544834734873,1650
2068.077046519352,1677
2069.99914804337,1675
2071.9207883167524,1673
2073.8419676107865,1686
2075.7626861968406,1662
2077.6829443463607,1697
2079.6027423308715,1713
2081.522080421977,1677
2083.440958891362,1628
2085.359378010786,1658
2087.2773380520907,1601
2089.194839287196,1671
2091.111881988101,1613
2093.0284664268825,1705
2094.9445928756973,1666
2096.86026160678,1709
2098.775472892446,1654
2100.690227005088,1606
2102.604524217178,1649
2104.5183648012676,1705
2106.431749029985,1720
2108.34467717604,1667
2110.2571495122206,1630
2112.169166311393,1660
2114.080727846503,1711
2115.9918343905747,1726
2117.902486216711,1657
2119.8126835980956,1734
2121.722426807987,1689
2123.6317161197285,1682
2125.5405518067364,1630
2127.448934142509,1647
2129.356863400624,1708
2131.264339854737,1746
2133.1713637785815,1705
2135.077935445972,1718
2136.9840551308002,1734
2138.889723107037,1620
2140.7949396487334,1653
2142.699705030018,1759
2144.6040195250994,1743
2146.507883408264,1699
2148.4112969538774,1692
2150.3142604363848,1666
2152.2167741303097,1723
2154.1188383102535,1719
2156.0204532508997,1701
2157.9216192270064,1718
2159.822336513414,1724
2161.7226053850413,1707
2163.622426116884,1635
2165.5217989840185,1714
2167.4207242616,1731
2169.319202224862,1734
2171.2172331491165,1720
2173.1148173097563,1785
2175.0119549822507,1725
2176.90864644215,1873
2178.8048919650823,1769
2180.7006918267534,1710
2182.596046302952,1753
2184.4909556695407,1803
2186.3854202024645,1765
2188.279440177746,1727
2190.173015871487,1782
2192.066147559868,1735
2193.958835519149,1773
2195.851080025667,1740
2197.7428813558417,1761
2199.6342397861667,1802
2201.5251555932186,1774
2203.415629053651,1794
2205.3056604441986,1787
2207.19525004167,1765
2209.084398122958,1802
2210.9731049650327,1842
2212.861370844941,1745
2214.749196039812,1814
2216.636580826851,1815
2218.523525483344,1799
2220.410030286655,1801
2222.296095514226,1785
2224.1817214435805,1824
2226.066908352319,1792
2227.951656518121,1804
2229.835966218746,1811
2231.71983773203,1757
2233.6032713358913,1863
2235.486267308324,1778
2237.3688259274036,1815
2239.2509474712824,1815
2241.132632218193,1826
2243.013880446447,1805
2244.8946924344323,1850
2246.7750684606203,1834
2248.6550088035574,1754
2250.534513741871,1826
2252.413583554265,1858
2254.292218519526,1767
2256.170418916517,1853
2258.0481850241786,1716
2259.925517121534,1723
2261.8024154876825,1759
2263.678880401803,1823
2265.5549121431536,1840
2267.430510991071,1816
2269.305677224971,1819
2271.180411124348,1773
2273.0547129687766,1769
2274.9285830379076,1784
2276.8020216114737,1741
2278.6750289692845,1775
2280.5476053912294,1744
2282.4197511572766,1743
2284.2914665474727,1826
2286.162751841943,1826
2288.0336073208937,1807
2289.904033264608,1803
2291.774029953448,1781
2293.6435976678554,1798
2295.5127366883517,1778
2297.381447295534,1744
2299.2497297700825,1690
2301.1175843927526,1541
2302.9850114443825,1597
2304.852011205885,1603
2306.7185839582553,1626
2308.5847299825664,1559
2310.4504495599676,1577
2312.3157429716925,1586
2314.1806104990483,1494
2316.0450524234247,1555
2317.9090690262888,1516
2319.772660589186,1531
2321.635827393742,1518
2323.498569721661,1490
2325.3608878547248,1563
2327.2227820747967,1532
2329.0842526638157,1549
2330.945299903803,1505
2332.805924076857,1497
2334.6661254651535,1490
2336.525904350951,1472
2338.3852610165827,1472
2340.244195744464,1490
2342.102708817088,1528
2343.9608005170253,1509
2345.8184711269287,1546
2347.675720929526,1584
2349.532550207628,1517
2351.38895924412,1475
2353.24494832197,1480
2355.100517724223,1555
2356.955667734004,1492
2358.810398634514,1553
2360.664710709037,1476
2362.5186042409337,1524
2364.3720795136437,1537
2366.225136810686,1515
2368.0777764156583,1560
2369.929998612237,1538
2371.7818036841777,1527
2373.633191915315,1540
2375.484163589562,1497
2377.3347189909114,1530
2379.184858403434,1439
2381.03458211128,1527
2382.8838903986775,1531
2384.732783549936,1518
2386.5812618494406,1470
2388.4293255816588,1540
2390.2769750311327,1518
2392.1242104824883,1561
2393.971032220427,1552
2395.8174405297295,1540
2397.6634356952563,1544
2399.509018001947,1537
2401.3541877348193,1482
2403.1989451789705,1589
2405.043290619576,1529
2406.8872243418905,1572
2408.730746631247,1530
2410.5738577730594,1553
2412.4165580528183,1527
2414.258847756095,1505
2416.100727168537,1552
2417.9421965758734,1558
2419.783256263912,1580
2421.623906518538,1540
2423.4641476257157,1601
2425.303979871491,1540
2427.143403541984,1486
2428.9824189233977,1484
2430.821026302012,1537
2432.6592259641866,1531
2434.497018196361,1541
2436.33440328505,1514
2438.171381516851,1538
2440.00795317844,1414
2441.844118556569,1541
2443.6798779380724,1548
2445.5152316098606,1559
2447.3501798589255,1558
2449.1847229723357,1555
2451.0188612372403,1502
2452.8525949408663,1516
2454.6859243705203,1501
2456.518849813587,1481
2458.3513715575314,1497
2460.183489889895,1496
2462.015205098301,1495
2463.8465174704493,1552
2465.67742729412,1530
2467.5079348571717,1581
2469.338040447542,1523
2471.1677443532476,1480
2472.9970468623833,1544
2474.825948263123,1562
2476.6544488437207,1585
2478.482548892508,1599
2480.310248697896,1561
2482.137548548374,1551
2483.9644487325118,1555
2485.790949538956,1494
2487.617051256433,1561
2489.44275417375,1525
2491.26805857979,1565
2493.0929647635157,1504
2494.917473013971,1611
2496.741583620276,1567
2498.5652968716304,1578
2500.3886130573137,1610
2502.2115324666834,1549
2504.0340553891765,1585
2505.856182114308,1568
2507.6779129316733,1604
2509.499248130945,1614
2511.3201880018764,1551
2513.140732834298,1590
2514.9608829181198,1587
2516.780638543331,1624
2518.6,1602
2520.418967578273,1603
2522.237541568376,1573
2524.0557222606144,1656
2525.8735099453706,1637
2527.6909049131086,1595
2529.507907454368,1577
2531.32451785977,1600
2533.140736420014,1622
2534.9565634258774,1643
2536.771999168218,1565
2538.5870439379714,1588
2540.4016980261526,1669
2542.2159617238544,1603
2544.02983532225,1647
2545.8433191125914,1628
2547.656413386209,1679
2549.4691184345115,1675
2551.2814345489874,1713
2553.093362021204,1712
2554.904901142808,1673
2556.716052205523,1631
2558.526815501153,1704
2560.3371913215824,1657
2562.147179958771,1675
2563.956781704761,1751
2565.7659968516705,1718
2567.5748256916986,1704
2569.3832685171224,1689
2571.1913256202984,1681
2572.9989972936614,1782
2574.806283829725,1785
2576.613185521084,1760
2578.4197026604074,1733
2580.2258355404483,1785
2582.031584454035,1783
2583.836949694077,1731
2585.6419315535613,1772
2587.4465303255533,1833
2589.2507463032002,1773
2591.0545797797245,1786
2592.8580310484303,1906
2594.6611004026995,1808
2596.463788135992,1782
2598.266094541849,1880
2600.0680199138874,1777
2601.869564545807,1818
2603.670728731383,1830
2605.4715127644704,1798
2607.2719169390048,1842
2609.071941548998,1825
2610.8715868885433,1756
2612.670853251811,1821
2614.469740933052,1818
2616.268250226594,1827
2618.0663814268455,1842
2619.864134828292,1856
2621.6615107255006,1782
2623.458509413115,1799
2625.2551311858597,1785
2627.0513763385347,1807
2628.8472451660223,1796
2630.6427379632833,1783
2632.4378550253564,1850
2634.232596647359,1818
2636.026963124488,1736
2637.8209547520187,1817
2639.6145718253065,1781
2641.407814639785,1815
2643.200683490966,1746
2644.9931786744414,1739
2646.7853004858807,1710
2648.577049221034,1755
2650.3684251757277,1689
2652.1594286458712,1722
2653.9500599274484,1677
2655.740319316525,1704
2657.5302071092437,1641
2659.3197236018286,1648
2661.10886909058,1667
2662.8976438718782,1632
2664.686048242183,1668
2666.4740824980327,1686
2668.2617469360443,1694
2670.0490418529134,1674
2671.8359675454153,1631
2673.622524310403,1663
2675.408712444811,1668
2677.1945322456495,1644
2678.979984010009,1657
2680.76506803506,1636
2682.5497846180497,1597
2684.334134056306,1658
2686.1181166472343,1555
2687.9017326883213,1588
2689.6849824771293,1561
2691.4678663113013,1597
2693.2503844885596,1618
2695.032537306705,1529
2696.8143250636167,1556
2698.5957480572542,1547
2700.3768065856534,1643
2702.1575009469316,1590
2703.937831439283,1544
2705.717798360982,1552
2707.4974020103837,1635
2709.276642685917,1504
2711.055520686095,1565
2712.834036309506,1525
2714.612189854819,1497
2716.389981620782,1556
2718.1674119062204,1533
2719.944481010041,1542
2721.721189231226,1562
2723.4975368688415,1620
2725.273524222027,1487
2727.0491515900053,1510
2728.824419272075,1493
2730.5993275676146,1600
2732.3738767760838,1535
2734.148067197016,1457
2735.921899130031,1481
2737.6953728748194,1488
2739.468488731156,1495
2741.2412469988926,1604
2743.0136479779617,1546
2744.785691968372,1551
2746.5573792702116,1532
2748.3287101836504,1459
2750.099685008934,1498
2751.870304046388,1477
2753.640567596418,1525
2755.4104759595057,1475
2757.1800294362156,1472
2758.949228327187,1504
2760.7180729331412,1515
2762.486563554877,1559
2764.254700493272,1540
2766.022484049284,1505
2767.789914523947,1587
2769.5569922183786,1601
2771.3237174337705,1514
2773.090090471394,1473
2774.8561116326036,1478
2776.6217812188274,1465
2778.3870995315756,1503
2780.1520668724356,1506
2781.9166835430747,1464
2783.6809498452394,1506
2785.444866080754,1507
2787.2084325515225,1462
2788.971649559527,1480
2790.73451740683,1461
2792.4970363955713,1532
2794.2592068279705,1490
2796.0210290063264,1534
2797.7825032330147,1506
2799.543629810493,1449
2801.304409041296,1487
2803.0648412280366,1466
2804.8249266734088,1473
2806.5846656801846,1500
2808.344058551212,1424
2810.1031055894246,1536
2811.8618070978273,1505
2813.6201633795085,1482
2815.378174737636,1534
2817.1358414754536,1520
2818.893163896285,1529
2820.6501423035334,1501
2822.4067770006814,1517
2824.1630682912883,1516
2825.9190164789957,1465
2827.6746218675207,1541
2829.429884760661,1465
2831.184805462294,1486
2832.9393842763743,1501
2834.693621506936,1519
2836.4475174580916,1503
2838.201072434034,1505
2839.954286739034,1475
2841.707160677441,1540
2843.459694553685,1525
2845.2118886722724,1519
2846.96374333779,1516
2848.7152588549034,1546
2850.4664355283567,1518
2852.217273662973,1486
2853.9677735636546,1544
2855.7179355353833,1525
2857.4677598832186,1499
2859.217246912299,1525
2860.9663969278427,1527
2862.715210235146,1528
2864.4636871395846,1503
2866.211827946614,1476
2867.9596329617652,1530
2869.7071024906536,1480
2871.4542368389684,1488
2873.20103631248,1511
2874.947501217038,1470
2876.6936318585695,1508
2878.4394285430812,1464
2880.1848915766604,1485
2881.9300212654707,1520
2883.6748179157553,1498
2885.4192818338374,1500
2887.1634133261173,1473
2888.907212699077,1449
2890.6506802592744,1451
2892.393816313348,1506
2894.1366211680142,1503
2895.8790951300693,1563
2897.621238506388,1471
2899.363051603925,1440
2901.1045347297118,1486
2902.8456881908596,1509
2904.58651229456,1505
2906.327007348081,1489
2908.067173658772,1529
2909.8070115340597,1521
2911.5465212814497,1553
2913.285703208527,1395
2915.0245576229563,1496
2916.7630848324807,1457
2918.5012851449196,1487
2920.2391588681758,1445
2921.976706310227,1516
2923.7139277791334,1499
2925.4508235830313,1504
2927.187394030137,1441
2928.923639428745,1443
2930.6595600872306,1509
2932.395156314046,1488
2934.1304284177218,1480
2935.8653767068713,1452
2937.6000014901815,1497
2939.3343030764227,1568
2941.068281774442,1513
2942.8019378931644,1494
2944.5352717415976,1495
2946.2682836288236,1477
2948.0009738640065,1516
2949.7333427563885,1497
2951.465390615289,1482
2953.1971177501086,1518
2954.9285244703265,1543
2956.6596110855,1551
2958.3903779052657,1503
2960.1208252393385,1558
2961.8509533975125,1528
2963.5807626896617,1512
2965.3102534257378,1493
2967.0394259157715,1452
2968.768280469873,1459
2970.496817398232,1428
2972.2250370111146,1480
2973.952939618869,1460
2975.6805255319196,1502
2977.4077950607707,1498
2979.134748516006,1490
2980.861386208289,1528
2982.587708448359,1525
2984.313715547037,1548
2986.039407815222,1532
2987.764785563891,1533
2989.489849104102,1436
2991.2145987469908,1505
2992.9390348037705,1503
2994.6631575857346,1471
2996.3869674042576,1502
2998.1104645707887,1550
2999.83364939686,1480
3001.5565221940783,1446
3003.2790832741334,1486
3005.0013329487924,1428
3006.7232715298996,1480
3008.4448993293804,1469
3010.166216659239,1387
3011.887223831558,1467
3013.607921158498,1479
3015.3283089522993,1441
3017.0483875252826,1455
3018.7681571898443,1454
3020.4876182584626,1494
3022.2067710436927,1474
3023.9256158581707,1427
3025.644153014609,1501
3027.362382825801,1482
3029.0803056046193,1469
3030.797921664012,1482
3032.5152313170106,1442
3034.2322348767225,1469
3035.9489326563353,1415
3037.665324969115,1433
3039.3814121284063,1464
3041.097194447633,1496
3042.812672240299,1457
3044.5278458199855,1442
3046.2427155003525,1446
3047.9572815951406,1469
3049.671544418167,1449
3051.38550428333,1461
3053.0991615046073,1489
3054.812516396051,1440
3056.5255692717974,1474
3058.2383204460575,1549
3059.9507702331257,1500
3061.662918947372,1499
3063.3747669032446,1461
3065.0863144152736,1463
3066.7975617980674,1521
3068.508509366309,1460
3070.219157434767,1480
3071.9295063182844,1510
3073.639556331785,1508
3075.3493077902704,1481
3077.058761008821,1459
3078.7679163025964,1483
3080.476773986837,1542
3082.1853343768594,1481
3083.89359778806,1491
3085.6015645359153,1424
3087.3092349359786,1460
3089.016609303884,1439
3090.7236879553434,1496
3092.4304712061476,1454
3094.136959372166,1452
3095.843152769349,1464
3097.5490517137237,1428
3099.2546565213966,1457
3100.959967508554,1464
3102.66498499146,1464
3104.3697092864577,1490
3106.0741407099695,1489
3107.778279578498,1497
3109.482126208622,1474
3111.1856809170004,1519
3112.8889440203716,1543
3114.5919158355528,1485
3116.294596679439,1516
3117.996986869006,1476
3119.6990867213062,1521
3121.4008965534726,1539
3123.102416682717,1462
3124.803647426329,1538
3126.5045891016784,1547
3128.205242026213,1456
3129.90560651746,1504
3131.605682893025,1480
3133.3054714705922,1457
3135.0049725679282,1498
3136.7041865028714,1479
3138.4031135933465,1406
3140.101754157353,1478
3141.800108512971,1484
3143.498176978357,1457
3145.1959598717494,1491
3146.8934575114636,1464
3148.5906702158954,1449
3150.2875983035183,1465
3151.9842420928853,1459
3153.680601902627,1495
3155.376678051456,1489
3157.07247085816,1467
3158.767980641609,1462
3160.463207720748,1414
3162.158152414606,1470
3163.8528150422862,1557
3165.5471959229726,1533
3167.2412953759303,1468
3168.9351137204976,1503
3170.628651276098,1474
3172.3219083622307,1496
3174.014885298474,1500
3175.707582404485,1457
3177.4000000000005,1462
3179.092138404835,1480
3180.7839979388846,1489
3182.47557892212,1452
3184.166881674594,1468
3185.8579065164386,1428
3187.5486537678626,1460
3189.2391237491547,1464
3190.9293167806827,1478
3192.6192331828934,1463
3194.3088732763117,1462
3195.998237381542,1454
3197.687325819268,1468
3199.376138910251,1411
3201.064676975334,1484
3202.7529403354347,1437
3204.4409293115523,1426
3206.1286442247647,1451
3207.816085396229,1439
3209.5032531471825,1470
3211.190147798936,1448
3212.8767696728846,1461
3214.5631190905015,1522
3216.2491963733373,1477
3217.9350018430214,1518
3219.6205358212637,1418
3221.305798629851,1393
3222.990790590651,1394
3224.6755120256103,1406
3226.359963256751,1377
3228.0441446061795,1429
3229.7280563960758,1440
3231.411698948703,1399
3233.0950725863995,1434
3234.778177631587,1466
3236.461014406761,1476
3238.1435832345005,1480
3239.8258844374595,1473
3241.507918338374,1433
3243.1896852600576,1492
3244.8711855254023,1508
3246.552419457381,1472
3248.233387379042,1462
3249.914089613516,1504
3251.59452648401,1499
3253.274698313813,1419
3254.95460542629,1432
3256.6342481448855,1425
3258.313626793125,1411
3259.9927416946084,1409
3261.6715931730196,1385
3263.3501815521176,1453
3265.0285071557437,1448
3266.706570307815,1465
3268.3843713323286,1445
3270.0619105533615,1473
3271.739188295068,1440
3273.4162048816834,1411
3275.0929606375184,1397
3276.769455886966,1475
3278.445690954498,1440
3280.1216661646613,1499
3281.797381842087,1485
3283.4728383114807,1437
3285.1480358976296,1426
3286.8229749253996,1407
3288.4976557197333,1412
3290.172078605655,1387
3291.846243908266,1401
3293.5201519527463,1425
3295.193803064357,1397
3296.8671975684374,1402
3298.5403357904024,1395
3300.21321805575,1383
3301.8858446900567,1427
3303.558216018975,1410
3305.23033236824,1455
3306.9021940636603,1425
3308.57380143113,1460
3310.2451547966184,1463
3311.916254486174,1410
3313.5871008259246,1398
3315.2576941420766,1437
3316.9280347609147,1438
3318.5981230088046,1402
3320.2679592121895,1387
3321.9375436975924,1384
3323.606876791612,1398
3325.27595882093,1428
3326.944790112305,1395
3328.6133709925753,1403
3330.2817017886573,1481
3331.949782827547,1392
3333.617614436319,1372
3335.2851969421245,1426
3336.952530672199,1470
3338.619615953853,1484
3340.286453114475,1432
3341.9530424815357,1419
3343.619384382583,1508
3345.2854791452437,1460
3346.951327097224,1509
3348.6169285663073,1469
3350.2822838803577,1412
3351.947393367319,1477
3353.61225735521,1435
3355.2768761721345,1432
3356.9412501462693,1362
3358.605379605873,1439
3360.2692648792827,1406
3361.9329062949146,1433
3363.596304181263,1402
