CollectionTime,7/9/2024 11:31:12 AM
ExposureUsed,3
CalibratedSpectrum
-962.7078968117929,542
-959.9714848408522,547
-957.2358232597828,608
-954.5009119013725,588
-951.7667505983302,590
-949.0333391832855,604
-946.3006774887896,621
-943.5687653473143,590
-940.837602591253,605
-938.1071890529199,638
-935.3775245645503,586
-932.6486089583007,634
-929.9204420662485,660
-927.1930237203925,612
-924.4663537526524,635
-921.7404319948689,662
-919.0152582788041,615
-916.2908324361409,633
-913.5671542984834,633
-910.8442236973568,585
-908.1220404642074,600
-905.4006044304027,665
-902.679915427231,641
-899.959973285902,623
-897.2407778375464,621
-894.5223289132158,624
-891.8046263438832,583
-889.0876699604426,584
-886.3714595937089,610
-883.6559950744183,614
-880.9412762332282,622
-878.2273029007168,608
-875.5140749073835,589
-872.8015920836489,618
-870.0898542598545,618
-867.3788612662631,588
-864.6686129330585,594
-861.9591090903457,622
-859.2503495681506,573
-856.5423341964203,597
-853.8350628050229,601
-851.1285352237478,601
-848.4227512823054,566
-845.7177108103272,583
-843.0134136373656,594
-840.3098595928943,616
-837.6070485063082,585
-834.9049802069229,600
-832.2036545239757,613
-829.5030712866244,643
-826.8032303239481,630
-824.1041314649472,626
-821.4057745385428,622
-818.7081593735775,614
-816.0112857988148,655
-813.3151536429393,619
-810.6197627345566,585
-807.9251129021936,590
-805.2312039742981,646
-802.5380357792392,627
-799.8456081453069,615
-797.1539209007124,617
-794.462973873588,639
-791.772766891987,632
-789.083299783884,644
-786.3945723771743,635
-783.7065844996748,646
-781.0193359791231,613
-778.3328266431781,625
-775.6470563194197,643
-772.9620248353489,634
-770.2777320183878,619
-767.5941776958798,616
-764.9113616950891,633
-762.2292838432011,665
-759.5479439673222,605
-756.8673418944801,597
-754.1874774516235,621
-751.5083504656222,631
-748.8299607632671,640
-746.15230817127,646
-743.475392516264,653
-740.7992136248035,629
-738.1237713233636,641
-735.4490654383407,633
-732.7750957960521,661
-730.1018622227365,649
-727.4293645445534,635
-724.7576025875837,647
-722.0865761778291,653
-719.4162851412126,651
-716.7467293035781,667
-714.0779084906909,693
-711.409822528237,669
-708.7424712418238,656
-706.0758544569796,690
-703.4099719991541,707
-700.7448236937178,703
-698.0804093659622,736
-695.4167288411002,707
-692.7537819442656,666
-690.0915685005134,679
-687.4300883348199,693
-684.7693412720819,672
-682.1093271371178,696
-679.4500457546669,701
-676.7914969493897,710
-674.1336805458676,713
-671.4765963686034,708
-668.8202442420206,714
-666.1646239904642,713
-663.5097354382001,722
-660.8555784094151,700
-658.2021527282176,724
-655.5494582186366,721
-652.8974947046223,692
-650.2462620100463,765
-647.5957599587009,746
-644.9459883742998,752
-642.2969470804776,789
-639.6486359007902,742
-637.0010546587141,736
-634.3542031776476,762
-631.7080812809096,725
-629.0626887917401,726
-626.4180255333008,732
-623.7740913286734,749
-621.1308860008619,757
-618.4884093727904,718
-615.8466612673046,717
-613.2056415071715,770
-610.5653499150785,686
-607.9257863136347,725
-605.28695052537,753
-602.6488423727357,765
-600.0114616781036,750
-597.3748082637674,738
-594.7388819519412,749
-592.1036825647604,745
-589.4692099242818,789
-586.8354638524829,747
-584.2024441712624,769
-581.5701507024403,732
-578.9385832677575,760
-576.3077416888759,764
-573.6776257873787,743
-571.0482353847704,761
-568.4195703024757,753
-565.7916303618415,774
-563.164415384135,778
-560.5379251905453,721
-557.9121596021815,744
-555.2871184400748,747
-552.6628015251767,748
-550.0392086783606,807
-547.4163397204204,792
-544.794194472071,776
-542.1727727539491,784
-539.5520743866118,806
-536.9320991905377,805
-534.3128469861261,852
-531.6943175936979,830
-529.0765108334947,860
-526.4594265256793,948
-523.8430644903358,1041
-521.2274245474689,1150
-518.612506517005,1110
-515.9983102187913,1142
-513.3848354725959,1135
-510.77208209810846,1175
-508.16004991493924,1196
-505.5487387426199,1290
-502.9381484006032,1424
-500.3282787082628,1509
-497.71912948489364,1469
-495.1107005497117,1437
-492.5029917218539,1350
-489.8960028203786,1177
-487.28973366426493,1097
-484.68418407241325,1008
-482.07935386364494,979
-479.47524285670266,939
-476.87185087025,954
-474.2691777228715,1005
-471.66722323307334,955
-469.0659872192821,948
-466.4654694998459,1005
-463.86566989303384,976
-461.26658821703614,934
-458.66822428996414,959
-456.07057792985,969
-453.4736489546475,928
-450.877437182231,941
-448.28194243039627,937
-445.68716451686,923
-443.09310325926003,928
-440.49975847515555,962
-437.9071299820263,987
-435.31521759727354,942
-432.72402113821954,925
-430.13354042210767,982
-427.5437752661022,993
-424.95472548728867,937
-422.36639090267386,951
-419.7787713291855,961
-417.1918665836721,969
-414.60567648290385,1059
-412.0202008435715,1011
-409.4354394822874,1026
-406.8513922155845,999
-404.26805885991723,1029
-401.685439231661,1022
-399.103533147112,1054
-396.522340422488,1001
-393.9418608739278,997
-391.3620943174908,1007
-388.7830405691583,984
-386.2046994448317,954
-383.6270707603344,883
-381.05015433141045,881
-378.473949973725,836
-375.8984575028645,758
-373.32367673433623,672
-370.74960748356875,613
-368.1762495659117,615
-365.60360279663576,612
-363.03166699093265,544
-360.4604419639154,511
-357.8899275306178,512
-355.32012350599507,482
-352.7510297049233,482
-350.1826459421999,444
-347.61497203254316,451
-345.04800779059235,432
-342.4817530309082,459
-339.91620756797226,482
-337.35137121618743,472
-334.7872437898774,481
-332.22382510328725,467
-329.66111497058273,476
-327.09911320585127,460
-324.53781962310075,505
-321.9772340362607,536
-319.4173562591816,467
-316.8581861056348,473
-314.2997233893127,465
-311.7419679238294,458
-309.1849195227194,454
-306.62857799943856,469
-304.0729431673641,498
-301.51801483979375,541
-298.963792829947,512
-296.41027695096386,510
-293.85746701590574,574
-291.3053628377552,561
-288.7539642294155,548
-286.2032710037115,532
-283.65328297338897,527
-281.1039999511146,533
-278.5554217494762,583
-276.007548180983,551
-273.4603790580651,524
-270.9139141930734,494
-268.3681533982807,506
-265.8230964858798,523
-263.27874326798565,554
-260.7350935566336,558
-258.1921471637804,566
-255.6499039013039,552
-253.10836358100266,573
-250.56752601459698,576
-248.02739101372765,571
-245.48795838995704,585
-242.94922795476816,567
-240.41119951956557,586
-237.8738728956746,616
-235.33724789434166,681
-232.80132432673452,601
-230.2661020039418,581
-227.73158073697357,583
-225.19776033676033,669
-222.66464061415422,652
-220.1322213799284,611
-217.60050244477725,599
-215.06948361931552,631
-212.53916471408013,660
-210.00954553952818,706
-207.48062590603843,629
-204.9524056239104,627
-202.4248845033651,669
-199.8980623545441,661
-197.37193898751036,640
-194.84651421224817,717
-192.32178783866232,678
-189.79775967657952,697
-187.27442953574644,717
-184.7517972258321,789
-182.2298625564256,792
-179.7086253370378,730
-177.18808537710026,670
-174.66824248596583,688
-172.14909647290835,723
-169.6306471471229,788
-167.11289431772548,824
-164.59583779375328,817
-162.07947738416453,786
-159.5638128978386,790
-157.04884414357605,816
-154.53457093009854,970
-152.02099306604828,896
-149.50811035998936,803
-146.99592262040665,757
-144.48442965570587,851
-141.97363127421409,925
-139.46352728417958,1020
-136.95411749377126,1150
-134.44540171107985,1080
-131.93737974411636,881
-129.43005140081357,743
-126.92341648902493,978
-124.41747481652521,1190
-121.91222619101006,1528
-119.40767042009657,2019
-116.90380731132257,2324
-114.40063667214702,2137
-111.8981583099503,1713
-109.3963720320337,1392
-106.89527764561933,1536
-104.39487495785067,1613
-101.89516377579241,2058
-99.39614390642998,2702
-96.89781515667039,3355
-94.40017733334128,3321
-91.90323024319173,2798
-89.40697369289148,2599
-86.91140748903172,3196
-84.41653143812482,3656
-81.92234534660395,3266
-79.42884902082358,3382
-76.93604226705907,5102
-74.4439248915071,8330
-71.95249670028534,11413
-69.46175749943245,13620
-66.97170709490854,13434
-64.48234529259423,11957
-61.99367189829195,10216
-59.50568671772464,9045
-57.01838955653636,6975
-54.53178022029283,4888
-52.045858514480074,4205
-49.560624244506016,5191
-47.07607721569923,5921
-44.59221723330904,6722
-42.10904410250669,7700
-39.62655762838392,8586
-37.14475761595372,8825
-34.66364387015028,8600
-32.18321619582866,8712
-29.70347439776515,8930
-27.224418280657005,9581
-24.74604764912317,10670
-22.26836230770266,14056
-19.7913620608565,22902
-17.315046712966478,38691
-14.83941606833514,53653
-12.36446993118659,65041
-9.89020810566592,65041
-7.416630395839093,65041
-4.94373660569363,65041
-2.471526539137585,65041
-6.821210263296962E-13,65041
2.47084320796705,65041
4.941003281093458,65041
7.410480415786196,65041
9.879274808531363,65041
12.347386655893956,65041
14.814816154518212,65041
17.28156350112681,65041
19.74762889252179,65041
22.21301252558385,65041
24.67771459727237,21061
27.141735304626195,4131
29.605074844762612,2435
32.06773341487792,2022
34.52971121224755,1810
36.99100843422559,1960
39.45162527824516,1864
41.91156194181792,1599
44.370818622535126,1506
46.82939551806646,1283
49.287292826160524,1533
51.74451074464503,1395
54.201049471426245,1093
56.65690920448981,1177
59.112090141899785,1137
61.56659248179983,1090
64.02041642241159,995
66.4735621620365,994
68.92602989905402,982
71.37781983192338,1029
73.82893215918205,946
76.27936707944684,978
78.72912479141326,1083
81.17820549385567,1118
83.62660938562783,1189
86.07433666566146,1201
88.5213875329681,958
90.96776218663751,889
93.41346082583925,879
95.85848364982041,1012
98.30283085790859,1177
100.7465026495089,1083
103.18949922410604,1026
105.63182078126385,1003
108.07346752062438,922
110.51443964190923,805
112.95473734491827,741
115.39436082953114,849
117.83331029570547,998
120.27158594347827,964
122.7091879729652,1019
125.1461165843615,939
127.58237197794062,843
130.01795435405518,879
132.4528639131364,884
134.88710085569494,904
137.32066538231982,836
139.75355769367923,804
142.1857779905207,712
144.61732647366978,792
147.04820334403132,891
149.47840880258934,868
151.90794305040674,968
154.33680628862487,1018
156.76499871846443,1224
159.19252054122433,1368
161.61937195828352,1559
164.04555317109896,1765
166.47106438120693,1944
168.89590579022217,2162
171.320077599839,2281
173.7435800118302,2293
176.16641322804742,2457
178.58857745042144,2609
181.01007288096173,2883
183.43089972175687,2883
185.85105817497413,2809
188.27054844285988,2771
190.6893707277394,2776
193.10752523201643,2907
195.5250121581745,2934
197.9418317087751,2953
200.3579840864594,3029
202.7734694939469,3036
205.18828813403627,3046
207.6024402096051,3082
210.01592592360964,3127
212.42874547908548,3155
214.84089907914665,3103
217.2523869269868,3042
219.66320922587727,3010
222.0733661791695,2989
224.48285799029293,2964
226.8916848627572,2890
229.29984700014882,3093
231.7073446061355,3132
234.11417788446204,3084
236.520347038953,3123
238.92585227351185,3217
241.33069379212054,3309
243.73487179884035,3319
246.1383864978112,3386
248.541238093252,3254
250.9434267894609,3344
253.34495279081432,3335
255.74581630176783,3308
258.1460175268563,3308
260.54555667069314,3319
262.9444339379703,3415
265.3426495334594,3310
267.7402036620107,3234
270.1370965285529,3065
272.53332833809407,2960
274.9288992957214,2848
277.32380960660055,2769
279.718059475976,2744
282.1116491091717,2757
284.5045787115897,2688
286.89684848871195,2745
289.2884586460981,2749
291.67940938938807,2748
294.0697009242996,2765
296.4593334566299,2677
298.84830719225477,2723
301.23662233712923,2756
303.6242790972866,2649
306.01127767884,2614
308.39761828798066,2525
310.78330113097934,2505
313.16832641418534,2482
315.5526943440269,2446
317.9364051270112,2505
320.3194589697242,2471
322.70185607883093,2437
325.0835966610754,2452
327.4646809232805,2403
329.8451090723478,2427
332.2248813152577,2405
334.6039978590701,2352
336.9824589109231,2324
339.36026467803447,2364
341.7374153677,2344
344.113911187295,2276
346.48975234427337,2284
348.8649390461686,2231
351.2394715005918,2339
353.61334991523415,2227
355.9865744978655,2264
358.35914545633375,2230
360.73106299856715,2283
363.10232733257146,2353
365.47293866643247,2230
367.84289720831396,2221
370.2122031664593,2191
372.5808567491905,2237
374.9488581649083,2229
377.31620762209275,2187
379.6829053293021,2131
382.0489514951745,2126
384.4143463284262,2106
386.7790900378528,2163
389.14318283232853,2078
391.50662492080653,2183
393.86941651231916,2106
396.23155781597745,2138
398.5930490409713,2160
400.9538903965696,2175
403.3140820921202,2116
405.6736243370498,2062
408.03251734086336,2094
410.3907613131465,2093
412.74835646356166,2094
415.10530300185144,2096
417.4616011378372,2097
419.81725108141893,2140
422.1722530425758,2078
424.5266072313656,2072
426.880313857925,2092
429.2333731324701,2053
431.58578526529516,2133
433.9375504667738,2105
436.2886689473588,2024
438.63914091758113,2053
440.9889665880513,1979
443.33814616945835,2031
445.68667987257015,2010
448.03456790823395,1958
450.3818104873759,2042
452.72840782100013,2048
455.07436012019105,2034
457.41966759611057,2045
459.7643304600007,2112
462.10834892318155,2087
464.4517231970525,2102
466.79445349309174,2053
469.1365400228566,2067
471.4779829979826,2045
473.81878263018564,2060
476.15893913125876,2055
478.4984527130747,2070
480.8373235875855,2106
483.17555196682144,2098
485.5131380628919,2182
487.8500820879857,2294
490.1863842543697,2397
492.52204477439034,2520
494.8570638604725,2780
497.1914417251204,2988
499.52517858091653,3266
501.85827464052306,3518
504.19073011668036,3418
506.5225452222086,3484
508.85372017000566,3266
511.18425517304956,3158
513.514150444396,3364
515.8434061971808,4029
518.1720226446176,5068
520.4999999999999,5237
522.8273384766991,4947
525.1540382881666,4455
527.480099647932,3923
529.8055227696037,3252
532.1303078668694,2857
534.454455153496,2422
536.777964843328,2282
539.1008371502907,2208
541.4230722883866,2178
543.744670471698,2202
546.0656319143858,2213
548.3859568306899,2140
550.7056454349294,2120
553.0246979415016,2079
555.3431145648834,2072
557.6608955196306,1999
559.978041020377,2070
562.2945512818363,2054
564.6104265188006,2114
566.9256669461412,2121
569.2402727788082,2094
571.5542442318302,2220
573.8675815203156,2121
576.1802848594508,2093
578.4923544645015,2151
580.8037905508126,2153
583.114593333807,2138
585.4247630289875,2132
587.7342998519354,2116
590.0432040183106,2142
592.3514757438526,2135
594.6591152443794,2206
596.9661227357875,2205
599.2724984340531,2222
601.578242555231,2144
603.8833553154542,2204
606.1878369309362,2153
608.4916876179676,2186
610.7949075929192,2206
613.0974970722403,2105
615.3994562724587,2044
617.7007854101818,2092
620.0014847020951,2119
622.3015543649641,2147
624.6009946156324,2184
626.8998056710224,2177
629.1979877481361,2157
631.4955410640538,2231
633.7924658359349,2065
636.0887622810175,2135
638.3844306166192,2135
640.6794710601358,2057
642.9738838290426,2229
645.2676691408932,2141
647.5608272133207,2135
649.853358264037,2140
652.1452625108324,2155
654.4365401715764,2112
656.7271914642178,2169
659.0172166067838,2186
661.3066158173809,2152
663.5953893141935,2164
665.8835373154867,2205
668.1710600396028,2187
670.4579577049639,2208
672.7442305300709,2242
675.0298787335033,2190
677.3149025339197,2273
679.599302150058,2173
681.8830778007342,2107
684.1662297048437,2153
686.4487580813608,2155
688.7306631493387,2174
691.0119451279091,2121
693.2926042362834,2125
695.5726406937516,2171
697.8520547196814,2266
700.1308465335215,2209
702.4090163547982,2147
704.6865644031171,2142
706.9634908981619,2094
709.2397960596965,2154
711.5154801075631,2141
713.7905432616823,2231
716.0649857420548,2160
718.3388077687592,2192
720.612009561953,2164
722.8845913418733,2119
725.1565533288352,2146
727.427895743234,2166
729.6986188055427,2078
731.9687227363137,2116
734.238207756178,2106
736.5070740858458,2125
738.7753219461066,2089
741.0429515578281,2101
743.3099631419569,2227
745.5763569195191,2113
747.8421331116193,2135
750.1072919394409,2169
752.3718336242467,2136
754.6357583873777,2172
756.8990664502545,2103
759.1617580343765,2132
761.423833361321,2157
763.6852926527457,2147
765.9461361303862,2074
768.206364016058,2144
770.4659765316536,2113
772.7249738991469,2115
774.9833563405886,2166
777.2411240781092,2180
779.4982773339183,2166
781.7548163303044,2201
784.010741289634,2143
786.2660524343538,2199
788.5207499869881,2185
790.7748341701416,2196
793.0283052064964,2216
795.2811633188143,2126
797.5334087299362,2172
799.7850416627813,2117
802.0360623403484,2174
804.2864709857143,2149
806.5362678220353,2207
808.7854530725468,2148
811.0340269605625,2159
813.2819897094754,2242
815.5293415427581,2235
817.77608268396,2155
820.0222133567116,2267
822.2677337847211,2190
824.5126441917765,2169
826.7569448017433,2169
829.0006358385675,2125
831.2437175262731,2156
833.4861900889629,2165
835.7280537508192,2196
837.9693087361026,2268
840.2099552691533,2149
842.4499935743896,2242
844.689423876309,2129
846.9282463994886,2216
849.1664613685833,2218
851.4040690083276,2204
853.6410695435349,2208
855.877463199097,2183
858.1132501999847,2147
860.3484307712487,2191
862.5830051380175,2249
864.8169735254988,2100
867.0503361589791,2208
869.2830932638243,2262
871.5152450654786,2250
873.7467917894654,2202
875.9777336613873,2176
878.2080709069252,2255
880.4378037518389,2209
882.666932421968,2280
884.8954571432301,2252
887.1233781416219,2275
889.3506956432192,2264
891.5774098741766,2293
893.803521060728,2237
896.0290294291852,2358
898.2539352059397,2275
900.4782386174619,2265
902.7019398903011,2291
904.925039251085,2253
907.147536926521,2333
909.3694331433943,2271
911.59072812857,2295
913.8114221089921,2221
916.0315153116827,2241
918.2510079637437,2252
920.4699002923547,2225
922.6881925247761,2218
924.905884888345,2199
927.1229776104793,2244
929.3394709186747,2198
931.555365040506,2255
933.7706602036275,2252
935.9853566357709,2267
938.1994545647489,2187
940.4129542184515,2257
942.6258558248488,2240
944.8381596119883,2239
947.0498658079974,2190
949.2609746410825,2199
951.4714863395287,2244
953.6814011316998,2157
955.8907192460387,2194
958.0994409110671,2158
960.3075663553858,2147
962.5150958076741,2180
964.7220294966913,2129
966.928367651274,2159
969.1341105003388,2098
971.3392582728806,2087
973.5438111979742,2111
975.747769504772,2086
977.9511334225061,2064
980.153903180487,2095
982.3560790081052,2088
984.5576611348289,2075
986.7586497902058,2049
988.9590452038618,2072
991.158847605503,2009
993.3580572249133,2089
995.5566742919558,2050
997.7546990365728,1999
999.952131688785,1906
1002.1489724786926,1900
1004.3452216364743,1917
1006.5408793923874,1898
1008.7359459767691,1900
1010.9304216200343,1914
1013.1243065526781,1855
1015.3176010052733,1897
1017.510305208472,1836
1019.7024193930064,1839
1021.8939437896848,1832
1024.0848786293977,1845
1026.2752241431122,1815
1028.4649805618747,1845
1030.6541481168115,1819
1032.842727039127,1766
1035.0307175601051,1829
1037.2181199111074,1787
1039.4049343235752,1827
1041.591161029029,1800
1043.7768002590683,1766
1045.9618522453698,1737
1048.1463172196918,1892
1050.3301954138697,1783
1052.513487059818,1812
1054.69619238953,1847
1056.8783116350783,1807
1059.0598450286152,1868
1061.2407928023704,1871
1063.4211551886528,1806
1065.6009324198508,1754
1067.780124728432,1759
1069.9587323469414,1781
1072.1367555080046,1826
1074.314194444325,1788
1076.4910493886855,1777
1078.667320573947,1761
1080.843008233051,1701
1083.0181125990161,1666
1085.1926339049414,1700
1087.3665723840027,1743
1089.5399282694575,1753
1091.7127017946405,1712
1093.8848931929647,1764
1096.0565026979243,1745
1098.2275305430899,1740
1100.3979769621128,1746
1102.567842188722,1739
1104.737126456726,1712
1106.9058300000124,1664
1109.0739530525475,1675
1111.2414958483764,1744
1113.4084586216231,1732
1115.5748416064907,1701
1117.7406450372605,1684
1119.9058691482942,1744
1122.0705141740304,1659
1124.2345803489884,1663
1126.3980679077658,1694
1128.5609770850388,1662
1130.7233081155623,1685
1132.8850612341707,1674
1135.0462366757774,1719
1137.2068346753745,1663
1139.3668554680326,1672
1141.526299288901,1713
1143.68516637321,1629
1145.8434569562655,1590
1148.001171273455,1602
1150.158309560244,1588
1152.3148720521767,1633
1154.470858984876,1606
1156.626270594044,1577
1158.7811071154629,1572
1160.9353687849912,1594
1163.089055838569,1585
1165.242168512213,1617
1167.3947070420209,1654
1169.5466716641677,1617
1171.6980626149075,1590
1173.8488801305748,1577
1175.9991244475814,1629
1178.1487958024186,1585
1180.2978944316555,1619
1182.4464205719428,1564
1184.5943744600072,1628
1186.7417563326567,1573
1188.8885664267755,1679
1191.0348049793297,1696
1193.1804722273619,1664
1195.325568407995,1661
1197.4700937584303,1646
1199.614048515948,1680
1201.7574329179074,1594
1203.900247201746,1645
1206.042491604982,1627
1208.1841663652099,1626
1210.3252717201053,1619
1212.465807907422,1712
1214.6057751649923,1695
1216.7451737307279,1636
1218.8840038426192,1661
1221.0222657387353,1665
1223.1599596572241,1611
1225.2970858363137,1626
1227.4336445143094,1658
1229.5696359295966,1689
1231.705060320639,1692
1233.8399179259786,1662
1235.9742089842384,1672
1238.107933734118,1633
1240.2410924143974,1702
1242.373685263935,1666
1244.5057125216676,1694
1246.6371744266116,1779
1248.7680712178621,1709
1250.898403134593,1711
1253.028170416058,1658
1255.1573733015875,1661
1257.2860120305932,1661
1259.4140868425648,1646
1261.54159797707,1745
1263.6685456737569,1710
1265.7949301723515,1710
1267.9207517126597,1758
1270.046010534565,1696
1272.1707068780306,1639
1274.2948409830983,1700
1276.4184130898889,1687
1278.541423438603,1747
1280.6638722695184,1744
1282.785759822993,1713
1284.9070863394636,1754
1287.0278520594447,1751
1289.1480572235314,1819
1291.2677020723963,1781
1293.3867868467923,1813
1295.5053117875495,1813
1297.623277135579,1763
1299.740683131868,1805
1301.8575300174857,1830
1303.973818033578,1837
1306.0895474213703,1819
1308.2047184221678,1813
1310.3193312773528,1850
1312.4333862283888,1863
1314.5468835168163,1838
1316.659823384255,1811
1318.7722060724045,1850
1320.8840318230418,1852
1322.9953008780249,1899
1325.1060134792888,1790
1327.2161698688478,1805
1329.3257702887959,1877
1331.4348149813054,1804
1333.5433041886276,1855
1335.6512381530933,1894
1337.7586171171101,1785
1339.8654413231675,1769
1341.9717110138317,1827
1344.0774264317488,1797
1346.1825878196432,1849
1348.2871954203192,1853
1350.3912494766587,1810
1352.4947502316231,1844
1354.5976979282532,1859
1356.7000928096686,1800
1358.8019351190665,1824
1360.9032250997243,1824
1363.0039629949988,1818
1365.1041490483235,1844
1367.2037835032133,1843
1369.3028666032606,1756
1371.401398592137,1819
1373.4993797135926,1860
1375.5968102114575,1937
1377.6936903296396,1842
1379.7900203121262,1872
1381.8858004029835,1933
1383.9810308463561,1856
1386.075711886469,1881
1388.1698437676241,1937
1390.2634267342032,1897
1392.356461030667,1933
1394.4489469015557,1969
1396.5408845914872,1923
1398.6322743451592,1998
1400.7231164073469,1950
1402.813411022907,1981
1404.903158436773,1937
1406.9923588939578,2010
1409.0810126395531,1995
1411.1691199187303,2037
1413.2566809767386,2077
1415.343696058907,2098
1417.4301654106425,2076
1419.5160892774315,2068
1421.6014679048399,2101
1423.6863015385125,2126
1425.7705904241707,2148
1427.8543348076178,2124
1429.9375349347342,2108
1432.0201910514802,2187
1434.102303403894,2284
1436.1838722380944,2193
1438.2648978002767,2235
1440.3453803367174,2295
1442.4253200937692,2330
1444.5047173178677,2377
1446.5835722555234,2416
1448.6618851533285,2356
1450.739656257952,2404
1452.8168858161434,2492
1454.8935740747306,2491
1456.96972128062,2612
1459.045327680797,2590
1461.120393522327,2607
1463.1949190523528,2633
1465.2689045180973,2673
1467.3423501668608,2802
1469.415256246024,2831
1471.4876230030463,2790
1473.559450685465,2901
1475.6307395408976,3052
1477.7014898170391,3080
1479.771701761665,2992
1481.8413756226287,3010
1483.9105116478618,3132
1485.9791100853772,3228
1488.0471711832643,3297
1490.1146951896926,3353
1492.1816823529098,3403
1494.2481329212433,3439
1496.3140471430984,3586
1498.3794252669609,3515
1500.4442675413939,3586
1502.5085742150404,3618
1504.572345536622,3564
1506.6355817549388,3721
1508.6982831188702,3658
1510.7604498773744,3751
1512.8220822794883,3637
1514.8831805743293,3804
1516.9437450110909,4004
1519.003775839048,3990
1521.0632733075522,3885
1523.1222376660367,4000
1525.1806691640113,4056
1527.2385680510652,4081
1529.2959345768668,4080
1531.3527689911643,4114
1533.4090715437833,4213
1535.4648424846291,4377
1537.5200820636855,4374
1539.5747905310159,4391
1541.6289681367616,4548
1543.6826151311434,4491
1545.7357317644614,4640
1547.7883182870937,4673
1549.8403749494987,4905
1551.8919020022113,4836
1553.9428996958477,4973
1555.9933682811015,4980
1558.0433080087469,5261
1560.0927191296346,5182
1562.1416018946961,5222
1564.1899565549415,5312
1566.2377833614592,5213
1568.2850825654164,5162
1570.3318544180606,4953
1572.3780991707158,4746
1574.423817074788,4599
1576.4690083817595,4432
1578.5136733431923,4146
1580.5578122107272,3963
1582.601425236085,3756
1584.6445126710646,3525
1586.6870747675434,3417
1588.7291117774776,3216
1590.7706239529034,3061
1592.8116115459347,2943
1594.8520748087658,2837
1596.8920139936686,2719
1598.9314293529933,2587
1600.9703211391711,2520
1603.008689604711,2438
1605.0465350022005,2437
1607.0838575843068,2304
1609.1206576037753,2302
1611.1569353134305,2271
1613.1926909661765,2138
1615.2279248149953,2080
1617.2626371129481,2109
1619.2968281131757,2082
1621.3304980688963,1973
1623.3636472334088,2025
1625.39627586009,2027
1627.428384202396,1933
1629.459972513861,1954
1631.4910410480993,1973
1633.5215900588028,1982
1635.551619799744,1891
1637.5811305247717,1835
1639.6101224878166,1925
1641.6385959428862,1927
1643.6665511440683,1895
1645.693988345528,1794
1647.7209078015112,1785
1649.7473097663405,1803
1651.7731944944203,1819
1653.7985622402307,1830
1655.823413258333,1739
1657.847747803366,1824
1659.8715661300494,1713
1661.8948684931793,1793
1663.9176551476316,1809
1665.9399263483624,1807
1667.9616823504057,1817
1669.982923408873,1790
1672.0036497789574,1743
1674.0238617159293,1750
1676.043559475138,1828
1678.0627433120121,1722
1680.081413482059,1846
1682.0995702408654,1767
1684.117213844096,1681
1686.134344547495,1785
1688.1509626068864,1738
1690.1670682781705,1747
1692.182661817329,1822
1694.1977434804217,1799
1696.2123135235875,1768
1698.226372203043,1711
1700.2399197750851,1737
1702.2529564960905,1782
1704.2654826225112,1793
1706.277498410882,1699
1708.2890041178139,1765
1710.2999999999988,1744
1712.3104863142066,1672
1714.3204633172854,1684
1716.329931266163,1674
1718.3388904178469,1733
1720.3473410294214,1712
1722.3552833580516,1725
1724.3627176609807,1726
1726.3696441955308,1710
1728.3760632191033,1724
1730.3819749891782,1719
1732.3873797633146,1643
1734.3922777991502,1649
1736.3966693544012,1610
1738.4005546868639,1661
1740.4039340544127,1709
1742.406807715001,1742
1744.4091759266616,1596
1746.4110389475054,1603
1748.4123970357223,1637
1750.413250449582,1583
1752.4135994474318,1613
1754.4134442876993,1614
1756.4127852288902,1636
1758.4116225295893,1614
1760.4099564484595,1616
1762.407787244244,1608
1764.405115175764,1589
1766.4019405019203,1661
1768.3982634816916,1545
1770.3940843741357,1595
1772.3894034383907,1573
1774.3842209336717,1548
1776.378537119274,1588
1778.372352254571,1566
1780.3656665990156,1596
1782.3584804121397,1573
1784.3507939535534,1541
1786.3426074829463,1577
1788.3339212600863,1584
1790.3247355448211,1568
1792.3150505970766,1614
1794.3048666768573,1501
1796.2941840442477,1555
1798.2830029594106,1556
1800.2713236825884,1602
1802.2591464741004,1476
1804.2464715943465,1559
1806.2332993038058,1606
1808.2196298630352,1490
1810.2054635326708,1573
1812.190800573428,1572
1814.175641246101,1628
1816.1599858115628,1515
1818.1438345307652,1584
1820.127187664738,1576
1822.1100454745924,1573
1824.092408221516,1519
1826.0742761667766,1534
1828.055649571721,1554
1830.0365286977735,1544
1832.0169138064398,1475
1833.9968051593014,1541
1835.9762030180214,1518
1837.9551076443408,1589
1839.9335193000788,1547
1841.9114382471344,1480
1843.888864747485,1523
1845.8657990631878,1555
1847.842241456378,1477
1849.8181921892697,1613
1851.7936515241558,1529
1853.7686197234098,1494
1855.7430970494815,1539
1857.7170837649014,1542
1859.6905801322787,1501
1861.6635864143004,1568
1863.6361028737338,1534
1865.608129773424,1498
1867.5796673762961,1506
1869.5507159453537,1513
1871.521275743678,1582
1873.4913470344313,1538
1875.4609300808534,1567
1877.4300251462632,1535
1879.3986324940588,1584
1881.366752387717,1511
1883.3343850907936,1604
1885.3015308669228,1553
1887.268189979819,1555
1889.2343626932739,1514
1891.2000492711595,1563
1893.1652499774254,1600
1895.1299650761011,1577
1897.0941948312952,1494
1899.0579395071945,1545
1901.0211993680641,1563
1902.98397467825,1528
1904.9462657021745,1553
1906.9080727043415,1521
1908.869395949332,1529
1910.8302357018065,1570
1912.790592226504,1530
1914.7504657882428,1541
1916.7098566519212,1510
1918.6687650825133,1523
1920.6271913450764,1531
1922.5851357047422,1557
1924.5425984267245,1562
1926.499579776314,1564
1928.4560800188833,1509
1930.4120994198802,1514
1932.367638244833,1521
1934.32269675935,1501
1936.2772752291175,1490
1938.231373919899,1615
1940.1849930975404,1548
1942.1381330279637,1606
1944.0907939771696,1573
1946.0429762112412,1475
1947.9946799963363,1576
1949.9459055986945,1570
1951.896653284633,1601
1953.8469233205478,1450
1955.7967159729142,1526
1957.7460315082863,1534
1959.6948701932974,1516
1961.6432322946594,1547
1963.5911180791632,1527
1965.5385278136787,1542
1967.4854617651545,1478
1969.4319202006182,1568
1971.377903387176,1555
1973.3234115920136,1519
1975.268445082395,1502
1977.2130041256642,1503
1979.1570889892423,1517
1981.1006999406304,1542
1983.04383724741,1471
1984.986501177238,1482
1986.928691997853,1414
1988.8704099770712,1530
1990.811655382789,1506
1992.7524284829801,1496
1994.692729545698,1514
1996.6325588390755,1493
1998.5719166313224,1528
2000.5108031907307,1476
2002.4492187856677,1516
2004.387163684583,1495
2006.3246381560011,1507
2008.2616424685298,1495
2010.1981768908527,1525
2012.1342416917332,1479
2014.069837140014,1466
2016.0049635046162,1483
2017.9396210545406,1418
2019.8738100588666,1535
2021.8075307867502,1421
2023.740783507431,1489
2025.6735684902228,1448
2027.6058860045214,1440
2029.5377363198004,1465
2031.4691197056118,1471
2033.4000364315875,1393
2035.3304867674374,1470
2037.260470982952,1424
2039.189989347998,1429
2041.1190421325232,1503
2043.047629606554,1459
2044.9757520401945,1454
2046.9034097036288,1425
2048.8306028671195,1442
2050.7573318010086,1411
2052.683596775716,1430
2054.609398061742,1392
2056.5347359296647,1452
2058.4596106501403,1462
2060.384022493906,1449
2062.3079717317764,1459
2064.231458634646,1535
2066.1544834734873,1455
2068.077046519352,1441
2069.99914804337,1396
2071.9207883167524,1411
2073.8419676107865,1445
2075.7626861968406,1512
2077.6829443463607,1460
2079.6027423308715,1466
2081.522080421977,1435
2083.440958891362,1444
2085.359378010786,1451
2087.2773380520907,1477
2089.194839287196,1446
2091.111881988101,1448
2093.0284664268825,1417
2094.9445928756973,1508
2096.86026160678,1427
2098.775472892446,1489
2100.690227005088,1407
2102.604524217178,1480
2104.5183648012676,1527
2106.431749029985,1446
2108.34467717604,1427
2110.2571495122206,1512
2112.169166311393,1466
2114.080727846503,1452
2115.9918343905747,1517
2117.902486216711,1421
2119.8126835980956,1450
2121.722426807987,1472
2123.6317161197285,1425
2125.5405518067364,1415
2127.448934142509,1474
2129.356863400624,1481
2131.264339854737,1487
2133.1713637785815,1516
2135.077935445972,1449
2136.9840551308002,1493
2138.889723107037,1491
2140.7949396487334,1496
2142.699705030018,1528
2144.6040195250994,1502
2146.507883408264,1471
2148.4112969538774,1489
2150.3142604363848,1442
2152.2167741303097,1491
2154.1188383102535,1519
2156.0204532508997,1531
2157.9216192270064,1549
2159.822336513414,1581
2161.7226053850413,1525
2163.622426116884,1554
2165.5217989840185,1452
2167.4207242616,1557
2169.319202224862,1517
2171.2172331491165,1531
2173.1148173097563,1541
2175.0119549822507,1597
2176.90864644215,1603
2178.8048919650823,1560
2180.7006918267534,1534
2182.596046302952,1558
2184.4909556695407,1575
2186.3854202024645,1563
2188.279440177746,1558
2190.173015871487,1553
2192.066147559868,1539
2193.958835519149,1514
2195.851080025667,1598
2197.7428813558417,1601
2199.6342397861667,1558
2201.5251555932186,1506
2203.415629053651,1578
2205.3056604441986,1597
2207.19525004167,1529
2209.084398122958,1578
2210.9731049650327,1609
2212.861370844941,1615
2214.749196039812,1635
2216.636580826851,1627
2218.523525483344,1621
2220.410030286655,1592
2222.296095514226,1604
2224.1817214435805,1663
2226.066908352319,1629
2227.951656518121,1558
2229.835966218746,1581
2231.71983773203,1639
2233.6032713358913,1594
2235.486267308324,1570
2237.3688259274036,1540
2239.2509474712824,1562
2241.132632218193,1597
2243.013880446447,1545
2244.8946924344323,1644
2246.7750684606203,1603
2248.6550088035574,1658
2250.534513741871,1595
2252.413583554265,1601
2254.292218519526,1579
2256.170418916517,1581
2258.0481850241786,1531
2259.925517121534,1654
2261.8024154876825,1590
2263.678880401803,1541
2265.5549121431536,1578
2267.430510991071,1570
2269.305677224971,1593
2271.180411124348,1569
2273.0547129687766,1557
2274.9285830379076,1521
2276.8020216114737,1576
2278.6750289692845,1570
2280.5476053912294,1677
2282.4197511572766,1576
2284.2914665474727,1596
2286.162751841943,1673
2288.0336073208937,1664
2289.904033264608,1622
2291.774029953448,1646
2293.6435976678554,1635
2295.5127366883517,1546
2297.381447295534,1557
2299.2497297700825,1524
2301.1175843927526,1480
2302.9850114443825,1468
2304.852011205885,1410
2306.7185839582553,1390
2308.5847299825664,1398
2310.4504495599676,1416
2312.3157429716925,1392
2314.1806104990483,1439
2316.0450524234247,1427
2317.9090690262888,1388
2319.772660589186,1322
2321.635827393742,1366
2323.498569721661,1412
2325.3608878547248,1335
2327.2227820747967,1392
2329.0842526638157,1372
2330.945299903803,1381
2332.805924076857,1329
2334.6661254651535,1410
2336.525904350951,1395
2338.3852610165827,1410
2340.244195744464,1351
2342.102708817088,1409
2343.9608005170253,1402
2345.8184711269287,1388
2347.675720929526,1402
2349.532550207628,1386
2351.38895924412,1391
2353.24494832197,1371
2355.100517724223,1340
2356.955667734004,1422
2358.810398634514,1356
2360.664710709037,1436
2362.5186042409337,1381
2364.3720795136437,1357
2366.225136810686,1423
2368.0777764156583,1401
2369.929998612237,1367
2371.7818036841777,1389
2373.633191915315,1416
2375.484163589562,1409
2377.3347189909114,1430
2379.184858403434,1383
2381.03458211128,1401
2382.8838903986775,1376
2384.732783549936,1394
2386.5812618494406,1386
2388.4293255816588,1431
2390.2769750311327,1464
2392.1242104824883,1432
2393.971032220427,1435
2395.8174405297295,1442
2397.6634356952563,1447
2399.509018001947,1420
2401.3541877348193,1445
2403.1989451789705,1466
2405.043290619576,1461
2406.8872243418905,1438
2408.730746631247,1445
2410.5738577730594,1385
2412.4165580528183,1463
2414.258847756095,1456
2416.100727168537,1421
2417.9421965758734,1394
2419.783256263912,1352
2421.623906518538,1416
2423.4641476257157,1392
2425.303979871491,1443
2427.143403541984,1453
2428.9824189233977,1490
2430.821026302012,1493
2432.6592259641866,1433
2434.497018196361,1393
2436.33440328505,1429
2438.171381516851,1433
2440.00795317844,1423
2441.844118556569,1490
2443.6798779380724,1466
2445.5152316098606,1416
2447.3501798589255,1412
2449.1847229723357,1497
2451.0188612372403,1503
2452.8525949408663,1462
2454.6859243705203,1420
2456.518849813587,1466
2458.3513715575314,1470
2460.183489889895,1485
2462.015205098301,1478
2463.8465174704493,1513
2465.67742729412,1462
2467.5079348571717,1444
2469.338040447542,1469
2471.1677443532476,1454
2472.9970468623833,1412
2474.825948263123,1437
2476.6544488437207,1445
2478.482548892508,1494
2480.310248697896,1445
2482.137548548374,1456
2483.9644487325118,1439
2485.790949538956,1419
2487.617051256433,1469
2489.44275417375,1420
2491.26805857979,1512
2493.0929647635157,1498
2494.917473013971,1482
2496.741583620276,1493
2498.5652968716304,1488
2500.3886130573137,1450
2502.2115324666834,1552
2504.0340553891765,1523
2505.856182114308,1542
2507.6779129316733,1517
2509.499248130945,1534
2511.3201880018764,1571
2513.140732834298,1531
2514.9608829181198,1538
2516.780638543331,1538
2518.6,1551
2520.418967578273,1521
2522.237541568376,1579
2524.0557222606144,1525
2525.8735099453706,1589
2527.6909049131086,1611
2529.507907454368,1533
2531.32451785977,1606
2533.140736420014,1546
2534.9565634258774,1613
2536.771999168218,1645
2538.5870439379714,1657
2540.4016980261526,1640
2542.2159617238544,1598
2544.02983532225,1682
2545.8433191125914,1653
2547.656413386209,1634
2549.4691184345115,1662
2551.2814345489874,1714
2553.093362021204,1689
2554.904901142808,1768
2556.716052205523,1638
2558.526815501153,1727
2560.3371913215824,1813
2562.147179958771,1743
2563.956781704761,1742
2565.7659968516705,1754
2567.5748256916986,1850
2569.3832685171224,1789
2571.1913256202984,1774
2572.9989972936614,1834
2574.806283829725,1882
2576.613185521084,1826
2578.4197026604074,1882
2580.2258355404483,1841
2582.031584454035,1907
2583.836949694077,1925
2585.6419315535613,1869
2587.4465303255533,1901
2589.2507463032002,1906
2591.0545797797245,1878
2592.8580310484303,1890
2594.6611004026995,1988
2596.463788135992,1980
2598.266094541849,1927
2600.0680199138874,1918
2601.869564545807,1925
2603.670728731383,1922
2605.4715127644704,1991
2607.2719169390048,1928
2609.071941548998,2023
2610.8715868885433,1954
2612.670853251811,1964
2614.469740933052,1935
2616.268250226594,1920
2618.0663814268455,1995
2619.864134828292,1944
2621.6615107255006,1931
2623.458509413115,1948
2625.2551311858597,1963
2627.0513763385347,1861
2628.8472451660223,1864
2630.6427379632833,1864
2632.4378550253564,1869
2634.232596647359,1926
2636.026963124488,1852
2637.8209547520187,1852
2639.6145718253065,1813
2641.407814639785,1850
2643.200683490966,1754
2644.9931786744414,1780
2646.7853004858807,1734
2648.577049221034,1762
2650.3684251757277,1756
2652.1594286458712,1688
2653.9500599274484,1742
2655.740319316525,1704
2657.5302071092437,1631
2659.3197236018286,1666
2661.10886909058,1553
2662.8976438718782,1600
2664.686048242183,1672
2666.4740824980327,1607
2668.2617469360443,1627
2670.0490418529134,1638
2671.8359675454153,1625
2673.622524310403,1567
2675.408712444811,1543
2677.1945322456495,1557
2678.979984010009,1537
2680.76506803506,1530
2682.5497846180497,1483
2684.334134056306,1506
2686.1181166472343,1496
2687.9017326883213,1462
2689.6849824771293,1469
2691.4678663113013,1470
2693.2503844885596,1516
2695.032537306705,1468
2696.8143250636167,1492
2698.5957480572542,1510
2700.3768065856534,1448
2702.1575009469316,1469
2703.937831439283,1474
2705.717798360982,1443
2707.4974020103837,1437
2709.276642685917,1494
2711.055520686095,1442
2712.834036309506,1427
2714.612189854819,1452
2716.389981620782,1395
2718.1674119062204,1426
2719.944481010041,1428
2721.721189231226,1347
2723.4975368688415,1433
2725.273524222027,1406
2727.0491515900053,1409
2728.824419272075,1370
2730.5993275676146,1449
2732.3738767760838,1420
2734.148067197016,1407
2735.921899130031,1389
2737.6953728748194,1363
2739.468488731156,1354
2741.2412469988926,1392
2743.0136479779617,1361
2744.785691968372,1385
2746.5573792702116,1347
2748.3287101836504,1392
2750.099685008934,1419
2751.870304046388,1358
2753.640567596418,1355
2755.4104759595057,1378
2757.1800294362156,1393
2758.949228327187,1363
2760.7180729331412,1438
2762.486563554877,1404
2764.254700493272,1373
2766.022484049284,1376
2767.789914523947,1360
2769.5569922183786,1378
2771.3237174337705,1349
2773.090090471394,1373
2774.8561116326036,1348
2776.6217812188274,1446
2778.3870995315756,1322
2780.1520668724356,1380
2781.9166835430747,1354
2783.6809498452394,1353
2785.444866080754,1320
2787.2084325515225,1319
2788.971649559527,1365
2790.73451740683,1379
2792.4970363955713,1361
2794.2592068279705,1362
2796.0210290063264,1298
2797.7825032330147,1316
2799.543629810493,1360
2801.304409041296,1345
2803.0648412280366,1327
2804.8249266734088,1336
2806.5846656801846,1333
2808.344058551212,1365
2810.1031055894246,1400
2811.8618070978273,1335
2813.6201633795085,1299
2815.378174737636,1390
2817.1358414754536,1376
2818.893163896285,1335
2820.6501423035334,1348
2822.4067770006814,1329
2824.1630682912883,1407
2825.9190164789957,1396
2827.6746218675207,1369
2829.429884760661,1316
2831.184805462294,1365
2832.9393842763743,1299
2834.693621506936,1369
2836.4475174580916,1368
2838.201072434034,1373
2839.954286739034,1347
2841.707160677441,1376
2843.459694553685,1326
2845.2118886722724,1349
2846.96374333779,1309
2848.7152588549034,1395
2850.4664355283567,1385
2852.217273662973,1357
2853.9677735636546,1365
2855.7179355353833,1402
2857.4677598832186,1355
2859.217246912299,1383
2860.9663969278427,1340
2862.715210235146,1346
2864.4636871395846,1391
2866.211827946614,1332
2867.9596329617652,1290
2869.7071024906536,1348
2871.4542368389684,1346
2873.20103631248,1337
2874.947501217038,1349
2876.6936318585695,1338
2878.4394285430812,1355
2880.1848915766604,1350
2881.9300212654707,1354
2883.6748179157553,1339
2885.4192818338374,1293
2887.1634133261173,1347
2888.907212699077,1332
2890.6506802592744,1365
2892.393816313348,1356
2894.1366211680142,1352
2895.8790951300693,1323
2897.621238506388,1334
2899.363051603925,1395
2901.1045347297118,1362
2902.8456881908596,1391
2904.58651229456,1349
2906.327007348081,1284
2908.067173658772,1314
2909.8070115340597,1328
2911.5465212814497,1332
2913.285703208527,1387
2915.0245576229563,1329
2916.7630848324807,1369
2918.5012851449196,1353
2920.2391588681758,1313
2921.976706310227,1393
2923.7139277791334,1389
2925.4508235830313,1316
2927.187394030137,1303
2928.923639428745,1282
2930.6595600872306,1335
2932.395156314046,1372
2934.1304284177218,1352
2935.8653767068713,1321
2937.6000014901815,1312
2939.3343030764227,1368
2941.068281774442,1306
2942.8019378931644,1332
2944.5352717415976,1358
2946.2682836288236,1427
2948.0009738640065,1350
2949.7333427563885,1354
2951.465390615289,1343
2953.1971177501086,1327
2954.9285244703265,1311
2956.6596110855,1362
2958.3903779052657,1391
2960.1208252393385,1359
2961.8509533975125,1333
2963.5807626896617,1346
2965.3102534257378,1323
2967.0394259157715,1340
2968.768280469873,1355
2970.496817398232,1337
2972.2250370111146,1372
2973.952939618869,1377
2975.6805255319196,1319
2977.4077950607707,1364
2979.134748516006,1364
2980.861386208289,1421
2982.587708448359,1362
2984.313715547037,1417
2986.039407815222,1322
2987.764785563891,1352
2989.489849104102,1318
2991.2145987469908,1331
2992.9390348037705,1325
2994.6631575857346,1365
2996.3869674042576,1244
2998.1104645707887,1316
2999.83364939686,1342
3001.5565221940783,1318
3003.2790832741334,1393
3005.0013329487924,1333
3006.7232715298996,1287
3008.4448993293804,1337
3010.166216659239,1320
3011.887223831558,1303
3013.607921158498,1309
3015.3283089522993,1323
3017.0483875252826,1319
3018.7681571898443,1321
3020.4876182584626,1347
3022.2067710436927,1364
3023.9256158581707,1350
3025.644153014609,1305
3027.362382825801,1381
3029.0803056046193,1335
3030.797921664012,1401
3032.5152313170106,1311
3034.2322348767225,1340
3035.9489326563353,1344
3037.665324969115,1284
3039.3814121284063,1384
3041.097194447633,1309
3042.812672240299,1389
3044.5278458199855,1331
3046.2427155003525,1340
3047.9572815951406,1345
3049.671544418167,1318
3051.38550428333,1344
3053.0991615046073,1326
3054.812516396051,1370
3056.5255692717974,1419
3058.2383204460575,1324
3059.9507702331257,1370
3061.662918947372,1327
3063.3747669032446,1394
3065.0863144152736,1334
3066.7975617980674,1364
3068.508509366309,1317
3070.219157434767,1336
3071.9295063182844,1264
3073.639556331785,1375
3075.3493077902704,1360
3077.058761008821,1434
3078.7679163025964,1330
3080.476773986837,1341
3082.1853343768594,1318
3083.89359778806,1417
3085.6015645359153,1353
3087.3092349359786,1329
3089.016609303884,1339
3090.7236879553434,1413
3092.4304712061476,1318
3094.136959372166,1382
3095.843152769349,1325
3097.5490517137237,1341
3099.2546565213966,1288
3100.959967508554,1416
3102.66498499146,1388
3104.3697092864577,1355
3106.0741407099695,1329
3107.778279578498,1347
3109.482126208622,1310
3111.1856809170004,1380
3112.8889440203716,1371
3114.5919158355528,1367
3116.294596679439,1355
3117.996986869006,1333
3119.6990867213062,1359
3121.4008965534726,1369
3123.102416682717,1379
3124.803647426329,1414
3126.5045891016784,1353
3128.205242026213,1384
3129.90560651746,1342
3131.605682893025,1378
3133.3054714705922,1355
3135.0049725679282,1409
3136.7041865028714,1359
3138.4031135933465,1400
3140.101754157353,1349
3141.800108512971,1303
3143.498176978357,1344
3145.1959598717494,1323
3146.8934575114636,1355
3148.5906702158954,1360
3150.2875983035183,1393
3151.9842420928853,1364
3153.680601902627,1306
3155.376678051456,1300
3157.07247085816,1333
3158.767980641609,1285
3160.463207720748,1381
3162.158152414606,1408
3163.8528150422862,1371
3165.5471959229726,1351
3167.2412953759303,1328
3168.9351137204976,1382
3170.628651276098,1323
3172.3219083622307,1341
3174.014885298474,1409
3175.707582404485,1359
3177.4000000000005,1350
3179.092138404835,1342
3180.7839979388846,1332
3182.47557892212,1322
3184.166881674594,1340
3185.8579065164386,1366
3187.5486537678626,1373
3189.2391237491547,1278
3190.9293167806827,1333
3192.6192331828934,1328
3194.3088732763117,1321
3195.998237381542,1302
3197.687325819268,1348
3199.376138910251,1307
3201.064676975334,1340
3202.7529403354347,1274
3204.4409293115523,1330
3206.1286442247647,1313
3207.816085396229,1285
3209.5032531471825,1338
3211.190147798936,1255
3212.8767696728846,1317
3214.5631190905015,1309
3216.2491963733373,1330
3217.9350018430214,1281
3219.6205358212637,1233
3221.305798629851,1282
3222.990790590651,1261
3224.6755120256103,1281
3226.359963256751,1296
3228.0441446061795,1307
3229.7280563960758,1309
3231.411698948703,1306
3233.0950725863995,1348
3234.778177631587,1301
3236.461014406761,1282
3238.1435832345005,1302
3239.8258844374595,1333
3241.507918338374,1336
3243.1896852600576,1311
3244.8711855254023,1337
3246.552419457381,1326
3248.233387379042,1321
3249.914089613516,1297
3251.59452648401,1300
3253.274698313813,1297
3254.95460542629,1254
3256.6342481448855,1313
3258.313626793125,1294
3259.9927416946084,1268
3261.6715931730196,1251
3263.3501815521176,1310
3265.0285071557437,1268
3266.706570307815,1229
3268.3843713323286,1349
3270.0619105533615,1346
3271.739188295068,1304
3273.4162048816834,1278
3275.0929606375184,1288
3276.769455886966,1323
3278.445690954498,1279
3280.1216661646613,1315
3281.797381842087,1320
3283.4728383114807,1285
3285.1480358976296,1259
3286.8229749253996,1286
3288.4976557197333,1280
3290.172078605655,1243
3291.846243908266,1241
3293.5201519527463,1321
3295.193803064357,1289
3296.8671975684374,1257
3298.5403357904024,1301
3300.21321805575,1317
3301.8858446900567,1285
3303.558216018975,1332
3305.23033236824,1246
3306.9021940636603,1268
3308.57380143113,1286
3310.2451547966184,1310
3311.916254486174,1258
3313.5871008259246,1285
3315.2576941420766,1327
3316.9280347609147,1313
3318.5981230088046,1284
3320.2679592121895,1215
3321.9375436975924,1237
3323.606876791612,1315
3325.27595882093,1328
3326.944790112305,1301
3328.6133709925753,1275
3330.2817017886573,1290
3331.949782827547,1300
3333.617614436319,1302
3335.2851969421245,1299
3336.952530672199,1311
3338.619615953853,1310
3340.286453114475,1277
3341.9530424815357,1283
3343.619384382583,1277
3345.2854791452437,1274
3346.951327097224,1271
3348.6169285663073,1277
3350.2822838803577,1298
3351.947393367319,1314
3353.61225735521,1255
3355.2768761721345,1350
3356.9412501462693,1292
3358.605379605873,1278
3360.2692648792827,1316
3361.9329062949146,1330
3363.596304181263,1243
