CollectionTime,7/9/2024 11:30:26 AM
ExposureUsed,3
CalibratedSpectrum
-962.7078968117929,744
-959.9714848408522,762
-957.2358232597828,817
-954.5009119013725,860
-951.7667505983302,782
-949.0333391832855,773
-946.3006774887896,775
-943.5687653473143,791
-940.837602591253,793
-938.1071890529199,821
-935.3775245645503,819
-932.6486089583007,795
-929.9204420662485,835
-927.1930237203925,824
-924.4663537526524,837
-921.7404319948689,815
-919.0152582788041,814
-916.2908324361409,832
-913.5671542984834,873
-910.8442236973568,806
-908.1220404642074,768
-905.4006044304027,804
-902.679915427231,832
-899.959973285902,765
-897.2407778375464,790
-894.5223289132158,787
-891.8046263438832,807
-889.0876699604426,812
-886.3714595937089,788
-883.6559950744183,794
-880.9412762332282,725
-878.2273029007168,757
-875.5140749073835,786
-872.8015920836489,768
-870.0898542598545,790
-867.3788612662631,826
-864.6686129330585,757
-861.9591090903457,812
-859.2503495681506,804
-856.5423341964203,810
-853.8350628050229,769
-851.1285352237478,788
-848.4227512823054,798
-845.7177108103272,807
-843.0134136373656,771
-840.3098595928943,791
-837.6070485063082,819
-834.9049802069229,816
-832.2036545239757,804
-829.5030712866244,806
-826.8032303239481,801
-824.1041314649472,798
-821.4057745385428,795
-818.7081593735775,784
-816.0112857988148,718
-813.3151536429393,768
-810.6197627345566,775
-807.9251129021936,822
-805.2312039742981,811
-802.5380357792392,789
-799.8456081453069,803
-797.1539209007124,825
-794.462973873588,836
-791.772766891987,807
-789.083299783884,836
-786.3945723771743,831
-783.7065844996748,825
-781.0193359791231,810
-778.3328266431781,836
-775.6470563194197,765
-772.9620248353489,796
-770.2777320183878,798
-767.5941776958798,800
-764.9113616950891,848
-762.2292838432011,802
-759.5479439673222,813
-756.8673418944801,831
-754.1874774516235,898
-751.5083504656222,843
-748.8299607632671,806
-746.15230817127,833
-743.475392516264,837
-740.7992136248035,871
-738.1237713233636,839
-735.4490654383407,809
-732.7750957960521,848
-730.1018622227365,851
-727.4293645445534,856
-724.7576025875837,857
-722.0865761778291,879
-719.4162851412126,864
-716.7467293035781,886
-714.0779084906909,860
-711.409822528237,873
-708.7424712418238,841
-706.0758544569796,863
-703.4099719991541,929
-700.7448236937178,890
-698.0804093659622,841
-695.4167288411002,905
-692.7537819442656,892
-690.0915685005134,903
-687.4300883348199,863
-684.7693412720819,883
-682.1093271371178,889
-679.4500457546669,895
-676.7914969493897,904
-674.1336805458676,888
-671.4765963686034,894
-668.8202442420206,932
-666.1646239904642,897
-663.5097354382001,959
-660.8555784094151,953
-658.2021527282176,965
-655.5494582186366,908
-652.8974947046223,891
-650.2462620100463,913
-647.5957599587009,946
-644.9459883742998,931
-642.2969470804776,957
-639.6486359007902,990
-637.0010546587141,1004
-634.3542031776476,979
-631.7080812809096,926
-629.0626887917401,1025
-626.4180255333008,963
-623.7740913286734,987
-621.1308860008619,943
-618.4884093727904,947
-615.8466612673046,968
-613.2056415071715,941
-610.5653499150785,952
-607.9257863136347,917
-605.28695052537,998
-602.6488423727357,986
-600.0114616781036,975
-597.3748082637674,967
-594.7388819519412,981
-592.1036825647604,992
-589.4692099242818,984
-586.8354638524829,957
-584.2024441712624,952
-581.5701507024403,1005
-578.9385832677575,973
-576.3077416888759,987
-573.6776257873787,970
-571.0482353847704,973
-568.4195703024757,939
-565.7916303618415,989
-563.164415384135,957
-560.5379251905453,979
-557.9121596021815,974
-555.2871184400748,971
-552.6628015251767,996
-550.0392086783606,972
-547.4163397204204,1033
-544.794194472071,983
-542.1727727539491,1068
-539.5520743866118,986
-536.9320991905377,1012
-534.3128469861261,1067
-531.6943175936979,1047
-529.0765108334947,1064
-526.4594265256793,1161
-523.8430644903358,1219
-521.2274245474689,1340
-518.612506517005,1439
-515.9983102187913,1385
-513.3848354725959,1405
-510.77208209810846,1395
-508.16004991493924,1428
-505.5487387426199,1558
-502.9381484006032,1663
-500.3282787082628,1747
-497.71912948489364,1807
-495.1107005497117,1784
-492.5029917218539,1635
-489.8960028203786,1518
-487.28973366426493,1381
-484.68418407241325,1289
-482.07935386364494,1210
-479.47524285670266,1279
-476.87185087025,1197
-474.2691777228715,1193
-471.66722323307334,1183
-469.0659872192821,1221
-466.4654694998459,1217
-463.86566989303384,1160
-461.26658821703614,1183
-458.66822428996414,1204
-456.07057792985,1167
-453.4736489546475,1183
-450.877437182231,1183
-448.28194243039627,1193
-445.68716451686,1165
-443.09310325926003,1170
-440.49975847515555,1179
-437.9071299820263,1196
-435.31521759727354,1207
-432.72402113821954,1175
-430.13354042210767,1186
-427.5437752661022,1184
-424.95472548728867,1166
-422.36639090267386,1191
-419.7787713291855,1183
-417.1918665836721,1229
-414.60567648290385,1277
-412.0202008435715,1209
-409.4354394822874,1250
-406.8513922155845,1236
-404.26805885991723,1241
-401.685439231661,1262
-399.103533147112,1231
-396.522340422488,1211
-393.9418608739278,1195
-391.3620943174908,1217
-388.7830405691583,1186
-386.2046994448317,1146
-383.6270707603344,1093
-381.05015433141045,1025
-378.473949973725,925
-375.8984575028645,909
-373.32367673433623,855
-370.74960748356875,744
-368.1762495659117,710
-365.60360279663576,612
-363.03166699093265,582
-360.4604419639154,573
-357.8899275306178,530
-355.32012350599507,513
-352.7510297049233,463
-350.1826459421999,460
-347.61497203254316,461
-345.04800779059235,489
-342.4817530309082,481
-339.91620756797226,487
-337.35137121618743,475
-334.7872437898774,471
-332.22382510328725,504
-329.66111497058273,465
-327.09911320585127,447
-324.53781962310075,465
-321.9772340362607,477
-319.4173562591816,467
-316.8581861056348,484
-314.2997233893127,437
-311.7419679238294,439
-309.1849195227194,481
-306.62857799943856,468
-304.0729431673641,473
-301.51801483979375,519
-298.963792829947,487
-296.41027695096386,536
-293.85746701590574,559
-291.3053628377552,514
-288.7539642294155,560
-286.2032710037115,527
-283.65328297338897,523
-281.1039999511146,555
-278.5554217494762,606
-276.007548180983,575
-273.4603790580651,491
-270.9139141930734,500
-268.3681533982807,541
-265.8230964858798,564
-263.27874326798565,554
-260.7350935566336,518
-258.1921471637804,583
-255.6499039013039,566
-253.10836358100266,609
-250.56752601459698,552
-248.02739101372765,547
-245.48795838995704,619
-242.94922795476816,573
-240.41119951956557,568
-237.8738728956746,631
-235.33724789434166,669
-232.80132432673452,621
-230.2661020039418,578
-227.73158073697357,597
-225.19776033676033,636
-222.66464061415422,676
-220.1322213799284,642
-217.60050244477725,632
-215.06948361931552,637
-212.53916471408013,653
-210.00954553952818,686
-207.48062590603843,613
-204.9524056239104,626
-202.4248845033651,738
-199.8980623545441,700
-197.37193898751036,688
-194.84651421224817,654
-192.32178783866232,679
-189.79775967657952,699
-187.27442953574644,735
-184.7517972258321,792
-182.2298625564256,782
-179.7086253370378,719
-177.18808537710026,682
-174.66824248596583,694
-172.14909647290835,757
-169.6306471471229,776
-167.11289431772548,791
-164.59583779375328,782
-162.07947738416453,777
-159.5638128978386,809
-157.04884414357605,891
-154.53457093009854,1038
-152.02099306604828,952
-149.50811035998936,847
-146.99592262040665,807
-144.48442965570587,865
-141.97363127421409,906
-139.46352728417958,980
-136.95411749377126,1094
-134.44540171107985,1160
-131.93737974411636,946
-129.43005140081357,850
-126.92341648902493,1073
-124.41747481652521,1365
-121.91222619101006,1742
-119.40767042009657,2236
-116.90380731132257,2528
-114.40063667214702,2403
-111.8981583099503,1903
-109.3963720320337,1479
-106.89527764561933,1557
-104.39487495785067,1642
-101.89516377579241,2297
-99.39614390642998,2959
-96.89781515667039,3829
-94.40017733334128,4064
-91.90323024319173,3402
-89.40697369289148,3047
-86.91140748903172,3384
-84.41653143812482,3939
-81.92234534660395,3629
-79.42884902082358,3545
-76.93604226705907,5118
-74.4439248915071,8238
-71.95249670028534,11063
-69.46175749943245,13656
-66.97170709490854,14111
-64.48234529259423,12973
-61.99367189829195,10986
-59.50568671772464,9710
-57.01838955653636,8273
-54.53178022029283,8138
-52.045858514480074,9220
-49.560624244506016,12588
-47.07607721569923,14658
-44.59221723330904,14563
-42.10904410250669,13085
-39.62655762838392,10725
-37.14475761595372,8886
-34.66364387015028,7304
-32.18321619582866,6943
-29.70347439776515,6659
-27.224418280657005,6737
-24.74604764912317,8873
-22.26836230770266,12914
-19.7913620608565,23126
-17.315046712966478,41402
-14.83941606833514,55433
-12.36446993118659,65041
-9.89020810566592,65041
-7.416630395839093,65041
-4.94373660569363,65041
-2.471526539137585,65041
-6.821210263296962E-13,65041
2.47084320796705,65041
4.941003281093458,65041
7.410480415786196,65041
9.879274808531363,65041
12.347386655893956,65041
14.814816154518212,65041
17.28156350112681,65041
19.74762889252179,65041
22.21301252558385,65041
24.67771459727237,20647
27.141735304626195,3728
29.605074844762612,2141
32.06773341487792,1553
34.52971121224755,1727
36.99100843422559,1960
39.45162527824516,1692
41.91156194181792,1493
44.370818622535126,1296
46.82939551806646,1167
49.287292826160524,1314
51.74451074464503,1229
54.201049471426245,1157
56.65690920448981,1133
59.112090141899785,1040
61.56659248179983,1022
64.02041642241159,996
66.4735621620365,940
68.92602989905402,943
71.37781983192338,961
73.82893215918205,904
76.27936707944684,968
78.72912479141326,1112
81.17820549385567,1094
83.62660938562783,1073
86.07433666566146,1049
88.5213875329681,854
90.96776218663751,810
93.41346082583925,859
95.85848364982041,947
98.30283085790859,1022
100.7465026495089,1022
103.18949922410604,981
105.63182078126385,926
108.07346752062438,1065
110.51443964190923,942
112.95473734491827,829
115.39436082953114,830
117.83331029570547,876
120.27158594347827,869
122.7091879729652,875
125.1461165843615,893
127.58237197794062,823
130.01795435405518,820
132.4528639131364,912
134.88710085569494,913
137.32066538231982,791
139.75355769367923,784
142.1857779905207,760
144.61732647366978,790
147.04820334403132,827
149.47840880258934,960
151.90794305040674,954
154.33680628862487,1090
156.76499871846443,1263
159.19252054122433,1464
161.61937195828352,1613
164.04555317109896,1748
166.47106438120693,1999
168.89590579022217,2237
171.320077599839,2438
173.7435800118302,2545
176.16641322804742,2652
178.58857745042144,2849
181.01007288096173,3056
183.43089972175687,3065
185.85105817497413,3037
188.27054844285988,3043
190.6893707277394,3045
193.10752523201643,3114
195.5250121581745,3290
197.9418317087751,3331
200.3579840864594,3423
202.7734694939469,3278
205.18828813403627,3453
207.6024402096051,3450
210.01592592360964,3433
212.42874547908548,3332
214.84089907914665,3413
217.2523869269868,3400
219.66320922587727,3304
222.0733661791695,3185
224.48285799029293,3375
226.8916848627572,3306
229.29984700014882,3404
231.7073446061355,3399
234.11417788446204,3413
236.520347038953,3517
238.92585227351185,3605
241.33069379212054,3612
243.73487179884035,3600
246.1383864978112,3718
248.541238093252,3608
250.9434267894609,3658
253.34495279081432,3725
255.74581630176783,3660
258.1460175268563,3678
260.54555667069314,3645
262.9444339379703,3668
265.3426495334594,3596
267.7402036620107,3482
270.1370965285529,3400
272.53332833809407,3307
274.9288992957214,3204
277.32380960660055,3278
279.718059475976,3146
282.1116491091717,3142
284.5045787115897,3097
286.89684848871195,3082
289.2884586460981,3047
291.67940938938807,3184
294.0697009242996,3191
296.4593334566299,3048
298.84830719225477,3106
301.23662233712923,3047
303.6242790972866,2951
306.01127767884,3010
308.39761828798066,2882
310.78330113097934,2950
313.16832641418534,2884
315.5526943440269,2818
317.9364051270112,2794
320.3194589697242,2725
322.70185607883093,2843
325.0835966610754,2853
327.4646809232805,2829
329.8451090723478,2718
332.2248813152577,2728
334.6039978590701,2727
336.9824589109231,2644
339.36026467803447,2749
341.7374153677,2671
344.113911187295,2712
346.48975234427337,2673
348.8649390461686,2652
351.2394715005918,2646
353.61334991523415,2665
355.9865744978655,2698
358.35914545633375,2562
360.73106299856715,2602
363.10232733257146,2596
365.47293866643247,2662
367.84289720831396,2661
370.2122031664593,2568
372.5808567491905,2596
374.9488581649083,2446
377.31620762209275,2510
379.6829053293021,2471
382.0489514951745,2525
384.4143463284262,2479
386.7790900378528,2527
389.14318283232853,2483
391.50662492080653,2474
393.86941651231916,2566
396.23155781597745,2572
398.5930490409713,2514
400.9538903965696,2528
403.3140820921202,2483
405.6736243370498,2529
408.03251734086336,2430
410.3907613131465,2481
412.74835646356166,2372
415.10530300185144,2397
417.4616011378372,2402
419.81725108141893,2411
422.1722530425758,2457
424.5266072313656,2443
426.880313857925,2470
429.2333731324701,2440
431.58578526529516,2410
433.9375504667738,2429
436.2886689473588,2419
438.63914091758113,2341
440.9889665880513,2404
443.33814616945835,2391
445.68667987257015,2351
448.03456790823395,2266
450.3818104873759,2337
452.72840782100013,2433
455.07436012019105,2316
457.41966759611057,2410
459.7643304600007,2397
462.10834892318155,2414
464.4517231970525,2356
466.79445349309174,2369
469.1365400228566,2400
471.4779829979826,2484
473.81878263018564,2423
476.15893913125876,2422
478.4984527130747,2334
480.8373235875855,2506
483.17555196682144,2530
485.5131380628919,2589
487.8500820879857,2645
490.1863842543697,2805
492.52204477439034,2915
494.8570638604725,3224
497.1914417251204,3441
499.52517858091653,3706
501.85827464052306,3708
504.19073011668036,3781
506.5225452222086,3641
508.85372017000566,3691
511.18425517304956,3590
513.514150444396,3726
515.8434061971808,4379
518.1720226446176,5320
520.4999999999999,5620
522.8273384766991,5378
525.1540382881666,4891
527.480099647932,4438
529.8055227696037,3705
532.1303078668694,3222
534.454455153496,2738
536.777964843328,2613
539.1008371502907,2548
541.4230722883866,2525
543.744670471698,2558
546.0656319143858,2515
548.3859568306899,2431
550.7056454349294,2509
553.0246979415016,2579
555.3431145648834,2434
557.6608955196306,2433
559.978041020377,2352
562.2945512818363,2365
564.6104265188006,2419
566.9256669461412,2394
569.2402727788082,2470
571.5542442318302,2511
573.8675815203156,2502
576.1802848594508,2535
578.4923544645015,2489
580.8037905508126,2579
583.114593333807,2521
585.4247630289875,2539
587.7342998519354,2538
590.0432040183106,2490
592.3514757438526,2574
594.6591152443794,2458
596.9661227357875,2517
599.2724984340531,2475
601.578242555231,2503
603.8833553154542,2525
606.1878369309362,2457
608.4916876179676,2488
610.7949075929192,2423
613.0974970722403,2495
615.3994562724587,2482
617.7007854101818,2430
620.0014847020951,2463
622.3015543649641,2399
624.6009946156324,2481
626.8998056710224,2459
629.1979877481361,2497
631.4955410640538,2429
633.7924658359349,2500
636.0887622810175,2601
638.3844306166192,2549
640.6794710601358,2480
642.9738838290426,2518
645.2676691408932,2547
647.5608272133207,2479
649.853358264037,2501
652.1452625108324,2512
654.4365401715764,2608
656.7271914642178,2564
659.0172166067838,2574
661.3066158173809,2537
663.5953893141935,2532
665.8835373154867,2506
668.1710600396028,2554
670.4579577049639,2497
672.7442305300709,2547
675.0298787335033,2612
677.3149025339197,2558
679.599302150058,2475
681.8830778007342,2568
684.1662297048437,2554
686.4487580813608,2501
688.7306631493387,2505
691.0119451279091,2511
693.2926042362834,2519
695.5726406937516,2425
697.8520547196814,2557
700.1308465335215,2466
702.4090163547982,2449
704.6865644031171,2448
706.9634908981619,2445
709.2397960596965,2423
711.5154801075631,2528
713.7905432616823,2578
716.0649857420548,2454
718.3388077687592,2539
720.612009561953,2593
722.8845913418733,2456
725.1565533288352,2403
727.427895743234,2507
729.6986188055427,2478
731.9687227363137,2438
734.238207756178,2479
736.5070740858458,2579
738.7753219461066,2401
741.0429515578281,2471
743.3099631419569,2427
745.5763569195191,2527
747.8421331116193,2560
750.1072919394409,2501
752.3718336242467,2459
754.6357583873777,2549
756.8990664502545,2521
759.1617580343765,2483
761.423833361321,2449
763.6852926527457,2416
765.9461361303862,2512
768.206364016058,2477
770.4659765316536,2520
772.7249738991469,2541
774.9833563405886,2514
777.2411240781092,2500
779.4982773339183,2542
781.7548163303044,2468
784.010741289634,2512
786.2660524343538,2627
788.5207499869881,2508
790.7748341701416,2559
793.0283052064964,2597
795.2811633188143,2510
797.5334087299362,2549
799.7850416627813,2543
802.0360623403484,2450
804.2864709857143,2515
806.5362678220353,2549
808.7854530725468,2533
811.0340269605625,2613
813.2819897094754,2512
815.5293415427581,2599
817.77608268396,2586
820.0222133567116,2577
822.2677337847211,2536
824.5126441917765,2616
826.7569448017433,2566
829.0006358385675,2530
831.2437175262731,2605
833.4861900889629,2591
835.7280537508192,2497
837.9693087361026,2548
840.2099552691533,2486
842.4499935743896,2615
844.689423876309,2504
846.9282463994886,2584
849.1664613685833,2598
851.4040690083276,2577
853.6410695435349,2590
855.877463199097,2618
858.1132501999847,2498
860.3484307712487,2555
862.5830051380175,2511
864.8169735254988,2524
867.0503361589791,2570
869.2830932638243,2551
871.5152450654786,2664
873.7467917894654,2608
875.9777336613873,2608
878.2080709069252,2580
880.4378037518389,2655
882.666932421968,2626
884.8954571432301,2633
887.1233781416219,2649
889.3506956432192,2639
891.5774098741766,2641
893.803521060728,2634
896.0290294291852,2633
898.2539352059397,2658
900.4782386174619,2634
902.7019398903011,2659
904.925039251085,2682
907.147536926521,2660
909.3694331433943,2610
911.59072812857,2621
913.8114221089921,2534
916.0315153116827,2582
918.2510079637437,2613
920.4699002923547,2573
922.6881925247761,2527
924.905884888345,2612
927.1229776104793,2637
929.3394709186747,2585
931.555365040506,2588
933.7706602036275,2566
935.9853566357709,2497
938.1994545647489,2563
940.4129542184515,2601
942.6258558248488,2612
944.8381596119883,2689
947.0498658079974,2647
949.2609746410825,2587
951.4714863395287,2640
953.6814011316998,2580
955.8907192460387,2560
958.0994409110671,2550
960.3075663553858,2410
962.5150958076741,2474
964.7220294966913,2538
966.928367651274,2481
969.1341105003388,2419
971.3392582728806,2503
973.5438111979742,2588
975.747769504772,2509
977.9511334225061,2505
980.153903180487,2516
982.3560790081052,2500
984.5576611348289,2483
986.7586497902058,2445
988.9590452038618,2507
991.158847605503,2429
993.3580572249133,2458
995.5566742919558,2369
997.7546990365728,2310
999.952131688785,2290
1002.1489724786926,2322
1004.3452216364743,2216
1006.5408793923874,2264
1008.7359459767691,2223
1010.9304216200343,2181
1013.1243065526781,2225
1015.3176010052733,2264
1017.510305208472,2247
1019.7024193930064,2313
1021.8939437896848,2260
1024.0848786293977,2221
1026.2752241431122,2230
1028.4649805618747,2203
1030.6541481168115,2150
1032.842727039127,2175
1035.0307175601051,2159
1037.2181199111074,2177
1039.4049343235752,2241
1041.591161029029,2197
1043.7768002590683,2170
1045.9618522453698,2179
1048.1463172196918,2189
1050.3301954138697,2189
1052.513487059818,2133
1054.69619238953,2147
1056.8783116350783,2182
1059.0598450286152,2217
1061.2407928023704,2344
1063.4211551886528,2161
1065.6009324198508,2129
1067.780124728432,2186
1069.9587323469414,2153
1072.1367555080046,2182
1074.314194444325,2178
1076.4910493886855,2069
1078.667320573947,2175
1080.843008233051,2095
1083.0181125990161,2027
1085.1926339049414,2106
1087.3665723840027,2126
1089.5399282694575,2086
1091.7127017946405,2130
1093.8848931929647,2089
1096.0565026979243,2088
1098.2275305430899,2001
1100.3979769621128,2075
1102.567842188722,2025
1104.737126456726,2026
1106.9058300000124,2031
1109.0739530525475,2050
1111.2414958483764,2045
1113.4084586216231,1988
1115.5748416064907,2032
1117.7406450372605,1954
1119.9058691482942,2027
1122.0705141740304,1955
1124.2345803489884,2007
1126.3980679077658,2053
1128.5609770850388,2100
1130.7233081155623,1991
1132.8850612341707,2052
1135.0462366757774,2066
1137.2068346753745,2001
1139.3668554680326,2006
1141.526299288901,1970
1143.68516637321,2027
1145.8434569562655,2075
1148.001171273455,1986
1150.158309560244,2045
1152.3148720521767,1935
1154.470858984876,1985
1156.626270594044,1991
1158.7811071154629,1932
1160.9353687849912,1986
1163.089055838569,2002
1165.242168512213,1918
1167.3947070420209,1940
1169.5466716641677,1942
1171.6980626149075,1910
1173.8488801305748,1992
1175.9991244475814,1929
1178.1487958024186,1919
1180.2978944316555,1950
1182.4464205719428,1891
1184.5943744600072,1910
1186.7417563326567,1973
1188.8885664267755,2012
1191.0348049793297,1962
1193.1804722273619,1896
1195.325568407995,1927
1197.4700937584303,1893
1199.614048515948,1980
1201.7574329179074,1952
1203.900247201746,1959
1206.042491604982,2047
1208.1841663652099,2028
1210.3252717201053,1928
1212.465807907422,1937
1214.6057751649923,1989
1216.7451737307279,1947
1218.8840038426192,2012
1221.0222657387353,2023
1223.1599596572241,2023
1225.2970858363137,2009
1227.4336445143094,2035
1229.5696359295966,2031
1231.705060320639,2055
1233.8399179259786,2047
1235.9742089842384,2059
1238.107933734118,2007
1240.2410924143974,2014
1242.373685263935,2050
1244.5057125216676,2030
1246.6371744266116,2052
1248.7680712178621,1917
1250.898403134593,1970
1253.028170416058,2048
1255.1573733015875,2023
1257.2860120305932,2035
1259.4140868425648,2049
1261.54159797707,2080
1263.6685456737569,2075
1265.7949301723515,2038
1267.9207517126597,2146
1270.046010534565,2078
1272.1707068780306,2045
1274.2948409830983,2100
1276.4184130898889,2099
1278.541423438603,2117
1280.6638722695184,2093
1282.785759822993,2044
1284.9070863394636,2131
1287.0278520594447,2143
1289.1480572235314,2220
1291.2677020723963,2074
1293.3867868467923,2161
1295.5053117875495,2107
1297.623277135579,2124
1299.740683131868,2162
1301.8575300174857,2139
1303.973818033578,2202
1306.0895474213703,2210
1308.2047184221678,2159
1310.3193312773528,2136
1312.4333862283888,2212
1314.5468835168163,2205
1316.659823384255,2189
1318.7722060724045,2223
1320.8840318230418,2120
1322.9953008780249,2137
1325.1060134792888,2254
1327.2161698688478,2203
1329.3257702887959,2234
1331.4348149813054,2181
1333.5433041886276,2206
1335.6512381530933,2290
1337.7586171171101,2147
1339.8654413231675,2250
1341.9717110138317,2232
1344.0774264317488,2207
1346.1825878196432,2125
1348.2871954203192,2112
1350.3912494766587,2197
1352.4947502316231,2192
1354.5976979282532,2196
1356.7000928096686,2225
1358.8019351190665,2165
1360.9032250997243,2174
1363.0039629949988,2180
1365.1041490483235,2193
1367.2037835032133,2165
1369.3028666032606,2169
1371.401398592137,2271
1373.4993797135926,2271
1375.5968102114575,2266
1377.6936903296396,2308
1379.7900203121262,2164
1381.8858004029835,2229
1383.9810308463561,2241
1386.075711886469,2278
1388.1698437676241,2239
1390.2634267342032,2171
1392.356461030667,2226
1394.4489469015557,2336
1396.5408845914872,2374
1398.6322743451592,2361
1400.7231164073469,2280
1402.813411022907,2372
1404.903158436773,2349
1406.9923588939578,2300
1409.0810126395531,2385
1411.1691199187303,2300
1413.2566809767386,2337
1415.343696058907,2445
1417.4301654106425,2387
1419.5160892774315,2424
1421.6014679048399,2473
1423.6863015385125,2423
1425.7705904241707,2465
1427.8543348076178,2489
1429.9375349347342,2474
1432.0201910514802,2535
1434.102303403894,2502
1436.1838722380944,2545
1438.2648978002767,2640
1440.3453803367174,2673
1442.4253200937692,2646
1444.5047173178677,2644
1446.5835722555234,2633
1448.6618851533285,2729
1450.739656257952,2808
1452.8168858161434,2830
1454.8935740747306,2854
1456.96972128062,2848
1459.045327680797,2925
1461.120393522327,2985
1463.1949190523528,3036
1465.2689045180973,3124
1467.3423501668608,3096
1469.415256246024,3205
1471.4876230030463,3256
1473.559450685465,3311
1475.6307395408976,3298
1477.7014898170391,3434
1479.771701761665,3387
1481.8413756226287,3348
1483.9105116478618,3493
1485.9791100853772,3573
1488.0471711832643,3558
1490.1146951896926,3655
1492.1816823529098,3845
1494.2481329212433,3791
1496.3140471430984,3825
1498.3794252669609,3848
1500.4442675413939,3819
1502.5085742150404,3806
1504.572345536622,3900
1506.6355817549388,3944
1508.6982831188702,3992
1510.7604498773744,4119
1512.8220822794883,4010
1514.8831805743293,4009
1516.9437450110909,4278
1519.003775839048,4228
1521.0632733075522,4271
1523.1222376660367,4268
1525.1806691640113,4388
1527.2385680510652,4452
1529.2959345768668,4505
1531.3527689911643,4469
1533.4090715437833,4477
1535.4648424846291,4595
1537.5200820636855,4645
1539.5747905310159,4776
1541.6289681367616,4827
1543.6826151311434,4834
1545.7357317644614,4795
1547.7883182870937,5002
1549.8403749494987,5176
1551.8919020022113,5194
1553.9428996958477,5212
1555.9933682811015,5336
1558.0433080087469,5427
1560.0927191296346,5445
1562.1416018946961,5572
1564.1899565549415,5424
1566.2377833614592,5368
1568.2850825654164,5301
1570.3318544180606,5208
1572.3780991707158,4923
1574.423817074788,4818
1576.4690083817595,4755
1578.5136733431923,4350
1580.5578122107272,4067
1582.601425236085,3970
1584.6445126710646,3688
1586.6870747675434,3554
1588.7291117774776,3514
1590.7706239529034,3180
1592.8116115459347,3245
1594.8520748087658,3005
1596.8920139936686,2950
1598.9314293529933,2953
1600.9703211391711,2785
1603.008689604711,2777
1605.0465350022005,2618
1607.0838575843068,2641
1609.1206576037753,2505
1611.1569353134305,2531
1613.1926909661765,2484
1615.2279248149953,2437
1617.2626371129481,2337
1619.2968281131757,2355
1621.3304980688963,2278
1623.3636472334088,2322
1625.39627586009,2283
1627.428384202396,2280
1629.459972513861,2281
1631.4910410480993,2241
1633.5215900588028,2248
1635.551619799744,2205
1637.5811305247717,2186
1639.6101224878166,2133
1641.6385959428862,2205
1643.6665511440683,2111
1645.693988345528,2111
1647.7209078015112,2111
1649.7473097663405,2118
1651.7731944944203,2059
1653.7985622402307,2078
1655.823413258333,2101
1657.847747803366,2084
1659.8715661300494,2119
1661.8948684931793,2102
1663.9176551476316,2028
1665.9399263483624,2136
1667.9616823504057,2067
1669.982923408873,2080
1672.0036497789574,2113
1674.0238617159293,2102
1676.043559475138,2088
1678.0627433120121,2044
1680.081413482059,2075
1682.0995702408654,2002
1684.117213844096,2089
1686.134344547495,1990
1688.1509626068864,2018
1690.1670682781705,2021
1692.182661817329,2018
1694.1977434804217,2018
1696.2123135235875,1979
1698.226372203043,2070
1700.2399197750851,2106
1702.2529564960905,1988
1704.2654826225112,2035
1706.277498410882,1993
1708.2890041178139,1964
1710.2999999999988,2041
1712.3104863142066,1990
1714.3204633172854,2016
1716.329931266163,2023
1718.3388904178469,2020
1720.3473410294214,1910
1722.3552833580516,1964
1724.3627176609807,1971
1726.3696441955308,1949
1728.3760632191033,2012
1730.3819749891782,1948
1732.3873797633146,2018
1734.3922777991502,1945
1736.3966693544012,1966
1738.4005546868639,1966
1740.4039340544127,1981
1742.406807715001,1891
1744.4091759266616,1992
1746.4110389475054,1859
1748.4123970357223,1962
1750.413250449582,1938
1752.4135994474318,1937
1754.4134442876993,1997
1756.4127852288902,1940
1758.4116225295893,1939
1760.4099564484595,1909
1762.407787244244,1953
1764.405115175764,1943
1766.4019405019203,1851
1768.3982634816916,1890
1770.3940843741357,1854
1772.3894034383907,1880
1774.3842209336717,1891
1776.378537119274,1905
1778.372352254571,1938
1780.3656665990156,1919
1782.3584804121397,1859
1784.3507939535534,1911
1786.3426074829463,1878
1788.3339212600863,1841
1790.3247355448211,1819
1792.3150505970766,1867
1794.3048666768573,1864
1796.2941840442477,1894
1798.2830029594106,1852
1800.2713236825884,1869
1802.2591464741004,1865
1804.2464715943465,1858
1806.2332993038058,1882
1808.2196298630352,1871
1810.2054635326708,1824
1812.190800573428,1890
1814.175641246101,1877
1816.1599858115628,1836
1818.1438345307652,1931
1820.127187664738,1921
1822.1100454745924,1809
1824.092408221516,1901
1826.0742761667766,1905
1828.055649571721,1788
1830.0365286977735,1882
1832.0169138064398,1854
1833.9968051593014,1876
1835.9762030180214,1883
1837.9551076443408,1870
1839.9335193000788,1861
1841.9114382471344,1835
1843.888864747485,1879
1845.8657990631878,1868
1847.842241456378,1837
1849.8181921892697,1790
1851.7936515241558,1866
1853.7686197234098,1861
1855.7430970494815,1842
1857.7170837649014,1787
1859.6905801322787,1819
1861.6635864143004,1863
1863.6361028737338,1892
1865.608129773424,1879
1867.5796673762961,1851
1869.5507159453537,1838
1871.521275743678,1878
1873.4913470344313,1876
1875.4609300808534,1789
1877.4300251462632,1858
1879.3986324940588,1941
1881.366752387717,1866
1883.3343850907936,1899
1885.3015308669228,1910
1887.268189979819,1898
1889.2343626932739,1914
1891.2000492711595,1922
1893.1652499774254,1892
1895.1299650761011,1964
1897.0941948312952,1856
1899.0579395071945,1876
1901.0211993680641,1898
1902.98397467825,1851
1904.9462657021745,1865
1906.9080727043415,1859
1908.869395949332,1920
1910.8302357018065,1854
1912.790592226504,1936
1914.7504657882428,1919
1916.7098566519212,1864
1918.6687650825133,1782
1920.6271913450764,1878
1922.5851357047422,1844
1924.5425984267245,1889
1926.499579776314,1854
1928.4560800188833,1875
1930.4120994198802,1906
1932.367638244833,1873
1934.32269675935,1784
1936.2772752291175,1932
1938.231373919899,1875
1940.1849930975404,1872
1942.1381330279637,1886
1944.0907939771696,1893
1946.0429762112412,1817
1947.9946799963363,1835
1949.9459055986945,1863
1951.896653284633,1819
1953.8469233205478,1815
1955.7967159729142,1829
1957.7460315082863,1874
1959.6948701932974,1704
1961.6432322946594,1836
1963.5911180791632,1837
1965.5385278136787,1812
1967.4854617651545,1807
1969.4319202006182,1856
1971.377903387176,1771
1973.3234115920136,1864
1975.268445082395,1852
1977.2130041256642,1803
1979.1570889892423,1777
1981.1006999406304,1826
1983.04383724741,1795
1984.986501177238,1796
1986.928691997853,1810
1988.8704099770712,1783
1990.811655382789,1844
1992.7524284829801,1772
1994.692729545698,1745
1996.6325588390755,1754
1998.5719166313224,1763
2000.5108031907307,1743
2002.4492187856677,1831
2004.387163684583,1760
2006.3246381560011,1783
2008.2616424685298,1767
2010.1981768908527,1731
2012.1342416917332,1756
2014.069837140014,1804
2016.0049635046162,1701
2017.9396210545406,1717
2019.8738100588666,1773
2021.8075307867502,1771
2023.740783507431,1782
2025.6735684902228,1757
2027.6058860045214,1790
2029.5377363198004,1808
2031.4691197056118,1805
2033.4000364315875,1690
2035.3304867674374,1824
2037.260470982952,1695
2039.189989347998,1748
2041.1190421325232,1692
2043.047629606554,1656
2044.9757520401945,1670
2046.9034097036288,1690
2048.8306028671195,1740
2050.7573318010086,1700
2052.683596775716,1747
2054.609398061742,1731
2056.5347359296647,1710
2058.4596106501403,1679
2060.384022493906,1695
2062.3079717317764,1741
2064.231458634646,1748
2066.1544834734873,1724
2068.077046519352,1709
2069.99914804337,1739
2071.9207883167524,1714
2073.8419676107865,1714
2075.7626861968406,1728
2077.6829443463607,1705
2079.6027423308715,1675
2081.522080421977,1728
2083.440958891362,1729
2085.359378010786,1744
2087.2773380520907,1682
2089.194839287196,1772
2091.111881988101,1694
2093.0284664268825,1735
2094.9445928756973,1715
2096.86026160678,1731
2098.775472892446,1710
2100.690227005088,1769
2102.604524217178,1765
2104.5183648012676,1754
2106.431749029985,1730
2108.34467717604,1723
2110.2571495122206,1723
2112.169166311393,1780
2114.080727846503,1704
2115.9918343905747,1795
2117.902486216711,1846
2119.8126835980956,1722
2121.722426807987,1805
2123.6317161197285,1775
2125.5405518067364,1766
2127.448934142509,1850
2129.356863400624,1826
2131.264339854737,1753
2133.1713637785815,1757
2135.077935445972,1852
2136.9840551308002,1832
2138.889723107037,1823
2140.7949396487334,1829
2142.699705030018,1843
2144.6040195250994,1822
2146.507883408264,1836
2148.4112969538774,1866
2150.3142604363848,1854
2152.2167741303097,1792
2154.1188383102535,1798
2156.0204532508997,1818
2157.9216192270064,1859
2159.822336513414,1820
2161.7226053850413,1820
2163.622426116884,1916
2165.5217989840185,1838
2167.4207242616,1811
2169.319202224862,1926
2171.2172331491165,1837
2173.1148173097563,1855
2175.0119549822507,1887
2176.90864644215,1898
2178.8048919650823,1824
2180.7006918267534,1839
2182.596046302952,1884
2184.4909556695407,1889
2186.3854202024645,1861
2188.279440177746,1907
2190.173015871487,1915
2192.066147559868,1860
2193.958835519149,1913
2195.851080025667,1833
2197.7428813558417,1871
2199.6342397861667,1930
2201.5251555932186,1950
2203.415629053651,1915
2205.3056604441986,1946
2207.19525004167,1904
2209.084398122958,1927
2210.9731049650327,1974
2212.861370844941,2024
2214.749196039812,1939
2216.636580826851,1956
2218.523525483344,1953
2220.410030286655,1977
2222.296095514226,1981
2224.1817214435805,1915
2226.066908352319,1934
2227.951656518121,1943
2229.835966218746,1934
2231.71983773203,1937
2233.6032713358913,1995
2235.486267308324,1972
2237.3688259274036,1963
2239.2509474712824,1904
2241.132632218193,1992
2243.013880446447,1968
2244.8946924344323,1922
2246.7750684606203,1929
2248.6550088035574,1915
2250.534513741871,1965
2252.413583554265,2035
2254.292218519526,1933
2256.170418916517,1925
2258.0481850241786,1930
2259.925517121534,1863
2261.8024154876825,1926
2263.678880401803,1898
2265.5549121431536,1910
2267.430510991071,1937
2269.305677224971,1918
2271.180411124348,1936
2273.0547129687766,1891
2274.9285830379076,1902
2276.8020216114737,1911
2278.6750289692845,1903
2280.5476053912294,1990
2282.4197511572766,1942
2284.2914665474727,1993
2286.162751841943,1917
2288.0336073208937,1998
2289.904033264608,1907
2291.774029953448,1962
2293.6435976678554,1958
2295.5127366883517,1826
2297.381447295534,1922
2299.2497297700825,1829
2301.1175843927526,1772
2302.9850114443825,1772
2304.852011205885,1810
2306.7185839582553,1790
2308.5847299825664,1753
2310.4504495599676,1742
2312.3157429716925,1714
2314.1806104990483,1689
2316.0450524234247,1753
2317.9090690262888,1672
2319.772660589186,1683
2321.635827393742,1657
2323.498569721661,1738
2325.3608878547248,1646
2327.2227820747967,1736
2329.0842526638157,1765
2330.945299903803,1657
2332.805924076857,1720
2334.6661254651535,1678
2336.525904350951,1692
2338.3852610165827,1770
2340.244195744464,1682
2342.102708817088,1711
2343.9608005170253,1677
2345.8184711269287,1703
2347.675720929526,1710
2349.532550207628,1705
2351.38895924412,1688
2353.24494832197,1706
2355.100517724223,1732
2356.955667734004,1689
2358.810398634514,1715
2360.664710709037,1676
2362.5186042409337,1710
2364.3720795136437,1677
2366.225136810686,1724
2368.0777764156583,1661
2369.929998612237,1669
2371.7818036841777,1759
2373.633191915315,1712
2375.484163589562,1764
2377.3347189909114,1759
2379.184858403434,1701
2381.03458211128,1695
2382.8838903986775,1685
2384.732783549936,1745
2386.5812618494406,1735
2388.4293255816588,1682
2390.2769750311327,1646
2392.1242104824883,1724
2393.971032220427,1695
2395.8174405297295,1735
2397.6634356952563,1714
2399.509018001947,1748
2401.3541877348193,1690
2403.1989451789705,1773
2405.043290619576,1725
2406.8872243418905,1636
2408.730746631247,1659
2410.5738577730594,1694
2412.4165580528183,1730
2414.258847756095,1681
2416.100727168537,1689
2417.9421965758734,1775
2419.783256263912,1736
2421.623906518538,1739
2423.4641476257157,1681
2425.303979871491,1712
2427.143403541984,1721
2428.9824189233977,1739
2430.821026302012,1742
2432.6592259641866,1679
2434.497018196361,1720
2436.33440328505,1760
2438.171381516851,1719
2440.00795317844,1680
2441.844118556569,1711
2443.6798779380724,1750
2445.5152316098606,1714
2447.3501798589255,1762
2449.1847229723357,1728
2451.0188612372403,1748
2452.8525949408663,1714
2454.6859243705203,1715
2456.518849813587,1689
2458.3513715575314,1767
2460.183489889895,1690
2462.015205098301,1716
2463.8465174704493,1775
2465.67742729412,1764
2467.5079348571717,1779
2469.338040447542,1742
2471.1677443532476,1741
2472.9970468623833,1769
2474.825948263123,1762
2476.6544488437207,1746
2478.482548892508,1715
2480.310248697896,1719
2482.137548548374,1746
2483.9644487325118,1792
2485.790949538956,1735
2487.617051256433,1751
2489.44275417375,1787
2491.26805857979,1732
2493.0929647635157,1701
2494.917473013971,1780
2496.741583620276,1816
2498.5652968716304,1773
2500.3886130573137,1774
2502.2115324666834,1838
2504.0340553891765,1766
2505.856182114308,1817
2507.6779129316733,1823
2509.499248130945,1889
2511.3201880018764,1789
2513.140732834298,1848
2514.9608829181198,1779
2516.780638543331,1839
2518.6,1829
2520.418967578273,1802
2522.237541568376,1879
2524.0557222606144,1891
2525.8735099453706,1867
2527.6909049131086,1844
2529.507907454368,1891
2531.32451785977,1890
2533.140736420014,1907
2534.9565634258774,1878
2536.771999168218,1904
2538.5870439379714,1952
2540.4016980261526,1894
2542.2159617238544,1953
2544.02983532225,1923
2545.8433191125914,1953
2547.656413386209,1963
2549.4691184345115,1962
2551.2814345489874,1951
2553.093362021204,1956
2554.904901142808,2004
2556.716052205523,2114
2558.526815501153,1984
2560.3371913215824,2066
2562.147179958771,2037
2563.956781704761,2057
2565.7659968516705,2118
2567.5748256916986,2133
2569.3832685171224,2093
2571.1913256202984,2137
2572.9989972936614,2079
2574.806283829725,2223
2576.613185521084,2191
2578.4197026604074,2145
2580.2258355404483,2203
2582.031584454035,2203
2583.836949694077,2233
2585.6419315535613,2217
2587.4465303255533,2208
2589.2507463032002,2173
2591.0545797797245,2151
2592.8580310484303,2269
2594.6611004026995,2209
2596.463788135992,2321
2598.266094541849,2291
2600.0680199138874,2251
2601.869564545807,2242
2603.670728731383,2309
2605.4715127644704,2227
2607.2719169390048,2249
2609.071941548998,2326
2610.8715868885433,2332
2612.670853251811,2258
2614.469740933052,2316
2616.268250226594,2336
2618.0663814268455,2283
2619.864134828292,2180
2621.6615107255006,2334
2623.458509413115,2198
2625.2551311858597,2202
2627.0513763385347,2188
2628.8472451660223,2191
2630.6427379632833,2210
2632.4378550253564,2132
2634.232596647359,2253
2636.026963124488,2158
2637.8209547520187,2124
2639.6145718253065,2125
2641.407814639785,2090
2643.200683490966,2081
2644.9931786744414,2085
2646.7853004858807,2069
2648.577049221034,2078
2650.3684251757277,2082
2652.1594286458712,2030
2653.9500599274484,2042
2655.740319316525,2020
2657.5302071092437,1926
2659.3197236018286,1954
2661.10886909058,2047
2662.8976438718782,1956
2664.686048242183,2027
2666.4740824980327,1910
2668.2617469360443,1979
2670.0490418529134,1945
2671.8359675454153,1903
2673.622524310403,1958
2675.408712444811,1871
2677.1945322456495,1880
2678.979984010009,1847
2680.76506803506,1876
2682.5497846180497,1819
2684.334134056306,1864
2686.1181166472343,1862
2687.9017326883213,1762
2689.6849824771293,1730
2691.4678663113013,1845
2693.2503844885596,1806
2695.032537306705,1895
2696.8143250636167,1816
2698.5957480572542,1852
2700.3768065856534,1762
2702.1575009469316,1815
2703.937831439283,1740
2705.717798360982,1819
2707.4974020103837,1782
2709.276642685917,1800
2711.055520686095,1767
2712.834036309506,1749
2714.612189854819,1725
2716.389981620782,1733
2718.1674119062204,1775
2719.944481010041,1750
2721.721189231226,1778
2723.4975368688415,1737
2725.273524222027,1704
2727.0491515900053,1759
2728.824419272075,1733
2730.5993275676146,1709
2732.3738767760838,1686
2734.148067197016,1750
2735.921899130031,1650
2737.6953728748194,1653
2739.468488731156,1692
2741.2412469988926,1760
2743.0136479779617,1737
2744.785691968372,1757
2746.5573792702116,1679
2748.3287101836504,1678
2750.099685008934,1655
2751.870304046388,1692
2753.640567596418,1665
2755.4104759595057,1744
2757.1800294362156,1670
2758.949228327187,1736
2760.7180729331412,1680
2762.486563554877,1701
2764.254700493272,1738
2766.022484049284,1692
2767.789914523947,1722
2769.5569922183786,1625
2771.3237174337705,1682
2773.090090471394,1620
2774.8561116326036,1705
2776.6217812188274,1715
2778.3870995315756,1717
2780.1520668724356,1644
2781.9166835430747,1665
2783.6809498452394,1708
2785.444866080754,1671
2787.2084325515225,1606
2788.971649559527,1617
2790.73451740683,1691
2792.4970363955713,1644
2794.2592068279705,1685
2796.0210290063264,1622
2797.7825032330147,1617
2799.543629810493,1627
2801.304409041296,1669
2803.0648412280366,1667
2804.8249266734088,1637
2806.5846656801846,1712
2808.344058551212,1724
2810.1031055894246,1714
2811.8618070978273,1662
2813.6201633795085,1698
2815.378174737636,1644
2817.1358414754536,1667
2818.893163896285,1569
2820.6501423035334,1673
2822.4067770006814,1672
2824.1630682912883,1644
2825.9190164789957,1623
2827.6746218675207,1592
2829.429884760661,1633
2831.184805462294,1639
2832.9393842763743,1600
2834.693621506936,1631
2836.4475174580916,1613
2838.201072434034,1685
2839.954286739034,1691
2841.707160677441,1638
2843.459694553685,1647
2845.2118886722724,1657
2846.96374333779,1624
2848.7152588549034,1627
2850.4664355283567,1667
2852.217273662973,1599
2853.9677735636546,1652
2855.7179355353833,1704
2857.4677598832186,1706
2859.217246912299,1640
2860.9663969278427,1688
2862.715210235146,1608
2864.4636871395846,1612
2866.211827946614,1653
2867.9596329617652,1629
2869.7071024906536,1658
2871.4542368389684,1637
2873.20103631248,1707
2874.947501217038,1641
2876.6936318585695,1625
2878.4394285430812,1662
2880.1848915766604,1628
2881.9300212654707,1636
2883.6748179157553,1652
2885.4192818338374,1637
2887.1634133261173,1695
2888.907212699077,1649
2890.6506802592744,1652
2892.393816313348,1632
2894.1366211680142,1616
2895.8790951300693,1635
2897.621238506388,1682
2899.363051603925,1634
2901.1045347297118,1652
2902.8456881908596,1622
2904.58651229456,1647
2906.327007348081,1674
2908.067173658772,1647
2909.8070115340597,1620
2911.5465212814497,1729
2913.285703208527,1684
2915.0245576229563,1654
2916.7630848324807,1644
2918.5012851449196,1684
2920.2391588681758,1707
2921.976706310227,1616
2923.7139277791334,1623
2925.4508235830313,1705
2927.187394030137,1666
2928.923639428745,1635
2930.6595600872306,1632
2932.395156314046,1612
2934.1304284177218,1696
2935.8653767068713,1598
2937.6000014901815,1643
2939.3343030764227,1652
2941.068281774442,1573
2942.8019378931644,1636
2944.5352717415976,1684
2946.2682836288236,1686
2948.0009738640065,1682
2949.7333427563885,1672
2951.465390615289,1681
2953.1971177501086,1653
2954.9285244703265,1668
2956.6596110855,1660
2958.3903779052657,1665
2960.1208252393385,1714
2961.8509533975125,1636
2963.5807626896617,1660
2965.3102534257378,1675
2967.0394259157715,1728
2968.768280469873,1677
2970.496817398232,1686
2972.2250370111146,1682
2973.952939618869,1646
2975.6805255319196,1663
2977.4077950607707,1706
2979.134748516006,1723
2980.861386208289,1709
2982.587708448359,1718
2984.313715547037,1694
2986.039407815222,1739
2987.764785563891,1713
2989.489849104102,1641
2991.2145987469908,1663
2992.9390348037705,1614
2994.6631575857346,1633
2996.3869674042576,1652
2998.1104645707887,1681
2999.83364939686,1639
3001.5565221940783,1664
3003.2790832741334,1692
3005.0013329487924,1728
3006.7232715298996,1610
3008.4448993293804,1692
3010.166216659239,1743
3011.887223831558,1644
3013.607921158498,1625
3015.3283089522993,1674
3017.0483875252826,1616
3018.7681571898443,1683
3020.4876182584626,1650
3022.2067710436927,1585
3023.9256158581707,1635
3025.644153014609,1594
3027.362382825801,1625
3029.0803056046193,1676
3030.797921664012,1698
3032.5152313170106,1664
3034.2322348767225,1682
3035.9489326563353,1716
3037.665324969115,1688
3039.3814121284063,1689
3041.097194447633,1664
3042.812672240299,1685
3044.5278458199855,1686
3046.2427155003525,1668
3047.9572815951406,1661
3049.671544418167,1658
3051.38550428333,1662
3053.0991615046073,1677
3054.812516396051,1711
3056.5255692717974,1711
3058.2383204460575,1660
3059.9507702331257,1670
3061.662918947372,1641
3063.3747669032446,1679
3065.0863144152736,1698
3066.7975617980674,1672
3068.508509366309,1697
3070.219157434767,1696
3071.9295063182844,1669
3073.639556331785,1659
3075.3493077902704,1632
3077.058761008821,1681
3078.7679163025964,1692
3080.476773986837,1720
3082.1853343768594,1712
3083.89359778806,1699
3085.6015645359153,1679
3087.3092349359786,1660
3089.016609303884,1701
3090.7236879553434,1718
3092.4304712061476,1722
3094.136959372166,1674
3095.843152769349,1738
3097.5490517137237,1735
3099.2546565213966,1656
3100.959967508554,1608
3102.66498499146,1646
3104.3697092864577,1655
3106.0741407099695,1688
3107.778279578498,1688
3109.482126208622,1742
3111.1856809170004,1702
3112.8889440203716,1721
3114.5919158355528,1764
3116.294596679439,1691
3117.996986869006,1728
3119.6990867213062,1601
3121.4008965534726,1710
3123.102416682717,1724
3124.803647426329,1692
3126.5045891016784,1703
3128.205242026213,1695
3129.90560651746,1721
3131.605682893025,1685
3133.3054714705922,1702
3135.0049725679282,1803
3136.7041865028714,1654
3138.4031135933465,1677
3140.101754157353,1694
3141.800108512971,1682
3143.498176978357,1710
3145.1959598717494,1698
3146.8934575114636,1671
3148.5906702158954,1695
3150.2875983035183,1683
3151.9842420928853,1642
3153.680601902627,1574
3155.376678051456,1623
3157.07247085816,1631
3158.767980641609,1670
3160.463207720748,1655
3162.158152414606,1709
3163.8528150422862,1706
3165.5471959229726,1662
3167.2412953759303,1666
3168.9351137204976,1645
3170.628651276098,1641
3172.3219083622307,1641
3174.014885298474,1621
3175.707582404485,1679
3177.4000000000005,1640
3179.092138404835,1690
3180.7839979388846,1679
3182.47557892212,1614
3184.166881674594,1671
3185.8579065164386,1645
3187.5486537678626,1706
3189.2391237491547,1613
3190.9293167806827,1576
3192.6192331828934,1603
3194.3088732763117,1630
3195.998237381542,1668
3197.687325819268,1593
3199.376138910251,1602
3201.064676975334,1615
3202.7529403354347,1639
3204.4409293115523,1641
3206.1286442247647,1619
3207.816085396229,1635
3209.5032531471825,1564
3211.190147798936,1581
3212.8767696728846,1550
3214.5631190905015,1574
3216.2491963733373,1534
3217.9350018430214,1630
3219.6205358212637,1551
3221.305798629851,1598
3222.990790590651,1526
3224.6755120256103,1548
3226.359963256751,1559
3228.0441446061795,1593
3229.7280563960758,1580
3231.411698948703,1603
3233.0950725863995,1558
3234.778177631587,1606
3236.461014406761,1584
3238.1435832345005,1668
3239.8258844374595,1594
3241.507918338374,1594
3243.1896852600576,1602
3244.8711855254023,1614
3246.552419457381,1563
3248.233387379042,1631
3249.914089613516,1611
3251.59452648401,1598
3253.274698313813,1650
3254.95460542629,1612
3256.6342481448855,1636
3258.313626793125,1582
3259.9927416946084,1539
3261.6715931730196,1579
3263.3501815521176,1529
3265.0285071557437,1574
3266.706570307815,1577
3268.3843713323286,1565
3270.0619105533615,1594
3271.739188295068,1576
3273.4162048816834,1551
3275.0929606375184,1586
3276.769455886966,1640
3278.445690954498,1642
3280.1216661646613,1593
3281.797381842087,1674
3283.4728383114807,1554
3285.1480358976296,1610
3286.8229749253996,1627
3288.4976557197333,1586
3290.172078605655,1622
3291.846243908266,1644
3293.5201519527463,1615
3295.193803064357,1615
3296.8671975684374,1593
3298.5403357904024,1557
3300.21321805575,1533
3301.8858446900567,1572
3303.558216018975,1612
3305.23033236824,1621
3306.9021940636603,1650
3308.57380143113,1607
3310.2451547966184,1608
3311.916254486174,1634
3313.5871008259246,1615
3315.2576941420766,1600
3316.9280347609147,1618
3318.5981230088046,1564
3320.2679592121895,1586
3321.9375436975924,1596
3323.606876791612,1549
3325.27595882093,1592
3326.944790112305,1551
3328.6133709925753,1580
3330.2817017886573,1552
3331.949782827547,1572
3333.617614436319,1583
3335.2851969421245,1577
3336.952530672199,1648
3338.619615953853,1609
3340.286453114475,1616
3341.9530424815357,1622
3343.619384382583,1639
3345.2854791452437,1590
3346.951327097224,1580
3348.6169285663073,1639
3350.2822838803577,1632
3351.947393367319,1657
3353.61225735521,1576
3355.2768761721345,1638
3356.9412501462693,1626
3358.605379605873,1639
3360.2692648792827,1680
3361.9329062949146,1621
3363.596304181263,1561
