CollectionTime,7/9/2024 11:28:41 AM
ExposureUsed,3
CalibratedSpectrum
-962.7078968117929,570
-959.9714848408522,647
-957.2358232597828,584
-954.5009119013725,595
-951.7667505983302,593
-949.0333391832855,600
-946.3006774887896,590
-943.5687653473143,609
-940.837602591253,600
-938.1071890529199,588
-935.3775245645503,626
-932.6486089583007,631
-929.9204420662485,613
-927.1930237203925,625
-924.4663537526524,630
-921.7404319948689,591
-919.0152582788041,620
-916.2908324361409,645
-913.5671542984834,614
-910.8442236973568,625
-908.1220404642074,570
-905.4006044304027,611
-902.679915427231,649
-899.959973285902,617
-897.2407778375464,611
-894.5223289132158,607
-891.8046263438832,574
-889.0876699604426,603
-886.3714595937089,599
-883.6559950744183,591
-880.9412762332282,574
-878.2273029007168,587
-875.5140749073835,601
-872.8015920836489,597
-870.0898542598545,584
-867.3788612662631,567
-864.6686129330585,598
-861.9591090903457,629
-859.2503495681506,618
-856.5423341964203,589
-853.8350628050229,597
-851.1285352237478,588
-848.4227512823054,580
-845.7177108103272,604
-843.0134136373656,596
-840.3098595928943,580
-837.6070485063082,624
-834.9049802069229,614
-832.2036545239757,626
-829.5030712866244,610
-826.8032303239481,582
-824.1041314649472,607
-821.4057745385428,598
-818.7081593735775,596
-816.0112857988148,631
-813.3151536429393,606
-810.6197627345566,625
-807.9251129021936,630
-805.2312039742981,613
-802.5380357792392,605
-799.8456081453069,605
-797.1539209007124,643
-794.462973873588,607
-791.772766891987,608
-789.083299783884,624
-786.3945723771743,614
-783.7065844996748,637
-781.0193359791231,619
-778.3328266431781,622
-775.6470563194197,633
-772.9620248353489,595
-770.2777320183878,573
-767.5941776958798,642
-764.9113616950891,669
-762.2292838432011,624
-759.5479439673222,608
-756.8673418944801,583
-754.1874774516235,628
-751.5083504656222,631
-748.8299607632671,630
-746.15230817127,638
-743.475392516264,629
-740.7992136248035,627
-738.1237713233636,660
-735.4490654383407,615
-732.7750957960521,659
-730.1018622227365,652
-727.4293645445534,634
-724.7576025875837,682
-722.0865761778291,617
-719.4162851412126,653
-716.7467293035781,674
-714.0779084906909,656
-711.409822528237,674
-708.7424712418238,669
-706.0758544569796,669
-703.4099719991541,690
-700.7448236937178,685
-698.0804093659622,677
-695.4167288411002,686
-692.7537819442656,686
-690.0915685005134,685
-687.4300883348199,691
-684.7693412720819,695
-682.1093271371178,669
-679.4500457546669,728
-676.7914969493897,665
-674.1336805458676,698
-671.4765963686034,720
-668.8202442420206,696
-666.1646239904642,694
-663.5097354382001,731
-660.8555784094151,697
-658.2021527282176,714
-655.5494582186366,733
-652.8974947046223,736
-650.2462620100463,720
-647.5957599587009,728
-644.9459883742998,720
-642.2969470804776,718
-639.6486359007902,731
-637.0010546587141,726
-634.3542031776476,721
-631.7080812809096,755
-629.0626887917401,712
-626.4180255333008,739
-623.7740913286734,746
-621.1308860008619,750
-618.4884093727904,706
-615.8466612673046,768
-613.2056415071715,741
-610.5653499150785,703
-607.9257863136347,732
-605.28695052537,717
-602.6488423727357,726
-600.0114616781036,714
-597.3748082637674,754
-594.7388819519412,780
-592.1036825647604,734
-589.4692099242818,775
-586.8354638524829,744
-584.2024441712624,733
-581.5701507024403,772
-578.9385832677575,756
-576.3077416888759,772
-573.6776257873787,773
-571.0482353847704,759
-568.4195703024757,770
-565.7916303618415,772
-563.164415384135,751
-560.5379251905453,664
-557.9121596021815,754
-555.2871184400748,790
-552.6628015251767,774
-550.0392086783606,772
-547.4163397204204,800
-544.794194472071,795
-542.1727727539491,858
-539.5520743866118,782
-536.9320991905377,807
-534.3128469861261,824
-531.6943175936979,873
-529.0765108334947,893
-526.4594265256793,924
-523.8430644903358,1018
-521.2274245474689,1108
-518.612506517005,1160
-515.9983102187913,1128
-513.3848354725959,1170
-510.77208209810846,1182
-508.16004991493924,1282
-505.5487387426199,1409
-502.9381484006032,1508
-500.3282787082628,1605
-497.71912948489364,1540
-495.1107005497117,1501
-492.5029917218539,1347
-489.8960028203786,1189
-487.28973366426493,1111
-484.68418407241325,1068
-482.07935386364494,1012
-479.47524285670266,979
-476.87185087025,915
-474.2691777228715,962
-471.66722323307334,975
-469.0659872192821,965
-466.4654694998459,953
-463.86566989303384,922
-461.26658821703614,964
-458.66822428996414,957
-456.07057792985,960
-453.4736489546475,915
-450.877437182231,951
-448.28194243039627,920
-445.68716451686,914
-443.09310325926003,918
-440.49975847515555,963
-437.9071299820263,946
-435.31521759727354,931
-432.72402113821954,1006
-430.13354042210767,1004
-427.5437752661022,1003
-424.95472548728867,923
-422.36639090267386,943
-419.7787713291855,917
-417.1918665836721,993
-414.60567648290385,1042
-412.0202008435715,1005
-409.4354394822874,1023
-406.8513922155845,982
-404.26805885991723,1003
-401.685439231661,1008
-399.103533147112,1062
-396.522340422488,1023
-393.9418608739278,992
-391.3620943174908,988
-388.7830405691583,991
-386.2046994448317,932
-383.6270707603344,885
-381.05015433141045,829
-378.473949973725,753
-375.8984575028645,744
-373.32367673433623,686
-370.74960748356875,649
-368.1762495659117,638
-365.60360279663576,565
-363.03166699093265,560
-360.4604419639154,535
-357.8899275306178,525
-355.32012350599507,485
-352.7510297049233,468
-350.1826459421999,479
-347.61497203254316,469
-345.04800779059235,481
-342.4817530309082,496
-339.91620756797226,488
-337.35137121618743,497
-334.7872437898774,480
-332.22382510328725,478
-329.66111497058273,470
-327.09911320585127,447
-324.53781962310075,457
-321.9772340362607,507
-319.4173562591816,484
-316.8581861056348,476
-314.2997233893127,471
-311.7419679238294,459
-309.1849195227194,501
-306.62857799943856,485
-304.0729431673641,526
-301.51801483979375,528
-298.963792829947,484
-296.41027695096386,568
-293.85746701590574,548
-291.3053628377552,537
-288.7539642294155,535
-286.2032710037115,538
-283.65328297338897,500
-281.1039999511146,557
-278.5554217494762,593
-276.007548180983,564
-273.4603790580651,530
-270.9139141930734,559
-268.3681533982807,515
-265.8230964858798,567
-263.27874326798565,543
-260.7350935566336,561
-258.1921471637804,595
-255.6499039013039,579
-253.10836358100266,606
-250.56752601459698,589
-248.02739101372765,593
-245.48795838995704,624
-242.94922795476816,578
-240.41119951956557,580
-237.8738728956746,685
-235.33724789434166,687
-232.80132432673452,616
-230.2661020039418,617
-227.73158073697357,640
-225.19776033676033,693
-222.66464061415422,718
-220.1322213799284,722
-217.60050244477725,648
-215.06948361931552,618
-212.53916471408013,671
-210.00954553952818,706
-207.48062590603843,620
-204.9524056239104,678
-202.4248845033651,725
-199.8980623545441,749
-197.37193898751036,722
-194.84651421224817,708
-192.32178783866232,734
-189.79775967657952,751
-187.27442953574644,771
-184.7517972258321,855
-182.2298625564256,773
-179.7086253370378,719
-177.18808537710026,694
-174.66824248596583,745
-172.14909647290835,806
-169.6306471471229,879
-167.11289431772548,823
-164.59583779375328,886
-162.07947738416453,827
-159.5638128978386,880
-157.04884414357605,1040
-154.53457093009854,1175
-152.02099306604828,1033
-149.50811035998936,939
-146.99592262040665,849
-144.48442965570587,904
-141.97363127421409,868
-139.46352728417958,1129
-136.95411749377126,1261
-134.44540171107985,1242
-131.93737974411636,1040
-129.43005140081357,853
-126.92341648902493,1048
-124.41747481652521,1347
-121.91222619101006,1788
-119.40767042009657,2455
-116.90380731132257,2746
-114.40063667214702,2512
-111.8981583099503,1871
-109.3963720320337,1414
-106.89527764561933,1516
-104.39487495785067,1535
-101.89516377579241,2270
-99.39614390642998,3272
-96.89781515667039,3927
-94.40017733334128,3812
-91.90323024319173,3313
-89.40697369289148,3153
-86.91140748903172,3761
-84.41653143812482,4134
-81.92234534660395,3855
-79.42884902082358,3765
-76.93604226705907,5662
-74.4439248915071,9285
-71.95249670028534,12424
-69.46175749943245,15118
-66.97170709490854,15555
-64.48234529259423,14307
-61.99367189829195,11784
-59.50568671772464,9756
-57.01838955653636,8839
-54.53178022029283,9197
-52.045858514480074,10356
-49.560624244506016,13056
-47.07607721569923,15098
-44.59221723330904,14571
-42.10904410250669,12656
-39.62655762838392,9737
-37.14475761595372,8185
-34.66364387015028,6500
-32.18321619582866,7306
-29.70347439776515,8347
-27.224418280657005,9544
-24.74604764912317,12244
-22.26836230770266,16720
-19.7913620608565,27525
-17.315046712966478,48762
-14.83941606833514,65041
-12.36446993118659,65041
-9.89020810566592,65041
-7.416630395839093,65041
-4.94373660569363,65041
-2.471526539137585,65041
-6.821210263296962E-13,65041
2.47084320796705,65041
4.941003281093458,65041
7.410480415786196,65041
9.879274808531363,65041
12.347386655893956,65041
14.814816154518212,65041
17.28156350112681,65041
19.74762889252179,65041
22.21301252558385,65041
24.67771459727237,20667
27.141735304626195,3844
29.605074844762612,2547
32.06773341487792,1974
34.52971121224755,1843
36.99100843422559,2153
39.45162527824516,1751
41.91156194181792,1608
44.370818622535126,1449
46.82939551806646,1320
49.287292826160524,1421
51.74451074464503,1420
54.201049471426245,1317
56.65690920448981,1223
59.112090141899785,1134
61.56659248179983,1178
64.02041642241159,1199
66.4735621620365,1031
68.92602989905402,1012
71.37781983192338,1081
73.82893215918205,1106
76.27936707944684,1042
78.72912479141326,1025
81.17820549385567,1144
83.62660938562783,1263
86.07433666566146,1102
88.5213875329681,869
90.96776218663751,972
93.41346082583925,994
95.85848364982041,1051
98.30283085790859,1079
100.7465026495089,1031
103.18949922410604,1031
105.63182078126385,1045
108.07346752062438,1119
110.51443964190923,938
112.95473734491827,893
115.39436082953114,929
117.83331029570547,948
120.27158594347827,883
122.7091879729652,926
125.1461165843615,893
127.58237197794062,833
130.01795435405518,891
132.4528639131364,983
134.88710085569494,1000
137.32066538231982,1005
139.75355769367923,894
142.1857779905207,796
144.61732647366978,811
147.04820334403132,899
149.47840880258934,949
151.90794305040674,990
154.33680628862487,1080
156.76499871846443,1269
159.19252054122433,1456
161.61937195828352,1638
164.04555317109896,1648
166.47106438120693,1916
168.89590579022217,2091
171.320077599839,2329
173.7435800118302,2463
176.16641322804742,2612
178.58857745042144,2699
181.01007288096173,2813
183.43089972175687,2835
185.85105817497413,2845
188.27054844285988,2847
190.6893707277394,2824
193.10752523201643,2822
195.5250121581745,2878
197.9418317087751,2963
200.3579840864594,2967
202.7734694939469,3088
205.18828813403627,3006
207.6024402096051,3049
210.01592592360964,3152
212.42874547908548,3092
214.84089907914665,2979
217.2523869269868,3032
219.66320922587727,3183
222.0733661791695,3034
224.48285799029293,2945
226.8916848627572,2974
229.29984700014882,3079
231.7073446061355,3108
234.11417788446204,3059
236.520347038953,3181
238.92585227351185,3350
241.33069379212054,3368
243.73487179884035,3475
246.1383864978112,3382
248.541238093252,3359
250.9434267894609,3377
253.34495279081432,3359
255.74581630176783,3430
258.1460175268563,3499
260.54555667069314,3518
262.9444339379703,3298
265.3426495334594,3302
267.7402036620107,3183
270.1370965285529,3203
272.53332833809407,3034
274.9288992957214,3011
277.32380960660055,2908
279.718059475976,2757
282.1116491091717,2873
284.5045787115897,2767
286.89684848871195,2776
289.2884586460981,2811
291.67940938938807,2905
294.0697009242996,2724
296.4593334566299,2760
298.84830719225477,2719
301.23662233712923,2665
303.6242790972866,2705
306.01127767884,2701
308.39761828798066,2636
310.78330113097934,2565
313.16832641418534,2531
315.5526943440269,2466
317.9364051270112,2524
320.3194589697242,2493
322.70185607883093,2501
325.0835966610754,2424
327.4646809232805,2419
329.8451090723478,2394
332.2248813152577,2313
334.6039978590701,2391
336.9824589109231,2367
339.36026467803447,2357
341.7374153677,2350
344.113911187295,2330
346.48975234427337,2385
348.8649390461686,2347
351.2394715005918,2237
353.61334991523415,2251
355.9865744978655,2283
358.35914545633375,2300
360.73106299856715,2299
363.10232733257146,2307
365.47293866643247,2229
367.84289720831396,2205
370.2122031664593,2261
372.5808567491905,2256
374.9488581649083,2272
377.31620762209275,2188
379.6829053293021,2217
382.0489514951745,2185
384.4143463284262,2108
386.7790900378528,2174
389.14318283232853,2165
391.50662492080653,2166
393.86941651231916,2184
396.23155781597745,2166
398.5930490409713,2152
400.9538903965696,2177
403.3140820921202,2122
405.6736243370498,2068
408.03251734086336,2168
410.3907613131465,2168
412.74835646356166,2143
415.10530300185144,2131
417.4616011378372,2161
419.81725108141893,2109
422.1722530425758,2066
424.5266072313656,2053
426.880313857925,2094
429.2333731324701,2062
431.58578526529516,2099
433.9375504667738,2063
436.2886689473588,2052
438.63914091758113,2066
440.9889665880513,2058
443.33814616945835,2078
445.68667987257015,2016
448.03456790823395,2037
450.3818104873759,2029
452.72840782100013,1997
455.07436012019105,2095
457.41966759611057,2013
459.7643304600007,2030
462.10834892318155,2087
464.4517231970525,2050
466.79445349309174,2043
469.1365400228566,2058
471.4779829979826,2050
473.81878263018564,2039
476.15893913125876,2135
478.4984527130747,2126
480.8373235875855,2134
483.17555196682144,2186
485.5131380628919,2205
487.8500820879857,2257
490.1863842543697,2481
492.52204477439034,2604
494.8570638604725,2806
497.1914417251204,3074
499.52517858091653,3352
501.85827464052306,3567
504.19073011668036,3515
506.5225452222086,3539
508.85372017000566,3405
511.18425517304956,3323
513.514150444396,3433
515.8434061971808,4123
518.1720226446176,5041
520.4999999999999,5378
522.8273384766991,5046
525.1540382881666,4653
527.480099647932,4045
529.8055227696037,3420
532.1303078668694,2742
534.454455153496,2410
536.777964843328,2328
539.1008371502907,2186
541.4230722883866,2149
543.744670471698,2208
546.0656319143858,2176
548.3859568306899,2118
550.7056454349294,2205
553.0246979415016,2200
555.3431145648834,2144
557.6608955196306,1992
559.978041020377,2015
562.2945512818363,2072
564.6104265188006,2171
566.9256669461412,2220
569.2402727788082,2114
571.5542442318302,2121
573.8675815203156,2196
576.1802848594508,2208
578.4923544645015,2122
580.8037905508126,2190
583.114593333807,2201
585.4247630289875,2203
587.7342998519354,2191
590.0432040183106,2169
592.3514757438526,2237
594.6591152443794,2299
596.9661227357875,2146
599.2724984340531,2234
601.578242555231,2154
603.8833553154542,2224
606.1878369309362,2202
608.4916876179676,2102
610.7949075929192,2162
613.0974970722403,2138
615.3994562724587,2132
617.7007854101818,2127
620.0014847020951,2188
622.3015543649641,2138
624.6009946156324,2173
626.8998056710224,2116
629.1979877481361,2149
631.4955410640538,2146
633.7924658359349,2143
636.0887622810175,2126
638.3844306166192,2137
640.6794710601358,2138
642.9738838290426,2174
645.2676691408932,2243
647.5608272133207,2199
649.853358264037,2169
652.1452625108324,2196
654.4365401715764,2164
656.7271914642178,2225
659.0172166067838,2275
661.3066158173809,2181
663.5953893141935,2156
665.8835373154867,2251
668.1710600396028,2206
670.4579577049639,2168
672.7442305300709,2198
675.0298787335033,2148
677.3149025339197,2188
679.599302150058,2226
681.8830778007342,2245
684.1662297048437,2161
686.4487580813608,2156
688.7306631493387,2168
691.0119451279091,2129
693.2926042362834,2194
695.5726406937516,2189
697.8520547196814,2138
700.1308465335215,2215
702.4090163547982,2143
704.6865644031171,2079
706.9634908981619,2156
709.2397960596965,2168
711.5154801075631,2188
713.7905432616823,2181
716.0649857420548,2185
718.3388077687592,2172
720.612009561953,2140
722.8845913418733,2148
725.1565533288352,2161
727.427895743234,2202
729.6986188055427,2172
731.9687227363137,2181
734.238207756178,2134
736.5070740858458,2173
738.7753219461066,2104
741.0429515578281,2152
743.3099631419569,2142
745.5763569195191,2132
747.8421331116193,2144
750.1072919394409,2123
752.3718336242467,2129
754.6357583873777,2118
756.8990664502545,2178
759.1617580343765,2157
761.423833361321,2170
763.6852926527457,2142
765.9461361303862,2182
768.206364016058,2143
770.4659765316536,2135
772.7249738991469,2203
774.9833563405886,2201
777.2411240781092,2173
779.4982773339183,2135
781.7548163303044,2193
784.010741289634,2215
786.2660524343538,2278
788.5207499869881,2170
790.7748341701416,2105
793.0283052064964,2215
795.2811633188143,2133
797.5334087299362,2213
799.7850416627813,2245
802.0360623403484,2205
804.2864709857143,2218
806.5362678220353,2147
808.7854530725468,2216
811.0340269605625,2194
813.2819897094754,2116
815.5293415427581,2204
817.77608268396,2211
820.0222133567116,2197
822.2677337847211,2244
824.5126441917765,2239
826.7569448017433,2245
829.0006358385675,2152
831.2437175262731,2172
833.4861900889629,2209
835.7280537508192,2152
837.9693087361026,2198
840.2099552691533,2198
842.4499935743896,2201
844.689423876309,2244
846.9282463994886,2234
849.1664613685833,2252
851.4040690083276,2203
853.6410695435349,2234
855.877463199097,2198
858.1132501999847,2190
860.3484307712487,2180
862.5830051380175,2226
864.8169735254988,2193
867.0503361589791,2248
869.2830932638243,2205
871.5152450654786,2261
873.7467917894654,2268
875.9777336613873,2271
878.2080709069252,2274
880.4378037518389,2339
882.666932421968,2217
884.8954571432301,2251
887.1233781416219,2226
889.3506956432192,2321
891.5774098741766,2233
893.803521060728,2253
896.0290294291852,2335
898.2539352059397,2329
900.4782386174619,2341
902.7019398903011,2386
904.925039251085,2260
907.147536926521,2340
909.3694331433943,2310
911.59072812857,2310
913.8114221089921,2271
916.0315153116827,2261
918.2510079637437,2269
920.4699002923547,2224
922.6881925247761,2255
924.905884888345,2265
927.1229776104793,2249
929.3394709186747,2272
931.555365040506,2243
933.7706602036275,2290
935.9853566357709,2283
938.1994545647489,2293
940.4129542184515,2240
942.6258558248488,2227
944.8381596119883,2210
947.0498658079974,2177
949.2609746410825,2218
951.4714863395287,2262
953.6814011316998,2221
955.8907192460387,2157
958.0994409110671,2227
960.3075663553858,2165
962.5150958076741,2188
964.7220294966913,2204
966.928367651274,2115
969.1341105003388,2058
971.3392582728806,2061
973.5438111979742,2204
975.747769504772,2088
977.9511334225061,2141
980.153903180487,2130
982.3560790081052,2125
984.5576611348289,2130
986.7586497902058,2091
988.9590452038618,2086
991.158847605503,2059
993.3580572249133,2046
995.5566742919558,2083
997.7546990365728,1965
999.952131688785,1973
1002.1489724786926,1978
1004.3452216364743,1954
1006.5408793923874,1916
1008.7359459767691,1870
1010.9304216200343,1901
1013.1243065526781,1877
1015.3176010052733,1856
1017.510305208472,1842
1019.7024193930064,1874
1021.8939437896848,1858
1024.0848786293977,1866
1026.2752241431122,1835
1028.4649805618747,1839
1030.6541481168115,1864
1032.842727039127,1878
1035.0307175601051,1870
1037.2181199111074,1851
1039.4049343235752,1813
1041.591161029029,1815
1043.7768002590683,1796
1045.9618522453698,1815
1048.1463172196918,1859
1050.3301954138697,1858
1052.513487059818,1786
1054.69619238953,1819
1056.8783116350783,1769
1059.0598450286152,1862
1061.2407928023704,1876
1063.4211551886528,1824
1065.6009324198508,1800
1067.780124728432,1818
1069.9587323469414,1733
1072.1367555080046,1869
1074.314194444325,1769
1076.4910493886855,1744
1078.667320573947,1753
1080.843008233051,1723
1083.0181125990161,1729
1085.1926339049414,1776
1087.3665723840027,1701
1089.5399282694575,1688
1091.7127017946405,1706
1093.8848931929647,1678
1096.0565026979243,1699
1098.2275305430899,1720
1100.3979769621128,1679
1102.567842188722,1714
1104.737126456726,1827
1106.9058300000124,1718
1109.0739530525475,1693
1111.2414958483764,1664
1113.4084586216231,1670
1115.5748416064907,1684
1117.7406450372605,1688
1119.9058691482942,1675
1122.0705141740304,1667
1124.2345803489884,1689
1126.3980679077658,1675
1128.5609770850388,1637
1130.7233081155623,1690
1132.8850612341707,1689
1135.0462366757774,1643
1137.2068346753745,1692
1139.3668554680326,1713
1141.526299288901,1640
1143.68516637321,1697
1145.8434569562655,1664
1148.001171273455,1655
1150.158309560244,1709
1152.3148720521767,1715
1154.470858984876,1681
1156.626270594044,1670
1158.7811071154629,1586
1160.9353687849912,1621
1163.089055838569,1618
1165.242168512213,1626
1167.3947070420209,1672
1169.5466716641677,1595
1171.6980626149075,1626
1173.8488801305748,1611
1175.9991244475814,1711
1178.1487958024186,1623
1180.2978944316555,1643
1182.4464205719428,1615
1184.5943744600072,1607
1186.7417563326567,1640
1188.8885664267755,1606
1191.0348049793297,1674
1193.1804722273619,1624
1195.325568407995,1608
1197.4700937584303,1662
1199.614048515948,1585
1201.7574329179074,1649
1203.900247201746,1644
1206.042491604982,1606
1208.1841663652099,1629
1210.3252717201053,1646
1212.465807907422,1662
1214.6057751649923,1694
1216.7451737307279,1698
1218.8840038426192,1664
1221.0222657387353,1654
1223.1599596572241,1590
1225.2970858363137,1632
1227.4336445143094,1702
1229.5696359295966,1621
1231.705060320639,1697
1233.8399179259786,1676
1235.9742089842384,1730
1238.107933734118,1707
1240.2410924143974,1732
1242.373685263935,1772
1244.5057125216676,1705
1246.6371744266116,1717
1248.7680712178621,1725
1250.898403134593,1772
1253.028170416058,1678
1255.1573733015875,1746
1257.2860120305932,1701
1259.4140868425648,1723
1261.54159797707,1776
1263.6685456737569,1800
1265.7949301723515,1782
1267.9207517126597,1670
1270.046010534565,1738
1272.1707068780306,1745
1274.2948409830983,1752
1276.4184130898889,1754
1278.541423438603,1731
1280.6638722695184,1760
1282.785759822993,1754
1284.9070863394636,1809
1287.0278520594447,1742
1289.1480572235314,1769
1291.2677020723963,1853
1293.3867868467923,1830
1295.5053117875495,1869
1297.623277135579,1784
1299.740683131868,1832
1301.8575300174857,1873
1303.973818033578,1805
1306.0895474213703,1780
1308.2047184221678,1852
1310.3193312773528,1836
1312.4333862283888,1899
1314.5468835168163,1890
1316.659823384255,1868
1318.7722060724045,1854
1320.8840318230418,1844
1322.9953008780249,1799
1325.1060134792888,1851
1327.2161698688478,1843
1329.3257702887959,1873
1331.4348149813054,1881
1333.5433041886276,1866
1335.6512381530933,1871
1337.7586171171101,1911
1339.8654413231675,1844
1341.9717110138317,1884
1344.0774264317488,1833
1346.1825878196432,1785
1348.2871954203192,1748
1350.3912494766587,1850
1352.4947502316231,1784
1354.5976979282532,1857
1356.7000928096686,1844
1358.8019351190665,1806
1360.9032250997243,1769
1363.0039629949988,1884
1365.1041490483235,1878
1367.2037835032133,1835
1369.3028666032606,1889
1371.401398592137,1891
1373.4993797135926,1815
1375.5968102114575,1840
1377.6936903296396,1907
1379.7900203121262,1813
1381.8858004029835,1899
1383.9810308463561,1895
1386.075711886469,1865
1388.1698437676241,1880
1390.2634267342032,1826
1392.356461030667,1902
1394.4489469015557,1990
1396.5408845914872,1970
1398.6322743451592,1901
1400.7231164073469,1965
1402.813411022907,2001
1404.903158436773,1997
1406.9923588939578,2015
1409.0810126395531,2131
1411.1691199187303,2057
1413.2566809767386,2034
1415.343696058907,2010
1417.4301654106425,2104
1419.5160892774315,2035
1421.6014679048399,2110
1423.6863015385125,2072
1425.7705904241707,2076
1427.8543348076178,2071
1429.9375349347342,2108
1432.0201910514802,2140
1434.102303403894,2172
1436.1838722380944,2180
1438.2648978002767,2260
1440.3453803367174,2165
1442.4253200937692,2281
1444.5047173178677,2329
1446.5835722555234,2325
1448.6618851533285,2333
1450.739656257952,2424
1452.8168858161434,2491
1454.8935740747306,2463
1456.96972128062,2565
1459.045327680797,2577
1461.120393522327,2531
1463.1949190523528,2610
1465.2689045180973,2653
1467.3423501668608,2694
1469.415256246024,2751
1471.4876230030463,2836
1473.559450685465,2872
1475.6307395408976,2960
1477.7014898170391,3082
1479.771701761665,3004
1481.8413756226287,3083
1483.9105116478618,3123
1485.9791100853772,3166
1488.0471711832643,3189
1490.1146951896926,3241
1492.1816823529098,3284
1494.2481329212433,3355
1496.3140471430984,3383
1498.3794252669609,3433
1500.4442675413939,3546
1502.5085742150404,3563
1504.572345536622,3573
1506.6355817549388,3547
1508.6982831188702,3597
1510.7604498773744,3661
1512.8220822794883,3736
1514.8831805743293,3692
1516.9437450110909,3702
1519.003775839048,3800
1521.0632733075522,3864
1523.1222376660367,3886
1525.1806691640113,3897
1527.2385680510652,3954
1529.2959345768668,3955
1531.3527689911643,4072
1533.4090715437833,4147
1535.4648424846291,4184
1537.5200820636855,4299
1539.5747905310159,4446
1541.6289681367616,4333
1543.6826151311434,4369
1545.7357317644614,4376
1547.7883182870937,4466
1549.8403749494987,4549
1551.8919020022113,4580
1553.9428996958477,4706
1555.9933682811015,4903
1558.0433080087469,4903
1560.0927191296346,5036
1562.1416018946961,4999
1564.1899565549415,5009
1566.2377833614592,4955
1568.2850825654164,4690
1570.3318544180606,4761
1572.3780991707158,4566
1574.423817074788,4344
1576.4690083817595,4163
1578.5136733431923,4010
1580.5578122107272,3824
1582.601425236085,3725
1584.6445126710646,3471
1586.6870747675434,3269
1588.7291117774776,3196
1590.7706239529034,3045
1592.8116115459347,2866
1594.8520748087658,2808
1596.8920139936686,2739
1598.9314293529933,2597
1600.9703211391711,2574
1603.008689604711,2448
1605.0465350022005,2346
1607.0838575843068,2372
1609.1206576037753,2254
1611.1569353134305,2190
1613.1926909661765,2130
1615.2279248149953,2154
1617.2626371129481,2144
1619.2968281131757,2055
1621.3304980688963,2078
1623.3636472334088,2016
1625.39627586009,1934
1627.428384202396,1893
1629.459972513861,1943
1631.4910410480993,1946
1633.5215900588028,1901
1635.551619799744,1947
1637.5811305247717,1914
1639.6101224878166,1849
1641.6385959428862,1822
1643.6665511440683,1884
1645.693988345528,1861
1647.7209078015112,1805
1649.7473097663405,1758
1651.7731944944203,1854
1653.7985622402307,1756
1655.823413258333,1761
1657.847747803366,1813
1659.8715661300494,1801
1661.8948684931793,1797
1663.9176551476316,1753
1665.9399263483624,1768
1667.9616823504057,1786
1669.982923408873,1757
1672.0036497789574,1763
1674.0238617159293,1777
1676.043559475138,1730
1678.0627433120121,1806
1680.081413482059,1751
1682.0995702408654,1740
1684.117213844096,1754
1686.134344547495,1763
1688.1509626068864,1773
1690.1670682781705,1810
1692.182661817329,1733
1694.1977434804217,1762
1696.2123135235875,1671
1698.226372203043,1728
1700.2399197750851,1783
1702.2529564960905,1767
1704.2654826225112,1742
1706.277498410882,1724
1708.2890041178139,1745
1710.2999999999988,1693
1712.3104863142066,1741
1714.3204633172854,1756
1716.329931266163,1701
1718.3388904178469,1768
1720.3473410294214,1666
1722.3552833580516,1598
1724.3627176609807,1659
1726.3696441955308,1671
1728.3760632191033,1650
1730.3819749891782,1660
1732.3873797633146,1624
1734.3922777991502,1636
1736.3966693544012,1553
1738.4005546868639,1664
1740.4039340544127,1692
1742.406807715001,1644
1744.4091759266616,1570
1746.4110389475054,1606
1748.4123970357223,1614
1750.413250449582,1587
1752.4135994474318,1578
1754.4134442876993,1608
1756.4127852288902,1528
1758.4116225295893,1596
1760.4099564484595,1602
1762.407787244244,1589
1764.405115175764,1616
1766.4019405019203,1626
1768.3982634816916,1617
1770.3940843741357,1573
1772.3894034383907,1548
1774.3842209336717,1603
1776.378537119274,1595
1778.372352254571,1550
1780.3656665990156,1535
1782.3584804121397,1543
1784.3507939535534,1539
1786.3426074829463,1491
1788.3339212600863,1501
1790.3247355448211,1528
1792.3150505970766,1543
1794.3048666768573,1530
1796.2941840442477,1558
1798.2830029594106,1574
1800.2713236825884,1546
1802.2591464741004,1515
1804.2464715943465,1545
1806.2332993038058,1608
1808.2196298630352,1539
1810.2054635326708,1564
1812.190800573428,1530
1814.175641246101,1518
1816.1599858115628,1555
1818.1438345307652,1547
1820.127187664738,1552
1822.1100454745924,1561
1824.092408221516,1557
1826.0742761667766,1498
1828.055649571721,1501
1830.0365286977735,1555
1832.0169138064398,1555
1833.9968051593014,1546
1835.9762030180214,1516
1837.9551076443408,1520
1839.9335193000788,1544
1841.9114382471344,1532
1843.888864747485,1531
1845.8657990631878,1541
1847.842241456378,1507
1849.8181921892697,1544
1851.7936515241558,1516
1853.7686197234098,1525
1855.7430970494815,1574
1857.7170837649014,1532
1859.6905801322787,1503
1861.6635864143004,1509
1863.6361028737338,1502
1865.608129773424,1499
1867.5796673762961,1545
1869.5507159453537,1557
1871.521275743678,1521
1873.4913470344313,1521
1875.4609300808534,1553
1877.4300251462632,1534
1879.3986324940588,1497
1881.366752387717,1555
1883.3343850907936,1601
1885.3015308669228,1560
1887.268189979819,1524
1889.2343626932739,1578
1891.2000492711595,1577
1893.1652499774254,1549
1895.1299650761011,1481
1897.0941948312952,1572
1899.0579395071945,1534
1901.0211993680641,1581
1902.98397467825,1556
1904.9462657021745,1586
1906.9080727043415,1604
1908.869395949332,1574
1910.8302357018065,1552
1912.790592226504,1497
1914.7504657882428,1576
1916.7098566519212,1575
1918.6687650825133,1531
1920.6271913450764,1546
1922.5851357047422,1489
1924.5425984267245,1541
1926.499579776314,1532
1928.4560800188833,1597
1930.4120994198802,1538
1932.367638244833,1538
1934.32269675935,1567
1936.2772752291175,1585
1938.231373919899,1591
1940.1849930975404,1538
1942.1381330279637,1530
1944.0907939771696,1490
1946.0429762112412,1498
1947.9946799963363,1522
1949.9459055986945,1524
1951.896653284633,1601
1953.8469233205478,1518
1955.7967159729142,1554
1957.7460315082863,1570
1959.6948701932974,1540
1961.6432322946594,1546
1963.5911180791632,1507
1965.5385278136787,1596
1967.4854617651545,1542
1969.4319202006182,1521
1971.377903387176,1527
1973.3234115920136,1514
1975.268445082395,1531
1977.2130041256642,1522
1979.1570889892423,1506
1981.1006999406304,1505
1983.04383724741,1496
1984.986501177238,1513
1986.928691997853,1489
1988.8704099770712,1481
1990.811655382789,1517
1992.7524284829801,1534
1994.692729545698,1469
1996.6325588390755,1476
1998.5719166313224,1458
2000.5108031907307,1544
2002.4492187856677,1524
2004.387163684583,1498
2006.3246381560011,1440
2008.2616424685298,1479
2010.1981768908527,1456
2012.1342416917332,1477
2014.069837140014,1420
2016.0049635046162,1439
2017.9396210545406,1474
2019.8738100588666,1462
2021.8075307867502,1466
2023.740783507431,1510
2025.6735684902228,1499
2027.6058860045214,1442
2029.5377363198004,1431
2031.4691197056118,1460
2033.4000364315875,1444
2035.3304867674374,1505
2037.260470982952,1470
2039.189989347998,1472
2041.1190421325232,1459
2043.047629606554,1444
2044.9757520401945,1419
2046.9034097036288,1471
2048.8306028671195,1442
2050.7573318010086,1448
2052.683596775716,1438
2054.609398061742,1487
2056.5347359296647,1390
2058.4596106501403,1445
2060.384022493906,1456
2062.3079717317764,1402
2064.231458634646,1427
2066.1544834734873,1442
2068.077046519352,1478
2069.99914804337,1466
2071.9207883167524,1465
2073.8419676107865,1469
2075.7626861968406,1452
2077.6829443463607,1426
2079.6027423308715,1408
2081.522080421977,1441
2083.440958891362,1504
2085.359378010786,1493
2087.2773380520907,1440
2089.194839287196,1456
2091.111881988101,1489
2093.0284664268825,1374
2094.9445928756973,1456
2096.86026160678,1457
2098.775472892446,1452
2100.690227005088,1423
2102.604524217178,1462
2104.5183648012676,1400
2106.431749029985,1454
2108.34467717604,1434
2110.2571495122206,1470
2112.169166311393,1502
2114.080727846503,1453
2115.9918343905747,1480
2117.902486216711,1439
2119.8126835980956,1500
2121.722426807987,1461
2123.6317161197285,1477
2125.5405518067364,1434
2127.448934142509,1505
2129.356863400624,1497
2131.264339854737,1446
2133.1713637785815,1496
2135.077935445972,1420
2136.9840551308002,1500
2138.889723107037,1465
2140.7949396487334,1490
2142.699705030018,1456
2144.6040195250994,1495
2146.507883408264,1551
2148.4112969538774,1447
2150.3142604363848,1460
2152.2167741303097,1496
2154.1188383102535,1512
2156.0204532508997,1462
2157.9216192270064,1463
2159.822336513414,1501
2161.7226053850413,1523
2163.622426116884,1541
2165.5217989840185,1566
2167.4207242616,1512
2169.319202224862,1526
2171.2172331491165,1533
2173.1148173097563,1541
2175.0119549822507,1506
2176.90864644215,1522
2178.8048919650823,1553
2180.7006918267534,1524
2182.596046302952,1519
2184.4909556695407,1527
2186.3854202024645,1527
2188.279440177746,1525
2190.173015871487,1525
2192.066147559868,1587
2193.958835519149,1513
2195.851080025667,1590
2197.7428813558417,1569
2199.6342397861667,1578
2201.5251555932186,1517
2203.415629053651,1538
2205.3056604441986,1577
2207.19525004167,1561
2209.084398122958,1587
2210.9731049650327,1580
2212.861370844941,1589
2214.749196039812,1614
2216.636580826851,1587
2218.523525483344,1569
2220.410030286655,1653
2222.296095514226,1600
2224.1817214435805,1562
2226.066908352319,1557
2227.951656518121,1646
2229.835966218746,1599
2231.71983773203,1650
2233.6032713358913,1644
2235.486267308324,1552
2237.3688259274036,1595
2239.2509474712824,1630
2241.132632218193,1624
2243.013880446447,1588
2244.8946924344323,1567
2246.7750684606203,1564
2248.6550088035574,1572
2250.534513741871,1554
2252.413583554265,1616
2254.292218519526,1617
2256.170418916517,1574
2258.0481850241786,1573
2259.925517121534,1565
2261.8024154876825,1489
2263.678880401803,1548
2265.5549121431536,1589
2267.430510991071,1567
2269.305677224971,1620
2271.180411124348,1619
2273.0547129687766,1547
2274.9285830379076,1526
2276.8020216114737,1572
2278.6750289692845,1516
2280.5476053912294,1566
2282.4197511572766,1637
2284.2914665474727,1625
2286.162751841943,1620
2288.0336073208937,1600
2289.904033264608,1651
2291.774029953448,1634
2293.6435976678554,1567
2295.5127366883517,1554
2297.381447295534,1593
2299.2497297700825,1537
2301.1175843927526,1503
2302.9850114443825,1423
2304.852011205885,1459
2306.7185839582553,1444
2308.5847299825664,1446
2310.4504495599676,1364
2312.3157429716925,1302
2314.1806104990483,1400
2316.0450524234247,1381
2317.9090690262888,1330
2319.772660589186,1413
2321.635827393742,1326
2323.498569721661,1351
2325.3608878547248,1372
2327.2227820747967,1386
2329.0842526638157,1384
2330.945299903803,1378
2332.805924076857,1356
2334.6661254651535,1424
2336.525904350951,1394
2338.3852610165827,1358
2340.244195744464,1371
2342.102708817088,1397
2343.9608005170253,1371
2345.8184711269287,1389
2347.675720929526,1352
2349.532550207628,1412
2351.38895924412,1395
2353.24494832197,1354
2355.100517724223,1451
2356.955667734004,1423
2358.810398634514,1405
2360.664710709037,1419
2362.5186042409337,1388
2364.3720795136437,1401
2366.225136810686,1373
2368.0777764156583,1389
2369.929998612237,1326
2371.7818036841777,1380
2373.633191915315,1360
2375.484163589562,1405
2377.3347189909114,1426
2379.184858403434,1404
2381.03458211128,1440
2382.8838903986775,1439
2384.732783549936,1457
2386.5812618494406,1410
2388.4293255816588,1417
2390.2769750311327,1412
2392.1242104824883,1389
2393.971032220427,1420
2395.8174405297295,1472
2397.6634356952563,1444
2399.509018001947,1405
2401.3541877348193,1322
2403.1989451789705,1427
2405.043290619576,1397
2406.8872243418905,1425
2408.730746631247,1384
2410.5738577730594,1443
2412.4165580528183,1500
2414.258847756095,1398
2416.100727168537,1389
2417.9421965758734,1385
2419.783256263912,1369
2421.623906518538,1361
2423.4641476257157,1403
2425.303979871491,1418
2427.143403541984,1398
2428.9824189233977,1432
2430.821026302012,1442
2432.6592259641866,1407
2434.497018196361,1433
2436.33440328505,1418
2438.171381516851,1471
2440.00795317844,1473
2441.844118556569,1434
2443.6798779380724,1396
2445.5152316098606,1415
2447.3501798589255,1469
2449.1847229723357,1462
2451.0188612372403,1379
2452.8525949408663,1432
2454.6859243705203,1478
2456.518849813587,1453
2458.3513715575314,1467
2460.183489889895,1470
2462.015205098301,1457
2463.8465174704493,1504
2465.67742729412,1448
2467.5079348571717,1481
2469.338040447542,1496
2471.1677443532476,1460
2472.9970468623833,1482
2474.825948263123,1457
2476.6544488437207,1460
2478.482548892508,1465
2480.310248697896,1520
2482.137548548374,1486
2483.9644487325118,1488
2485.790949538956,1452
2487.617051256433,1486
2489.44275417375,1441
2491.26805857979,1425
2493.0929647635157,1497
2494.917473013971,1481
2496.741583620276,1488
2498.5652968716304,1504
2500.3886130573137,1538
2502.2115324666834,1500
2504.0340553891765,1513
2505.856182114308,1551
2507.6779129316733,1476
2509.499248130945,1487
2511.3201880018764,1458
2513.140732834298,1484
2514.9608829181198,1542
2516.780638543331,1523
2518.6,1556
2520.418967578273,1589
2522.237541568376,1560
2524.0557222606144,1553
2525.8735099453706,1524
2527.6909049131086,1570
2529.507907454368,1605
2531.32451785977,1588
2533.140736420014,1612
2534.9565634258774,1589
2536.771999168218,1575
2538.5870439379714,1630
2540.4016980261526,1622
2542.2159617238544,1627
2544.02983532225,1635
2545.8433191125914,1705
2547.656413386209,1654
2549.4691184345115,1682
2551.2814345489874,1678
2553.093362021204,1699
2554.904901142808,1719
2556.716052205523,1656
2558.526815501153,1775
2560.3371913215824,1735
2562.147179958771,1793
2563.956781704761,1702
2565.7659968516705,1780
2567.5748256916986,1773
2569.3832685171224,1870
2571.1913256202984,1734
2572.9989972936614,1786
2574.806283829725,1831
2576.613185521084,1931
2578.4197026604074,1824
2580.2258355404483,1883
2582.031584454035,1839
2583.836949694077,1851
2585.6419315535613,1858
2587.4465303255533,1928
2589.2507463032002,1853
2591.0545797797245,1953
2592.8580310484303,1869
2594.6611004026995,1984
2596.463788135992,1908
2598.266094541849,1927
2600.0680199138874,1898
2601.869564545807,1901
2603.670728731383,1948
2605.4715127644704,1947
2607.2719169390048,1975
2609.071941548998,1874
2610.8715868885433,1892
2612.670853251811,1954
2614.469740933052,1961
2616.268250226594,1963
2618.0663814268455,1893
2619.864134828292,1909
2621.6615107255006,1922
2623.458509413115,1895
2625.2551311858597,1930
2627.0513763385347,1889
2628.8472451660223,1840
2630.6427379632833,1822
2632.4378550253564,1861
2634.232596647359,1862
2636.026963124488,1811
2637.8209547520187,1774
2639.6145718253065,1755
2641.407814639785,1771
2643.200683490966,1754
2644.9931786744414,1798
2646.7853004858807,1729
2648.577049221034,1661
2650.3684251757277,1755
2652.1594286458712,1719
2653.9500599274484,1652
2655.740319316525,1620
2657.5302071092437,1665
2659.3197236018286,1637
2661.10886909058,1618
2662.8976438718782,1646
2664.686048242183,1642
2666.4740824980327,1591
2668.2617469360443,1584
2670.0490418529134,1587
2671.8359675454153,1577
2673.622524310403,1619
2675.408712444811,1546
2677.1945322456495,1522
2678.979984010009,1578
2680.76506803506,1527
2682.5497846180497,1508
2684.334134056306,1468
2686.1181166472343,1496
2687.9017326883213,1522
2689.6849824771293,1472
2691.4678663113013,1461
2693.2503844885596,1467
2695.032537306705,1460
2696.8143250636167,1488
2698.5957480572542,1435
2700.3768065856534,1437
2702.1575009469316,1454
2703.937831439283,1461
2705.717798360982,1504
2707.4974020103837,1452
2709.276642685917,1471
2711.055520686095,1413
2712.834036309506,1416
2714.612189854819,1432
2716.389981620782,1449
2718.1674119062204,1384
2719.944481010041,1403
2721.721189231226,1425
2723.4975368688415,1412
2725.273524222027,1380
2727.0491515900053,1360
2728.824419272075,1460
2730.5993275676146,1374
2732.3738767760838,1407
2734.148067197016,1387
2735.921899130031,1440
2737.6953728748194,1415
2739.468488731156,1389
2741.2412469988926,1373
2743.0136479779617,1341
2744.785691968372,1330
2746.5573792702116,1404
2748.3287101836504,1358
2750.099685008934,1358
2751.870304046388,1384
2753.640567596418,1367
2755.4104759595057,1410
2757.1800294362156,1378
2758.949228327187,1395
2760.7180729331412,1331
2762.486563554877,1314
2764.254700493272,1344
2766.022484049284,1357
2767.789914523947,1371
2769.5569922183786,1383
2771.3237174337705,1387
2773.090090471394,1364
2774.8561116326036,1387
2776.6217812188274,1364
2778.3870995315756,1319
2780.1520668724356,1417
2781.9166835430747,1382
2783.6809498452394,1340
2785.444866080754,1330
2787.2084325515225,1326
2788.971649559527,1378
2790.73451740683,1332
2792.4970363955713,1405
2794.2592068279705,1354
2796.0210290063264,1302
2797.7825032330147,1326
2799.543629810493,1260
2801.304409041296,1358
2803.0648412280366,1334
2804.8249266734088,1346
2806.5846656801846,1362
2808.344058551212,1359
2810.1031055894246,1316
2811.8618070978273,1361
2813.6201633795085,1292
2815.378174737636,1312
2817.1358414754536,1330
2818.893163896285,1345
2820.6501423035334,1313
2822.4067770006814,1375
2824.1630682912883,1366
2825.9190164789957,1301
2827.6746218675207,1328
2829.429884760661,1373
2831.184805462294,1350
2832.9393842763743,1414
2834.693621506936,1386
2836.4475174580916,1363
2838.201072434034,1353
2839.954286739034,1369
2841.707160677441,1355
2843.459694553685,1323
2845.2118886722724,1331
2846.96374333779,1345
2848.7152588549034,1373
2850.4664355283567,1366
2852.217273662973,1318
2853.9677735636546,1323
2855.7179355353833,1270
2857.4677598832186,1359
2859.217246912299,1352
2860.9663969278427,1398
2862.715210235146,1372
2864.4636871395846,1371
2866.211827946614,1366
2867.9596329617652,1343
2869.7071024906536,1340
2871.4542368389684,1313
2873.20103631248,1359
2874.947501217038,1349
2876.6936318585695,1309
2878.4394285430812,1304
2880.1848915766604,1337
2881.9300212654707,1320
2883.6748179157553,1278
2885.4192818338374,1371
2887.1634133261173,1355
2888.907212699077,1407
2890.6506802592744,1407
2892.393816313348,1336
2894.1366211680142,1364
2895.8790951300693,1346
2897.621238506388,1371
2899.363051603925,1304
2901.1045347297118,1376
2902.8456881908596,1307
2904.58651229456,1290
2906.327007348081,1358
2908.067173658772,1314
2909.8070115340597,1313
2911.5465212814497,1365
2913.285703208527,1292
2915.0245576229563,1315
2916.7630848324807,1299
2918.5012851449196,1319
2920.2391588681758,1363
2921.976706310227,1377
2923.7139277791334,1300
2925.4508235830313,1328
2927.187394030137,1340
2928.923639428745,1321
2930.6595600872306,1323
2932.395156314046,1341
2934.1304284177218,1347
2935.8653767068713,1330
2937.6000014901815,1364
2939.3343030764227,1363
2941.068281774442,1314
2942.8019378931644,1347
2944.5352717415976,1338
2946.2682836288236,1314
2948.0009738640065,1352
2949.7333427563885,1345
2951.465390615289,1329
2953.1971177501086,1333
2954.9285244703265,1363
2956.6596110855,1375
2958.3903779052657,1344
2960.1208252393385,1304
2961.8509533975125,1347
2963.5807626896617,1336
2965.3102534257378,1310
2967.0394259157715,1258
2968.768280469873,1301
2970.496817398232,1337
2972.2250370111146,1290
2973.952939618869,1294
2975.6805255319196,1379
2977.4077950607707,1357
2979.134748516006,1394
2980.861386208289,1345
2982.587708448359,1370
2984.313715547037,1370
2986.039407815222,1281
2987.764785563891,1348
2989.489849104102,1332
2991.2145987469908,1384
2992.9390348037705,1323
2994.6631575857346,1324
2996.3869674042576,1313
2998.1104645707887,1344
2999.83364939686,1326
3001.5565221940783,1337
3003.2790832741334,1337
3005.0013329487924,1403
3006.7232715298996,1299
3008.4448993293804,1332
3010.166216659239,1357
3011.887223831558,1255
3013.607921158498,1350
3015.3283089522993,1332
3017.0483875252826,1332
3018.7681571898443,1350
3020.4876182584626,1335
3022.2067710436927,1345
3023.9256158581707,1350
3025.644153014609,1349
3027.362382825801,1314
3029.0803056046193,1376
3030.797921664012,1351
3032.5152313170106,1348
3034.2322348767225,1344
3035.9489326563353,1271
3037.665324969115,1291
3039.3814121284063,1304
3041.097194447633,1306
3042.812672240299,1330
3044.5278458199855,1366
3046.2427155003525,1331
3047.9572815951406,1335
3049.671544418167,1358
3051.38550428333,1349
3053.0991615046073,1284
3054.812516396051,1295
3056.5255692717974,1363
3058.2383204460575,1373
3059.9507702331257,1370
3061.662918947372,1302
3063.3747669032446,1384
3065.0863144152736,1329
3066.7975617980674,1288
3068.508509366309,1357
3070.219157434767,1317
3071.9295063182844,1305
3073.639556331785,1338
3075.3493077902704,1363
3077.058761008821,1329
3078.7679163025964,1309
3080.476773986837,1375
3082.1853343768594,1286
3083.89359778806,1359
3085.6015645359153,1452
3087.3092349359786,1351
3089.016609303884,1334
3090.7236879553434,1333
3092.4304712061476,1361
3094.136959372166,1323
3095.843152769349,1354
3097.5490517137237,1339
3099.2546565213966,1373
3100.959967508554,1310
3102.66498499146,1305
3104.3697092864577,1365
3106.0741407099695,1326
3107.778279578498,1314
3109.482126208622,1295
3111.1856809170004,1369
3112.8889440203716,1354
3114.5919158355528,1309
3116.294596679439,1348
3117.996986869006,1382
3119.6990867213062,1308
3121.4008965534726,1432
3123.102416682717,1419
3124.803647426329,1339
3126.5045891016784,1412
3128.205242026213,1353
3129.90560651746,1340
3131.605682893025,1321
3133.3054714705922,1368
3135.0049725679282,1331
3136.7041865028714,1382
3138.4031135933465,1401
3140.101754157353,1366
3141.800108512971,1325
3143.498176978357,1354
3145.1959598717494,1357
3146.8934575114636,1284
3148.5906702158954,1344
3150.2875983035183,1376
3151.9842420928853,1327
3153.680601902627,1335
3155.376678051456,1302
3157.07247085816,1257
3158.767980641609,1303
3160.463207720748,1292
3162.158152414606,1325
3163.8528150422862,1380
3165.5471959229726,1363
3167.2412953759303,1335
3168.9351137204976,1279
3170.628651276098,1350
3172.3219083622307,1393
3174.014885298474,1432
3175.707582404485,1346
3177.4000000000005,1311
3179.092138404835,1338
3180.7839979388846,1320
3182.47557892212,1321
3184.166881674594,1331
3185.8579065164386,1331
3187.5486537678626,1295
3189.2391237491547,1360
3190.9293167806827,1343
3192.6192331828934,1398
3194.3088732763117,1311
3195.998237381542,1319
3197.687325819268,1313
3199.376138910251,1267
3201.064676975334,1310
3202.7529403354347,1303
3204.4409293115523,1269
3206.1286442247647,1317
3207.816085396229,1265
3209.5032531471825,1265
3211.190147798936,1286
3212.8767696728846,1324
3214.5631190905015,1284
3216.2491963733373,1292
3217.9350018430214,1327
3219.6205358212637,1268
3221.305798629851,1268
3222.990790590651,1262
3224.6755120256103,1287
3226.359963256751,1294
3228.0441446061795,1241
3229.7280563960758,1319
3231.411698948703,1312
3233.0950725863995,1245
3234.778177631587,1313
3236.461014406761,1282
3238.1435832345005,1305
3239.8258844374595,1302
3241.507918338374,1328
3243.1896852600576,1323
3244.8711855254023,1320
3246.552419457381,1282
3248.233387379042,1301
3249.914089613516,1393
3251.59452648401,1290
3253.274698313813,1259
3254.95460542629,1329
3256.6342481448855,1259
3258.313626793125,1260
3259.9927416946084,1282
3261.6715931730196,1291
3263.3501815521176,1281
3265.0285071557437,1294
3266.706570307815,1274
3268.3843713323286,1248
3270.0619105533615,1249
3271.739188295068,1253
3273.4162048816834,1280
3275.0929606375184,1283
3276.769455886966,1269
3278.445690954498,1270
3280.1216661646613,1284
3281.797381842087,1362
3283.4728383114807,1316
3285.1480358976296,1264
3286.8229749253996,1275
3288.4976557197333,1279
3290.172078605655,1297
3291.846243908266,1253
3293.5201519527463,1330
3295.193803064357,1259
3296.8671975684374,1254
3298.5403357904024,1287
3300.21321805575,1284
3301.8858446900567,1316
3303.558216018975,1247
3305.23033236824,1265
3306.9021940636603,1335
3308.57380143113,1320
3310.2451547966184,1332
3311.916254486174,1310
3313.5871008259246,1322
3315.2576941420766,1274
3316.9280347609147,1288
3318.5981230088046,1299
3320.2679592121895,1265
3321.9375436975924,1283
3323.606876791612,1303
3325.27595882093,1292
3326.944790112305,1340
3328.6133709925753,1281
3330.2817017886573,1279
3331.949782827547,1283
3333.617614436319,1282
3335.2851969421245,1286
3336.952530672199,1242
3338.619615953853,1320
3340.286453114475,1317
3341.9530424815357,1270
3343.619384382583,1298
3345.2854791452437,1305
3346.951327097224,1274
3348.6169285663073,1266
3350.2822838803577,1273
3351.947393367319,1316
3353.61225735521,1310
3355.2768761721345,1283
3356.9412501462693,1262
3358.605379605873,1350
3360.2692648792827,1252
3361.9329062949146,1258
3363.596304181263,1267
