CollectionTime,7/9/2024 11:27:18 AM
ExposureUsed,3
CalibratedSpectrum
-962.7078968117929,546
-959.9714848408522,564
-957.2358232597828,595
-954.5009119013725,600
-951.7667505983302,562
-949.0333391832855,589
-946.3006774887896,605
-943.5687653473143,591
-940.837602591253,567
-938.1071890529199,625
-935.3775245645503,603
-932.6486089583007,604
-929.9204420662485,627
-927.1930237203925,624
-924.4663537526524,604
-921.7404319948689,619
-919.0152582788041,656
-916.2908324361409,645
-913.5671542984834,633
-910.8442236973568,608
-908.1220404642074,635
-905.4006044304027,621
-902.679915427231,622
-899.959973285902,586
-897.2407778375464,599
-894.5223289132158,620
-891.8046263438832,608
-889.0876699604426,602
-886.3714595937089,596
-883.6559950744183,562
-880.9412762332282,581
-878.2273029007168,610
-875.5140749073835,582
-872.8015920836489,590
-870.0898542598545,592
-867.3788612662631,602
-864.6686129330585,592
-861.9591090903457,615
-859.2503495681506,621
-856.5423341964203,602
-853.8350628050229,582
-851.1285352237478,597
-848.4227512823054,578
-845.7177108103272,599
-843.0134136373656,599
-840.3098595928943,613
-837.6070485063082,650
-834.9049802069229,615
-832.2036545239757,606
-829.5030712866244,594
-826.8032303239481,627
-824.1041314649472,601
-821.4057745385428,613
-818.7081593735775,610
-816.0112857988148,606
-813.3151536429393,608
-810.6197627345566,622
-807.9251129021936,581
-805.2312039742981,610
-802.5380357792392,635
-799.8456081453069,618
-797.1539209007124,637
-794.462973873588,633
-791.772766891987,684
-789.083299783884,656
-786.3945723771743,629
-783.7065844996748,613
-781.0193359791231,584
-778.3328266431781,650
-775.6470563194197,658
-772.9620248353489,603
-770.2777320183878,625
-767.5941776958798,586
-764.9113616950891,621
-762.2292838432011,644
-759.5479439673222,613
-756.8673418944801,641
-754.1874774516235,639
-751.5083504656222,653
-748.8299607632671,662
-746.15230817127,642
-743.475392516264,653
-740.7992136248035,658
-738.1237713233636,635
-735.4490654383407,679
-732.7750957960521,668
-730.1018622227365,685
-727.4293645445534,648
-724.7576025875837,673
-722.0865761778291,664
-719.4162851412126,635
-716.7467293035781,690
-714.0779084906909,678
-711.409822528237,695
-708.7424712418238,691
-706.0758544569796,649
-703.4099719991541,675
-700.7448236937178,678
-698.0804093659622,688
-695.4167288411002,696
-692.7537819442656,684
-690.0915685005134,658
-687.4300883348199,670
-684.7693412720819,664
-682.1093271371178,693
-679.4500457546669,642
-676.7914969493897,679
-674.1336805458676,711
-671.4765963686034,683
-668.8202442420206,709
-666.1646239904642,710
-663.5097354382001,709
-660.8555784094151,729
-658.2021527282176,698
-655.5494582186366,707
-652.8974947046223,725
-650.2462620100463,688
-647.5957599587009,758
-644.9459883742998,728
-642.2969470804776,724
-639.6486359007902,729
-637.0010546587141,740
-634.3542031776476,713
-631.7080812809096,747
-629.0626887917401,726
-626.4180255333008,775
-623.7740913286734,786
-621.1308860008619,732
-618.4884093727904,706
-615.8466612673046,739
-613.2056415071715,717
-610.5653499150785,763
-607.9257863136347,772
-605.28695052537,758
-602.6488423727357,762
-600.0114616781036,697
-597.3748082637674,752
-594.7388819519412,773
-592.1036825647604,775
-589.4692099242818,785
-586.8354638524829,760
-584.2024441712624,821
-581.5701507024403,758
-578.9385832677575,747
-576.3077416888759,766
-573.6776257873787,748
-571.0482353847704,758
-568.4195703024757,749
-565.7916303618415,722
-563.164415384135,746
-560.5379251905453,766
-557.9121596021815,722
-555.2871184400748,777
-552.6628015251767,738
-550.0392086783606,748
-547.4163397204204,775
-544.794194472071,810
-542.1727727539491,781
-539.5520743866118,800
-536.9320991905377,820
-534.3128469861261,837
-531.6943175936979,850
-529.0765108334947,891
-526.4594265256793,884
-523.8430644903358,1055
-521.2274245474689,1075
-518.612506517005,1191
-515.9983102187913,1213
-513.3848354725959,1173
-510.77208209810846,1194
-508.16004991493924,1291
-505.5487387426199,1412
-502.9381484006032,1575
-500.3282787082628,1616
-497.71912948489364,1648
-495.1107005497117,1546
-492.5029917218539,1432
-489.8960028203786,1290
-487.28973366426493,1169
-484.68418407241325,1122
-482.07935386364494,1067
-479.47524285670266,998
-476.87185087025,996
-474.2691777228715,1038
-471.66722323307334,1003
-469.0659872192821,1015
-466.4654694998459,991
-463.86566989303384,999
-461.26658821703614,989
-458.66822428996414,964
-456.07057792985,1027
-453.4736489546475,988
-450.877437182231,963
-448.28194243039627,927
-445.68716451686,964
-443.09310325926003,950
-440.49975847515555,952
-437.9071299820263,944
-435.31521759727354,926
-432.72402113821954,929
-430.13354042210767,1009
-427.5437752661022,1031
-424.95472548728867,978
-422.36639090267386,949
-419.7787713291855,999
-417.1918665836721,1110
-414.60567648290385,1122
-412.0202008435715,1033
-409.4354394822874,1047
-406.8513922155845,1074
-404.26805885991723,1017
-401.685439231661,1130
-399.103533147112,1079
-396.522340422488,1037
-393.9418608739278,1041
-391.3620943174908,1068
-388.7830405691583,1045
-386.2046994448317,946
-383.6270707603344,967
-381.05015433141045,882
-378.473949973725,810
-375.8984575028645,814
-373.32367673433623,725
-370.74960748356875,674
-368.1762495659117,694
-365.60360279663576,638
-363.03166699093265,564
-360.4604419639154,537
-357.8899275306178,517
-355.32012350599507,544
-352.7510297049233,474
-350.1826459421999,482
-347.61497203254316,470
-345.04800779059235,472
-342.4817530309082,494
-339.91620756797226,540
-337.35137121618743,510
-334.7872437898774,477
-332.22382510328725,497
-329.66111497058273,490
-327.09911320585127,468
-324.53781962310075,523
-321.9772340362607,558
-319.4173562591816,508
-316.8581861056348,476
-314.2997233893127,486
-311.7419679238294,511
-309.1849195227194,491
-306.62857799943856,525
-304.0729431673641,554
-301.51801483979375,535
-298.963792829947,541
-296.41027695096386,554
-293.85746701590574,567
-291.3053628377552,585
-288.7539642294155,566
-286.2032710037115,561
-283.65328297338897,542
-281.1039999511146,586
-278.5554217494762,630
-276.007548180983,569
-273.4603790580651,554
-270.9139141930734,545
-268.3681533982807,557
-265.8230964858798,559
-263.27874326798565,587
-260.7350935566336,619
-258.1921471637804,581
-255.6499039013039,584
-253.10836358100266,599
-250.56752601459698,598
-248.02739101372765,609
-245.48795838995704,644
-242.94922795476816,632
-240.41119951956557,600
-237.8738728956746,693
-235.33724789434166,713
-232.80132432673452,642
-230.2661020039418,636
-227.73158073697357,696
-225.19776033676033,732
-222.66464061415422,741
-220.1322213799284,682
-217.60050244477725,646
-215.06948361931552,632
-212.53916471408013,729
-210.00954553952818,737
-207.48062590603843,667
-204.9524056239104,665
-202.4248845033651,782
-199.8980623545441,735
-197.37193898751036,678
-194.84651421224817,705
-192.32178783866232,717
-189.79775967657952,779
-187.27442953574644,873
-184.7517972258321,857
-182.2298625564256,847
-179.7086253370378,826
-177.18808537710026,743
-174.66824248596583,736
-172.14909647290835,786
-169.6306471471229,867
-167.11289431772548,849
-164.59583779375328,837
-162.07947738416453,842
-159.5638128978386,929
-157.04884414357605,1140
-154.53457093009854,1285
-152.02099306604828,1065
-149.50811035998936,844
-146.99592262040665,875
-144.48442965570587,938
-141.97363127421409,1001
-139.46352728417958,1152
-136.95411749377126,1262
-134.44540171107985,1355
-131.93737974411636,1004
-129.43005140081357,902
-126.92341648902493,1185
-124.41747481652521,1662
-121.91222619101006,2107
-119.40767042009657,2624
-116.90380731132257,3138
-114.40063667214702,2854
-111.8981583099503,2208
-109.3963720320337,1670
-106.89527764561933,1693
-104.39487495785067,1840
-101.89516377579241,2933
-99.39614390642998,3564
-96.89781515667039,4004
-94.40017733334128,3852
-91.90323024319173,3597
-89.40697369289148,3757
-86.91140748903172,4638
-84.41653143812482,5001
-81.92234534660395,4345
-79.42884902082358,4063
-76.93604226705907,6012
-74.4439248915071,10357
-71.95249670028534,13891
-69.46175749943245,16772
-66.97170709490854,16323
-64.48234529259423,14308
-61.99367189829195,11158
-59.50568671772464,8670
-57.01838955653636,6993
-54.53178022029283,5439
-52.045858514480074,4371
-49.560624244506016,4869
-47.07607721569923,5513
-44.59221723330904,6445
-42.10904410250669,7250
-39.62655762838392,8717
-37.14475761595372,10380
-34.66364387015028,10106
-32.18321619582866,10612
-29.70347439776515,11477
-27.224418280657005,11646
-24.74604764912317,12511
-22.26836230770266,16273
-19.7913620608565,28231
-17.315046712966478,50136
-14.83941606833514,65041
-12.36446993118659,65041
-9.89020810566592,65041
-7.416630395839093,65041
-4.94373660569363,65041
-2.471526539137585,65041
-6.821210263296962E-13,65041
2.47084320796705,65041
4.941003281093458,65041
7.410480415786196,65041
9.879274808531363,65041
12.347386655893956,65041
14.814816154518212,65041
17.28156350112681,65041
19.74762889252179,65041
22.21301252558385,65041
24.67771459727237,21343
27.141735304626195,4411
29.605074844762612,2613
32.06773341487792,1985
34.52971121224755,1939
36.99100843422559,2164
39.45162527824516,2230
41.91156194181792,1966
44.370818622535126,1734
46.82939551806646,1532
49.287292826160524,1605
51.74451074464503,1439
54.201049471426245,1518
56.65690920448981,1383
59.112090141899785,1222
61.56659248179983,1173
64.02041642241159,1041
66.4735621620365,997
68.92602989905402,1145
71.37781983192338,1109
73.82893215918205,1101
76.27936707944684,1074
78.72912479141326,1304
81.17820549385567,1309
83.62660938562783,1307
86.07433666566146,1193
88.5213875329681,996
90.96776218663751,996
93.41346082583925,1000
95.85848364982041,1096
98.30283085790859,1249
100.7465026495089,1264
103.18949922410604,1081
105.63182078126385,1006
108.07346752062438,1081
110.51443964190923,942
112.95473734491827,880
115.39436082953114,1002
117.83331029570547,1050
120.27158594347827,982
122.7091879729652,1073
125.1461165843615,1187
127.58237197794062,1062
130.01795435405518,1024
132.4528639131364,973
134.88710085569494,927
137.32066538231982,831
139.75355769367923,794
142.1857779905207,846
144.61732647366978,823
147.04820334403132,877
149.47840880258934,958
151.90794305040674,954
154.33680628862487,1096
156.76499871846443,1281
159.19252054122433,1467
161.61937195828352,1702
164.04555317109896,1766
166.47106438120693,1922
168.89590579022217,2210
171.320077599839,2320
173.7435800118302,2308
176.16641322804742,2486
178.58857745042144,2708
181.01007288096173,2813
183.43089972175687,2761
185.85105817497413,2751
188.27054844285988,2765
190.6893707277394,2725
193.10752523201643,2734
195.5250121581745,2901
197.9418317087751,2877
200.3579840864594,3029
202.7734694939469,2891
205.18828813403627,2960
207.6024402096051,3172
210.01592592360964,3185
212.42874547908548,3161
214.84089907914665,3212
217.2523869269868,3094
219.66320922587727,2953
222.0733661791695,2961
224.48285799029293,2978
226.8916848627572,2905
229.29984700014882,2985
231.7073446061355,3116
234.11417788446204,3039
236.520347038953,3158
238.92585227351185,3217
241.33069379212054,3291
243.73487179884035,3359
246.1383864978112,3336
248.541238093252,3343
250.9434267894609,3298
253.34495279081432,3395
255.74581630176783,3358
258.1460175268563,3370
260.54555667069314,3372
262.9444339379703,3416
265.3426495334594,3301
267.7402036620107,3230
270.1370965285529,3190
272.53332833809407,2999
274.9288992957214,2917
277.32380960660055,2911
279.718059475976,2842
282.1116491091717,2898
284.5045787115897,2874
286.89684848871195,2777
289.2884586460981,2850
291.67940938938807,2840
294.0697009242996,2877
296.4593334566299,2844
298.84830719225477,2851
301.23662233712923,2829
303.6242790972866,2709
306.01127767884,2827
308.39761828798066,2686
310.78330113097934,2715
313.16832641418534,2607
315.5526943440269,2541
317.9364051270112,2532
320.3194589697242,2605
322.70185607883093,2621
325.0835966610754,2500
327.4646809232805,2419
329.8451090723478,2424
332.2248813152577,2427
334.6039978590701,2462
336.9824589109231,2425
339.36026467803447,2304
341.7374153677,2365
344.113911187295,2402
346.48975234427337,2393
348.8649390461686,2308
351.2394715005918,2318
353.61334991523415,2376
355.9865744978655,2349
358.35914545633375,2372
360.73106299856715,2370
363.10232733257146,2314
365.47293866643247,2270
367.84289720831396,2311
370.2122031664593,2266
372.5808567491905,2260
374.9488581649083,2304
377.31620762209275,2242
379.6829053293021,2267
382.0489514951745,2164
384.4143463284262,2195
386.7790900378528,2159
389.14318283232853,2177
391.50662492080653,2272
393.86941651231916,2235
396.23155781597745,2337
398.5930490409713,2282
400.9538903965696,2217
403.3140820921202,2149
405.6736243370498,2172
408.03251734086336,2161
410.3907613131465,2161
412.74835646356166,2204
415.10530300185144,2145
417.4616011378372,2171
419.81725108141893,2189
422.1722530425758,2193
424.5266072313656,2143
426.880313857925,2153
429.2333731324701,2173
431.58578526529516,2191
433.9375504667738,2158
436.2886689473588,2097
438.63914091758113,2058
440.9889665880513,2127
443.33814616945835,2112
445.68667987257015,2101
448.03456790823395,2109
450.3818104873759,2084
452.72840782100013,2057
455.07436012019105,2065
457.41966759611057,2120
459.7643304600007,2074
462.10834892318155,2088
464.4517231970525,2163
466.79445349309174,2104
469.1365400228566,2106
471.4779829979826,2099
473.81878263018564,2154
476.15893913125876,2159
478.4984527130747,2209
480.8373235875855,2259
483.17555196682144,2260
485.5131380628919,2284
487.8500820879857,2396
490.1863842543697,2480
492.52204477439034,2755
494.8570638604725,2948
497.1914417251204,3194
499.52517858091653,3619
501.85827464052306,3791
504.19073011668036,3602
506.5225452222086,3685
508.85372017000566,3556
511.18425517304956,3485
513.514150444396,3570
515.8434061971808,4198
518.1720226446176,5376
520.4999999999999,5527
522.8273384766991,5233
525.1540382881666,4871
527.480099647932,4228
529.8055227696037,3491
532.1303078668694,2829
534.454455153496,2509
536.777964843328,2346
539.1008371502907,2265
541.4230722883866,2263
543.744670471698,2243
546.0656319143858,2186
548.3859568306899,2181
550.7056454349294,2155
553.0246979415016,2128
555.3431145648834,2144
557.6608955196306,2173
559.978041020377,2096
562.2945512818363,2105
564.6104265188006,2200
566.9256669461412,2237
569.2402727788082,2141
571.5542442318302,2147
573.8675815203156,2173
576.1802848594508,2189
578.4923544645015,2286
580.8037905508126,2177
583.114593333807,2167
585.4247630289875,2205
587.7342998519354,2155
590.0432040183106,2229
592.3514757438526,2239
594.6591152443794,2202
596.9661227357875,2138
599.2724984340531,2173
601.578242555231,2282
603.8833553154542,2280
606.1878369309362,2294
608.4916876179676,2212
610.7949075929192,2183
613.0974970722403,2164
615.3994562724587,2178
617.7007854101818,2233
620.0014847020951,2256
622.3015543649641,2173
624.6009946156324,2228
626.8998056710224,2194
629.1979877481361,2209
631.4955410640538,2201
633.7924658359349,2247
636.0887622810175,2204
638.3844306166192,2158
640.6794710601358,2186
642.9738838290426,2191
645.2676691408932,2222
647.5608272133207,2237
649.853358264037,2279
652.1452625108324,2194
654.4365401715764,2236
656.7271914642178,2297
659.0172166067838,2268
661.3066158173809,2265
663.5953893141935,2307
665.8835373154867,2229
668.1710600396028,2282
670.4579577049639,2288
672.7442305300709,2309
675.0298787335033,2249
677.3149025339197,2232
679.599302150058,2258
681.8830778007342,2222
684.1662297048437,2224
686.4487580813608,2216
688.7306631493387,2220
691.0119451279091,2186
693.2926042362834,2211
695.5726406937516,2285
697.8520547196814,2251
700.1308465335215,2144
702.4090163547982,2190
704.6865644031171,2163
706.9634908981619,2176
709.2397960596965,2119
711.5154801075631,2223
713.7905432616823,2188
716.0649857420548,2143
718.3388077687592,2181
720.612009561953,2213
722.8845913418733,2136
725.1565533288352,2160
727.427895743234,2093
729.6986188055427,2278
731.9687227363137,2242
734.238207756178,2205
736.5070740858458,2207
738.7753219461066,2193
741.0429515578281,2228
743.3099631419569,2263
745.5763569195191,2193
747.8421331116193,2227
750.1072919394409,2164
752.3718336242467,2194
754.6357583873777,2179
756.8990664502545,2255
759.1617580343765,2184
761.423833361321,2179
763.6852926527457,2233
765.9461361303862,2200
768.206364016058,2247
770.4659765316536,2245
772.7249738991469,2216
774.9833563405886,2254
777.2411240781092,2179
779.4982773339183,2132
781.7548163303044,2210
784.010741289634,2198
786.2660524343538,2224
788.5207499869881,2183
790.7748341701416,2233
793.0283052064964,2263
795.2811633188143,2218
797.5334087299362,2269
799.7850416627813,2201
802.0360623403484,2173
804.2864709857143,2166
806.5362678220353,2194
808.7854530725468,2281
811.0340269605625,2216
813.2819897094754,2207
815.5293415427581,2297
817.77608268396,2314
820.0222133567116,2217
822.2677337847211,2222
824.5126441917765,2246
826.7569448017433,2244
829.0006358385675,2250
831.2437175262731,2272
833.4861900889629,2339
835.7280537508192,2203
837.9693087361026,2174
840.2099552691533,2281
842.4499935743896,2208
844.689423876309,2277
846.9282463994886,2252
849.1664613685833,2283
851.4040690083276,2264
853.6410695435349,2269
855.877463199097,2286
858.1132501999847,2209
860.3484307712487,2255
862.5830051380175,2341
864.8169735254988,2308
867.0503361589791,2211
869.2830932638243,2247
871.5152450654786,2280
873.7467917894654,2310
875.9777336613873,2307
878.2080709069252,2293
880.4378037518389,2427
882.666932421968,2330
884.8954571432301,2349
887.1233781416219,2392
889.3506956432192,2399
891.5774098741766,2355
893.803521060728,2423
896.0290294291852,2441
898.2539352059397,2354
900.4782386174619,2295
902.7019398903011,2345
904.925039251085,2292
907.147536926521,2297
909.3694331433943,2296
911.59072812857,2381
913.8114221089921,2285
916.0315153116827,2267
918.2510079637437,2329
920.4699002923547,2300
922.6881925247761,2261
924.905884888345,2328
927.1229776104793,2285
929.3394709186747,2238
931.555365040506,2285
933.7706602036275,2254
935.9853566357709,2275
938.1994545647489,2286
940.4129542184515,2365
942.6258558248488,2199
944.8381596119883,2211
947.0498658079974,2192
949.2609746410825,2248
951.4714863395287,2124
953.6814011316998,2308
955.8907192460387,2205
958.0994409110671,2213
960.3075663553858,2147
962.5150958076741,2294
964.7220294966913,2190
966.928367651274,2178
969.1341105003388,2198
971.3392582728806,2200
973.5438111979742,2177
975.747769504772,2213
977.9511334225061,2147
980.153903180487,2105
982.3560790081052,2114
984.5576611348289,2073
986.7586497902058,2025
988.9590452038618,2141
991.158847605503,2088
993.3580572249133,2020
995.5566742919558,2002
997.7546990365728,1990
999.952131688785,2008
1002.1489724786926,1992
1004.3452216364743,2008
1006.5408793923874,1958
1008.7359459767691,1941
1010.9304216200343,1936
1013.1243065526781,1876
1015.3176010052733,1885
1017.510305208472,1889
1019.7024193930064,1891
1021.8939437896848,1860
1024.0848786293977,1848
1026.2752241431122,1806
1028.4649805618747,1862
1030.6541481168115,1894
1032.842727039127,1848
1035.0307175601051,1858
1037.2181199111074,1818
1039.4049343235752,1833
1041.591161029029,1832
1043.7768002590683,1810
1045.9618522453698,1823
1048.1463172196918,1893
1050.3301954138697,1853
1052.513487059818,1865
1054.69619238953,1823
1056.8783116350783,1780
1059.0598450286152,1752
1061.2407928023704,1706
1063.4211551886528,1766
1065.6009324198508,1795
1067.780124728432,1771
1069.9587323469414,1845
1072.1367555080046,1787
1074.314194444325,1808
1076.4910493886855,1779
1078.667320573947,1767
1080.843008233051,1807
1083.0181125990161,1747
1085.1926339049414,1771
1087.3665723840027,1741
1089.5399282694575,1752
1091.7127017946405,1786
1093.8848931929647,1762
1096.0565026979243,1756
1098.2275305430899,1731
1100.3979769621128,1735
1102.567842188722,1724
1104.737126456726,1726
1106.9058300000124,1741
1109.0739530525475,1766
1111.2414958483764,1696
1113.4084586216231,1689
1115.5748416064907,1671
1117.7406450372605,1687
1119.9058691482942,1676
1122.0705141740304,1667
1124.2345803489884,1728
1126.3980679077658,1717
1128.5609770850388,1707
1130.7233081155623,1693
1132.8850612341707,1679
1135.0462366757774,1660
1137.2068346753745,1642
1139.3668554680326,1717
1141.526299288901,1647
1143.68516637321,1579
1145.8434569562655,1663
1148.001171273455,1653
1150.158309560244,1652
1152.3148720521767,1735
1154.470858984876,1652
1156.626270594044,1603
1158.7811071154629,1645
1160.9353687849912,1721
1163.089055838569,1641
1165.242168512213,1595
1167.3947070420209,1624
1169.5466716641677,1644
1171.6980626149075,1620
1173.8488801305748,1617
1175.9991244475814,1635
1178.1487958024186,1647
1180.2978944316555,1619
1182.4464205719428,1665
1184.5943744600072,1633
1186.7417563326567,1659
1188.8885664267755,1615
1191.0348049793297,1654
1193.1804722273619,1573
1195.325568407995,1663
1197.4700937584303,1666
1199.614048515948,1620
1201.7574329179074,1700
1203.900247201746,1665
1206.042491604982,1636
1208.1841663652099,1728
1210.3252717201053,1599
1212.465807907422,1679
1214.6057751649923,1692
1216.7451737307279,1704
1218.8840038426192,1696
1221.0222657387353,1694
1223.1599596572241,1657
1225.2970858363137,1613
1227.4336445143094,1679
1229.5696359295966,1662
1231.705060320639,1692
1233.8399179259786,1723
1235.9742089842384,1708
1238.107933734118,1688
1240.2410924143974,1697
1242.373685263935,1688
1244.5057125216676,1709
1246.6371744266116,1697
1248.7680712178621,1690
1250.898403134593,1664
1253.028170416058,1753
1255.1573733015875,1747
1257.2860120305932,1717
1259.4140868425648,1718
1261.54159797707,1756
1263.6685456737569,1715
1265.7949301723515,1744
1267.9207517126597,1758
1270.046010534565,1773
1272.1707068780306,1828
1274.2948409830983,1746
1276.4184130898889,1731
1278.541423438603,1770
1280.6638722695184,1770
1282.785759822993,1744
1284.9070863394636,1794
1287.0278520594447,1816
1289.1480572235314,1769
1291.2677020723963,1772
1293.3867868467923,1795
1295.5053117875495,1754
1297.623277135579,1854
1299.740683131868,1839
1301.8575300174857,1787
1303.973818033578,1831
1306.0895474213703,1766
1308.2047184221678,1788
1310.3193312773528,1823
1312.4333862283888,1860
1314.5468835168163,1810
1316.659823384255,1837
1318.7722060724045,1824
1320.8840318230418,1796
1322.9953008780249,1818
1325.1060134792888,1828
1327.2161698688478,1858
1329.3257702887959,1907
1331.4348149813054,1878
1333.5433041886276,1867
1335.6512381530933,1891
1337.7586171171101,1820
1339.8654413231675,1793
1341.9717110138317,1851
1344.0774264317488,1843
1346.1825878196432,1835
1348.2871954203192,1828
1350.3912494766587,1840
1352.4947502316231,1845
1354.5976979282532,1807
1356.7000928096686,1835
1358.8019351190665,1855
1360.9032250997243,1842
1363.0039629949988,1851
1365.1041490483235,1852
1367.2037835032133,1762
1369.3028666032606,1842
1371.401398592137,1811
1373.4993797135926,1843
1375.5968102114575,1792
1377.6936903296396,1857
1379.7900203121262,1876
1381.8858004029835,1849
1383.9810308463561,1819
1386.075711886469,1877
1388.1698437676241,1846
1390.2634267342032,1813
1392.356461030667,1901
1394.4489469015557,1868
1396.5408845914872,1954
1398.6322743451592,1947
1400.7231164073469,1940
1402.813411022907,1943
1404.903158436773,1910
1406.9923588939578,1992
1409.0810126395531,2035
1411.1691199187303,1942
1413.2566809767386,2032
1415.343696058907,1997
1417.4301654106425,2008
1419.5160892774315,2042
1421.6014679048399,2058
1423.6863015385125,2053
1425.7705904241707,2121
1427.8543348076178,2038
1429.9375349347342,2132
1432.0201910514802,2095
1434.102303403894,2070
1436.1838722380944,2167
1438.2648978002767,2263
1440.3453803367174,2198
1442.4253200937692,2224
1444.5047173178677,2206
1446.5835722555234,2217
1448.6618851533285,2264
1450.739656257952,2216
1452.8168858161434,2380
1454.8935740747306,2420
1456.96972128062,2436
1459.045327680797,2443
1461.120393522327,2508
1463.1949190523528,2574
1465.2689045180973,2544
1467.3423501668608,2602
1469.415256246024,2708
1471.4876230030463,2684
1473.559450685465,2712
1475.6307395408976,2785
1477.7014898170391,2808
1479.771701761665,2809
1481.8413756226287,2871
1483.9105116478618,2979
1485.9791100853772,3047
1488.0471711832643,3005
1490.1146951896926,3067
1492.1816823529098,3147
1494.2481329212433,3100
1496.3140471430984,3188
1498.3794252669609,3237
1500.4442675413939,3299
1502.5085742150404,3192
1504.572345536622,3315
1506.6355817549388,3293
1508.6982831188702,3248
1510.7604498773744,3331
1512.8220822794883,3424
1514.8831805743293,3325
1516.9437450110909,3448
1519.003775839048,3515
1521.0632733075522,3542
1523.1222376660367,3524
1525.1806691640113,3547
1527.2385680510652,3535
1529.2959345768668,3656
1531.3527689911643,3676
1533.4090715437833,3694
1535.4648424846291,3740
1537.5200820636855,3846
1539.5747905310159,3879
1541.6289681367616,3874
1543.6826151311434,3806
1545.7357317644614,4125
1547.7883182870937,3985
1549.8403749494987,4104
1551.8919020022113,4204
1553.9428996958477,4160
1555.9933682811015,4402
1558.0433080087469,4311
1560.0927191296346,4352
1562.1416018946961,4478
1564.1899565549415,4479
1566.2377833614592,4471
1568.2850825654164,4364
1570.3318544180606,4122
1572.3780991707158,4072
1574.423817074788,3849
1576.4690083817595,3767
1578.5136733431923,3610
1580.5578122107272,3434
1582.601425236085,3363
1584.6445126710646,3172
1586.6870747675434,3083
1588.7291117774776,2887
1590.7706239529034,2825
1592.8116115459347,2720
1594.8520748087658,2613
1596.8920139936686,2506
1598.9314293529933,2476
1600.9703211391711,2405
1603.008689604711,2338
1605.0465350022005,2277
1607.0838575843068,2227
1609.1206576037753,2184
1611.1569353134305,2132
1613.1926909661765,2126
1615.2279248149953,2090
1617.2626371129481,2126
1619.2968281131757,2064
1621.3304980688963,1951
1623.3636472334088,1965
1625.39627586009,1951
1627.428384202396,1957
1629.459972513861,1917
1631.4910410480993,1893
1633.5215900588028,1887
1635.551619799744,1881
1637.5811305247717,1979
1639.6101224878166,1944
1641.6385959428862,1908
1643.6665511440683,1884
1645.693988345528,1856
1647.7209078015112,1826
1649.7473097663405,1852
1651.7731944944203,1791
1653.7985622402307,1815
1655.823413258333,1870
1657.847747803366,1820
1659.8715661300494,1768
1661.8948684931793,1829
1663.9176551476316,1861
1665.9399263483624,1812
1667.9616823504057,1843
1669.982923408873,1805
1672.0036497789574,1776
1674.0238617159293,1757
1676.043559475138,1843
1678.0627433120121,1787
1680.081413482059,1816
1682.0995702408654,1748
1684.117213844096,1842
1686.134344547495,1759
1688.1509626068864,1764
1690.1670682781705,1821
1692.182661817329,1794
1694.1977434804217,1772
1696.2123135235875,1751
1698.226372203043,1741
1700.2399197750851,1775
1702.2529564960905,1779
1704.2654826225112,1829
1706.277498410882,1862
1708.2890041178139,1731
1710.2999999999988,1816
1712.3104863142066,1829
1714.3204633172854,1741
1716.329931266163,1731
1718.3388904178469,1782
1720.3473410294214,1779
1722.3552833580516,1832
1724.3627176609807,1771
1726.3696441955308,1719
1728.3760632191033,1816
1730.3819749891782,1661
1732.3873797633146,1721
1734.3922777991502,1665
1736.3966693544012,1648
1738.4005546868639,1712
1740.4039340544127,1652
1742.406807715001,1658
1744.4091759266616,1674
1746.4110389475054,1679
1748.4123970357223,1695
1750.413250449582,1658
1752.4135994474318,1697
1754.4134442876993,1730
1756.4127852288902,1662
1758.4116225295893,1660
1760.4099564484595,1648
1762.407787244244,1693
1764.405115175764,1662
1766.4019405019203,1700
1768.3982634816916,1639
1770.3940843741357,1659
1772.3894034383907,1657
1774.3842209336717,1662
1776.378537119274,1662
1778.372352254571,1667
1780.3656665990156,1669
1782.3584804121397,1639
1784.3507939535534,1647
1786.3426074829463,1658
1788.3339212600863,1641
1790.3247355448211,1635
1792.3150505970766,1649
1794.3048666768573,1620
1796.2941840442477,1680
1798.2830029594106,1600
1800.2713236825884,1659
1802.2591464741004,1686
1804.2464715943465,1622
1806.2332993038058,1711
1808.2196298630352,1604
1810.2054635326708,1644
1812.190800573428,1608
1814.175641246101,1594
1816.1599858115628,1659
1818.1438345307652,1617
1820.127187664738,1684
1822.1100454745924,1635
1824.092408221516,1631
1826.0742761667766,1599
1828.055649571721,1612
1830.0365286977735,1632
1832.0169138064398,1590
1833.9968051593014,1582
1835.9762030180214,1648
1837.9551076443408,1670
1839.9335193000788,1643
1841.9114382471344,1581
1843.888864747485,1598
1845.8657990631878,1612
1847.842241456378,1601
1849.8181921892697,1557
1851.7936515241558,1594
1853.7686197234098,1543
1855.7430970494815,1636
1857.7170837649014,1611
1859.6905801322787,1641
1861.6635864143004,1541
1863.6361028737338,1553
1865.608129773424,1592
1867.5796673762961,1583
1869.5507159453537,1692
1871.521275743678,1644
1873.4913470344313,1610
1875.4609300808534,1615
1877.4300251462632,1638
1879.3986324940588,1612
1881.366752387717,1628
1883.3343850907936,1618
1885.3015308669228,1641
1887.268189979819,1599
1889.2343626932739,1634
1891.2000492711595,1625
1893.1652499774254,1646
1895.1299650761011,1647
1897.0941948312952,1645
1899.0579395071945,1596
1901.0211993680641,1625
1902.98397467825,1606
1904.9462657021745,1617
1906.9080727043415,1688
1908.869395949332,1521
1910.8302357018065,1597
1912.790592226504,1573
1914.7504657882428,1643
1916.7098566519212,1573
1918.6687650825133,1599
1920.6271913450764,1632
1922.5851357047422,1597
1924.5425984267245,1678
1926.499579776314,1535
1928.4560800188833,1657
1930.4120994198802,1680
1932.367638244833,1632
1934.32269675935,1615
1936.2772752291175,1564
1938.231373919899,1587
1940.1849930975404,1602
1942.1381330279637,1581
1944.0907939771696,1643
1946.0429762112412,1557
1947.9946799963363,1609
1949.9459055986945,1568
1951.896653284633,1579
1953.8469233205478,1600
1955.7967159729142,1623
1957.7460315082863,1529
1959.6948701932974,1525
1961.6432322946594,1495
1963.5911180791632,1586
1965.5385278136787,1566
1967.4854617651545,1613
1969.4319202006182,1540
1971.377903387176,1607
1973.3234115920136,1586
1975.268445082395,1564
1977.2130041256642,1564
1979.1570889892423,1554
1981.1006999406304,1591
1983.04383724741,1546
1984.986501177238,1565
1986.928691997853,1550
1988.8704099770712,1628
1990.811655382789,1551
1992.7524284829801,1561
1994.692729545698,1525
1996.6325588390755,1502
1998.5719166313224,1585
2000.5108031907307,1600
2002.4492187856677,1512
2004.387163684583,1488
2006.3246381560011,1589
2008.2616424685298,1536
2010.1981768908527,1515
2012.1342416917332,1466
2014.069837140014,1538
2016.0049635046162,1589
2017.9396210545406,1571
2019.8738100588666,1560
2021.8075307867502,1580
2023.740783507431,1594
2025.6735684902228,1508
2027.6058860045214,1566
2029.5377363198004,1555
2031.4691197056118,1558
2033.4000364315875,1591
2035.3304867674374,1564
2037.260470982952,1537
2039.189989347998,1533
2041.1190421325232,1540
2043.047629606554,1458
2044.9757520401945,1464
2046.9034097036288,1580
2048.8306028671195,1449
2050.7573318010086,1486
2052.683596775716,1469
2054.609398061742,1576
2056.5347359296647,1524
2058.4596106501403,1554
2060.384022493906,1458
2062.3079717317764,1462
2064.231458634646,1528
2066.1544834734873,1461
2068.077046519352,1568
2069.99914804337,1451
2071.9207883167524,1548
2073.8419676107865,1519
2075.7626861968406,1546
2077.6829443463607,1524
2079.6027423308715,1467
2081.522080421977,1559
2083.440958891362,1533
2085.359378010786,1564
2087.2773380520907,1487
2089.194839287196,1546
2091.111881988101,1503
2093.0284664268825,1485
2094.9445928756973,1585
2096.86026160678,1496
2098.775472892446,1552
2100.690227005088,1533
2102.604524217178,1550
2104.5183648012676,1566
2106.431749029985,1543
2108.34467717604,1532
2110.2571495122206,1510
2112.169166311393,1541
2114.080727846503,1544
2115.9918343905747,1540
2117.902486216711,1525
2119.8126835980956,1534
2121.722426807987,1574
2123.6317161197285,1550
2125.5405518067364,1472
2127.448934142509,1553
2129.356863400624,1591
2131.264339854737,1602
2133.1713637785815,1549
2135.077935445972,1590
2136.9840551308002,1584
2138.889723107037,1532
2140.7949396487334,1538
2142.699705030018,1571
2144.6040195250994,1610
2146.507883408264,1625
2148.4112969538774,1564
2150.3142604363848,1599
2152.2167741303097,1543
2154.1188383102535,1562
2156.0204532508997,1557
2157.9216192270064,1532
2159.822336513414,1605
2161.7226053850413,1622
2163.622426116884,1552
2165.5217989840185,1645
2167.4207242616,1616
2169.319202224862,1561
2171.2172331491165,1619
2173.1148173097563,1611
2175.0119549822507,1625
2176.90864644215,1674
2178.8048919650823,1660
2180.7006918267534,1643
2182.596046302952,1595
2184.4909556695407,1573
2186.3854202024645,1593
2188.279440177746,1643
2190.173015871487,1667
2192.066147559868,1581
2193.958835519149,1648
2195.851080025667,1585
2197.7428813558417,1632
2199.6342397861667,1658
2201.5251555932186,1669
2203.415629053651,1648
2205.3056604441986,1679
2207.19525004167,1640
2209.084398122958,1643
2210.9731049650327,1690
2212.861370844941,1692
2214.749196039812,1670
2216.636580826851,1716
2218.523525483344,1695
2220.410030286655,1705
2222.296095514226,1658
2224.1817214435805,1644
2226.066908352319,1728
2227.951656518121,1670
2229.835966218746,1654
2231.71983773203,1684
2233.6032713358913,1719
2235.486267308324,1644
2237.3688259274036,1646
2239.2509474712824,1726
2241.132632218193,1664
2243.013880446447,1742
2244.8946924344323,1689
2246.7750684606203,1692
2248.6550088035574,1675
2250.534513741871,1662
2252.413583554265,1723
2254.292218519526,1662
2256.170418916517,1662
2258.0481850241786,1602
2259.925517121534,1574
2261.8024154876825,1650
2263.678880401803,1651
2265.5549121431536,1645
2267.430510991071,1699
2269.305677224971,1616
2271.180411124348,1628
2273.0547129687766,1650
2274.9285830379076,1583
2276.8020216114737,1650
2278.6750289692845,1683
2280.5476053912294,1670
2282.4197511572766,1622
2284.2914665474727,1668
2286.162751841943,1758
2288.0336073208937,1685
2289.904033264608,1633
2291.774029953448,1671
2293.6435976678554,1656
2295.5127366883517,1599
2297.381447295534,1644
2299.2497297700825,1586
2301.1175843927526,1472
2302.9850114443825,1521
2304.852011205885,1519
2306.7185839582553,1499
2308.5847299825664,1484
2310.4504495599676,1475
2312.3157429716925,1443
2314.1806104990483,1455
2316.0450524234247,1431
2317.9090690262888,1438
2319.772660589186,1358
2321.635827393742,1382
2323.498569721661,1435
2325.3608878547248,1404
2327.2227820747967,1431
2329.0842526638157,1410
2330.945299903803,1411
2332.805924076857,1380
2334.6661254651535,1400
2336.525904350951,1469
2338.3852610165827,1432
2340.244195744464,1429
2342.102708817088,1458
2343.9608005170253,1396
2345.8184711269287,1391
2347.675720929526,1430
2349.532550207628,1449
2351.38895924412,1380
2353.24494832197,1382
2355.100517724223,1386
2356.955667734004,1390
2358.810398634514,1411
2360.664710709037,1404
2362.5186042409337,1431
2364.3720795136437,1387
2366.225136810686,1453
2368.0777764156583,1435
2369.929998612237,1465
2371.7818036841777,1486
2373.633191915315,1426
2375.484163589562,1438
2377.3347189909114,1398
2379.184858403434,1471
2381.03458211128,1485
2382.8838903986775,1471
2384.732783549936,1416
2386.5812618494406,1453
2388.4293255816588,1506
2390.2769750311327,1456
2392.1242104824883,1420
2393.971032220427,1478
2395.8174405297295,1475
2397.6634356952563,1481
2399.509018001947,1482
2401.3541877348193,1397
2403.1989451789705,1447
2405.043290619576,1472
2406.8872243418905,1438
2408.730746631247,1469
2410.5738577730594,1423
2412.4165580528183,1479
2414.258847756095,1479
2416.100727168537,1517
2417.9421965758734,1468
2419.783256263912,1416
2421.623906518538,1452
2423.4641476257157,1394
2425.303979871491,1424
2427.143403541984,1460
2428.9824189233977,1485
2430.821026302012,1536
2432.6592259641866,1449
2434.497018196361,1462
2436.33440328505,1465
2438.171381516851,1507
2440.00795317844,1446
2441.844118556569,1465
2443.6798779380724,1514
2445.5152316098606,1507
2447.3501798589255,1520
2449.1847229723357,1491
2451.0188612372403,1534
2452.8525949408663,1468
2454.6859243705203,1459
2456.518849813587,1493
2458.3513715575314,1486
2460.183489889895,1436
2462.015205098301,1529
2463.8465174704493,1514
2465.67742729412,1493
2467.5079348571717,1506
2469.338040447542,1496
2471.1677443532476,1530
2472.9970468623833,1492
2474.825948263123,1504
2476.6544488437207,1549
2478.482548892508,1470
2480.310248697896,1499
2482.137548548374,1437
2483.9644487325118,1476
2485.790949538956,1461
2487.617051256433,1489
2489.44275417375,1516
2491.26805857979,1543
2493.0929647635157,1459
2494.917473013971,1525
2496.741583620276,1543
2498.5652968716304,1534
2500.3886130573137,1542
2502.2115324666834,1575
2504.0340553891765,1551
2505.856182114308,1565
2507.6779129316733,1490
2509.499248130945,1551
2511.3201880018764,1464
2513.140732834298,1577
2514.9608829181198,1507
2516.780638543331,1533
2518.6,1586
2520.418967578273,1560
2522.237541568376,1528
2524.0557222606144,1516
2525.8735099453706,1604
2527.6909049131086,1611
2529.507907454368,1586
2531.32451785977,1605
2533.140736420014,1599
2534.9565634258774,1646
2536.771999168218,1632
2538.5870439379714,1597
2540.4016980261526,1676
2542.2159617238544,1629
2544.02983532225,1710
2545.8433191125914,1700
2547.656413386209,1649
2549.4691184345115,1677
2551.2814345489874,1684
2553.093362021204,1730
2554.904901142808,1792
2556.716052205523,1713
2558.526815501153,1765
2560.3371913215824,1722
2562.147179958771,1734
2563.956781704761,1754
2565.7659968516705,1807
2567.5748256916986,1761
2569.3832685171224,1803
2571.1913256202984,1797
2572.9989972936614,1773
2574.806283829725,1785
2576.613185521084,1769
2578.4197026604074,1836
2580.2258355404483,1869
2582.031584454035,1919
2583.836949694077,1873
2585.6419315535613,1836
2587.4465303255533,1848
2589.2507463032002,1841
2591.0545797797245,1888
2592.8580310484303,1913
2594.6611004026995,1851
2596.463788135992,1898
2598.266094541849,1945
2600.0680199138874,1930
2601.869564545807,1906
2603.670728731383,1930
2605.4715127644704,1868
2607.2719169390048,1881
2609.071941548998,1949
2610.8715868885433,1918
2612.670853251811,1963
2614.469740933052,1935
2616.268250226594,1928
2618.0663814268455,1854
2619.864134828292,1876
2621.6615107255006,1895
2623.458509413115,1795
2625.2551311858597,1795
2627.0513763385347,1859
2628.8472451660223,1817
2630.6427379632833,1845
2632.4378550253564,1808
2634.232596647359,1842
2636.026963124488,1793
2637.8209547520187,1800
2639.6145718253065,1786
2641.407814639785,1750
2643.200683490966,1756
2644.9931786744414,1672
2646.7853004858807,1706
2648.577049221034,1693
2650.3684251757277,1684
2652.1594286458712,1720
2653.9500599274484,1706
2655.740319316525,1639
2657.5302071092437,1631
2659.3197236018286,1606
2661.10886909058,1664
2662.8976438718782,1638
2664.686048242183,1607
2666.4740824980327,1624
2668.2617469360443,1560
2670.0490418529134,1610
2671.8359675454153,1602
2673.622524310403,1596
2675.408712444811,1583
2677.1945322456495,1542
2678.979984010009,1508
2680.76506803506,1570
2682.5497846180497,1494
2684.334134056306,1472
2686.1181166472343,1509
2687.9017326883213,1547
2689.6849824771293,1485
2691.4678663113013,1574
2693.2503844885596,1513
2695.032537306705,1491
2696.8143250636167,1525
2698.5957480572542,1494
2700.3768065856534,1522
2702.1575009469316,1538
2703.937831439283,1504
2705.717798360982,1513
2707.4974020103837,1464
2709.276642685917,1463
2711.055520686095,1460
2712.834036309506,1454
2714.612189854819,1482
2716.389981620782,1442
2718.1674119062204,1485
2719.944481010041,1441
2721.721189231226,1389
2723.4975368688415,1496
2725.273524222027,1424
2727.0491515900053,1388
2728.824419272075,1463
2730.5993275676146,1486
2732.3738767760838,1398
2734.148067197016,1393
2735.921899130031,1407
2737.6953728748194,1452
2739.468488731156,1460
2741.2412469988926,1399
2743.0136479779617,1424
2744.785691968372,1429
2746.5573792702116,1425
2748.3287101836504,1437
2750.099685008934,1376
2751.870304046388,1417
2753.640567596418,1398
2755.4104759595057,1408
2757.1800294362156,1387
2758.949228327187,1357
2760.7180729331412,1392
2762.486563554877,1368
2764.254700493272,1374
2766.022484049284,1391
2767.789914523947,1340
2769.5569922183786,1383
2771.3237174337705,1358
2773.090090471394,1345
2774.8561116326036,1372
2776.6217812188274,1394
2778.3870995315756,1390
2780.1520668724356,1482
2781.9166835430747,1418
2783.6809498452394,1423
2785.444866080754,1411
2787.2084325515225,1463
2788.971649559527,1371
2790.73451740683,1372
2792.4970363955713,1357
2794.2592068279705,1338
2796.0210290063264,1406
2797.7825032330147,1403
2799.543629810493,1390
2801.304409041296,1380
2803.0648412280366,1396
2804.8249266734088,1401
2806.5846656801846,1441
2808.344058551212,1396
2810.1031055894246,1423
2811.8618070978273,1391
2813.6201633795085,1440
2815.378174737636,1422
2817.1358414754536,1382
2818.893163896285,1390
2820.6501423035334,1360
2822.4067770006814,1373
2824.1630682912883,1331
2825.9190164789957,1433
2827.6746218675207,1354
2829.429884760661,1400
2831.184805462294,1423
2832.9393842763743,1358
2834.693621506936,1440
2836.4475174580916,1435
2838.201072434034,1411
2839.954286739034,1395
2841.707160677441,1421
2843.459694553685,1464
2845.2118886722724,1407
2846.96374333779,1368
2848.7152588549034,1400
2850.4664355283567,1437
2852.217273662973,1346
2853.9677735636546,1469
2855.7179355353833,1373
2857.4677598832186,1396
2859.217246912299,1382
2860.9663969278427,1413
2862.715210235146,1387
2864.4636871395846,1406
2866.211827946614,1402
2867.9596329617652,1334
2869.7071024906536,1317
2871.4542368389684,1451
2873.20103631248,1349
2874.947501217038,1379
2876.6936318585695,1404
2878.4394285430812,1424
2880.1848915766604,1373
2881.9300212654707,1397
2883.6748179157553,1418
2885.4192818338374,1368
2887.1634133261173,1406
2888.907212699077,1357
2890.6506802592744,1430
2892.393816313348,1410
2894.1366211680142,1429
2895.8790951300693,1391
2897.621238506388,1433
2899.363051603925,1394
2901.1045347297118,1368
2902.8456881908596,1398
2904.58651229456,1373
2906.327007348081,1416
2908.067173658772,1365
2909.8070115340597,1405
2911.5465212814497,1388
2913.285703208527,1415
2915.0245576229563,1372
2916.7630848324807,1365
2918.5012851449196,1382
2920.2391588681758,1378
2921.976706310227,1478
2923.7139277791334,1449
2925.4508235830313,1352
2927.187394030137,1417
2928.923639428745,1396
2930.6595600872306,1397
2932.395156314046,1449
2934.1304284177218,1367
2935.8653767068713,1377
2937.6000014901815,1437
2939.3343030764227,1367
2941.068281774442,1435
2942.8019378931644,1362
2944.5352717415976,1366
2946.2682836288236,1413
2948.0009738640065,1390
2949.7333427563885,1396
2951.465390615289,1406
2953.1971177501086,1421
2954.9285244703265,1400
2956.6596110855,1368
2958.3903779052657,1436
2960.1208252393385,1397
2961.8509533975125,1363
2963.5807626896617,1403
2965.3102534257378,1407
2967.0394259157715,1329
2968.768280469873,1363
2970.496817398232,1399
2972.2250370111146,1381
2973.952939618869,1399
2975.6805255319196,1413
2977.4077950607707,1394
2979.134748516006,1382
2980.861386208289,1439
2982.587708448359,1408
2984.313715547037,1417
2986.039407815222,1399
2987.764785563891,1397
2989.489849104102,1460
2991.2145987469908,1400
2992.9390348037705,1358
2994.6631575857346,1382
2996.3869674042576,1333
2998.1104645707887,1345
2999.83364939686,1341
3001.5565221940783,1402
3003.2790832741334,1386
3005.0013329487924,1381
3006.7232715298996,1348
3008.4448993293804,1381
3010.166216659239,1376
3011.887223831558,1424
3013.607921158498,1347
3015.3283089522993,1371
3017.0483875252826,1391
3018.7681571898443,1385
3020.4876182584626,1369
3022.2067710436927,1402
3023.9256158581707,1358
3025.644153014609,1380
3027.362382825801,1327
3029.0803056046193,1361
3030.797921664012,1378
3032.5152313170106,1394
3034.2322348767225,1349
3035.9489326563353,1423
3037.665324969115,1343
3039.3814121284063,1409
3041.097194447633,1394
3042.812672240299,1407
3044.5278458199855,1378
3046.2427155003525,1403
3047.9572815951406,1388
3049.671544418167,1355
3051.38550428333,1375
3053.0991615046073,1377
3054.812516396051,1411
3056.5255692717974,1372
3058.2383204460575,1424
3059.9507702331257,1411
3061.662918947372,1398
3063.3747669032446,1389
3065.0863144152736,1375
3066.7975617980674,1301
3068.508509366309,1405
3070.219157434767,1416
3071.9295063182844,1398
3073.639556331785,1355
3075.3493077902704,1374
3077.058761008821,1397
3078.7679163025964,1389
3080.476773986837,1399
3082.1853343768594,1446
3083.89359778806,1408
3085.6015645359153,1404
3087.3092349359786,1440
3089.016609303884,1354
3090.7236879553434,1372
3092.4304712061476,1425
3094.136959372166,1364
3095.843152769349,1366
3097.5490517137237,1442
3099.2546565213966,1391
3100.959967508554,1382
3102.66498499146,1474
3104.3697092864577,1429
3106.0741407099695,1397
3107.778279578498,1387
3109.482126208622,1413
3111.1856809170004,1389
3112.8889440203716,1364
3114.5919158355528,1418
3116.294596679439,1409
3117.996986869006,1437
3119.6990867213062,1443
3121.4008965534726,1380
3123.102416682717,1388
3124.803647426329,1346
3126.5045891016784,1457
3128.205242026213,1381
3129.90560651746,1409
3131.605682893025,1399
3133.3054714705922,1375
3135.0049725679282,1426
3136.7041865028714,1462
3138.4031135933465,1442
3140.101754157353,1402
3141.800108512971,1389
3143.498176978357,1370
3145.1959598717494,1407
3146.8934575114636,1337
3148.5906702158954,1383
3150.2875983035183,1335
3151.9842420928853,1382
3153.680601902627,1382
3155.376678051456,1362
3157.07247085816,1352
3158.767980641609,1420
3160.463207720748,1376
3162.158152414606,1442
3163.8528150422862,1430
3165.5471959229726,1439
3167.2412953759303,1449
3168.9351137204976,1431
3170.628651276098,1422
3172.3219083622307,1428
3174.014885298474,1376
3175.707582404485,1389
3177.4000000000005,1396
3179.092138404835,1384
3180.7839979388846,1406
3182.47557892212,1376
3184.166881674594,1410
3185.8579065164386,1355
3187.5486537678626,1356
3189.2391237491547,1387
3190.9293167806827,1404
3192.6192331828934,1368
3194.3088732763117,1429
3195.998237381542,1345
3197.687325819268,1331
3199.376138910251,1379
3201.064676975334,1382
3202.7529403354347,1343
3204.4409293115523,1382
3206.1286442247647,1355
3207.816085396229,1356
3209.5032531471825,1377
3211.190147798936,1403
3212.8767696728846,1342
3214.5631190905015,1339
3216.2491963733373,1382
3217.9350018430214,1368
3219.6205358212637,1280
3221.305798629851,1361
3222.990790590651,1400
3224.6755120256103,1337
3226.359963256751,1337
3228.0441446061795,1297
3229.7280563960758,1278
3231.411698948703,1344
3233.0950725863995,1340
3234.778177631587,1311
3236.461014406761,1308
3238.1435832345005,1363
3239.8258844374595,1380
3241.507918338374,1410
3243.1896852600576,1391
3244.8711855254023,1393
3246.552419457381,1369
3248.233387379042,1383
3249.914089613516,1332
3251.59452648401,1351
3253.274698313813,1361
3254.95460542629,1349
3256.6342481448855,1411
3258.313626793125,1349
3259.9927416946084,1412
3261.6715931730196,1316
3263.3501815521176,1307
3265.0285071557437,1330
3266.706570307815,1324
3268.3843713323286,1331
3270.0619105533615,1310
3271.739188295068,1323
3273.4162048816834,1354
3275.0929606375184,1353
3276.769455886966,1366
3278.445690954498,1325
3280.1216661646613,1364
3281.797381842087,1349
3283.4728383114807,1320
3285.1480358976296,1341
3286.8229749253996,1332
3288.4976557197333,1298
3290.172078605655,1324
3291.846243908266,1308
3293.5201519527463,1342
3295.193803064357,1344
3296.8671975684374,1353
3298.5403357904024,1342
3300.21321805575,1333
3301.8858446900567,1321
3303.558216018975,1363
3305.23033236824,1367
3306.9021940636603,1367
3308.57380143113,1410
3310.2451547966184,1321
3311.916254486174,1368
3313.5871008259246,1386
3315.2576941420766,1386
3316.9280347609147,1310
3318.5981230088046,1314
3320.2679592121895,1311
3321.9375436975924,1308
3323.606876791612,1284
3325.27595882093,1357
3326.944790112305,1309
3328.6133709925753,1344
3330.2817017886573,1357
3331.949782827547,1294
3333.617614436319,1271
3335.2851969421245,1323
3336.952530672199,1338
3338.619615953853,1359
3340.286453114475,1389
3341.9530424815357,1365
3343.619384382583,1337
3345.2854791452437,1368
3346.951327097224,1341
3348.6169285663073,1320
3350.2822838803577,1329
3351.947393367319,1447
3353.61225735521,1362
3355.2768761721345,1342
3356.9412501462693,1329
3358.605379605873,1310
3360.2692648792827,1366
3361.9329062949146,1386
3363.596304181263,1349
