CollectionTime,9/20/2024 10:48:45 AM
ExposureUsed,3
CalibratedSpectrum
-962.7078968117929,599
-959.9714848408522,595
-957.2358232597828,570
-954.5009119013725,570
-951.7667505983302,583
-949.0333391832855,633
-946.3006774887896,591
-943.5687653473143,561
-940.837602591253,595
-938.1071890529199,584
-935.3775245645503,599
-932.6486089583007,598
-929.9204420662485,562
-927.1930237203925,619
-924.4663537526524,628
-921.7404319948689,602
-919.0152582788041,631
-916.2908324361409,586
-913.5671542984834,580
-910.8442236973568,563
-908.1220404642074,548
-905.4006044304027,578
-902.679915427231,597
-899.959973285902,578
-897.2407778375464,566
-894.5223289132158,555
-891.8046263438832,571
-889.0876699604426,612
-886.3714595937089,617
-883.6559950744183,562
-880.9412762332282,570
-878.2273029007168,586
-875.5140749073835,561
-872.8015920836489,526
-870.0898542598545,553
-867.3788612662631,580
-864.6686129330585,536
-861.9591090903457,572
-859.2503495681506,551
-856.5423341964203,555
-853.8350628050229,595
-851.1285352237478,609
-848.4227512823054,592
-845.7177108103272,571
-843.0134136373656,569
-840.3098595928943,616
-837.6070485063082,615
-834.9049802069229,602
-832.2036545239757,550
-829.5030712866244,622
-826.8032303239481,618
-824.1041314649472,611
-821.4057745385428,587
-818.7081593735775,619
-816.0112857988148,597
-813.3151536429393,639
-810.6197627345566,599
-807.9251129021936,565
-805.2312039742981,594
-802.5380357792392,596
-799.8456081453069,577
-797.1539209007124,623
-794.462973873588,651
-791.772766891987,632
-789.083299783884,632
-786.3945723771743,583
-783.7065844996748,591
-781.0193359791231,579
-778.3328266431781,595
-775.6470563194197,600
-772.9620248353489,571
-770.2777320183878,633
-767.5941776958798,623
-764.9113616950891,628
-762.2292838432011,615
-759.5479439673222,552
-756.8673418944801,576
-754.1874774516235,560
-751.5083504656222,583
-748.8299607632671,594
-746.15230817127,590
-743.475392516264,607
-740.7992136248035,586
-738.1237713233636,607
-735.4490654383407,611
-732.7750957960521,622
-730.1018622227365,589
-727.4293645445534,597
-724.7576025875837,607
-722.0865761778291,637
-719.4162851412126,600
-716.7467293035781,633
-714.0779084906909,668
-711.409822528237,659
-708.7424712418238,632
-706.0758544569796,613
-703.4099719991541,615
-700.7448236937178,661
-698.0804093659622,605
-695.4167288411002,626
-692.7537819442656,652
-690.0915685005134,619
-687.4300883348199,635
-684.7693412720819,652
-682.1093271371178,658
-679.4500457546669,661
-676.7914969493897,630
-674.1336805458676,656
-671.4765963686034,625
-668.8202442420206,604
-666.1646239904642,595
-663.5097354382001,652
-660.8555784094151,635
-658.2021527282176,719
-655.5494582186366,689
-652.8974947046223,696
-650.2462620100463,676
-647.5957599587009,648
-644.9459883742998,677
-642.2969470804776,684
-639.6486359007902,652
-637.0010546587141,703
-634.3542031776476,716
-631.7080812809096,650
-629.0626887917401,698
-626.4180255333008,686
-623.7740913286734,669
-621.1308860008619,712
-618.4884093727904,716
-615.8466612673046,694
-613.2056415071715,647
-610.5653499150785,678
-607.9257863136347,720
-605.28695052537,706
-602.6488423727357,680
-600.0114616781036,699
-597.3748082637674,700
-594.7388819519412,742
-592.1036825647604,779
-589.4692099242818,710
-586.8354638524829,727
-584.2024441712624,786
-581.5701507024403,726
-578.9385832677575,755
-576.3077416888759,750
-573.6776257873787,750
-571.0482353847704,721
-568.4195703024757,736
-565.7916303618415,746
-563.164415384135,743
-560.5379251905453,750
-557.9121596021815,760
-555.2871184400748,714
-552.6628015251767,735
-550.0392086783606,755
-547.4163397204204,748
-544.794194472071,742
-542.1727727539491,810
-539.5520743866118,807
-536.9320991905377,859
-534.3128469861261,879
-531.6943175936979,828
-529.0765108334947,838
-526.4594265256793,925
-523.8430644903358,1088
-521.2274245474689,1242
-518.612506517005,1265
-515.9983102187913,1279
-513.3848354725959,1330
-510.77208209810846,1429
-508.16004991493924,1444
-505.5487387426199,1502
-502.9381484006032,1607
-500.3282787082628,1537
-497.71912948489364,1396
-495.1107005497117,1319
-492.5029917218539,1191
-489.8960028203786,1101
-487.28973366426493,952
-484.68418407241325,889
-482.07935386364494,863
-479.47524285670266,907
-476.87185087025,897
-474.2691777228715,911
-471.66722323307334,943
-469.0659872192821,871
-466.4654694998459,897
-463.86566989303384,914
-461.26658821703614,918
-458.66822428996414,882
-456.07057792985,901
-453.4736489546475,942
-450.877437182231,947
-448.28194243039627,884
-445.68716451686,868
-443.09310325926003,880
-440.49975847515555,865
-437.9071299820263,845
-435.31521759727354,913
-432.72402113821954,926
-430.13354042210767,917
-427.5437752661022,896
-424.95472548728867,890
-422.36639090267386,930
-419.7787713291855,982
-417.1918665836721,1014
-414.60567648290385,968
-412.0202008435715,980
-409.4354394822874,903
-406.8513922155845,970
-404.26805885991723,980
-401.685439231661,999
-399.103533147112,949
-396.522340422488,971
-393.9418608739278,982
-391.3620943174908,946
-388.7830405691583,915
-386.2046994448317,855
-383.6270707603344,840
-381.05015433141045,845
-378.473949973725,818
-375.8984575028645,835
-373.32367673433623,698
-370.74960748356875,736
-368.1762495659117,656
-365.60360279663576,606
-363.03166699093265,635
-360.4604419639154,620
-357.8899275306178,549
-355.32012350599507,575
-352.7510297049233,516
-350.1826459421999,520
-347.61497203254316,510
-345.04800779059235,540
-342.4817530309082,525
-339.91620756797226,574
-337.35137121618743,619
-334.7872437898774,669
-332.22382510328725,600
-329.66111497058273,582
-327.09911320585127,578
-324.53781962310075,575
-321.9772340362607,575
-319.4173562591816,582
-316.8581861056348,545
-314.2997233893127,550
-311.7419679238294,598
-309.1849195227194,664
-306.62857799943856,684
-304.0729431673641,591
-301.51801483979375,636
-298.963792829947,591
-296.41027695096386,554
-293.85746701590574,640
-291.3053628377552,759
-288.7539642294155,651
-286.2032710037115,668
-283.65328297338897,705
-281.1039999511146,697
-278.5554217494762,665
-276.007548180983,701
-273.4603790580651,669
-270.9139141930734,645
-268.3681533982807,704
-265.8230964858798,783
-263.27874326798565,805
-260.7350935566336,759
-258.1921471637804,741
-255.6499039013039,819
-253.10836358100266,829
-250.56752601459698,756
-248.02739101372765,832
-245.48795838995704,932
-242.94922795476816,914
-240.41119951956557,861
-237.8738728956746,764
-235.33724789434166,801
-232.80132432673452,842
-230.2661020039418,750
-227.73158073697357,863
-225.19776033676033,974
-222.66464061415422,1161
-220.1322213799284,1074
-217.60050244477725,949
-215.06948361931552,983
-212.53916471408013,1074
-210.00954553952818,989
-207.48062590603843,870
-204.9524056239104,955
-202.4248845033651,1056
-199.8980623545441,1103
-197.37193898751036,1364
-194.84651421224817,1407
-192.32178783866232,1322
-189.79775967657952,1141
-187.27442953574644,1039
-184.7517972258321,1139
-182.2298625564256,945
-179.7086253370378,926
-177.18808537710026,1110
-174.66824248596583,1353
-172.14909647290835,1493
-169.6306471471229,1576
-167.11289431772548,1213
-164.59583779375328,1039
-162.07947738416453,1199
-159.5638128978386,1353
-157.04884414357605,1592
-154.53457093009854,1580
-152.02099306604828,1465
-149.50811035998936,1498
-146.99592262040665,1591
-144.48442965570587,1587
-141.97363127421409,1602
-139.46352728417958,1678
-136.95411749377126,1768
-134.44540171107985,1597
-131.93737974411636,1300
-129.43005140081357,1292
-126.92341648902493,1473
-124.41747481652521,1732
-121.91222619101006,2419
-119.40767042009657,3017
-116.90380731132257,3505
-114.40063667214702,3542
-111.8981583099503,3913
-109.3963720320337,5070
-106.89527764561933,5807
-104.39487495785067,5805
-101.89516377579241,7374
-99.39614390642998,11303
-96.89781515667039,17502
-94.40017733334128,19884
-91.90323024319173,17014
-89.40697369289148,12519
-86.91140748903172,7657
-84.41653143812482,4817
-81.92234534660395,6162
-79.42884902082358,8718
-76.93604226705907,12547
-74.4439248915071,14191
-71.95249670028534,16562
-69.46175749943245,17453
-66.97170709490854,15279
-64.48234529259423,12481
-61.99367189829195,12006
-59.50568671772464,12337
-57.01838955653636,11443
-54.53178022029283,12274
-52.045858514480074,17126
-49.560624244506016,19276
-47.07607721569923,19296
-44.59221723330904,22300
-42.10904410250669,23757
-39.62655762838392,22511
-37.14475761595372,24154
-34.66364387015028,24503
-32.18321619582866,31650
-29.70347439776515,38638
-27.224418280657005,38268
-24.74604764912317,44704
-22.26836230770266,63216
-19.7913620608565,65035
-17.315046712966478,65035
-14.83941606833514,65035
-12.36446993118659,65035
-9.89020810566592,65035
-7.416630395839093,65035
-4.94373660569363,65035
-2.471526539137585,65035
-6.821210263296962E-13,65035
2.47084320796705,65035
4.941003281093458,65035
7.410480415786196,65035
9.879274808531363,65035
12.347386655893956,65035
14.814816154518212,65035
17.28156350112681,65035
19.74762889252179,65035
22.21301252558385,65035
24.67771459727237,23062
27.141735304626195,5889
29.605074844762612,5173
32.06773341487792,5329
34.52971121224755,4906
36.99100843422559,4174
39.45162527824516,4472
41.91156194181792,5213
44.370818622535126,5523
46.82939551806646,5092
49.287292826160524,5247
51.74451074464503,4627
54.201049471426245,3367
56.65690920448981,3308
59.112090141899785,3324
61.56659248179983,3298
64.02041642241159,3276
66.4735621620365,3448
68.92602989905402,3402
71.37781983192338,3171
73.82893215918205,2674
76.27936707944684,2349
78.72912479141326,2455
81.17820549385567,2335
83.62660938562783,2015
86.07433666566146,1813
88.5213875329681,1989
90.96776218663751,2395
93.41346082583925,2365
95.85848364982041,2427
98.30283085790859,1840
100.7465026495089,1852
103.18949922410604,1693
105.63182078126385,1805
108.07346752062438,1703
110.51443964190923,1581
112.95473734491827,1626
115.39436082953114,1736
117.83331029570547,1622
120.27158594347827,1661
122.7091879729652,1574
125.1461165843615,1568
127.58237197794062,1824
130.01795435405518,2189
132.4528639131364,2138
134.88710085569494,1724
137.32066538231982,1711
139.75355769367923,1761
142.1857779905207,1516
144.61732647366978,1238
147.04820334403132,1131
149.47840880258934,1295
151.90794305040674,1608
154.33680628862487,1786
156.76499871846443,1825
159.19252054122433,1829
161.61937195828352,1922
164.04555317109896,1831
166.47106438120693,1969
168.89590579022217,1971
171.320077599839,2030
173.7435800118302,2232
176.16641322804742,2284
178.58857745042144,2517
181.01007288096173,2458
183.43089972175687,2383
185.85105817497413,2315
188.27054844285988,2294
190.6893707277394,2321
193.10752523201643,2451
195.5250121581745,2555
197.9418317087751,2610
200.3579840864594,2706
202.7734694939469,2627
205.18828813403627,2573
207.6024402096051,2572
210.01592592360964,2658
212.42874547908548,2588
214.84089907914665,2484
217.2523869269868,2514
219.66320922587727,2540
222.0733661791695,2531
224.48285799029293,2676
226.8916848627572,2720
229.29984700014882,2696
231.7073446061355,2578
234.11417788446204,2682
236.520347038953,2601
238.92585227351185,2676
241.33069379212054,2772
243.73487179884035,2742
246.1383864978112,2736
248.541238093252,2762
250.9434267894609,2813
253.34495279081432,2784
255.74581630176783,2813
258.1460175268563,2717
260.54555667069314,2725
262.9444339379703,2721
265.3426495334594,2824
267.7402036620107,2783
270.1370965285529,2758
272.53332833809407,2734
274.9288992957214,2626
277.32380960660055,2547
279.718059475976,2520
282.1116491091717,2455
284.5045787115897,2538
286.89684848871195,2556
289.2884586460981,2505
291.67940938938807,2597
294.0697009242996,2489
296.4593334566299,2544
298.84830719225477,2546
301.23662233712923,2568
303.6242790972866,2400
306.01127767884,2404
308.39761828798066,2391
310.78330113097934,2438
313.16832641418534,2346
315.5526943440269,2449
317.9364051270112,2339
320.3194589697242,2218
322.70185607883093,2380
325.0835966610754,2278
327.4646809232805,2319
329.8451090723478,2285
332.2248813152577,2252
334.6039978590701,2326
336.9824589109231,2279
339.36026467803447,2213
341.7374153677,2272
344.113911187295,2277
346.48975234427337,2217
348.8649390461686,2309
351.2394715005918,2199
353.61334991523415,2296
355.9865744978655,2255
358.35914545633375,2286
360.73106299856715,2246
363.10232733257146,2258
365.47293866643247,2129
367.84289720831396,2211
370.2122031664593,2138
372.5808567491905,2099
374.9488581649083,2147
377.31620762209275,2186
379.6829053293021,2128
382.0489514951745,2104
384.4143463284262,2112
386.7790900378528,2162
389.14318283232853,2144
391.50662492080653,2107
393.86941651231916,2101
396.23155781597745,2083
398.5930490409713,2151
400.9538903965696,2159
403.3140820921202,2114
405.6736243370498,2116
408.03251734086336,2044
410.3907613131465,2083
412.74835646356166,1980
415.10530300185144,1956
417.4616011378372,2046
419.81725108141893,2021
422.1722530425758,2030
424.5266072313656,2022
426.880313857925,1923
429.2333731324701,1979
431.58578526529516,1991
433.9375504667738,1991
436.2886689473588,1945
438.63914091758113,2011
440.9889665880513,1936
443.33814616945835,1968
445.68667987257015,2028
448.03456790823395,1905
450.3818104873759,1956
452.72840782100013,1982
455.07436012019105,1942
457.41966759611057,1894
459.7643304600007,1923
462.10834892318155,1907
464.4517231970525,1976
466.79445349309174,1973
469.1365400228566,2009
471.4779829979826,1958
473.81878263018564,2020
476.15893913125876,2037
478.4984527130747,2091
480.8373235875855,2153
483.17555196682144,2180
485.5131380628919,2125
487.8500820879857,2189
490.1863842543697,2290
492.52204477439034,2346
494.8570638604725,2435
497.1914417251204,2705
499.52517858091653,2956
501.85827464052306,3282
504.19073011668036,3466
506.5225452222086,3384
508.85372017000566,3502
511.18425517304956,3725
513.514150444396,4119
515.8434061971808,5321
518.1720226446176,5818
520.4999999999999,5732
522.8273384766991,5455
525.1540382881666,5112
527.480099647932,4651
529.8055227696037,3556
532.1303078668694,2667
534.454455153496,2206
536.777964843328,2059
539.1008371502907,1992
541.4230722883866,1968
543.744670471698,1907
546.0656319143858,1987
548.3859568306899,1925
550.7056454349294,1849
553.0246979415016,1863
555.3431145648834,1882
557.6608955196306,1857
559.978041020377,1896
562.2945512818363,1898
564.6104265188006,1935
566.9256669461412,1864
569.2402727788082,1889
571.5542442318302,1901
573.8675815203156,1925
576.1802848594508,1886
578.4923544645015,1864
580.8037905508126,1953
583.114593333807,2010
585.4247630289875,1910
587.7342998519354,1890
590.0432040183106,1940
592.3514757438526,1867
594.6591152443794,1918
596.9661227357875,1886
599.2724984340531,1907
601.578242555231,1842
603.8833553154542,1875
606.1878369309362,1848
608.4916876179676,1789
610.7949075929192,1826
613.0974970722403,1901
615.3994562724587,1860
617.7007854101818,1846
620.0014847020951,1871
622.3015543649641,1922
624.6009946156324,1863
626.8998056710224,1901
629.1979877481361,1887
631.4955410640538,1924
633.7924658359349,1862
636.0887622810175,1931
638.3844306166192,1877
640.6794710601358,1849
642.9738838290426,1891
645.2676691408932,1911
647.5608272133207,1886
649.853358264037,1882
652.1452625108324,2011
654.4365401715764,1950
656.7271914642178,2047
659.0172166067838,1940
661.3066158173809,1948
663.5953893141935,1924
665.8835373154867,1926
668.1710600396028,1904
670.4579577049639,1933
672.7442305300709,1892
675.0298787335033,1993
677.3149025339197,1865
679.599302150058,1894
681.8830778007342,1966
684.1662297048437,2018
686.4487580813608,1992
688.7306631493387,1962
691.0119451279091,1970
693.2926042362834,1924
695.5726406937516,1897
697.8520547196814,1938
700.1308465335215,1938
702.4090163547982,1922
704.6865644031171,1936
706.9634908981619,1913
709.2397960596965,1961
711.5154801075631,2005
713.7905432616823,2017
716.0649857420548,1870
718.3388077687592,1874
720.612009561953,1856
722.8845913418733,1937
725.1565533288352,1947
727.427895743234,1932
729.6986188055427,1955
731.9687227363137,2005
734.238207756178,1996
736.5070740858458,1868
738.7753219461066,1862
741.0429515578281,1936
743.3099631419569,2011
745.5763569195191,1942
747.8421331116193,1973
750.1072919394409,1872
752.3718336242467,1883
754.6357583873777,1921
756.8990664502545,1924
759.1617580343765,1908
761.423833361321,1897
763.6852926527457,1889
765.9461361303862,1857
768.206364016058,1990
770.4659765316536,1972
772.7249738991469,1985
774.9833563405886,1962
777.2411240781092,1895
779.4982773339183,2017
781.7548163303044,1951
784.010741289634,1933
786.2660524343538,1917
788.5207499869881,1965
790.7748341701416,1970
793.0283052064964,1949
795.2811633188143,2012
797.5334087299362,1990
799.7850416627813,2074
802.0360623403484,2000
804.2864709857143,1999
806.5362678220353,1957
808.7854530725468,1920
811.0340269605625,2006
813.2819897094754,1989
815.5293415427581,2066
817.77608268396,1960
820.0222133567116,1979
822.2677337847211,1926
824.5126441917765,1960
826.7569448017433,1895
829.0006358385675,1945
831.2437175262731,1968
833.4861900889629,1957
835.7280537508192,1952
837.9693087361026,1940
840.2099552691533,1930
842.4499935743896,1937
844.689423876309,1964
846.9282463994886,1963
849.1664613685833,1912
851.4040690083276,2025
853.6410695435349,1958
855.877463199097,1953
858.1132501999847,1987
860.3484307712487,2015
862.5830051380175,1966
864.8169735254988,1887
867.0503361589791,1982
869.2830932638243,1945
871.5152450654786,1935
873.7467917894654,2019
875.9777336613873,2021
878.2080709069252,2016
880.4378037518389,2015
882.666932421968,1928
884.8954571432301,2033
887.1233781416219,2007
889.3506956432192,1949
891.5774098741766,1972
893.803521060728,1980
896.0290294291852,1898
898.2539352059397,1959
900.4782386174619,1961
902.7019398903011,1975
904.925039251085,1959
907.147536926521,1964
909.3694331433943,1943
911.59072812857,1927
913.8114221089921,1887
916.0315153116827,1943
918.2510079637437,1892
920.4699002923547,1926
922.6881925247761,1882
924.905884888345,1963
927.1229776104793,1905
929.3394709186747,1868
931.555365040506,1815
933.7706602036275,1922
935.9853566357709,1935
938.1994545647489,1962
940.4129542184515,1970
942.6258558248488,1880
944.8381596119883,1916
947.0498658079974,1858
949.2609746410825,1948
951.4714863395287,1922
953.6814011316998,1973
955.8907192460387,1857
958.0994409110671,1835
960.3075663553858,1935
962.5150958076741,1894
964.7220294966913,1950
966.928367651274,1832
969.1341105003388,1861
971.3392582728806,1828
973.5438111979742,1885
975.747769504772,1853
977.9511334225061,1815
980.153903180487,1911
982.3560790081052,1904
984.5576611348289,1842
986.7586497902058,1858
988.9590452038618,1827
991.158847605503,1816
993.3580572249133,1765
995.5566742919558,1759
997.7546990365728,1795
999.952131688785,1629
1002.1489724786926,1674
1004.3452216364743,1713
1006.5408793923874,1668
1008.7359459767691,1641
1010.9304216200343,1626
1013.1243065526781,1634
1015.3176010052733,1652
1017.510305208472,1651
1019.7024193930064,1667
1021.8939437896848,1639
1024.0848786293977,1661
1026.2752241431122,1567
1028.4649805618747,1620
1030.6541481168115,1549
1032.842727039127,1518
1035.0307175601051,1637
1037.2181199111074,1577
1039.4049343235752,1568
1041.591161029029,1555
1043.7768002590683,1594
1045.9618522453698,1538
1048.1463172196918,1520
1050.3301954138697,1511
1052.513487059818,1528
1054.69619238953,1600
1056.8783116350783,1509
1059.0598450286152,1528
1061.2407928023704,1553
1063.4211551886528,1547
1065.6009324198508,1574
1067.780124728432,1514
1069.9587323469414,1495
1072.1367555080046,1523
1074.314194444325,1463
1076.4910493886855,1473
1078.667320573947,1561
1080.843008233051,1556
1083.0181125990161,1552
1085.1926339049414,1532
1087.3665723840027,1434
1089.5399282694575,1493
1091.7127017946405,1426
1093.8848931929647,1431
1096.0565026979243,1405
1098.2275305430899,1480
1100.3979769621128,1500
1102.567842188722,1469
1104.737126456726,1435
1106.9058300000124,1490
1109.0739530525475,1499
1111.2414958483764,1433
1113.4084586216231,1442
1115.5748416064907,1461
1117.7406450372605,1460
1119.9058691482942,1450
1122.0705141740304,1447
1124.2345803489884,1446
1126.3980679077658,1430
1128.5609770850388,1399
1130.7233081155623,1442
1132.8850612341707,1476
1135.0462366757774,1419
1137.2068346753745,1420
1139.3668554680326,1471
1141.526299288901,1452
1143.68516637321,1462
1145.8434569562655,1418
1148.001171273455,1380
1150.158309560244,1426
1152.3148720521767,1450
1154.470858984876,1427
1156.626270594044,1474
1158.7811071154629,1442
1160.9353687849912,1409
1163.089055838569,1412
1165.242168512213,1440
1167.3947070420209,1420
1169.5466716641677,1380
1171.6980626149075,1460
1173.8488801305748,1412
1175.9991244475814,1422
1178.1487958024186,1417
1180.2978944316555,1406
1182.4464205719428,1389
1184.5943744600072,1411
1186.7417563326567,1442
1188.8885664267755,1422
1191.0348049793297,1413
1193.1804722273619,1384
1195.325568407995,1449
1197.4700937584303,1415
1199.614048515948,1400
1201.7574329179074,1411
1203.900247201746,1415
1206.042491604982,1447
1208.1841663652099,1415
1210.3252717201053,1493
1212.465807907422,1499
1214.6057751649923,1487
1216.7451737307279,1440
1218.8840038426192,1445
1221.0222657387353,1352
1223.1599596572241,1431
1225.2970858363137,1405
1227.4336445143094,1395
1229.5696359295966,1447
1231.705060320639,1469
1233.8399179259786,1435
1235.9742089842384,1523
1238.107933734118,1445
1240.2410924143974,1421
1242.373685263935,1546
1244.5057125216676,1462
1246.6371744266116,1536
1248.7680712178621,1453
1250.898403134593,1412
1253.028170416058,1437
1255.1573733015875,1474
1257.2860120305932,1444
1259.4140868425648,1493
1261.54159797707,1478
1263.6685456737569,1501
1265.7949301723515,1495
1267.9207517126597,1476
1270.046010534565,1571
1272.1707068780306,1520
1274.2948409830983,1575
1276.4184130898889,1515
1278.541423438603,1526
1280.6638722695184,1535
1282.785759822993,1482
1284.9070863394636,1556
1287.0278520594447,1519
1289.1480572235314,1622
1291.2677020723963,1536
1293.3867868467923,1580
1295.5053117875495,1640
1297.623277135579,1650
1299.740683131868,1656
1301.8575300174857,1596
1303.973818033578,1608
1306.0895474213703,1624
1308.2047184221678,1605
1310.3193312773528,1658
1312.4333862283888,1636
1314.5468835168163,1665
1316.659823384255,1622
1318.7722060724045,1676
1320.8840318230418,1654
1322.9953008780249,1700
1325.1060134792888,1661
1327.2161698688478,1661
1329.3257702887959,1688
1331.4348149813054,1613
1333.5433041886276,1659
1335.6512381530933,1691
1337.7586171171101,1661
1339.8654413231675,1668
1341.9717110138317,1707
1344.0774264317488,1602
1346.1825878196432,1669
1348.2871954203192,1668
1350.3912494766587,1636
1352.4947502316231,1656
1354.5976979282532,1581
1356.7000928096686,1612
1358.8019351190665,1569
1360.9032250997243,1612
1363.0039629949988,1556
1365.1041490483235,1544
1367.2037835032133,1600
1369.3028666032606,1602
1371.401398592137,1636
1373.4993797135926,1569
1375.5968102114575,1591
1377.6936903296396,1583
1379.7900203121262,1621
1381.8858004029835,1541
1383.9810308463561,1523
1386.075711886469,1512
1388.1698437676241,1565
1390.2634267342032,1575
1392.356461030667,1545
1394.4489469015557,1597
1396.5408845914872,1632
1398.6322743451592,1585
1400.7231164073469,1544
1402.813411022907,1604
1404.903158436773,1615
1406.9923588939578,1585
1409.0810126395531,1600
1411.1691199187303,1683
1413.2566809767386,1585
1415.343696058907,1586
1417.4301654106425,1610
1419.5160892774315,1571
1421.6014679048399,1568
1423.6863015385125,1588
1425.7705904241707,1592
1427.8543348076178,1625
1429.9375349347342,1596
1432.0201910514802,1644
1434.102303403894,1594
1436.1838722380944,1630
1438.2648978002767,1638
1440.3453803367174,1654
1442.4253200937692,1680
1444.5047173178677,1699
1446.5835722555234,1712
1448.6618851533285,1707
1450.739656257952,1744
1452.8168858161434,1731
1454.8935740747306,1763
1456.96972128062,1721
1459.045327680797,1699
1461.120393522327,1777
1463.1949190523528,1830
1465.2689045180973,1846
1467.3423501668608,1784
1469.415256246024,1849
1471.4876230030463,1870
1473.559450685465,1853
1475.6307395408976,1845
1477.7014898170391,1913
1479.771701761665,1867
1481.8413756226287,1941
1483.9105116478618,1860
1485.9791100853772,1934
1488.0471711832643,1844
1490.1146951896926,1902
1492.1816823529098,1993
1494.2481329212433,1963
1496.3140471430984,1936
1498.3794252669609,1927
1500.4442675413939,1932
1502.5085742150404,2058
1504.572345536622,1955
1506.6355817549388,2097
1508.6982831188702,2072
1510.7604498773744,2047
1512.8220822794883,2076
1514.8831805743293,2031
1516.9437450110909,2059
1519.003775839048,2060
1521.0632733075522,2031
1523.1222376660367,2099
1525.1806691640113,2099
1527.2385680510652,2142
1529.2959345768668,2115
1531.3527689911643,2110
1533.4090715437833,2070
1535.4648424846291,2155
1537.5200820636855,2206
1539.5747905310159,2283
1541.6289681367616,2190
1543.6826151311434,2236
1545.7357317644614,2334
1547.7883182870937,2309
1549.8403749494987,2385
1551.8919020022113,2379
1553.9428996958477,2330
1555.9933682811015,2369
1558.0433080087469,2407
1560.0927191296346,2460
1562.1416018946961,2405
1564.1899565549415,2500
1566.2377833614592,2409
1568.2850825654164,2416
1570.3318544180606,2355
1572.3780991707158,2311
1574.423817074788,2299
1576.4690083817595,2232
1578.5136733431923,2229
1580.5578122107272,2130
1582.601425236085,2120
1584.6445126710646,2099
1586.6870747675434,2132
1588.7291117774776,1979
1590.7706239529034,1931
1592.8116115459347,1985
1594.8520748087658,1883
1596.8920139936686,1851
1598.9314293529933,1836
1600.9703211391711,1826
1603.008689604711,1776
1605.0465350022005,1747
1607.0838575843068,1774
1609.1206576037753,1736
1611.1569353134305,1660
1613.1926909661765,1666
1615.2279248149953,1690
1617.2626371129481,1649
1619.2968281131757,1653
1621.3304980688963,1608
1623.3636472334088,1555
1625.39627586009,1598
1627.428384202396,1611
1629.459972513861,1523
1631.4910410480993,1556
1633.5215900588028,1539
1635.551619799744,1555
1637.5811305247717,1531
1639.6101224878166,1543
1641.6385959428862,1485
1643.6665511440683,1513
1645.693988345528,1551
1647.7209078015112,1494
1649.7473097663405,1515
1651.7731944944203,1488
1653.7985622402307,1535
1655.823413258333,1522
1657.847747803366,1471
1659.8715661300494,1487
1661.8948684931793,1502
1663.9176551476316,1544
1665.9399263483624,1460
1667.9616823504057,1472
1669.982923408873,1488
1672.0036497789574,1459
1674.0238617159293,1441
1676.043559475138,1519
1678.0627433120121,1483
1680.081413482059,1447
1682.0995702408654,1429
1684.117213844096,1463
1686.134344547495,1504
1688.1509626068864,1442
1690.1670682781705,1468
1692.182661817329,1520
1694.1977434804217,1444
1696.2123135235875,1437
1698.226372203043,1493
1700.2399197750851,1499
1702.2529564960905,1476
1704.2654826225112,1453
1706.277498410882,1520
1708.2890041178139,1490
1710.2999999999988,1424
1712.3104863142066,1410
1714.3204633172854,1444
1716.329931266163,1459
1718.3388904178469,1453
1720.3473410294214,1461
1722.3552833580516,1395
1724.3627176609807,1454
1726.3696441955308,1395
1728.3760632191033,1465
1730.3819749891782,1409
1732.3873797633146,1459
1734.3922777991502,1411
1736.3966693544012,1461
1738.4005546868639,1415
1740.4039340544127,1446
1742.406807715001,1369
1744.4091759266616,1461
1746.4110389475054,1431
1748.4123970357223,1469
1750.413250449582,1409
1752.4135994474318,1421
1754.4134442876993,1429
1756.4127852288902,1386
1758.4116225295893,1386
1760.4099564484595,1448
1762.407787244244,1453
1764.405115175764,1424
1766.4019405019203,1434
1768.3982634816916,1419
1770.3940843741357,1444
1772.3894034383907,1418
1774.3842209336717,1401
1776.378537119274,1375
1778.372352254571,1385
1780.3656665990156,1378
1782.3584804121397,1375
1784.3507939535534,1427
1786.3426074829463,1400
1788.3339212600863,1409
1790.3247355448211,1397
1792.3150505970766,1466
1794.3048666768573,1423
1796.2941840442477,1427
1798.2830029594106,1463
1800.2713236825884,1437
1802.2591464741004,1394
1804.2464715943465,1412
1806.2332993038058,1375
1808.2196298630352,1492
1810.2054635326708,1448
1812.190800573428,1393
1814.175641246101,1395
1816.1599858115628,1446
1818.1438345307652,1379
1820.127187664738,1400
1822.1100454745924,1391
1824.092408221516,1382
1826.0742761667766,1414
1828.055649571721,1365
1830.0365286977735,1359
1832.0169138064398,1440
1833.9968051593014,1398
1835.9762030180214,1392
1837.9551076443408,1364
1839.9335193000788,1423
1841.9114382471344,1409
1843.888864747485,1391
1845.8657990631878,1382
1847.842241456378,1406
1849.8181921892697,1344
1851.7936515241558,1422
1853.7686197234098,1355
1855.7430970494815,1367
1857.7170837649014,1342
1859.6905801322787,1399
1861.6635864143004,1379
1863.6361028737338,1362
1865.608129773424,1370
1867.5796673762961,1410
1869.5507159453537,1411
1871.521275743678,1352
1873.4913470344313,1393
1875.4609300808534,1407
1877.4300251462632,1377
1879.3986324940588,1359
1881.366752387717,1373
1883.3343850907936,1432
1885.3015308669228,1483
1887.268189979819,1405
1889.2343626932739,1411
1891.2000492711595,1411
1893.1652499774254,1390
1895.1299650761011,1434
1897.0941948312952,1433
1899.0579395071945,1401
1901.0211993680641,1376
1902.98397467825,1460
1904.9462657021745,1425
1906.9080727043415,1494
1908.869395949332,1436
1910.8302357018065,1405
1912.790592226504,1439
1914.7504657882428,1383
1916.7098566519212,1365
1918.6687650825133,1414
1920.6271913450764,1343
1922.5851357047422,1397
1924.5425984267245,1411
1926.499579776314,1374
1928.4560800188833,1346
1930.4120994198802,1387
1932.367638244833,1434
1934.32269675935,1432
1936.2772752291175,1415
1938.231373919899,1409
1940.1849930975404,1439
1942.1381330279637,1439
1944.0907939771696,1400
1946.0429762112412,1322
1947.9946799963363,1386
1949.9459055986945,1345
1951.896653284633,1369
1953.8469233205478,1315
1955.7967159729142,1401
1957.7460315082863,1350
1959.6948701932974,1401
1961.6432322946594,1368
1963.5911180791632,1384
1965.5385278136787,1364
1967.4854617651545,1419
1969.4319202006182,1340
1971.377903387176,1272
1973.3234115920136,1362
1975.268445082395,1335
1977.2130041256642,1376
1979.1570889892423,1349
1981.1006999406304,1358
1983.04383724741,1370
1984.986501177238,1355
1986.928691997853,1350
1988.8704099770712,1366
1990.811655382789,1360
1992.7524284829801,1396
1994.692729545698,1352
1996.6325588390755,1329
1998.5719166313224,1340
2000.5108031907307,1410
2002.4492187856677,1389
2004.387163684583,1420
2006.3246381560011,1370
2008.2616424685298,1352
2010.1981768908527,1342
2012.1342416917332,1314
2014.069837140014,1328
2016.0049635046162,1304
2017.9396210545406,1300
2019.8738100588666,1307
2021.8075307867502,1320
2023.740783507431,1366
2025.6735684902228,1353
2027.6058860045214,1377
2029.5377363198004,1357
2031.4691197056118,1339
2033.4000364315875,1391
2035.3304867674374,1372
2037.260470982952,1402
2039.189989347998,1332
2041.1190421325232,1297
2043.047629606554,1316
2044.9757520401945,1373
2046.9034097036288,1337
2048.8306028671195,1343
2050.7573318010086,1345
2052.683596775716,1340
2054.609398061742,1327
2056.5347359296647,1324
2058.4596106501403,1343
2060.384022493906,1290
2062.3079717317764,1324
2064.231458634646,1346
2066.1544834734873,1324
2068.077046519352,1308
2069.99914804337,1328
2071.9207883167524,1332
2073.8419676107865,1360
2075.7626861968406,1371
2077.6829443463607,1340
2079.6027423308715,1303
2081.522080421977,1327
2083.440958891362,1323
2085.359378010786,1361
2087.2773380520907,1359
2089.194839287196,1347
2091.111881988101,1386
2093.0284664268825,1396
2094.9445928756973,1331
2096.86026160678,1392
2098.775472892446,1378
2100.690227005088,1405
2102.604524217178,1353
2104.5183648012676,1343
2106.431749029985,1362
2108.34467717604,1366
2110.2571495122206,1417
2112.169166311393,1351
2114.080727846503,1289
2115.9918343905747,1323
2117.902486216711,1366
2119.8126835980956,1371
2121.722426807987,1399
2123.6317161197285,1362
2125.5405518067364,1321
2127.448934142509,1380
2129.356863400624,1362
2131.264339854737,1434
2133.1713637785815,1334
2135.077935445972,1353
2136.9840551308002,1392
2138.889723107037,1355
2140.7949396487334,1409
2142.699705030018,1395
2144.6040195250994,1372
2146.507883408264,1411
2148.4112969538774,1383
2150.3142604363848,1411
2152.2167741303097,1347
2154.1188383102535,1385
2156.0204532508997,1430
2157.9216192270064,1387
2159.822336513414,1390
2161.7226053850413,1399
2163.622426116884,1431
2165.5217989840185,1435
2167.4207242616,1448
2169.319202224862,1379
2171.2172331491165,1398
2173.1148173097563,1425
2175.0119549822507,1419
2176.90864644215,1397
2178.8048919650823,1394
2180.7006918267534,1426
2182.596046302952,1423
2184.4909556695407,1415
2186.3854202024645,1456
2188.279440177746,1444
2190.173015871487,1432
2192.066147559868,1437
2193.958835519149,1455
2195.851080025667,1430
2197.7428813558417,1432
2199.6342397861667,1409
2201.5251555932186,1439
2203.415629053651,1427
2205.3056604441986,1410
2207.19525004167,1459
2209.084398122958,1498
2210.9731049650327,1409
2212.861370844941,1447
2214.749196039812,1469
2216.636580826851,1444
2218.523525483344,1509
2220.410030286655,1448
2222.296095514226,1435
2224.1817214435805,1455
2226.066908352319,1403
2227.951656518121,1442
2229.835966218746,1466
2231.71983773203,1451
2233.6032713358913,1466
2235.486267308324,1444
2237.3688259274036,1441
2239.2509474712824,1457
2241.132632218193,1421
2243.013880446447,1419
2244.8946924344323,1527
2246.7750684606203,1406
2248.6550088035574,1468
2250.534513741871,1441
2252.413583554265,1475
2254.292218519526,1432
2256.170418916517,1428
2258.0481850241786,1435
2259.925517121534,1383
2261.8024154876825,1407
2263.678880401803,1491
2265.5549121431536,1485
2267.430510991071,1466
2269.305677224971,1451
2271.180411124348,1476
2273.0547129687766,1451
2274.9285830379076,1401
2276.8020216114737,1454
2278.6750289692845,1418
2280.5476053912294,1437
2282.4197511572766,1436
2284.2914665474727,1487
2286.162751841943,1514
2288.0336073208937,1547
2289.904033264608,1442
2291.774029953448,1433
2293.6435976678554,1446
2295.5127366883517,1419
2297.381447295534,1406
2299.2497297700825,1428
2301.1175843927526,1368
2302.9850114443825,1347
2304.852011205885,1324
2306.7185839582553,1327
2308.5847299825664,1274
2310.4504495599676,1247
2312.3157429716925,1276
2314.1806104990483,1240
2316.0450524234247,1307
2317.9090690262888,1231
2319.772660589186,1272
2321.635827393742,1260
2323.498569721661,1278
2325.3608878547248,1269
2327.2227820747967,1268
2329.0842526638157,1217
2330.945299903803,1216
2332.805924076857,1294
2334.6661254651535,1255
2336.525904350951,1247
2338.3852610165827,1275
2340.244195744464,1281
2342.102708817088,1265
2343.9608005170253,1256
2345.8184711269287,1265
2347.675720929526,1268
2349.532550207628,1244
2351.38895924412,1284
2353.24494832197,1261
2355.100517724223,1275
2356.955667734004,1215
2358.810398634514,1298
2360.664710709037,1291
2362.5186042409337,1265
2364.3720795136437,1298
2366.225136810686,1284
2368.0777764156583,1281
2369.929998612237,1274
2371.7818036841777,1314
2373.633191915315,1328
2375.484163589562,1272
2377.3347189909114,1268
2379.184858403434,1310
2381.03458211128,1298
2382.8838903986775,1298
2384.732783549936,1275
2386.5812618494406,1282
2388.4293255816588,1267
2390.2769750311327,1338
2392.1242104824883,1289
2393.971032220427,1270
2395.8174405297295,1299
2397.6634356952563,1298
2399.509018001947,1275
2401.3541877348193,1347
2403.1989451789705,1347
2405.043290619576,1312
2406.8872243418905,1388
2408.730746631247,1368
2410.5738577730594,1401
2412.4165580528183,1360
2414.258847756095,1313
2416.100727168537,1487
2417.9421965758734,1440
2419.783256263912,1465
2421.623906518538,1490
2423.4641476257157,1491
2425.303979871491,1486
2427.143403541984,1553
2428.9824189233977,1504
2430.821026302012,1566
2432.6592259641866,1523
2434.497018196361,1511
2436.33440328505,1474
2438.171381516851,1580
2440.00795317844,1514
2441.844118556569,1478
2443.6798779380724,1466
2445.5152316098606,1545
2447.3501798589255,1416
2449.1847229723357,1423
2451.0188612372403,1458
2452.8525949408663,1392
2454.6859243705203,1422
2456.518849813587,1341
2458.3513715575314,1377
2460.183489889895,1418
2462.015205098301,1407
2463.8465174704493,1369
2465.67742729412,1388
2467.5079348571717,1424
2469.338040447542,1383
2471.1677443532476,1325
2472.9970468623833,1347
2474.825948263123,1323
2476.6544488437207,1362
2478.482548892508,1347
2480.310248697896,1304
2482.137548548374,1348
2483.9644487325118,1372
2485.790949538956,1368
2487.617051256433,1315
2489.44275417375,1347
2491.26805857979,1363
2493.0929647635157,1391
2494.917473013971,1303
2496.741583620276,1409
2498.5652968716304,1394
2500.3886130573137,1362
2502.2115324666834,1379
2504.0340553891765,1330
2505.856182114308,1364
2507.6779129316733,1326
2509.499248130945,1342
2511.3201880018764,1421
2513.140732834298,1366
2514.9608829181198,1373
2516.780638543331,1414
2518.6,1392
2520.418967578273,1351
2522.237541568376,1379
2524.0557222606144,1334
2525.8735099453706,1351
2527.6909049131086,1396
2529.507907454368,1404
2531.32451785977,1428
2533.140736420014,1362
2534.9565634258774,1440
2536.771999168218,1372
2538.5870439379714,1432
2540.4016980261526,1416
2542.2159617238544,1418
2544.02983532225,1429
2545.8433191125914,1401
2547.656413386209,1470
2549.4691184345115,1442
2551.2814345489874,1433
2553.093362021204,1429
2554.904901142808,1378
2556.716052205523,1387
2558.526815501153,1446
2560.3371913215824,1464
2562.147179958771,1431
2563.956781704761,1364
2565.7659968516705,1421
2567.5748256916986,1378
2569.3832685171224,1494
2571.1913256202984,1495
2572.9989972936614,1484
2574.806283829725,1480
2576.613185521084,1484
2578.4197026604074,1430
2580.2258355404483,1458
2582.031584454035,1404
2583.836949694077,1410
2585.6419315535613,1458
2587.4465303255533,1446
2589.2507463032002,1454
2591.0545797797245,1449
2592.8580310484303,1490
2594.6611004026995,1429
2596.463788135992,1488
2598.266094541849,1448
2600.0680199138874,1412
2601.869564545807,1469
2603.670728731383,1419
2605.4715127644704,1436
2607.2719169390048,1419
2609.071941548998,1371
2610.8715868885433,1427
2612.670853251811,1415
2614.469740933052,1455
2616.268250226594,1450
2618.0663814268455,1412
2619.864134828292,1440
2621.6615107255006,1461
2623.458509413115,1477
2625.2551311858597,1439
2627.0513763385347,1423
2628.8472451660223,1371
2630.6427379632833,1426
2632.4378550253564,1410
2634.232596647359,1361
2636.026963124488,1405
2637.8209547520187,1454
2639.6145718253065,1383
2641.407814639785,1393
2643.200683490966,1396
2644.9931786744414,1416
2646.7853004858807,1411
2648.577049221034,1355
2650.3684251757277,1378
2652.1594286458712,1375
2653.9500599274484,1341
2655.740319316525,1451
2657.5302071092437,1385
2659.3197236018286,1371
2661.10886909058,1300
2662.8976438718782,1384
2664.686048242183,1303
2666.4740824980327,1323
2668.2617469360443,1370
2670.0490418529134,1367
2671.8359675454153,1336
2673.622524310403,1322
2675.408712444811,1405
2677.1945322456495,1324
2678.979984010009,1327
2680.76506803506,1275
2682.5497846180497,1374
2684.334134056306,1327
2686.1181166472343,1311
2687.9017326883213,1253
2689.6849824771293,1263
2691.4678663113013,1312
2693.2503844885596,1315
2695.032537306705,1326
2696.8143250636167,1313
2698.5957480572542,1281
2700.3768065856534,1354
2702.1575009469316,1358
2703.937831439283,1292
2705.717798360982,1301
2707.4974020103837,1295
2709.276642685917,1287
2711.055520686095,1315
2712.834036309506,1299
2714.612189854819,1291
2716.389981620782,1338
2718.1674119062204,1246
2719.944481010041,1320
2721.721189231226,1310
2723.4975368688415,1323
2725.273524222027,1258
2727.0491515900053,1303
2728.824419272075,1287
2730.5993275676146,1259
2732.3738767760838,1278
2734.148067197016,1292
2735.921899130031,1247
2737.6953728748194,1269
2739.468488731156,1268
2741.2412469988926,1298
2743.0136479779617,1290
2744.785691968372,1259
2746.5573792702116,1220
2748.3287101836504,1295
2750.099685008934,1242
2751.870304046388,1281
2753.640567596418,1229
2755.4104759595057,1229
2757.1800294362156,1234
2758.949228327187,1285
2760.7180729331412,1243
2762.486563554877,1230
2764.254700493272,1236
2766.022484049284,1265
2767.789914523947,1262
2769.5569922183786,1255
2771.3237174337705,1237
2773.090090471394,1240
2774.8561116326036,1248
2776.6217812188274,1254
2778.3870995315756,1264
2780.1520668724356,1280
2781.9166835430747,1222
2783.6809498452394,1258
2785.444866080754,1232
2787.2084325515225,1273
2788.971649559527,1218
2790.73451740683,1259
2792.4970363955713,1222
2794.2592068279705,1237
2796.0210290063264,1257
2797.7825032330147,1217
2799.543629810493,1223
2801.304409041296,1262
2803.0648412280366,1270
2804.8249266734088,1271
2806.5846656801846,1279
2808.344058551212,1235
2810.1031055894246,1237
2811.8618070978273,1257
2813.6201633795085,1293
2815.378174737636,1251
2817.1358414754536,1268
2818.893163896285,1283
2820.6501423035334,1241
2822.4067770006814,1263
2824.1630682912883,1255
2825.9190164789957,1230
2827.6746218675207,1268
2829.429884760661,1295
2831.184805462294,1282
2832.9393842763743,1287
2834.693621506936,1223
2836.4475174580916,1206
2838.201072434034,1262
2839.954286739034,1254
2841.707160677441,1251
2843.459694553685,1276
2845.2118886722724,1239
2846.96374333779,1209
2848.7152588549034,1220
2850.4664355283567,1251
2852.217273662973,1256
2853.9677735636546,1238
2855.7179355353833,1206
2857.4677598832186,1251
2859.217246912299,1213
2860.9663969278427,1284
2862.715210235146,1223
2864.4636871395846,1278
2866.211827946614,1225
2867.9596329617652,1246
2869.7071024906536,1199
2871.4542368389684,1262
2873.20103631248,1213
2874.947501217038,1243
2876.6936318585695,1279
2878.4394285430812,1285
2880.1848915766604,1259
2881.9300212654707,1265
2883.6748179157553,1212
2885.4192818338374,1233
2887.1634133261173,1245
2888.907212699077,1245
2890.6506802592744,1325
2892.393816313348,1297
2894.1366211680142,1258
2895.8790951300693,1265
2897.621238506388,1280
2899.363051603925,1241
2901.1045347297118,1241
2902.8456881908596,1259
2904.58651229456,1256
2906.327007348081,1281
2908.067173658772,1239
2909.8070115340597,1244
2911.5465212814497,1239
2913.285703208527,1252
2915.0245576229563,1272
2916.7630848324807,1207
2918.5012851449196,1224
2920.2391588681758,1262
2921.976706310227,1205
2923.7139277791334,1238
2925.4508235830313,1237
2927.187394030137,1263
2928.923639428745,1235
2930.6595600872306,1278
2932.395156314046,1244
2934.1304284177218,1260
2935.8653767068713,1287
2937.6000014901815,1281
2939.3343030764227,1292
2941.068281774442,1272
2942.8019378931644,1297
2944.5352717415976,1272
2946.2682836288236,1295
2948.0009738640065,1262
2949.7333427563885,1223
2951.465390615289,1270
2953.1971177501086,1244
2954.9285244703265,1271
2956.6596110855,1231
2958.3903779052657,1261
2960.1208252393385,1265
2961.8509533975125,1217
2963.5807626896617,1242
2965.3102534257378,1243
2967.0394259157715,1263
2968.768280469873,1224
2970.496817398232,1253
2972.2250370111146,1231
2973.952939618869,1253
2975.6805255319196,1218
2977.4077950607707,1212
2979.134748516006,1206
2980.861386208289,1180
2982.587708448359,1210
2984.313715547037,1251
2986.039407815222,1249
2987.764785563891,1296
2989.489849104102,1270
2991.2145987469908,1229
2992.9390348037705,1228
2994.6631575857346,1239
2996.3869674042576,1200
2998.1104645707887,1192
2999.83364939686,1167
3001.5565221940783,1246
3003.2790832741334,1195
3005.0013329487924,1186
3006.7232715298996,1205
3008.4448993293804,1229
3010.166216659239,1205
3011.887223831558,1205
3013.607921158498,1244
3015.3283089522993,1236
3017.0483875252826,1228
3018.7681571898443,1194
3020.4876182584626,1212
3022.2067710436927,1230
3023.9256158581707,1206
3025.644153014609,1233
3027.362382825801,1209
3029.0803056046193,1155
3030.797921664012,1167
3032.5152313170106,1194
3034.2322348767225,1184
3035.9489326563353,1247
3037.665324969115,1159
3039.3814121284063,1163
3041.097194447633,1183
3042.812672240299,1225
3044.5278458199855,1208
3046.2427155003525,1197
3047.9572815951406,1204
3049.671544418167,1222
3051.38550428333,1232
3053.0991615046073,1252
3054.812516396051,1174
3056.5255692717974,1269
3058.2383204460575,1205
3059.9507702331257,1199
3061.662918947372,1226
3063.3747669032446,1215
3065.0863144152736,1240
3066.7975617980674,1178
3068.508509366309,1208
3070.219157434767,1180
3071.9295063182844,1185
3073.639556331785,1190
3075.3493077902704,1169
3077.058761008821,1180
3078.7679163025964,1229
3080.476773986837,1176
3082.1853343768594,1187
3083.89359778806,1188
3085.6015645359153,1207
3087.3092349359786,1208
3089.016609303884,1231
3090.7236879553434,1232
3092.4304712061476,1165
3094.136959372166,1213
3095.843152769349,1255
3097.5490517137237,1196
3099.2546565213966,1198
3100.959967508554,1244
3102.66498499146,1254
3104.3697092864577,1189
3106.0741407099695,1207
3107.778279578498,1150
3109.482126208622,1195
3111.1856809170004,1208
3112.8889440203716,1189
3114.5919158355528,1199
3116.294596679439,1152
3117.996986869006,1192
3119.6990867213062,1226
3121.4008965534726,1284
3123.102416682717,1251
3124.803647426329,1233
3126.5045891016784,1219
3128.205242026213,1215
3129.90560651746,1240
3131.605682893025,1220
3133.3054714705922,1227
3135.0049725679282,1179
3136.7041865028714,1252
3138.4031135933465,1242
3140.101754157353,1157
3141.800108512971,1231
3143.498176978357,1218
3145.1959598717494,1132
3146.8934575114636,1214
3148.5906702158954,1257
3150.2875983035183,1281
3151.9842420928853,1180
3153.680601902627,1192
3155.376678051456,1141
3157.07247085816,1202
3158.767980641609,1249
3160.463207720748,1165
3162.158152414606,1143
3163.8528150422862,1222
3165.5471959229726,1177
3167.2412953759303,1193
3168.9351137204976,1224
3170.628651276098,1244
3172.3219083622307,1231
3174.014885298474,1251
3175.707582404485,1191
3177.4000000000005,1161
3179.092138404835,1225
3180.7839979388846,1215
3182.47557892212,1228
3184.166881674594,1232
3185.8579065164386,1222
3187.5486537678626,1184
3189.2391237491547,1185
3190.9293167806827,1220
3192.6192331828934,1250
3194.3088732763117,1186
3195.998237381542,1150
3197.687325819268,1187
3199.376138910251,1230
3201.064676975334,1127
3202.7529403354347,1201
3204.4409293115523,1172
3206.1286442247647,1141
3207.816085396229,1205
3209.5032531471825,1176
3211.190147798936,1183
3212.8767696728846,1208
3214.5631190905015,1119
3216.2491963733373,1220
3217.9350018430214,1149
3219.6205358212637,1193
3221.305798629851,1166
3222.990790590651,1154
3224.6755120256103,1213
3226.359963256751,1193
3228.0441446061795,1223
3229.7280563960758,1158
3231.411698948703,1183
3233.0950725863995,1150
3234.778177631587,1211
3236.461014406761,1212
3238.1435832345005,1191
3239.8258844374595,1183
3241.507918338374,1185
3243.1896852600576,1194
3244.8711855254023,1194
3246.552419457381,1164
3248.233387379042,1221
3249.914089613516,1198
3251.59452648401,1205
3253.274698313813,1202
3254.95460542629,1157
3256.6342481448855,1199
3258.313626793125,1186
3259.9927416946084,1198
3261.6715931730196,1177
3263.3501815521176,1179
3265.0285071557437,1181
3266.706570307815,1166
3268.3843713323286,1162
3270.0619105533615,1193
3271.739188295068,1233
3273.4162048816834,1227
3275.0929606375184,1184
3276.769455886966,1167
3278.445690954498,1192
3280.1216661646613,1205
3281.797381842087,1152
3283.4728383114807,1201
3285.1480358976296,1148
3286.8229749253996,1199
3288.4976557197333,1200
3290.172078605655,1181
3291.846243908266,1187
3293.5201519527463,1204
3295.193803064357,1168
3296.8671975684374,1158
3298.5403357904024,1156
3300.21321805575,1163
3301.8858446900567,1153
3303.558216018975,1162
3305.23033236824,1215
3306.9021940636603,1137
3308.57380143113,1182
3310.2451547966184,1160
3311.916254486174,1209
3313.5871008259246,1188
3315.2576941420766,1179
3316.9280347609147,1210
3318.5981230088046,1201
3320.2679592121895,1151
3321.9375436975924,1147
3323.606876791612,1156
3325.27595882093,1174
3326.944790112305,1177
3328.6133709925753,1206
3330.2817017886573,1193
3331.949782827547,1210
3333.617614436319,1229
3335.2851969421245,1208
3336.952530672199,1248
3338.619615953853,1195
3340.286453114475,1230
3341.9530424815357,1181
3343.619384382583,1178
3345.2854791452437,1229
3346.951327097224,1146
3348.6169285663073,1144
3350.2822838803577,1214
3351.947393367319,1202
3353.61225735521,1160
3355.2768761721345,1199
3356.9412501462693,1215
3358.605379605873,1210
3360.2692648792827,1180
3361.9329062949146,1175
3363.596304181263,1168
