CollectionTime,9/20/2024 10:47:03 AM
ExposureUsed,3
CalibratedSpectrum
-962.7078968117929,590
-959.9714848408522,587
-957.2358232597828,519
-954.5009119013725,572
-951.7667505983302,591
-949.0333391832855,598
-946.3006774887896,584
-943.5687653473143,592
-940.837602591253,592
-938.1071890529199,588
-935.3775245645503,588
-932.6486089583007,567
-929.9204420662485,553
-927.1930237203925,576
-924.4663537526524,567
-921.7404319948689,604
-919.0152582788041,612
-916.2908324361409,625
-913.5671542984834,554
-910.8442236973568,553
-908.1220404642074,550
-905.4006044304027,551
-902.679915427231,533
-899.959973285902,554
-897.2407778375464,531
-894.5223289132158,491
-891.8046263438832,531
-889.0876699604426,543
-886.3714595937089,540
-883.6559950744183,525
-880.9412762332282,545
-878.2273029007168,561
-875.5140749073835,550
-872.8015920836489,545
-870.0898542598545,528
-867.3788612662631,542
-864.6686129330585,542
-861.9591090903457,520
-859.2503495681506,513
-856.5423341964203,566
-853.8350628050229,563
-851.1285352237478,564
-848.4227512823054,567
-845.7177108103272,521
-843.0134136373656,541
-840.3098595928943,555
-837.6070485063082,601
-834.9049802069229,552
-832.2036545239757,520
-829.5030712866244,551
-826.8032303239481,569
-824.1041314649472,525
-821.4057745385428,579
-818.7081593735775,556
-816.0112857988148,569
-813.3151536429393,546
-810.6197627345566,557
-807.9251129021936,559
-805.2312039742981,573
-802.5380357792392,553
-799.8456081453069,555
-797.1539209007124,586
-794.462973873588,584
-791.772766891987,597
-789.083299783884,577
-786.3945723771743,515
-783.7065844996748,552
-781.0193359791231,550
-778.3328266431781,574
-775.6470563194197,544
-772.9620248353489,577
-770.2777320183878,557
-767.5941776958798,566
-764.9113616950891,579
-762.2292838432011,538
-759.5479439673222,544
-756.8673418944801,572
-754.1874774516235,549
-751.5083504656222,548
-748.8299607632671,558
-746.15230817127,590
-743.475392516264,606
-740.7992136248035,623
-738.1237713233636,592
-735.4490654383407,576
-732.7750957960521,572
-730.1018622227365,554
-727.4293645445534,583
-724.7576025875837,577
-722.0865761778291,538
-719.4162851412126,570
-716.7467293035781,602
-714.0779084906909,622
-711.409822528237,628
-708.7424712418238,591
-706.0758544569796,569
-703.4099719991541,577
-700.7448236937178,622
-698.0804093659622,594
-695.4167288411002,594
-692.7537819442656,609
-690.0915685005134,591
-687.4300883348199,632
-684.7693412720819,611
-682.1093271371178,588
-679.4500457546669,616
-676.7914969493897,577
-674.1336805458676,603
-671.4765963686034,600
-668.8202442420206,571
-666.1646239904642,611
-663.5097354382001,593
-660.8555784094151,611
-658.2021527282176,635
-655.5494582186366,612
-652.8974947046223,621
-650.2462620100463,645
-647.5957599587009,634
-644.9459883742998,674
-642.2969470804776,638
-639.6486359007902,644
-637.0010546587141,659
-634.3542031776476,694
-631.7080812809096,655
-629.0626887917401,645
-626.4180255333008,648
-623.7740913286734,658
-621.1308860008619,657
-618.4884093727904,697
-615.8466612673046,654
-613.2056415071715,672
-610.5653499150785,628
-607.9257863136347,668
-605.28695052537,677
-602.6488423727357,681
-600.0114616781036,671
-597.3748082637674,714
-594.7388819519412,687
-592.1036825647604,699
-589.4692099242818,689
-586.8354638524829,711
-584.2024441712624,744
-581.5701507024403,731
-578.9385832677575,735
-576.3077416888759,763
-573.6776257873787,744
-571.0482353847704,717
-568.4195703024757,714
-565.7916303618415,724
-563.164415384135,734
-560.5379251905453,729
-557.9121596021815,738
-555.2871184400748,720
-552.6628015251767,709
-550.0392086783606,743
-547.4163397204204,785
-544.794194472071,811
-542.1727727539491,797
-539.5520743866118,806
-536.9320991905377,909
-534.3128469861261,885
-531.6943175936979,852
-529.0765108334947,834
-526.4594265256793,940
-523.8430644903358,1136
-521.2274245474689,1315
-518.612506517005,1449
-515.9983102187913,1445
-513.3848354725959,1669
-510.77208209810846,1850
-508.16004991493924,1974
-505.5487387426199,2099
-502.9381484006032,2076
-500.3282787082628,1965
-497.71912948489364,1756
-495.1107005497117,1485
-492.5029917218539,1281
-489.8960028203786,1154
-487.28973366426493,1035
-484.68418407241325,940
-482.07935386364494,884
-479.47524285670266,897
-476.87185087025,890
-474.2691777228715,925
-471.66722323307334,922
-469.0659872192821,918
-466.4654694998459,860
-463.86566989303384,920
-461.26658821703614,908
-458.66822428996414,918
-456.07057792985,922
-453.4736489546475,949
-450.877437182231,922
-448.28194243039627,843
-445.68716451686,856
-443.09310325926003,847
-440.49975847515555,834
-437.9071299820263,880
-435.31521759727354,917
-432.72402113821954,948
-430.13354042210767,866
-427.5437752661022,912
-424.95472548728867,887
-422.36639090267386,905
-419.7787713291855,952
-417.1918665836721,957
-414.60567648290385,908
-412.0202008435715,955
-409.4354394822874,972
-406.8513922155845,939
-404.26805885991723,991
-401.685439231661,1032
-399.103533147112,937
-396.522340422488,1013
-393.9418608739278,947
-391.3620943174908,884
-388.7830405691583,936
-386.2046994448317,890
-383.6270707603344,843
-381.05015433141045,857
-378.473949973725,805
-375.8984575028645,769
-373.32367673433623,707
-370.74960748356875,758
-368.1762495659117,666
-365.60360279663576,689
-363.03166699093265,673
-360.4604419639154,645
-357.8899275306178,636
-355.32012350599507,608
-352.7510297049233,629
-350.1826459421999,590
-347.61497203254316,557
-345.04800779059235,567
-342.4817530309082,576
-339.91620756797226,644
-337.35137121618743,620
-334.7872437898774,681
-332.22382510328725,602
-329.66111497058273,630
-327.09911320585127,590
-324.53781962310075,554
-321.9772340362607,596
-319.4173562591816,610
-316.8581861056348,602
-314.2997233893127,634
-311.7419679238294,630
-309.1849195227194,690
-306.62857799943856,659
-304.0729431673641,681
-301.51801483979375,689
-298.963792829947,606
-296.41027695096386,576
-293.85746701590574,657
-291.3053628377552,710
-288.7539642294155,659
-286.2032710037115,638
-283.65328297338897,686
-281.1039999511146,705
-278.5554217494762,728
-276.007548180983,731
-273.4603790580651,773
-270.9139141930734,738
-268.3681533982807,807
-265.8230964858798,849
-263.27874326798565,813
-260.7350935566336,804
-258.1921471637804,794
-255.6499039013039,965
-253.10836358100266,903
-250.56752601459698,810
-248.02739101372765,907
-245.48795838995704,989
-242.94922795476816,942
-240.41119951956557,917
-237.8738728956746,873
-235.33724789434166,898
-232.80132432673452,928
-230.2661020039418,807
-227.73158073697357,942
-225.19776033676033,1062
-222.66464061415422,1183
-220.1322213799284,1117
-217.60050244477725,1038
-215.06948361931552,1067
-212.53916471408013,1232
-210.00954553952818,1039
-207.48062590603843,947
-204.9524056239104,1031
-202.4248845033651,1056
-199.8980623545441,1081
-197.37193898751036,1245
-194.84651421224817,1364
-192.32178783866232,1308
-189.79775967657952,1179
-187.27442953574644,1180
-184.7517972258321,1208
-182.2298625564256,1075
-179.7086253370378,898
-177.18808537710026,1081
-174.66824248596583,1340
-172.14909647290835,1506
-169.6306471471229,1457
-167.11289431772548,1257
-164.59583779375328,1018
-162.07947738416453,1108
-159.5638128978386,1434
-157.04884414357605,1587
-154.53457093009854,1437
-152.02099306604828,1408
-149.50811035998936,1446
-146.99592262040665,1744
-144.48442965570587,1880
-141.97363127421409,1856
-139.46352728417958,1848
-136.95411749377126,1767
-134.44540171107985,1720
-131.93737974411636,1487
-129.43005140081357,1514
-126.92341648902493,2001
-124.41747481652521,1996
-121.91222619101006,2401
-119.40767042009657,2804
-116.90380731132257,3149
-114.40063667214702,3751
-111.8981583099503,4861
-109.3963720320337,7122
-106.89527764561933,10203
-104.39487495785067,11392
-101.89516377579241,13316
-99.39614390642998,16556
-96.89781515667039,23828
-94.40017733334128,33374
-91.90323024319173,33647
-89.40697369289148,24498
-86.91140748903172,17044
-84.41653143812482,11550
-81.92234534660395,11960
-79.42884902082358,15658
-76.93604226705907,18264
-74.4439248915071,15982
-71.95249670028534,12068
-69.46175749943245,8774
-66.97170709490854,6796
-64.48234529259423,6411
-61.99367189829195,8155
-59.50568671772464,9810
-57.01838955653636,12786
-54.53178022029283,14284
-52.045858514480074,15613
-49.560624244506016,19671
-47.07607721569923,20002
-44.59221723330904,16837
-42.10904410250669,19059
-39.62655762838392,18810
-37.14475761595372,23128
-34.66364387015028,26400
-32.18321619582866,26983
-29.70347439776515,31661
-27.224418280657005,42535
-24.74604764912317,51410
-22.26836230770266,65033
-19.7913620608565,65033
-17.315046712966478,65033
-14.83941606833514,65033
-12.36446993118659,65033
-9.89020810566592,65033
-7.416630395839093,65033
-4.94373660569363,65033
-2.471526539137585,65033
-6.821210263296962E-13,65033
2.47084320796705,65033
4.941003281093458,65033
7.410480415786196,65033
9.879274808531363,65033
12.347386655893956,65033
14.814816154518212,65033
17.28156350112681,65033
19.74762889252179,65033
22.21301252558385,65033
24.67771459727237,24842
27.141735304626195,7474
29.605074844762612,6245
32.06773341487792,6326
34.52971121224755,5645
36.99100843422559,4489
39.45162527824516,4571
41.91156194181792,5540
44.370818622535126,6570
46.82939551806646,5391
49.287292826160524,6349
51.74451074464503,5735
54.201049471426245,4173
56.65690920448981,3531
59.112090141899785,3613
61.56659248179983,3878
64.02041642241159,3844
66.4735621620365,4020
68.92602989905402,4018
71.37781983192338,3725
73.82893215918205,3110
76.27936707944684,2171
78.72912479141326,2308
81.17820549385567,2211
83.62660938562783,1950
86.07433666566146,2004
88.5213875329681,2511
90.96776218663751,2692
93.41346082583925,2625
95.85848364982041,3052
98.30283085790859,2188
100.7465026495089,1832
103.18949922410604,1891
105.63182078126385,1767
108.07346752062438,1913
110.51443964190923,1917
112.95473734491827,1809
115.39436082953114,1819
117.83331029570547,1821
120.27158594347827,1943
122.7091879729652,1907
125.1461165843615,1753
127.58237197794062,1695
130.01795435405518,1931
132.4528639131364,2007
134.88710085569494,1753
137.32066538231982,1699
139.75355769367923,1893
142.1857779905207,1571
144.61732647366978,1307
147.04820334403132,1304
149.47840880258934,1372
151.90794305040674,1621
154.33680628862487,1769
156.76499871846443,1843
159.19252054122433,1826
161.61937195828352,1927
164.04555317109896,1877
166.47106438120693,2068
168.89590579022217,2057
171.320077599839,2141
173.7435800118302,2404
176.16641322804742,2451
178.58857745042144,2490
181.01007288096173,2439
183.43089972175687,2297
185.85105817497413,2269
188.27054844285988,2371
190.6893707277394,2523
193.10752523201643,2605
195.5250121581745,2691
197.9418317087751,2682
200.3579840864594,2507
202.7734694939469,2593
205.18828813403627,2711
207.6024402096051,2713
210.01592592360964,2617
212.42874547908548,2736
214.84089907914665,2592
217.2523869269868,2574
219.66320922587727,2670
222.0733661791695,2538
224.48285799029293,2700
226.8916848627572,2869
229.29984700014882,2684
231.7073446061355,2549
234.11417788446204,2653
236.520347038953,2650
238.92585227351185,2638
241.33069379212054,2806
243.73487179884035,2831
246.1383864978112,2695
248.541238093252,2630
250.9434267894609,2676
253.34495279081432,2580
255.74581630176783,2714
258.1460175268563,2671
260.54555667069314,2625
262.9444339379703,2590
265.3426495334594,2738
267.7402036620107,2876
270.1370965285529,2694
272.53332833809407,2706
274.9288992957214,2667
277.32380960660055,2588
279.718059475976,2593
282.1116491091717,2650
284.5045787115897,2689
286.89684848871195,2709
289.2884586460981,2617
291.67940938938807,2734
294.0697009242996,2683
296.4593334566299,2731
298.84830719225477,2769
301.23662233712923,2723
303.6242790972866,2594
306.01127767884,2619
308.39761828798066,2610
310.78330113097934,2502
313.16832641418534,2474
315.5526943440269,2475
317.9364051270112,2493
320.3194589697242,2499
322.70185607883093,2441
325.0835966610754,2382
327.4646809232805,2431
329.8451090723478,2375
332.2248813152577,2464
334.6039978590701,2475
336.9824589109231,2417
339.36026467803447,2377
341.7374153677,2430
344.113911187295,2376
346.48975234427337,2382
348.8649390461686,2372
351.2394715005918,2379
353.61334991523415,2354
355.9865744978655,2420
358.35914545633375,2375
360.73106299856715,2392
363.10232733257146,2271
365.47293866643247,2266
367.84289720831396,2326
370.2122031664593,2312
372.5808567491905,2242
374.9488581649083,2228
377.31620762209275,2259
379.6829053293021,2192
382.0489514951745,2167
384.4143463284262,2220
386.7790900378528,2121
389.14318283232853,2125
391.50662492080653,2122
393.86941651231916,2185
396.23155781597745,2246
398.5930490409713,2243
400.9538903965696,2298
403.3140820921202,2183
405.6736243370498,2263
408.03251734086336,2173
410.3907613131465,2152
412.74835646356166,2163
415.10530300185144,2144
417.4616011378372,2197
419.81725108141893,2192
422.1722530425758,2101
424.5266072313656,2172
426.880313857925,2123
429.2333731324701,2078
431.58578526529516,2096
433.9375504667738,2170
436.2886689473588,2093
438.63914091758113,2130
440.9889665880513,1984
443.33814616945835,2090
445.68667987257015,2015
448.03456790823395,2062
450.3818104873759,2007
452.72840782100013,1960
455.07436012019105,2000
457.41966759611057,2037
459.7643304600007,1964
462.10834892318155,1994
464.4517231970525,2037
466.79445349309174,2086
469.1365400228566,2055
471.4779829979826,2130
473.81878263018564,2161
476.15893913125876,2166
478.4984527130747,2182
480.8373235875855,2245
483.17555196682144,2290
485.5131380628919,2307
487.8500820879857,2365
490.1863842543697,2451
492.52204477439034,2619
494.8570638604725,2729
497.1914417251204,3078
499.52517858091653,3567
501.85827464052306,4136
504.19073011668036,4467
506.5225452222086,4748
508.85372017000566,4917
511.18425517304956,4857
513.514150444396,5474
515.8434061971808,6459
518.1720226446176,6872
520.4999999999999,6766
522.8273384766991,6267
525.1540382881666,5789
527.480099647932,5054
529.8055227696037,4045
532.1303078668694,2972
534.454455153496,2546
536.777964843328,2270
539.1008371502907,2150
541.4230722883866,2081
543.744670471698,2075
546.0656319143858,2092
548.3859568306899,1953
550.7056454349294,2013
553.0246979415016,1968
555.3431145648834,1950
557.6608955196306,1931
559.978041020377,1974
562.2945512818363,2038
564.6104265188006,2082
566.9256669461412,1978
569.2402727788082,2066
571.5542442318302,2106
573.8675815203156,2076
576.1802848594508,2121
578.4923544645015,2030
580.8037905508126,2054
583.114593333807,2148
585.4247630289875,2126
587.7342998519354,2017
590.0432040183106,2051
592.3514757438526,2036
594.6591152443794,1969
596.9661227357875,2100
599.2724984340531,2047
601.578242555231,1963
603.8833553154542,1953
606.1878369309362,1921
608.4916876179676,1882
610.7949075929192,1861
613.0974970722403,1968
615.3994562724587,1954
617.7007854101818,1966
620.0014847020951,1986
622.3015543649641,2078
624.6009946156324,2005
626.8998056710224,1964
629.1979877481361,1943
631.4955410640538,2026
633.7924658359349,1984
636.0887622810175,2053
638.3844306166192,1959
640.6794710601358,2001
642.9738838290426,2056
645.2676691408932,2015
647.5608272133207,2022
649.853358264037,2011
652.1452625108324,2044
654.4365401715764,2046
656.7271914642178,2000
659.0172166067838,2040
661.3066158173809,2043
663.5953893141935,2006
665.8835373154867,2028
668.1710600396028,2024
670.4579577049639,2075
672.7442305300709,2021
675.0298787335033,2131
677.3149025339197,2025
679.599302150058,2067
681.8830778007342,2000
684.1662297048437,1958
686.4487580813608,1997
688.7306631493387,2152
691.0119451279091,2075
693.2926042362834,2077
695.5726406937516,2039
697.8520547196814,1980
700.1308465335215,2006
702.4090163547982,1986
704.6865644031171,1998
706.9634908981619,2054
709.2397960596965,2028
711.5154801075631,2082
713.7905432616823,2145
716.0649857420548,2090
718.3388077687592,2032
720.612009561953,2132
722.8845913418733,2051
725.1565533288352,1964
727.427895743234,2024
729.6986188055427,1987
731.9687227363137,1988
734.238207756178,1980
736.5070740858458,1951
738.7753219461066,2008
741.0429515578281,2036
743.3099631419569,2124
745.5763569195191,2039
747.8421331116193,1996
750.1072919394409,1962
752.3718336242467,2050
754.6357583873777,2066
756.8990664502545,2025
759.1617580343765,2081
761.423833361321,2011
763.6852926527457,2001
765.9461361303862,2000
768.206364016058,2027
770.4659765316536,2144
772.7249738991469,2083
774.9833563405886,2125
777.2411240781092,2001
779.4982773339183,2038
781.7548163303044,2065
784.010741289634,2023
786.2660524343538,2137
788.5207499869881,2070
790.7748341701416,2056
793.0283052064964,2122
795.2811633188143,2078
797.5334087299362,2102
799.7850416627813,2210
802.0360623403484,2096
804.2864709857143,2101
806.5362678220353,2125
808.7854530725468,2067
811.0340269605625,2160
813.2819897094754,2170
815.5293415427581,2105
817.77608268396,2078
820.0222133567116,2036
822.2677337847211,2042
824.5126441917765,2061
826.7569448017433,2079
829.0006358385675,2065
831.2437175262731,2059
833.4861900889629,2071
835.7280537508192,2100
837.9693087361026,2055
840.2099552691533,2126
842.4499935743896,2067
844.689423876309,2053
846.9282463994886,2088
849.1664613685833,2125
851.4040690083276,2130
853.6410695435349,2059
855.877463199097,2042
858.1132501999847,2110
860.3484307712487,2146
862.5830051380175,2143
864.8169735254988,2037
867.0503361589791,2022
869.2830932638243,1998
871.5152450654786,2134
873.7467917894654,2159
875.9777336613873,2066
878.2080709069252,2078
880.4378037518389,2096
882.666932421968,2104
884.8954571432301,2102
887.1233781416219,2172
889.3506956432192,2116
891.5774098741766,2084
893.803521060728,2127
896.0290294291852,2095
898.2539352059397,2072
900.4782386174619,2087
902.7019398903011,2115
904.925039251085,2162
907.147536926521,2163
909.3694331433943,2070
911.59072812857,2147
913.8114221089921,2091
916.0315153116827,2115
918.2510079637437,2158
920.4699002923547,2124
922.6881925247761,2082
924.905884888345,2161
927.1229776104793,2160
929.3394709186747,2119
931.555365040506,2130
933.7706602036275,2036
935.9853566357709,2187
938.1994545647489,2143
940.4129542184515,2117
942.6258558248488,2069
944.8381596119883,2106
947.0498658079974,2202
949.2609746410825,2152
951.4714863395287,2082
953.6814011316998,2235
955.8907192460387,2119
958.0994409110671,2066
960.3075663553858,2061
962.5150958076741,2068
964.7220294966913,2078
966.928367651274,2009
969.1341105003388,2078
971.3392582728806,2082
973.5438111979742,2008
975.747769504772,2026
977.9511334225061,1969
980.153903180487,1916
982.3560790081052,1984
984.5576611348289,1940
986.7586497902058,1942
988.9590452038618,1877
991.158847605503,1904
993.3580572249133,1832
995.5566742919558,1889
997.7546990365728,1832
999.952131688785,1778
1002.1489724786926,1799
1004.3452216364743,1691
1006.5408793923874,1773
1008.7359459767691,1706
1010.9304216200343,1755
1013.1243065526781,1684
1015.3176010052733,1677
1017.510305208472,1633
1019.7024193930064,1622
1021.8939437896848,1621
1024.0848786293977,1703
1026.2752241431122,1702
1028.4649805618747,1696
1030.6541481168115,1667
1032.842727039127,1627
1035.0307175601051,1612
1037.2181199111074,1562
1039.4049343235752,1572
1041.591161029029,1650
1043.7768002590683,1633
1045.9618522453698,1563
1048.1463172196918,1541
1050.3301954138697,1552
1052.513487059818,1594
1054.69619238953,1596
1056.8783116350783,1591
1059.0598450286152,1560
1061.2407928023704,1581
1063.4211551886528,1527
1065.6009324198508,1508
1067.780124728432,1549
1069.9587323469414,1589
1072.1367555080046,1516
1074.314194444325,1544
1076.4910493886855,1438
1078.667320573947,1534
1080.843008233051,1522
1083.0181125990161,1471
1085.1926339049414,1528
1087.3665723840027,1508
1089.5399282694575,1485
1091.7127017946405,1536
1093.8848931929647,1486
1096.0565026979243,1485
1098.2275305430899,1512
1100.3979769621128,1499
1102.567842188722,1463
1104.737126456726,1480
1106.9058300000124,1473
1109.0739530525475,1443
1111.2414958483764,1443
1113.4084586216231,1457
1115.5748416064907,1491
1117.7406450372605,1465
1119.9058691482942,1592
1122.0705141740304,1545
1124.2345803489884,1508
1126.3980679077658,1506
1128.5609770850388,1512
1130.7233081155623,1474
1132.8850612341707,1498
1135.0462366757774,1410
1137.2068346753745,1465
1139.3668554680326,1456
1141.526299288901,1442
1143.68516637321,1441
1145.8434569562655,1484
1148.001171273455,1453
1150.158309560244,1456
1152.3148720521767,1446
1154.470858984876,1415
1156.626270594044,1438
1158.7811071154629,1453
1160.9353687849912,1464
1163.089055838569,1461
1165.242168512213,1473
1167.3947070420209,1446
1169.5466716641677,1413
1171.6980626149075,1427
1173.8488801305748,1464
1175.9991244475814,1454
1178.1487958024186,1425
1180.2978944316555,1421
1182.4464205719428,1496
1184.5943744600072,1446
1186.7417563326567,1429
1188.8885664267755,1425
1191.0348049793297,1425
1193.1804722273619,1395
1195.325568407995,1454
1197.4700937584303,1449
1199.614048515948,1418
1201.7574329179074,1444
1203.900247201746,1462
1206.042491604982,1423
1208.1841663652099,1430
1210.3252717201053,1454
1212.465807907422,1425
1214.6057751649923,1538
1216.7451737307279,1411
1218.8840038426192,1395
1221.0222657387353,1449
1223.1599596572241,1436
1225.2970858363137,1487
1227.4336445143094,1429
1229.5696359295966,1402
1231.705060320639,1418
1233.8399179259786,1403
1235.9742089842384,1491
1238.107933734118,1465
1240.2410924143974,1450
1242.373685263935,1431
1244.5057125216676,1434
1246.6371744266116,1469
1248.7680712178621,1384
1250.898403134593,1454
1253.028170416058,1458
1255.1573733015875,1474
1257.2860120305932,1480
1259.4140868425648,1490
1261.54159797707,1417
1263.6685456737569,1482
1265.7949301723515,1458
1267.9207517126597,1428
1270.046010534565,1509
1272.1707068780306,1460
1274.2948409830983,1503
1276.4184130898889,1458
1278.541423438603,1476
1280.6638722695184,1425
1282.785759822993,1445
1284.9070863394636,1428
1287.0278520594447,1396
1289.1480572235314,1506
1291.2677020723963,1425
1293.3867868467923,1461
1295.5053117875495,1449
1297.623277135579,1444
1299.740683131868,1466
1301.8575300174857,1504
1303.973818033578,1527
1306.0895474213703,1507
1308.2047184221678,1514
1310.3193312773528,1521
1312.4333862283888,1527
1314.5468835168163,1463
1316.659823384255,1474
1318.7722060724045,1503
1320.8840318230418,1506
1322.9953008780249,1515
1325.1060134792888,1516
1327.2161698688478,1458
1329.3257702887959,1485
1331.4348149813054,1511
1333.5433041886276,1601
1335.6512381530933,1532
1337.7586171171101,1513
1339.8654413231675,1547
1341.9717110138317,1449
1344.0774264317488,1509
1346.1825878196432,1516
1348.2871954203192,1464
1350.3912494766587,1539
1352.4947502316231,1489
1354.5976979282532,1520
1356.7000928096686,1549
1358.8019351190665,1552
1360.9032250997243,1488
1363.0039629949988,1530
1365.1041490483235,1467
1367.2037835032133,1564
1369.3028666032606,1508
1371.401398592137,1545
1373.4993797135926,1539
1375.5968102114575,1439
1377.6936903296396,1494
1379.7900203121262,1509
1381.8858004029835,1507
1383.9810308463561,1514
1386.075711886469,1466
1388.1698437676241,1457
1390.2634267342032,1546
1392.356461030667,1505
1394.4489469015557,1485
1396.5408845914872,1518
1398.6322743451592,1511
1400.7231164073469,1491
1402.813411022907,1561
1404.903158436773,1581
1406.9923588939578,1556
1409.0810126395531,1552
1411.1691199187303,1502
1413.2566809767386,1542
1415.343696058907,1610
1417.4301654106425,1525
1419.5160892774315,1543
1421.6014679048399,1555
1423.6863015385125,1495
1425.7705904241707,1568
1427.8543348076178,1573
1429.9375349347342,1602
1432.0201910514802,1585
1434.102303403894,1523
1436.1838722380944,1522
1438.2648978002767,1526
1440.3453803367174,1517
1442.4253200937692,1506
1444.5047173178677,1539
1446.5835722555234,1564
1448.6618851533285,1579
1450.739656257952,1607
1452.8168858161434,1498
1454.8935740747306,1571
1456.96972128062,1566
1459.045327680797,1633
1461.120393522327,1571
1463.1949190523528,1554
1465.2689045180973,1564
1467.3423501668608,1505
1469.415256246024,1598
1471.4876230030463,1567
1473.559450685465,1623
1475.6307395408976,1631
1477.7014898170391,1555
1479.771701761665,1625
1481.8413756226287,1575
1483.9105116478618,1595
1485.9791100853772,1568
1488.0471711832643,1615
1490.1146951896926,1588
1492.1816823529098,1581
1494.2481329212433,1573
1496.3140471430984,1594
1498.3794252669609,1569
1500.4442675413939,1605
1502.5085742150404,1671
1504.572345536622,1712
1506.6355817549388,1614
1508.6982831188702,1639
1510.7604498773744,1671
1512.8220822794883,1686
1514.8831805743293,1646
1516.9437450110909,1642
1519.003775839048,1604
1521.0632733075522,1606
1523.1222376660367,1678
1525.1806691640113,1631
1527.2385680510652,1636
1529.2959345768668,1617
1531.3527689911643,1676
1533.4090715437833,1662
1535.4648424846291,1690
1537.5200820636855,1658
1539.5747905310159,1744
1541.6289681367616,1716
1543.6826151311434,1697
1545.7357317644614,1680
1547.7883182870937,1645
1549.8403749494987,1681
1551.8919020022113,1705
1553.9428996958477,1717
1555.9933682811015,1731
1558.0433080087469,1786
1560.0927191296346,1804
1562.1416018946961,1725
1564.1899565549415,1806
1566.2377833614592,1799
1568.2850825654164,1814
1570.3318544180606,1737
1572.3780991707158,1749
1574.423817074788,1831
1576.4690083817595,1723
1578.5136733431923,1809
1580.5578122107272,1750
1582.601425236085,1716
1584.6445126710646,1697
1586.6870747675434,1695
1588.7291117774776,1746
1590.7706239529034,1707
1592.8116115459347,1672
1594.8520748087658,1627
1596.8920139936686,1627
1598.9314293529933,1668
1600.9703211391711,1669
1603.008689604711,1606
1605.0465350022005,1589
1607.0838575843068,1610
1609.1206576037753,1633
1611.1569353134305,1674
1613.1926909661765,1620
1615.2279248149953,1606
1617.2626371129481,1625
1619.2968281131757,1573
1621.3304980688963,1646
1623.3636472334088,1555
1625.39627586009,1519
1627.428384202396,1548
1629.459972513861,1601
1631.4910410480993,1550
1633.5215900588028,1545
1635.551619799744,1446
1637.5811305247717,1520
1639.6101224878166,1497
1641.6385959428862,1492
1643.6665511440683,1518
1645.693988345528,1530
1647.7209078015112,1505
1649.7473097663405,1557
1651.7731944944203,1555
1653.7985622402307,1526
1655.823413258333,1535
1657.847747803366,1476
1659.8715661300494,1521
1661.8948684931793,1475
1663.9176551476316,1544
1665.9399263483624,1562
1667.9616823504057,1526
1669.982923408873,1442
1672.0036497789574,1419
1674.0238617159293,1445
1676.043559475138,1480
1678.0627433120121,1439
1680.081413482059,1461
1682.0995702408654,1554
1684.117213844096,1519
1686.134344547495,1523
1688.1509626068864,1485
1690.1670682781705,1484
1692.182661817329,1486
1694.1977434804217,1492
1696.2123135235875,1487
1698.226372203043,1517
1700.2399197750851,1529
1702.2529564960905,1530
1704.2654826225112,1524
1706.277498410882,1468
1708.2890041178139,1422
1710.2999999999988,1473
1712.3104863142066,1460
1714.3204633172854,1511
1716.329931266163,1472
1718.3388904178469,1533
1720.3473410294214,1517
1722.3552833580516,1468
1724.3627176609807,1474
1726.3696441955308,1493
1728.3760632191033,1562
1730.3819749891782,1525
1732.3873797633146,1461
1734.3922777991502,1451
1736.3966693544012,1437
1738.4005546868639,1464
1740.4039340544127,1438
1742.406807715001,1493
1744.4091759266616,1499
1746.4110389475054,1506
1748.4123970357223,1457
1750.413250449582,1455
1752.4135994474318,1491
1754.4134442876993,1470
1756.4127852288902,1490
1758.4116225295893,1464
1760.4099564484595,1504
1762.407787244244,1496
1764.405115175764,1526
1766.4019405019203,1544
1768.3982634816916,1473
1770.3940843741357,1458
1772.3894034383907,1517
1774.3842209336717,1492
1776.378537119274,1571
1778.372352254571,1548
1780.3656665990156,1519
1782.3584804121397,1505
1784.3507939535534,1478
1786.3426074829463,1453
1788.3339212600863,1516
1790.3247355448211,1544
1792.3150505970766,1509
1794.3048666768573,1542
1796.2941840442477,1521
1798.2830029594106,1518
1800.2713236825884,1550
1802.2591464741004,1470
1804.2464715943465,1489
1806.2332993038058,1496
1808.2196298630352,1508
1810.2054635326708,1527
1812.190800573428,1547
1814.175641246101,1509
1816.1599858115628,1561
1818.1438345307652,1463
1820.127187664738,1488
1822.1100454745924,1480
1824.092408221516,1426
1826.0742761667766,1511
1828.055649571721,1495
1830.0365286977735,1478
1832.0169138064398,1492
1833.9968051593014,1511
1835.9762030180214,1520
1837.9551076443408,1504
1839.9335193000788,1499
1841.9114382471344,1471
1843.888864747485,1400
1845.8657990631878,1435
1847.842241456378,1456
1849.8181921892697,1437
1851.7936515241558,1449
1853.7686197234098,1428
1855.7430970494815,1455
1857.7170837649014,1468
1859.6905801322787,1406
1861.6635864143004,1469
1863.6361028737338,1493
1865.608129773424,1479
1867.5796673762961,1534
1869.5507159453537,1496
1871.521275743678,1479
1873.4913470344313,1482
1875.4609300808534,1437
1877.4300251462632,1522
1879.3986324940588,1483
1881.366752387717,1481
1883.3343850907936,1457
1885.3015308669228,1473
1887.268189979819,1529
1889.2343626932739,1488
1891.2000492711595,1495
1893.1652499774254,1469
1895.1299650761011,1457
1897.0941948312952,1538
1899.0579395071945,1503
1901.0211993680641,1486
1902.98397467825,1463
1904.9462657021745,1562
1906.9080727043415,1472
1908.869395949332,1493
1910.8302357018065,1520
1912.790592226504,1493
1914.7504657882428,1561
1916.7098566519212,1494
1918.6687650825133,1516
1920.6271913450764,1512
1922.5851357047422,1457
1924.5425984267245,1448
1926.499579776314,1531
1928.4560800188833,1407
1930.4120994198802,1531
1932.367638244833,1515
1934.32269675935,1468
1936.2772752291175,1502
1938.231373919899,1491
1940.1849930975404,1540
1942.1381330279637,1540
1944.0907939771696,1465
1946.0429762112412,1462
1947.9946799963363,1470
1949.9459055986945,1449
1951.896653284633,1445
1953.8469233205478,1471
1955.7967159729142,1497
1957.7460315082863,1426
1959.6948701932974,1442
1961.6432322946594,1450
1963.5911180791632,1425
1965.5385278136787,1420
1967.4854617651545,1466
1969.4319202006182,1435
1971.377903387176,1413
1973.3234115920136,1439
1975.268445082395,1443
1977.2130041256642,1404
1979.1570889892423,1484
1981.1006999406304,1448
1983.04383724741,1379
1984.986501177238,1459
1986.928691997853,1384
1988.8704099770712,1419
1990.811655382789,1458
1992.7524284829801,1434
1994.692729545698,1455
1996.6325588390755,1406
1998.5719166313224,1421
2000.5108031907307,1426
2002.4492187856677,1461
2004.387163684583,1441
2006.3246381560011,1424
2008.2616424685298,1385
2010.1981768908527,1445
2012.1342416917332,1468
2014.069837140014,1409
2016.0049635046162,1455
2017.9396210545406,1410
2019.8738100588666,1448
2021.8075307867502,1450
2023.740783507431,1437
2025.6735684902228,1391
2027.6058860045214,1430
2029.5377363198004,1416
2031.4691197056118,1414
2033.4000364315875,1415
2035.3304867674374,1410
2037.260470982952,1433
2039.189989347998,1429
2041.1190421325232,1367
2043.047629606554,1444
2044.9757520401945,1435
2046.9034097036288,1442
2048.8306028671195,1377
2050.7573318010086,1423
2052.683596775716,1416
2054.609398061742,1432
2056.5347359296647,1443
2058.4596106501403,1434
2060.384022493906,1420
2062.3079717317764,1401
2064.231458634646,1399
2066.1544834734873,1495
2068.077046519352,1439
2069.99914804337,1415
2071.9207883167524,1401
2073.8419676107865,1439
2075.7626861968406,1416
2077.6829443463607,1510
2079.6027423308715,1452
2081.522080421977,1424
2083.440958891362,1460
2085.359378010786,1452
2087.2773380520907,1413
2089.194839287196,1434
2091.111881988101,1486
2093.0284664268825,1456
2094.9445928756973,1471
2096.86026160678,1486
2098.775472892446,1445
2100.690227005088,1452
2102.604524217178,1462
2104.5183648012676,1458
2106.431749029985,1478
2108.34467717604,1457
2110.2571495122206,1423
2112.169166311393,1408
2114.080727846503,1492
2115.9918343905747,1417
2117.902486216711,1455
2119.8126835980956,1483
2121.722426807987,1453
2123.6317161197285,1474
2125.5405518067364,1523
2127.448934142509,1486
2129.356863400624,1507
2131.264339854737,1494
2133.1713637785815,1485
2135.077935445972,1532
2136.9840551308002,1490
2138.889723107037,1483
2140.7949396487334,1508
2142.699705030018,1508
2144.6040195250994,1454
2146.507883408264,1445
2148.4112969538774,1478
2150.3142604363848,1467
2152.2167741303097,1484
2154.1188383102535,1452
2156.0204532508997,1439
2157.9216192270064,1514
2159.822336513414,1541
2161.7226053850413,1510
2163.622426116884,1512
2165.5217989840185,1473
2167.4207242616,1531
2169.319202224862,1493
2171.2172331491165,1518
2173.1148173097563,1571
2175.0119549822507,1569
2176.90864644215,1552
2178.8048919650823,1549
2180.7006918267534,1486
2182.596046302952,1539
2184.4909556695407,1508
2186.3854202024645,1516
2188.279440177746,1554
2190.173015871487,1509
2192.066147559868,1583
2193.958835519149,1520
2195.851080025667,1585
2197.7428813558417,1545
2199.6342397861667,1590
2201.5251555932186,1568
2203.415629053651,1542
2205.3056604441986,1596
2207.19525004167,1592
2209.084398122958,1579
2210.9731049650327,1637
2212.861370844941,1609
2214.749196039812,1611
2216.636580826851,1611
2218.523525483344,1613
2220.410030286655,1644
2222.296095514226,1581
2224.1817214435805,1639
2226.066908352319,1635
2227.951656518121,1659
2229.835966218746,1647
2231.71983773203,1610
2233.6032713358913,1670
2235.486267308324,1603
2237.3688259274036,1609
2239.2509474712824,1619
2241.132632218193,1678
2243.013880446447,1562
2244.8946924344323,1576
2246.7750684606203,1612
2248.6550088035574,1597
2250.534513741871,1589
2252.413583554265,1665
2254.292218519526,1663
2256.170418916517,1562
2258.0481850241786,1591
2259.925517121534,1609
2261.8024154876825,1556
2263.678880401803,1620
2265.5549121431536,1633
2267.430510991071,1618
2269.305677224971,1624
2271.180411124348,1527
2273.0547129687766,1574
2274.9285830379076,1549
2276.8020216114737,1596
2278.6750289692845,1621
2280.5476053912294,1638
2282.4197511572766,1644
2284.2914665474727,1655
2286.162751841943,1668
2288.0336073208937,1705
2289.904033264608,1610
2291.774029953448,1644
2293.6435976678554,1599
2295.5127366883517,1500
2297.381447295534,1488
2299.2497297700825,1462
2301.1175843927526,1442
2302.9850114443825,1419
2304.852011205885,1431
2306.7185839582553,1353
2308.5847299825664,1347
2310.4504495599676,1381
2312.3157429716925,1346
2314.1806104990483,1311
2316.0450524234247,1257
2317.9090690262888,1274
2319.772660589186,1338
2321.635827393742,1370
2323.498569721661,1325
2325.3608878547248,1322
2327.2227820747967,1284
2329.0842526638157,1296
2330.945299903803,1283
2332.805924076857,1252
2334.6661254651535,1310
2336.525904350951,1264
2338.3852610165827,1275
2340.244195744464,1286
2342.102708817088,1316
2343.9608005170253,1240
2345.8184711269287,1268
2347.675720929526,1295
2349.532550207628,1288
2351.38895924412,1301
2353.24494832197,1272
2355.100517724223,1309
2356.955667734004,1342
2358.810398634514,1317
2360.664710709037,1326
2362.5186042409337,1280
2364.3720795136437,1281
2366.225136810686,1314
2368.0777764156583,1250
2369.929998612237,1361
2371.7818036841777,1274
2373.633191915315,1259
2375.484163589562,1257
2377.3347189909114,1266
2379.184858403434,1324
2381.03458211128,1329
2382.8838903986775,1281
2384.732783549936,1334
2386.5812618494406,1301
2388.4293255816588,1333
2390.2769750311327,1354
2392.1242104824883,1359
2393.971032220427,1298
2395.8174405297295,1386
2397.6634356952563,1283
2399.509018001947,1308
2401.3541877348193,1309
2403.1989451789705,1355
2405.043290619576,1428
2406.8872243418905,1399
2408.730746631247,1370
2410.5738577730594,1386
2412.4165580528183,1355
2414.258847756095,1444
2416.100727168537,1436
2417.9421965758734,1426
2419.783256263912,1421
2421.623906518538,1523
2423.4641476257157,1472
2425.303979871491,1605
2427.143403541984,1557
2428.9824189233977,1606
2430.821026302012,1597
2432.6592259641866,1558
2434.497018196361,1557
2436.33440328505,1576
2438.171381516851,1557
2440.00795317844,1547
2441.844118556569,1446
2443.6798779380724,1445
2445.5152316098606,1455
2447.3501798589255,1520
2449.1847229723357,1446
2451.0188612372403,1425
2452.8525949408663,1483
2454.6859243705203,1450
2456.518849813587,1447
2458.3513715575314,1475
2460.183489889895,1428
2462.015205098301,1393
2463.8465174704493,1383
2465.67742729412,1394
2467.5079348571717,1413
2469.338040447542,1427
2471.1677443532476,1399
2472.9970468623833,1349
2474.825948263123,1371
2476.6544488437207,1411
2478.482548892508,1397
2480.310248697896,1380
2482.137548548374,1360
2483.9644487325118,1392
2485.790949538956,1276
2487.617051256433,1288
2489.44275417375,1362
2491.26805857979,1346
2493.0929647635157,1363
2494.917473013971,1312
2496.741583620276,1371
2498.5652968716304,1330
2500.3886130573137,1388
2502.2115324666834,1357
2504.0340553891765,1355
2505.856182114308,1341
2507.6779129316733,1359
2509.499248130945,1340
2511.3201880018764,1317
2513.140732834298,1310
2514.9608829181198,1317
2516.780638543331,1340
2518.6,1422
2520.418967578273,1359
2522.237541568376,1397
2524.0557222606144,1313
2525.8735099453706,1336
2527.6909049131086,1346
2529.507907454368,1327
2531.32451785977,1341
2533.140736420014,1338
2534.9565634258774,1310
2536.771999168218,1330
2538.5870439379714,1388
2540.4016980261526,1354
2542.2159617238544,1349
2544.02983532225,1409
2545.8433191125914,1303
2547.656413386209,1332
2549.4691184345115,1329
2551.2814345489874,1343
2553.093362021204,1296
2554.904901142808,1317
2556.716052205523,1311
2558.526815501153,1343
2560.3371913215824,1330
2562.147179958771,1341
2563.956781704761,1286
2565.7659968516705,1355
2567.5748256916986,1324
2569.3832685171224,1397
2571.1913256202984,1364
2572.9989972936614,1413
2574.806283829725,1351
2576.613185521084,1334
2578.4197026604074,1381
2580.2258355404483,1404
2582.031584454035,1385
2583.836949694077,1410
2585.6419315535613,1360
2587.4465303255533,1398
2589.2507463032002,1329
2591.0545797797245,1432
2592.8580310484303,1374
2594.6611004026995,1335
2596.463788135992,1335
2598.266094541849,1326
2600.0680199138874,1381
2601.869564545807,1349
2603.670728731383,1349
2605.4715127644704,1373
2607.2719169390048,1394
2609.071941548998,1379
2610.8715868885433,1351
2612.670853251811,1378
2614.469740933052,1386
2616.268250226594,1410
2618.0663814268455,1317
2619.864134828292,1355
2621.6615107255006,1324
2623.458509413115,1335
2625.2551311858597,1344
2627.0513763385347,1344
2628.8472451660223,1353
2630.6427379632833,1358
2632.4378550253564,1280
2634.232596647359,1294
2636.026963124488,1307
2637.8209547520187,1333
2639.6145718253065,1291
2641.407814639785,1328
2643.200683490966,1424
2644.9931786744414,1344
2646.7853004858807,1410
2648.577049221034,1339
2650.3684251757277,1359
2652.1594286458712,1341
2653.9500599274484,1404
2655.740319316525,1324
2657.5302071092437,1312
2659.3197236018286,1321
2661.10886909058,1363
2662.8976438718782,1302
2664.686048242183,1345
2666.4740824980327,1367
2668.2617469360443,1323
2670.0490418529134,1301
2671.8359675454153,1330
2673.622524310403,1336
2675.408712444811,1340
2677.1945322456495,1265
2678.979984010009,1262
2680.76506803506,1351
2682.5497846180497,1339
2684.334134056306,1321
2686.1181166472343,1326
2687.9017326883213,1294
2689.6849824771293,1322
2691.4678663113013,1320
2693.2503844885596,1345
2695.032537306705,1265
2696.8143250636167,1303
2698.5957480572542,1307
2700.3768065856534,1330
2702.1575009469316,1360
2703.937831439283,1373
2705.717798360982,1356
2707.4974020103837,1277
2709.276642685917,1342
2711.055520686095,1365
2712.834036309506,1275
2714.612189854819,1255
2716.389981620782,1351
2718.1674119062204,1322
2719.944481010041,1312
2721.721189231226,1340
2723.4975368688415,1317
2725.273524222027,1314
2727.0491515900053,1317
2728.824419272075,1361
2730.5993275676146,1331
2732.3738767760838,1302
2734.148067197016,1344
2735.921899130031,1295
2737.6953728748194,1365
2739.468488731156,1308
2741.2412469988926,1365
2743.0136479779617,1313
2744.785691968372,1311
2746.5573792702116,1350
2748.3287101836504,1331
2750.099685008934,1290
2751.870304046388,1327
2753.640567596418,1272
2755.4104759595057,1288
2757.1800294362156,1336
2758.949228327187,1285
2760.7180729331412,1287
2762.486563554877,1288
2764.254700493272,1317
2766.022484049284,1281
2767.789914523947,1345
2769.5569922183786,1324
2771.3237174337705,1328
2773.090090471394,1289
2774.8561116326036,1304
2776.6217812188274,1290
2778.3870995315756,1251
2780.1520668724356,1230
2781.9166835430747,1286
2783.6809498452394,1326
2785.444866080754,1310
2787.2084325515225,1266
2788.971649559527,1278
2790.73451740683,1300
2792.4970363955713,1245
2794.2592068279705,1287
2796.0210290063264,1283
2797.7825032330147,1290
2799.543629810493,1268
2801.304409041296,1304
2803.0648412280366,1329
2804.8249266734088,1277
2806.5846656801846,1296
2808.344058551212,1304
2810.1031055894246,1301
2811.8618070978273,1325
2813.6201633795085,1282
2815.378174737636,1288
2817.1358414754536,1247
2818.893163896285,1311
2820.6501423035334,1264
2822.4067770006814,1304
2824.1630682912883,1298
2825.9190164789957,1337
2827.6746218675207,1317
2829.429884760661,1319
2831.184805462294,1367
2832.9393842763743,1319
2834.693621506936,1336
2836.4475174580916,1273
2838.201072434034,1276
2839.954286739034,1275
2841.707160677441,1323
2843.459694553685,1371
2845.2118886722724,1341
2846.96374333779,1351
2848.7152588549034,1289
2850.4664355283567,1290
2852.217273662973,1319
2853.9677735636546,1330
2855.7179355353833,1277
2857.4677598832186,1309
2859.217246912299,1330
2860.9663969278427,1347
2862.715210235146,1322
2864.4636871395846,1289
2866.211827946614,1283
2867.9596329617652,1319
2869.7071024906536,1308
2871.4542368389684,1319
2873.20103631248,1280
2874.947501217038,1328
2876.6936318585695,1284
2878.4394285430812,1342
2880.1848915766604,1376
2881.9300212654707,1377
2883.6748179157553,1251
2885.4192818338374,1264
2887.1634133261173,1302
2888.907212699077,1322
2890.6506802592744,1318
2892.393816313348,1326
2894.1366211680142,1295
2895.8790951300693,1345
2897.621238506388,1291
2899.363051603925,1352
2901.1045347297118,1319
2902.8456881908596,1308
2904.58651229456,1317
2906.327007348081,1254
2908.067173658772,1365
2909.8070115340597,1275
2911.5465212814497,1332
2913.285703208527,1305
2915.0245576229563,1302
2916.7630848324807,1314
2918.5012851449196,1263
2920.2391588681758,1271
2921.976706310227,1296
2923.7139277791334,1241
2925.4508235830313,1330
2927.187394030137,1258
2928.923639428745,1356
2930.6595600872306,1290
2932.395156314046,1285
2934.1304284177218,1329
2935.8653767068713,1304
2937.6000014901815,1324
2939.3343030764227,1269
2941.068281774442,1333
2942.8019378931644,1309
2944.5352717415976,1364
2946.2682836288236,1327
2948.0009738640065,1380
2949.7333427563885,1292
2951.465390615289,1308
2953.1971177501086,1317
2954.9285244703265,1330
2956.6596110855,1262
2958.3903779052657,1276
2960.1208252393385,1269
2961.8509533975125,1239
2963.5807626896617,1275
2965.3102534257378,1336
2967.0394259157715,1296
2968.768280469873,1277
2970.496817398232,1296
2972.2250370111146,1283
2973.952939618869,1298
2975.6805255319196,1355
2977.4077950607707,1357
2979.134748516006,1383
2980.861386208289,1344
2982.587708448359,1318
2984.313715547037,1302
2986.039407815222,1264
2987.764785563891,1250
2989.489849104102,1270
2991.2145987469908,1274
2992.9390348037705,1270
2994.6631575857346,1280
2996.3869674042576,1210
2998.1104645707887,1260
2999.83364939686,1271
3001.5565221940783,1333
3003.2790832741334,1252
3005.0013329487924,1232
3006.7232715298996,1292
3008.4448993293804,1294
3010.166216659239,1271
3011.887223831558,1265
3013.607921158498,1282
3015.3283089522993,1262
3017.0483875252826,1249
3018.7681571898443,1261
3020.4876182584626,1261
3022.2067710436927,1259
3023.9256158581707,1265
3025.644153014609,1253
3027.362382825801,1276
3029.0803056046193,1282
3030.797921664012,1238
3032.5152313170106,1275
3034.2322348767225,1269
3035.9489326563353,1254
3037.665324969115,1242
3039.3814121284063,1259
3041.097194447633,1285
3042.812672240299,1251
3044.5278458199855,1230
3046.2427155003525,1251
3047.9572815951406,1251
3049.671544418167,1274
3051.38550428333,1232
3053.0991615046073,1286
3054.812516396051,1333
3056.5255692717974,1259
3058.2383204460575,1261
3059.9507702331257,1277
3061.662918947372,1345
3063.3747669032446,1252
3065.0863144152736,1294
3066.7975617980674,1295
3068.508509366309,1328
3070.219157434767,1245
3071.9295063182844,1238
3073.639556331785,1200
3075.3493077902704,1209
3077.058761008821,1228
3078.7679163025964,1314
3080.476773986837,1269
3082.1853343768594,1236
3083.89359778806,1293
3085.6015645359153,1230
3087.3092349359786,1328
3089.016609303884,1259
3090.7236879553434,1327
3092.4304712061476,1257
3094.136959372166,1238
3095.843152769349,1242
3097.5490517137237,1224
3099.2546565213966,1284
3100.959967508554,1234
3102.66498499146,1244
3104.3697092864577,1286
3106.0741407099695,1259
3107.778279578498,1222
3109.482126208622,1285
3111.1856809170004,1261
3112.8889440203716,1285
3114.5919158355528,1233
3116.294596679439,1247
3117.996986869006,1285
3119.6990867213062,1263
3121.4008965534726,1285
3123.102416682717,1287
3124.803647426329,1259
3126.5045891016784,1231
3128.205242026213,1276
3129.90560651746,1285
3131.605682893025,1235
3133.3054714705922,1265
3135.0049725679282,1246
3136.7041865028714,1278
3138.4031135933465,1270
3140.101754157353,1267
3141.800108512971,1217
3143.498176978357,1298
3145.1959598717494,1289
3146.8934575114636,1283
3148.5906702158954,1229
3150.2875983035183,1286
3151.9842420928853,1255
3153.680601902627,1263
3155.376678051456,1200
3157.07247085816,1256
3158.767980641609,1252
3160.463207720748,1252
3162.158152414606,1245
3163.8528150422862,1218
3165.5471959229726,1261
3167.2412953759303,1231
3168.9351137204976,1178
3170.628651276098,1301
3172.3219083622307,1274
3174.014885298474,1287
3175.707582404485,1286
3177.4000000000005,1257
3179.092138404835,1226
3180.7839979388846,1255
3182.47557892212,1247
3184.166881674594,1234
3185.8579065164386,1239
3187.5486537678626,1214
3189.2391237491547,1279
3190.9293167806827,1264
3192.6192331828934,1212
3194.3088732763117,1207
3195.998237381542,1216
3197.687325819268,1193
3199.376138910251,1210
3201.064676975334,1215
3202.7529403354347,1205
3204.4409293115523,1265
3206.1286442247647,1206
3207.816085396229,1234
3209.5032531471825,1275
3211.190147798936,1281
3212.8767696728846,1262
3214.5631190905015,1284
3216.2491963733373,1284
3217.9350018430214,1230
3219.6205358212637,1264
3221.305798629851,1257
3222.990790590651,1262
3224.6755120256103,1268
3226.359963256751,1264
3228.0441446061795,1260
3229.7280563960758,1253
3231.411698948703,1216
3233.0950725863995,1295
3234.778177631587,1279
3236.461014406761,1271
3238.1435832345005,1268
3239.8258844374595,1248
3241.507918338374,1285
3243.1896852600576,1222
3244.8711855254023,1266
3246.552419457381,1279
3248.233387379042,1279
3249.914089613516,1264
3251.59452648401,1264
3253.274698313813,1270
3254.95460542629,1218
3256.6342481448855,1242
3258.313626793125,1216
3259.9927416946084,1170
3261.6715931730196,1188
3263.3501815521176,1208
3265.0285071557437,1226
3266.706570307815,1276
3268.3843713323286,1229
3270.0619105533615,1268
3271.739188295068,1243
3273.4162048816834,1300
3275.0929606375184,1271
3276.769455886966,1317
3278.445690954498,1243
3280.1216661646613,1269
3281.797381842087,1265
3283.4728383114807,1245
3285.1480358976296,1301
3286.8229749253996,1297
3288.4976557197333,1292
3290.172078605655,1257
3291.846243908266,1232
3293.5201519527463,1251
3295.193803064357,1222
3296.8671975684374,1219
3298.5403357904024,1270
3300.21321805575,1234
3301.8858446900567,1211
3303.558216018975,1250
3305.23033236824,1231
3306.9021940636603,1195
3308.57380143113,1253
3310.2451547966184,1215
3311.916254486174,1246
3313.5871008259246,1241
3315.2576941420766,1241
3316.9280347609147,1239
3318.5981230088046,1220
3320.2679592121895,1216
3321.9375436975924,1249
3323.606876791612,1252
3325.27595882093,1249
3326.944790112305,1229
3328.6133709925753,1249
3330.2817017886573,1252
3331.949782827547,1211
3333.617614436319,1230
3335.2851969421245,1213
3336.952530672199,1328
3338.619615953853,1292
3340.286453114475,1258
3341.9530424815357,1208
3343.619384382583,1253
3345.2854791452437,1222
3346.951327097224,1216
3348.6169285663073,1233
3350.2822838803577,1244
3351.947393367319,1262
3353.61225735521,1285
3355.2768761721345,1184
3356.9412501462693,1265
3358.605379605873,1247
3360.2692648792827,1264
3361.9329062949146,1239
3363.596304181263,1242
