CollectionTime,9/20/2024 10:50:14 AM
ExposureUsed,3
CalibratedSpectrum
-962.7078968117929,646
-959.9714848408522,621
-957.2358232597828,606
-954.5009119013725,625
-951.7667505983302,596
-949.0333391832855,649
-946.3006774887896,644
-943.5687653473143,598
-940.837602591253,589
-938.1071890529199,619
-935.3775245645503,622
-932.6486089583007,633
-929.9204420662485,628
-927.1930237203925,630
-924.4663537526524,589
-921.7404319948689,652
-919.0152582788041,635
-916.2908324361409,651
-913.5671542984834,629
-910.8442236973568,584
-908.1220404642074,609
-905.4006044304027,675
-902.679915427231,640
-899.959973285902,587
-897.2407778375464,588
-894.5223289132158,588
-891.8046263438832,652
-889.0876699604426,646
-886.3714595937089,632
-883.6559950744183,583
-880.9412762332282,621
-878.2273029007168,600
-875.5140749073835,592
-872.8015920836489,606
-870.0898542598545,569
-867.3788612662631,593
-864.6686129330585,613
-861.9591090903457,601
-859.2503495681506,621
-856.5423341964203,581
-853.8350628050229,639
-851.1285352237478,639
-848.4227512823054,635
-845.7177108103272,592
-843.0134136373656,630
-840.3098595928943,595
-837.6070485063082,621
-834.9049802069229,608
-832.2036545239757,613
-829.5030712866244,634
-826.8032303239481,622
-824.1041314649472,582
-821.4057745385428,599
-818.7081593735775,630
-816.0112857988148,642
-813.3151536429393,657
-810.6197627345566,661
-807.9251129021936,626
-805.2312039742981,637
-802.5380357792392,631
-799.8456081453069,612
-797.1539209007124,616
-794.462973873588,669
-791.772766891987,670
-789.083299783884,633
-786.3945723771743,626
-783.7065844996748,625
-781.0193359791231,612
-778.3328266431781,611
-775.6470563194197,635
-772.9620248353489,597
-770.2777320183878,636
-767.5941776958798,629
-764.9113616950891,676
-762.2292838432011,664
-759.5479439673222,624
-756.8673418944801,642
-754.1874774516235,631
-751.5083504656222,649
-748.8299607632671,612
-746.15230817127,628
-743.475392516264,644
-740.7992136248035,658
-738.1237713233636,627
-735.4490654383407,656
-732.7750957960521,620
-730.1018622227365,609
-727.4293645445534,614
-724.7576025875837,625
-722.0865761778291,645
-719.4162851412126,656
-716.7467293035781,656
-714.0779084906909,676
-711.409822528237,683
-708.7424712418238,682
-706.0758544569796,669
-703.4099719991541,672
-700.7448236937178,654
-698.0804093659622,639
-695.4167288411002,671
-692.7537819442656,671
-690.0915685005134,664
-687.4300883348199,642
-684.7693412720819,660
-682.1093271371178,677
-679.4500457546669,709
-676.7914969493897,691
-674.1336805458676,676
-671.4765963686034,659
-668.8202442420206,710
-666.1646239904642,679
-663.5097354382001,692
-660.8555784094151,692
-658.2021527282176,655
-655.5494582186366,716
-652.8974947046223,732
-650.2462620100463,708
-647.5957599587009,688
-644.9459883742998,717
-642.2969470804776,711
-639.6486359007902,743
-637.0010546587141,753
-634.3542031776476,705
-631.7080812809096,717
-629.0626887917401,706
-626.4180255333008,722
-623.7740913286734,731
-621.1308860008619,717
-618.4884093727904,747
-615.8466612673046,707
-613.2056415071715,737
-610.5653499150785,706
-607.9257863136347,706
-605.28695052537,731
-602.6488423727357,701
-600.0114616781036,687
-597.3748082637674,746
-594.7388819519412,777
-592.1036825647604,801
-589.4692099242818,755
-586.8354638524829,737
-584.2024441712624,757
-581.5701507024403,786
-578.9385832677575,743
-576.3077416888759,751
-573.6776257873787,759
-571.0482353847704,788
-568.4195703024757,750
-565.7916303618415,745
-563.164415384135,742
-560.5379251905453,737
-557.9121596021815,772
-555.2871184400748,766
-552.6628015251767,760
-550.0392086783606,771
-547.4163397204204,755
-544.794194472071,801
-542.1727727539491,788
-539.5520743866118,763
-536.9320991905377,858
-534.3128469861261,877
-531.6943175936979,900
-529.0765108334947,840
-526.4594265256793,952
-523.8430644903358,1059
-521.2274245474689,1132
-518.612506517005,1222
-515.9983102187913,1233
-513.3848354725959,1235
-510.77208209810846,1259
-508.16004991493924,1328
-505.5487387426199,1385
-502.9381484006032,1351
-500.3282787082628,1356
-497.71912948489364,1271
-495.1107005497117,1185
-492.5029917218539,1089
-489.8960028203786,1024
-487.28973366426493,946
-484.68418407241325,884
-482.07935386364494,904
-479.47524285670266,845
-476.87185087025,900
-474.2691777228715,922
-471.66722323307334,915
-469.0659872192821,888
-466.4654694998459,916
-463.86566989303384,905
-461.26658821703614,882
-458.66822428996414,857
-456.07057792985,901
-453.4736489546475,924
-450.877437182231,881
-448.28194243039627,825
-445.68716451686,828
-443.09310325926003,892
-440.49975847515555,867
-437.9071299820263,875
-435.31521759727354,922
-432.72402113821954,888
-430.13354042210767,902
-427.5437752661022,876
-424.95472548728867,918
-422.36639090267386,939
-419.7787713291855,1057
-417.1918665836721,991
-414.60567648290385,971
-412.0202008435715,982
-409.4354394822874,963
-406.8513922155845,915
-404.26805885991723,951
-401.685439231661,968
-399.103533147112,999
-396.522340422488,954
-393.9418608739278,950
-391.3620943174908,919
-388.7830405691583,898
-386.2046994448317,900
-383.6270707603344,822
-381.05015433141045,812
-378.473949973725,836
-375.8984575028645,763
-373.32367673433623,696
-370.74960748356875,653
-368.1762495659117,671
-365.60360279663576,620
-363.03166699093265,599
-360.4604419639154,548
-357.8899275306178,547
-355.32012350599507,534
-352.7510297049233,514
-350.1826459421999,475
-347.61497203254316,496
-345.04800779059235,448
-342.4817530309082,472
-339.91620756797226,590
-337.35137121618743,609
-334.7872437898774,575
-332.22382510328725,560
-329.66111497058273,536
-327.09911320585127,539
-324.53781962310075,537
-321.9772340362607,541
-319.4173562591816,518
-316.8581861056348,530
-314.2997233893127,513
-311.7419679238294,565
-309.1849195227194,539
-306.62857799943856,593
-304.0729431673641,552
-301.51801483979375,561
-298.963792829947,523
-296.41027695096386,522
-293.85746701590574,611
-291.3053628377552,626
-288.7539642294155,603
-286.2032710037115,645
-283.65328297338897,639
-281.1039999511146,660
-278.5554217494762,682
-276.007548180983,617
-273.4603790580651,595
-270.9139141930734,603
-268.3681533982807,649
-265.8230964858798,702
-263.27874326798565,706
-260.7350935566336,686
-258.1921471637804,695
-255.6499039013039,777
-253.10836358100266,753
-250.56752601459698,654
-248.02739101372765,765
-245.48795838995704,871
-242.94922795476816,808
-240.41119951956557,763
-237.8738728956746,712
-235.33724789434166,706
-232.80132432673452,748
-230.2661020039418,695
-227.73158073697357,752
-225.19776033676033,843
-222.66464061415422,905
-220.1322213799284,870
-217.60050244477725,894
-215.06948361931552,996
-212.53916471408013,1109
-210.00954553952818,913
-207.48062590603843,859
-204.9524056239104,830
-202.4248845033651,943
-199.8980623545441,949
-197.37193898751036,1153
-194.84651421224817,1159
-192.32178783866232,1147
-189.79775967657952,1062
-187.27442953574644,1084
-184.7517972258321,1076
-182.2298625564256,934
-179.7086253370378,791
-177.18808537710026,863
-174.66824248596583,1116
-172.14909647290835,1219
-169.6306471471229,1165
-167.11289431772548,1043
-164.59583779375328,965
-162.07947738416453,1071
-159.5638128978386,1365
-157.04884414357605,1385
-154.53457093009854,1313
-152.02099306604828,1237
-149.50811035998936,1235
-146.99592262040665,1426
-144.48442965570587,1430
-141.97363127421409,1523
-139.46352728417958,1582
-136.95411749377126,1486
-134.44540171107985,1326
-131.93737974411636,1104
-129.43005140081357,1205
-126.92341648902493,1465
-124.41747481652521,1852
-121.91222619101006,2232
-119.40767042009657,2587
-116.90380731132257,2810
-114.40063667214702,3117
-111.8981583099503,3095
-109.3963720320337,3745
-106.89527764561933,4176
-104.39487495785067,5528
-101.89516377579241,7964
-99.39614390642998,13124
-96.89781515667039,16761
-94.40017733334128,17455
-91.90323024319173,15623
-89.40697369289148,12350
-86.91140748903172,6918
-84.41653143812482,4298
-81.92234534660395,5555
-79.42884902082358,10205
-76.93604226705907,15976
-74.4439248915071,21647
-71.95249670028534,23789
-69.46175749943245,19735
-66.97170709490854,14269
-64.48234529259423,10624
-61.99367189829195,9820
-59.50568671772464,9230
-57.01838955653636,8651
-54.53178022029283,9044
-52.045858514480074,9795
-49.560624244506016,10478
-47.07607721569923,9419
-44.59221723330904,11818
-42.10904410250669,14939
-39.62655762838392,16329
-37.14475761595372,18741
-34.66364387015028,21884
-32.18321619582866,25742
-29.70347439776515,30429
-27.224418280657005,32890
-24.74604764912317,39463
-22.26836230770266,51234
-19.7913620608565,65036
-17.315046712966478,65036
-14.83941606833514,65036
-12.36446993118659,65036
-9.89020810566592,65036
-7.416630395839093,65036
-4.94373660569363,65036
-2.471526539137585,65036
-6.821210263296962E-13,65036
2.47084320796705,65036
4.941003281093458,65036
7.410480415786196,65036
9.879274808531363,65036
12.347386655893956,65036
14.814816154518212,65036
17.28156350112681,65036
19.74762889252179,65036
22.21301252558385,65036
24.67771459727237,21887
27.141735304626195,5675
29.605074844762612,4892
32.06773341487792,4382
34.52971121224755,4580
36.99100843422559,3685
39.45162527824516,2843
41.91156194181792,4225
44.370818622535126,4650
46.82939551806646,3626
49.287292826160524,4362
51.74451074464503,3709
54.201049471426245,2982
56.65690920448981,3170
59.112090141899785,2568
61.56659248179983,2465
64.02041642241159,2567
66.4735621620365,2820
68.92602989905402,2730
71.37781983192338,2448
73.82893215918205,2067
76.27936707944684,1664
78.72912479141326,1885
81.17820549385567,2023
83.62660938562783,1757
86.07433666566146,1716
88.5213875329681,1700
90.96776218663751,1865
93.41346082583925,1844
95.85848364982041,2106
98.30283085790859,1558
100.7465026495089,1545
103.18949922410604,1431
105.63182078126385,1232
108.07346752062438,1350
110.51443964190923,1389
112.95473734491827,1408
115.39436082953114,1386
117.83331029570547,1420
120.27158594347827,1430
122.7091879729652,1501
125.1461165843615,1480
127.58237197794062,1549
130.01795435405518,1587
132.4528639131364,1675
134.88710085569494,1453
137.32066538231982,1361
139.75355769367923,1364
142.1857779905207,1336
144.61732647366978,1175
147.04820334403132,1098
149.47840880258934,1153
151.90794305040674,1325
154.33680628862487,1550
156.76499871846443,1615
159.19252054122433,1641
161.61937195828352,1607
164.04555317109896,1722
166.47106438120693,1853
168.89590579022217,1822
171.320077599839,1858
173.7435800118302,2096
176.16641322804742,2296
178.58857745042144,2196
181.01007288096173,2233
183.43089972175687,2166
185.85105817497413,2279
188.27054844285988,2243
190.6893707277394,2218
193.10752523201643,2260
195.5250121581745,2413
197.9418317087751,2457
200.3579840864594,2390
202.7734694939469,2447
205.18828813403627,2491
207.6024402096051,2544
210.01592592360964,2562
212.42874547908548,2509
214.84089907914665,2337
217.2523869269868,2319
219.66320922587727,2438
222.0733661791695,2469
224.48285799029293,2467
226.8916848627572,2536
229.29984700014882,2504
231.7073446061355,2456
234.11417788446204,2589
236.520347038953,2509
238.92585227351185,2480
241.33069379212054,2656
243.73487179884035,2648
246.1383864978112,2589
248.541238093252,2627
250.9434267894609,2711
253.34495279081432,2647
255.74581630176783,2782
258.1460175268563,2759
260.54555667069314,2662
262.9444339379703,2680
265.3426495334594,2694
267.7402036620107,2766
270.1370965285529,2785
272.53332833809407,2738
274.9288992957214,2477
277.32380960660055,2359
279.718059475976,2432
282.1116491091717,2393
284.5045787115897,2340
286.89684848871195,2363
289.2884586460981,2328
291.67940938938807,2392
294.0697009242996,2508
296.4593334566299,2400
298.84830719225477,2347
301.23662233712923,2279
303.6242790972866,2358
306.01127767884,2349
308.39761828798066,2351
310.78330113097934,2280
313.16832641418534,2287
315.5526943440269,2318
317.9364051270112,2310
320.3194589697242,2200
322.70185607883093,2311
325.0835966610754,2204
327.4646809232805,2182
329.8451090723478,2227
332.2248813152577,2230
334.6039978590701,2225
336.9824589109231,2123
339.36026467803447,2189
341.7374153677,2184
344.113911187295,2161
346.48975234427337,2191
348.8649390461686,2166
351.2394715005918,2212
353.61334991523415,2123
355.9865744978655,2174
358.35914545633375,2088
360.73106299856715,2226
363.10232733257146,2133
365.47293866643247,2074
367.84289720831396,2144
370.2122031664593,2098
372.5808567491905,2127
374.9488581649083,2038
377.31620762209275,2090
379.6829053293021,2058
382.0489514951745,1976
384.4143463284262,2008
386.7790900378528,2006
389.14318283232853,2013
391.50662492080653,2026
393.86941651231916,2068
396.23155781597745,2101
398.5930490409713,2053
400.9538903965696,2050
403.3140820921202,2060
405.6736243370498,1984
408.03251734086336,2011
410.3907613131465,1931
412.74835646356166,1999
415.10530300185144,1967
417.4616011378372,2037
419.81725108141893,1951
422.1722530425758,2040
424.5266072313656,1976
426.880313857925,2002
429.2333731324701,1978
431.58578526529516,2051
433.9375504667738,1961
436.2886689473588,2006
438.63914091758113,1890
440.9889665880513,1950
443.33814616945835,1961
445.68667987257015,1902
448.03456790823395,1910
450.3818104873759,1928
452.72840782100013,1860
455.07436012019105,1942
457.41966759611057,1873
459.7643304600007,1870
462.10834892318155,1908
464.4517231970525,1847
466.79445349309174,2012
469.1365400228566,1940
471.4779829979826,1963
473.81878263018564,1896
476.15893913125876,2014
478.4984527130747,2036
480.8373235875855,1982
483.17555196682144,2094
485.5131380628919,2041
487.8500820879857,2070
490.1863842543697,2189
492.52204477439034,2144
494.8570638604725,2232
497.1914417251204,2406
499.52517858091653,2644
501.85827464052306,2883
504.19073011668036,2958
506.5225452222086,3038
508.85372017000566,3128
511.18425517304956,3289
513.514150444396,3800
515.8434061971808,4714
518.1720226446176,5291
520.4999999999999,5150
522.8273384766991,4946
525.1540382881666,4751
527.480099647932,4285
529.8055227696037,3331
532.1303078668694,2537
534.454455153496,2193
536.777964843328,1982
539.1008371502907,1908
541.4230722883866,1846
543.744670471698,1895
546.0656319143858,1799
548.3859568306899,1837
550.7056454349294,1730
553.0246979415016,1780
555.3431145648834,1754
557.6608955196306,1780
559.978041020377,1821
562.2945512818363,1804
564.6104265188006,1788
566.9256669461412,1827
569.2402727788082,1764
571.5542442318302,1865
573.8675815203156,1845
576.1802848594508,1916
578.4923544645015,1800
580.8037905508126,1921
583.114593333807,1864
585.4247630289875,1836
587.7342998519354,1829
590.0432040183106,1819
592.3514757438526,1807
594.6591152443794,1820
596.9661227357875,1882
599.2724984340531,1753
601.578242555231,1748
603.8833553154542,1747
606.1878369309362,1782
608.4916876179676,1796
610.7949075929192,1777
613.0974970722403,1824
615.3994562724587,1754
617.7007854101818,1835
620.0014847020951,1824
622.3015543649641,1835
624.6009946156324,1846
626.8998056710224,1879
629.1979877481361,1794
631.4955410640538,1854
633.7924658359349,1826
636.0887622810175,1867
638.3844306166192,1906
640.6794710601358,1912
642.9738838290426,1702
645.2676691408932,1913
647.5608272133207,1902
649.853358264037,1884
652.1452625108324,1874
654.4365401715764,1846
656.7271914642178,1833
659.0172166067838,1866
661.3066158173809,1867
663.5953893141935,1885
665.8835373154867,1905
668.1710600396028,1893
670.4579577049639,1898
672.7442305300709,1844
675.0298787335033,1886
677.3149025339197,1881
679.599302150058,1904
681.8830778007342,1834
684.1662297048437,1855
686.4487580813608,1860
688.7306631493387,1820
691.0119451279091,1875
693.2926042362834,1866
695.5726406937516,1894
697.8520547196814,1855
700.1308465335215,1840
702.4090163547982,1834
704.6865644031171,1947
706.9634908981619,1832
709.2397960596965,1944
711.5154801075631,1850
713.7905432616823,1901
716.0649857420548,1880
718.3388077687592,1856
720.612009561953,1817
722.8845913418733,1890
725.1565533288352,1755
727.427895743234,1860
729.6986188055427,1880
731.9687227363137,1845
734.238207756178,1856
736.5070740858458,1871
738.7753219461066,1865
741.0429515578281,1877
743.3099631419569,1779
745.5763569195191,1856
747.8421331116193,1841
750.1072919394409,1844
752.3718336242467,1837
754.6357583873777,1844
756.8990664502545,1801
759.1617580343765,1848
761.423833361321,1842
763.6852926527457,1868
765.9461361303862,1924
768.206364016058,1931
770.4659765316536,1903
772.7249738991469,1910
774.9833563405886,1870
777.2411240781092,1904
779.4982773339183,1897
781.7548163303044,1874
784.010741289634,1892
786.2660524343538,1919
788.5207499869881,1941
790.7748341701416,1872
793.0283052064964,1851
795.2811633188143,1879
797.5334087299362,1844
799.7850416627813,1895
802.0360623403484,1934
804.2864709857143,1945
806.5362678220353,1934
808.7854530725468,1952
811.0340269605625,1912
813.2819897094754,1879
815.5293415427581,1956
817.77608268396,1892
820.0222133567116,1925
822.2677337847211,1867
824.5126441917765,1767
826.7569448017433,1893
829.0006358385675,1851
831.2437175262731,1831
833.4861900889629,1910
835.7280537508192,1967
837.9693087361026,1834
840.2099552691533,1884
842.4499935743896,1897
844.689423876309,1926
846.9282463994886,1827
849.1664613685833,1955
851.4040690083276,1894
853.6410695435349,1789
855.877463199097,1885
858.1132501999847,1856
860.3484307712487,1935
862.5830051380175,1926
864.8169735254988,1850
867.0503361589791,1919
869.2830932638243,1942
871.5152450654786,1842
873.7467917894654,1895
875.9777336613873,1859
878.2080709069252,1908
880.4378037518389,1922
882.666932421968,1944
884.8954571432301,1894
887.1233781416219,1867
889.3506956432192,1939
891.5774098741766,1933
893.803521060728,1868
896.0290294291852,1850
898.2539352059397,1842
900.4782386174619,1836
902.7019398903011,1834
904.925039251085,1868
907.147536926521,1862
909.3694331433943,1875
911.59072812857,1899
913.8114221089921,1819
916.0315153116827,1837
918.2510079637437,1845
920.4699002923547,1890
922.6881925247761,1869
924.905884888345,1879
927.1229776104793,1769
929.3394709186747,1808
931.555365040506,1831
933.7706602036275,1843
935.9853566357709,1830
938.1994545647489,1829
940.4129542184515,1879
942.6258558248488,1863
944.8381596119883,1801
947.0498658079974,1808
949.2609746410825,1868
951.4714863395287,1822
953.6814011316998,1893
955.8907192460387,1885
958.0994409110671,1870
960.3075663553858,1901
962.5150958076741,1861
964.7220294966913,1825
966.928367651274,1859
969.1341105003388,1876
971.3392582728806,1752
973.5438111979742,1825
975.747769504772,1768
977.9511334225061,1767
980.153903180487,1881
982.3560790081052,1815
984.5576611348289,1782
986.7586497902058,1834
988.9590452038618,1784
991.158847605503,1788
993.3580572249133,1733
995.5566742919558,1733
997.7546990365728,1698
999.952131688785,1632
1002.1489724786926,1602
1004.3452216364743,1685
1006.5408793923874,1577
1008.7359459767691,1606
1010.9304216200343,1571
1013.1243065526781,1600
1015.3176010052733,1614
1017.510305208472,1609
1019.7024193930064,1524
1021.8939437896848,1629
1024.0848786293977,1642
1026.2752241431122,1611
1028.4649805618747,1549
1030.6541481168115,1565
1032.842727039127,1610
1035.0307175601051,1513
1037.2181199111074,1518
1039.4049343235752,1572
1041.591161029029,1563
1043.7768002590683,1499
1045.9618522453698,1593
1048.1463172196918,1572
1050.3301954138697,1567
1052.513487059818,1539
1054.69619238953,1524
1056.8783116350783,1515
1059.0598450286152,1476
1061.2407928023704,1440
1063.4211551886528,1537
1065.6009324198508,1548
1067.780124728432,1534
1069.9587323469414,1493
1072.1367555080046,1454
1074.314194444325,1554
1076.4910493886855,1540
1078.667320573947,1485
1080.843008233051,1539
1083.0181125990161,1487
1085.1926339049414,1527
1087.3665723840027,1485
1089.5399282694575,1437
1091.7127017946405,1388
1093.8848931929647,1440
1096.0565026979243,1411
1098.2275305430899,1445
1100.3979769621128,1475
1102.567842188722,1466
1104.737126456726,1480
1106.9058300000124,1448
1109.0739530525475,1451
1111.2414958483764,1520
1113.4084586216231,1502
1115.5748416064907,1450
1117.7406450372605,1506
1119.9058691482942,1467
1122.0705141740304,1411
1124.2345803489884,1436
1126.3980679077658,1439
1128.5609770850388,1457
1130.7233081155623,1403
1132.8850612341707,1451
1135.0462366757774,1461
1137.2068346753745,1429
1139.3668554680326,1448
1141.526299288901,1447
1143.68516637321,1435
1145.8434569562655,1391
1148.001171273455,1490
1150.158309560244,1464
1152.3148720521767,1484
1154.470858984876,1476
1156.626270594044,1453
1158.7811071154629,1409
1160.9353687849912,1434
1163.089055838569,1413
1165.242168512213,1401
1167.3947070420209,1445
1169.5466716641677,1462
1171.6980626149075,1435
1173.8488801305748,1443
1175.9991244475814,1484
1178.1487958024186,1440
1180.2978944316555,1432
1182.4464205719428,1489
1184.5943744600072,1442
1186.7417563326567,1390
1188.8885664267755,1373
1191.0348049793297,1423
1193.1804722273619,1400
1195.325568407995,1478
1197.4700937584303,1408
1199.614048515948,1359
1201.7574329179074,1427
1203.900247201746,1428
1206.042491604982,1460
1208.1841663652099,1457
1210.3252717201053,1459
1212.465807907422,1472
1214.6057751649923,1487
1216.7451737307279,1451
1218.8840038426192,1460
1221.0222657387353,1435
1223.1599596572241,1453
1225.2970858363137,1466
1227.4336445143094,1489
1229.5696359295966,1512
1231.705060320639,1503
1233.8399179259786,1423
1235.9742089842384,1524
1238.107933734118,1429
1240.2410924143974,1453
1242.373685263935,1464
1244.5057125216676,1490
1246.6371744266116,1454
1248.7680712178621,1495
1250.898403134593,1435
1253.028170416058,1483
1255.1573733015875,1495
1257.2860120305932,1493
1259.4140868425648,1511
1261.54159797707,1526
1263.6685456737569,1566
1265.7949301723515,1553
1267.9207517126597,1546
1270.046010534565,1526
1272.1707068780306,1498
1274.2948409830983,1535
1276.4184130898889,1522
1278.541423438603,1605
1280.6638722695184,1541
1282.785759822993,1571
1284.9070863394636,1514
1287.0278520594447,1531
1289.1480572235314,1624
1291.2677020723963,1591
1293.3867868467923,1650
1295.5053117875495,1595
1297.623277135579,1663
1299.740683131868,1664
1301.8575300174857,1632
1303.973818033578,1679
1306.0895474213703,1682
1308.2047184221678,1672
1310.3193312773528,1646
1312.4333862283888,1709
1314.5468835168163,1660
1316.659823384255,1708
1318.7722060724045,1710
1320.8840318230418,1684
1322.9953008780249,1733
1325.1060134792888,1686
1327.2161698688478,1727
1329.3257702887959,1710
1331.4348149813054,1744
1333.5433041886276,1736
1335.6512381530933,1673
1337.7586171171101,1685
1339.8654413231675,1644
1341.9717110138317,1630
1344.0774264317488,1657
1346.1825878196432,1712
1348.2871954203192,1660
1350.3912494766587,1685
1352.4947502316231,1667
1354.5976979282532,1616
1356.7000928096686,1622
1358.8019351190665,1608
1360.9032250997243,1621
1363.0039629949988,1566
1365.1041490483235,1628
1367.2037835032133,1646
1369.3028666032606,1615
1371.401398592137,1629
1373.4993797135926,1569
1375.5968102114575,1600
1377.6936903296396,1659
1379.7900203121262,1581
1381.8858004029835,1580
1383.9810308463561,1634
1386.075711886469,1549
1388.1698437676241,1661
1390.2634267342032,1638
1392.356461030667,1635
1394.4489469015557,1562
1396.5408845914872,1648
1398.6322743451592,1624
1400.7231164073469,1624
1402.813411022907,1609
1404.903158436773,1669
1406.9923588939578,1634
1409.0810126395531,1676
1411.1691199187303,1659
1413.2566809767386,1628
1415.343696058907,1636
1417.4301654106425,1693
1419.5160892774315,1632
1421.6014679048399,1635
1423.6863015385125,1689
1425.7705904241707,1639
1427.8543348076178,1656
1429.9375349347342,1601
1432.0201910514802,1641
1434.102303403894,1680
1436.1838722380944,1652
1438.2648978002767,1676
1440.3453803367174,1657
1442.4253200937692,1673
1444.5047173178677,1731
1446.5835722555234,1782
1448.6618851533285,1758
1450.739656257952,1846
1452.8168858161434,1755
1454.8935740747306,1883
1456.96972128062,1798
1459.045327680797,1901
1461.120393522327,1902
1463.1949190523528,1805
1465.2689045180973,1921
1467.3423501668608,1890
1469.415256246024,1924
1471.4876230030463,1905
1473.559450685465,1988
1475.6307395408976,1969
1477.7014898170391,2046
1479.771701761665,2000
1481.8413756226287,2001
1483.9105116478618,2025
1485.9791100853772,2090
1488.0471711832643,2094
1490.1146951896926,2084
1492.1816823529098,2031
1494.2481329212433,2103
1496.3140471430984,2115
1498.3794252669609,2086
1500.4442675413939,2222
1502.5085742150404,2059
1504.572345536622,2143
1506.6355817549388,2175
1508.6982831188702,2227
1510.7604498773744,2178
1512.8220822794883,2206
1514.8831805743293,2214
1516.9437450110909,2252
1519.003775839048,2294
1521.0632733075522,2388
1523.1222376660367,2301
1525.1806691640113,2266
1527.2385680510652,2348
1529.2959345768668,2359
1531.3527689911643,2337
1533.4090715437833,2421
1535.4648424846291,2387
1537.5200820636855,2424
1539.5747905310159,2428
1541.6289681367616,2470
1543.6826151311434,2466
1545.7357317644614,2525
1547.7883182870937,2581
1549.8403749494987,2512
1551.8919020022113,2561
1553.9428996958477,2619
1555.9933682811015,2721
1558.0433080087469,2735
1560.0927191296346,2729
1562.1416018946961,2745
1564.1899565549415,2748
1566.2377833614592,2800
1568.2850825654164,2703
1570.3318544180606,2668
1572.3780991707158,2603
1574.423817074788,2631
1576.4690083817595,2537
1578.5136733431923,2477
1580.5578122107272,2362
1582.601425236085,2308
1584.6445126710646,2216
1586.6870747675434,2188
1588.7291117774776,2237
1590.7706239529034,2111
1592.8116115459347,2016
1594.8520748087658,2080
1596.8920139936686,2075
1598.9314293529933,1940
1600.9703211391711,2004
1603.008689604711,1911
1605.0465350022005,1826
1607.0838575843068,1866
1609.1206576037753,1801
1611.1569353134305,1777
1613.1926909661765,1710
1615.2279248149953,1705
1617.2626371129481,1714
1619.2968281131757,1722
1621.3304980688963,1644
1623.3636472334088,1585
1625.39627586009,1639
1627.428384202396,1622
1629.459972513861,1602
1631.4910410480993,1565
1633.5215900588028,1574
1635.551619799744,1593
1637.5811305247717,1550
1639.6101224878166,1646
1641.6385959428862,1626
1643.6665511440683,1527
1645.693988345528,1551
1647.7209078015112,1564
1649.7473097663405,1498
1651.7731944944203,1486
1653.7985622402307,1528
1655.823413258333,1553
1657.847747803366,1546
1659.8715661300494,1525
1661.8948684931793,1497
1663.9176551476316,1502
1665.9399263483624,1518
1667.9616823504057,1494
1669.982923408873,1494
1672.0036497789574,1503
1674.0238617159293,1479
1676.043559475138,1502
1678.0627433120121,1501
1680.081413482059,1463
1682.0995702408654,1454
1684.117213844096,1493
1686.134344547495,1471
1688.1509626068864,1510
1690.1670682781705,1492
1692.182661817329,1483
1694.1977434804217,1479
1696.2123135235875,1489
1698.226372203043,1501
1700.2399197750851,1541
1702.2529564960905,1524
1704.2654826225112,1522
1706.277498410882,1476
1708.2890041178139,1473
1710.2999999999988,1478
1712.3104863142066,1473
1714.3204633172854,1526
1716.329931266163,1486
1718.3388904178469,1396
1720.3473410294214,1427
1722.3552833580516,1448
1724.3627176609807,1432
1726.3696441955308,1395
1728.3760632191033,1489
1730.3819749891782,1452
1732.3873797633146,1443
1734.3922777991502,1383
1736.3966693544012,1398
1738.4005546868639,1403
1740.4039340544127,1370
1742.406807715001,1420
1744.4091759266616,1396
1746.4110389475054,1517
1748.4123970357223,1457
1750.413250449582,1452
1752.4135994474318,1492
1754.4134442876993,1456
1756.4127852288902,1480
1758.4116225295893,1450
1760.4099564484595,1443
1762.407787244244,1517
1764.405115175764,1490
1766.4019405019203,1480
1768.3982634816916,1516
1770.3940843741357,1457
1772.3894034383907,1422
1774.3842209336717,1487
1776.378537119274,1455
1778.372352254571,1445
1780.3656665990156,1415
1782.3584804121397,1417
1784.3507939535534,1461
1786.3426074829463,1430
1788.3339212600863,1422
1790.3247355448211,1478
1792.3150505970766,1415
1794.3048666768573,1403
1796.2941840442477,1379
1798.2830029594106,1488
1800.2713236825884,1429
1802.2591464741004,1403
1804.2464715943465,1425
1806.2332993038058,1423
1808.2196298630352,1419
1810.2054635326708,1350
1812.190800573428,1318
1814.175641246101,1374
1816.1599858115628,1397
1818.1438345307652,1342
1820.127187664738,1402
1822.1100454745924,1373
1824.092408221516,1398
1826.0742761667766,1326
1828.055649571721,1393
1830.0365286977735,1443
1832.0169138064398,1348
1833.9968051593014,1386
1835.9762030180214,1398
1837.9551076443408,1396
1839.9335193000788,1332
1841.9114382471344,1357
1843.888864747485,1349
1845.8657990631878,1393
1847.842241456378,1325
1849.8181921892697,1401
1851.7936515241558,1335
1853.7686197234098,1391
1855.7430970494815,1388
1857.7170837649014,1370
1859.6905801322787,1407
1861.6635864143004,1391
1863.6361028737338,1351
1865.608129773424,1441
1867.5796673762961,1351
1869.5507159453537,1398
1871.521275743678,1395
1873.4913470344313,1428
1875.4609300808534,1438
1877.4300251462632,1417
1879.3986324940588,1419
1881.366752387717,1389
1883.3343850907936,1452
1885.3015308669228,1348
1887.268189979819,1381
1889.2343626932739,1441
1891.2000492711595,1353
1893.1652499774254,1361
1895.1299650761011,1443
1897.0941948312952,1438
1899.0579395071945,1359
1901.0211993680641,1429
1902.98397467825,1463
1904.9462657021745,1391
1906.9080727043415,1393
1908.869395949332,1429
1910.8302357018065,1387
1912.790592226504,1389
1914.7504657882428,1394
1916.7098566519212,1385
1918.6687650825133,1459
1920.6271913450764,1399
1922.5851357047422,1419
1924.5425984267245,1370
1926.499579776314,1426
1928.4560800188833,1387
1930.4120994198802,1381
1932.367638244833,1467
1934.32269675935,1456
1936.2772752291175,1395
1938.231373919899,1363
1940.1849930975404,1393
1942.1381330279637,1388
1944.0907939771696,1418
1946.0429762112412,1417
1947.9946799963363,1431
1949.9459055986945,1378
1951.896653284633,1390
1953.8469233205478,1343
1955.7967159729142,1351
1957.7460315082863,1350
1959.6948701932974,1350
1961.6432322946594,1418
1963.5911180791632,1391
1965.5385278136787,1306
1967.4854617651545,1360
1969.4319202006182,1378
1971.377903387176,1361
1973.3234115920136,1357
1975.268445082395,1325
1977.2130041256642,1397
1979.1570889892423,1376
1981.1006999406304,1403
1983.04383724741,1392
1984.986501177238,1378
1986.928691997853,1406
1988.8704099770712,1338
1990.811655382789,1317
1992.7524284829801,1320
1994.692729545698,1341
1996.6325588390755,1308
1998.5719166313224,1354
2000.5108031907307,1323
2002.4492187856677,1303
2004.387163684583,1319
2006.3246381560011,1333
2008.2616424685298,1292
2010.1981768908527,1304
2012.1342416917332,1287
2014.069837140014,1344
2016.0049635046162,1361
2017.9396210545406,1280
2019.8738100588666,1329
2021.8075307867502,1337
2023.740783507431,1337
2025.6735684902228,1346
2027.6058860045214,1439
2029.5377363198004,1346
2031.4691197056118,1314
2033.4000364315875,1301
2035.3304867674374,1360
2037.260470982952,1344
2039.189989347998,1320
2041.1190421325232,1338
2043.047629606554,1374
2044.9757520401945,1354
2046.9034097036288,1309
2048.8306028671195,1323
2050.7573318010086,1360
2052.683596775716,1331
2054.609398061742,1377
2056.5347359296647,1326
2058.4596106501403,1288
2060.384022493906,1337
2062.3079717317764,1293
2064.231458634646,1282
2066.1544834734873,1308
2068.077046519352,1343
2069.99914804337,1334
2071.9207883167524,1350
2073.8419676107865,1360
2075.7626861968406,1259
2077.6829443463607,1285
2079.6027423308715,1319
2081.522080421977,1356
2083.440958891362,1336
2085.359378010786,1325
2087.2773380520907,1363
2089.194839287196,1342
2091.111881988101,1341
2093.0284664268825,1343
2094.9445928756973,1349
2096.86026160678,1370
2098.775472892446,1341
2100.690227005088,1333
2102.604524217178,1308
2104.5183648012676,1350
2106.431749029985,1328
2108.34467717604,1367
2110.2571495122206,1343
2112.169166311393,1368
2114.080727846503,1319
2115.9918343905747,1330
2117.902486216711,1411
2119.8126835980956,1400
2121.722426807987,1400
2123.6317161197285,1314
2125.5405518067364,1367
2127.448934142509,1408
2129.356863400624,1395
2131.264339854737,1471
2133.1713637785815,1393
2135.077935445972,1344
2136.9840551308002,1345
2138.889723107037,1363
2140.7949396487334,1402
2142.699705030018,1344
2144.6040195250994,1285
2146.507883408264,1347
2148.4112969538774,1368
2150.3142604363848,1400
2152.2167741303097,1352
2154.1188383102535,1419
2156.0204532508997,1338
2157.9216192270064,1394
2159.822336513414,1329
2161.7226053850413,1404
2163.622426116884,1390
2165.5217989840185,1360
2167.4207242616,1346
2169.319202224862,1351
2171.2172331491165,1381
2173.1148173097563,1361
2175.0119549822507,1348
2176.90864644215,1322
2178.8048919650823,1370
2180.7006918267534,1392
2182.596046302952,1400
2184.4909556695407,1359
2186.3854202024645,1359
2188.279440177746,1385
2190.173015871487,1427
2192.066147559868,1349
2193.958835519149,1345
2195.851080025667,1406
2197.7428813558417,1394
2199.6342397861667,1360
2201.5251555932186,1321
2203.415629053651,1354
2205.3056604441986,1403
2207.19525004167,1390
2209.084398122958,1402
2210.9731049650327,1424
2212.861370844941,1376
2214.749196039812,1334
2216.636580826851,1391
2218.523525483344,1419
2220.410030286655,1422
2222.296095514226,1428
2224.1817214435805,1414
2226.066908352319,1426
2227.951656518121,1411
2229.835966218746,1420
2231.71983773203,1460
2233.6032713358913,1453
2235.486267308324,1410
2237.3688259274036,1398
2239.2509474712824,1398
2241.132632218193,1376
2243.013880446447,1426
2244.8946924344323,1373
2246.7750684606203,1392
2248.6550088035574,1385
2250.534513741871,1433
2252.413583554265,1367
2254.292218519526,1354
2256.170418916517,1380
2258.0481850241786,1391
2259.925517121534,1392
2261.8024154876825,1362
2263.678880401803,1349
2265.5549121431536,1374
2267.430510991071,1413
2269.305677224971,1426
2271.180411124348,1387
2273.0547129687766,1356
2274.9285830379076,1400
2276.8020216114737,1351
2278.6750289692845,1385
2280.5476053912294,1372
2282.4197511572766,1390
2284.2914665474727,1392
2286.162751841943,1401
2288.0336073208937,1415
2289.904033264608,1394
2291.774029953448,1458
2293.6435976678554,1442
2295.5127366883517,1424
2297.381447295534,1391
2299.2497297700825,1341
2301.1175843927526,1352
2302.9850114443825,1257
2304.852011205885,1264
2306.7185839582553,1258
2308.5847299825664,1285
2310.4504495599676,1249
2312.3157429716925,1226
2314.1806104990483,1306
2316.0450524234247,1260
2317.9090690262888,1240
2319.772660589186,1255
2321.635827393742,1278
2323.498569721661,1236
2325.3608878547248,1259
2327.2227820747967,1267
2329.0842526638157,1250
2330.945299903803,1277
2332.805924076857,1236
2334.6661254651535,1217
2336.525904350951,1231
2338.3852610165827,1246
2340.244195744464,1228
2342.102708817088,1277
2343.9608005170253,1233
2345.8184711269287,1297
2347.675720929526,1252
2349.532550207628,1274
2351.38895924412,1268
2353.24494832197,1274
2355.100517724223,1309
2356.955667734004,1318
2358.810398634514,1270
2360.664710709037,1288
2362.5186042409337,1280
2364.3720795136437,1336
2366.225136810686,1259
2368.0777764156583,1261
2369.929998612237,1275
2371.7818036841777,1256
2373.633191915315,1278
2375.484163589562,1286
2377.3347189909114,1294
2379.184858403434,1311
2381.03458211128,1272
2382.8838903986775,1328
2384.732783549936,1338
2386.5812618494406,1292
2388.4293255816588,1329
2390.2769750311327,1269
2392.1242104824883,1252
2393.971032220427,1289
2395.8174405297295,1328
2397.6634356952563,1331
2399.509018001947,1322
2401.3541877348193,1347
2403.1989451789705,1355
2405.043290619576,1336
2406.8872243418905,1356
2408.730746631247,1381
2410.5738577730594,1354
2412.4165580528183,1384
2414.258847756095,1442
2416.100727168537,1422
2417.9421965758734,1424
2419.783256263912,1510
2421.623906518538,1496
2423.4641476257157,1511
2425.303979871491,1558
2427.143403541984,1461
2428.9824189233977,1536
2430.821026302012,1580
2432.6592259641866,1538
2434.497018196361,1521
2436.33440328505,1627
2438.171381516851,1516
2440.00795317844,1508
2441.844118556569,1502
2443.6798779380724,1476
2445.5152316098606,1514
2447.3501798589255,1524
2449.1847229723357,1489
2451.0188612372403,1488
2452.8525949408663,1380
2454.6859243705203,1389
2456.518849813587,1397
2458.3513715575314,1420
2460.183489889895,1376
2462.015205098301,1454
2463.8465174704493,1417
2465.67742729412,1361
2467.5079348571717,1446
2469.338040447542,1370
2471.1677443532476,1383
2472.9970468623833,1403
2474.825948263123,1400
2476.6544488437207,1414
2478.482548892508,1375
2480.310248697896,1357
2482.137548548374,1357
2483.9644487325118,1363
2485.790949538956,1342
2487.617051256433,1309
2489.44275417375,1365
2491.26805857979,1352
2493.0929647635157,1347
2494.917473013971,1346
2496.741583620276,1324
2498.5652968716304,1376
2500.3886130573137,1408
2502.2115324666834,1367
2504.0340553891765,1320
2505.856182114308,1389
2507.6779129316733,1467
2509.499248130945,1415
2511.3201880018764,1383
2513.140732834298,1391
2514.9608829181198,1410
2516.780638543331,1380
2518.6,1364
2520.418967578273,1381
2522.237541568376,1378
2524.0557222606144,1342
2525.8735099453706,1392
2527.6909049131086,1343
2529.507907454368,1397
2531.32451785977,1349
2533.140736420014,1418
2534.9565634258774,1400
2536.771999168218,1424
2538.5870439379714,1422
2540.4016980261526,1450
2542.2159617238544,1390
2544.02983532225,1452
2545.8433191125914,1437
2547.656413386209,1450
2549.4691184345115,1413
2551.2814345489874,1449
2553.093362021204,1464
2554.904901142808,1520
2556.716052205523,1417
2558.526815501153,1412
2560.3371913215824,1454
2562.147179958771,1503
2563.956781704761,1461
2565.7659968516705,1475
2567.5748256916986,1485
2569.3832685171224,1464
2571.1913256202984,1508
2572.9989972936614,1489
2574.806283829725,1534
2576.613185521084,1513
2578.4197026604074,1513
2580.2258355404483,1499
2582.031584454035,1469
2583.836949694077,1537
2585.6419315535613,1492
2587.4465303255533,1459
2589.2507463032002,1470
2591.0545797797245,1537
2592.8580310484303,1476
2594.6611004026995,1544
2596.463788135992,1509
2598.266094541849,1513
2600.0680199138874,1480
2601.869564545807,1571
2603.670728731383,1537
2605.4715127644704,1525
2607.2719169390048,1541
2609.071941548998,1527
2610.8715868885433,1512
2612.670853251811,1537
2614.469740933052,1510
2616.268250226594,1515
2618.0663814268455,1482
2619.864134828292,1506
2621.6615107255006,1492
2623.458509413115,1444
2625.2551311858597,1484
2627.0513763385347,1437
2628.8472451660223,1504
2630.6427379632833,1457
2632.4378550253564,1526
2634.232596647359,1399
2636.026963124488,1462
2637.8209547520187,1374
2639.6145718253065,1458
2641.407814639785,1450
2643.200683490966,1418
2644.9931786744414,1423
2646.7853004858807,1418
2648.577049221034,1408
2650.3684251757277,1446
2652.1594286458712,1408
2653.9500599274484,1395
2655.740319316525,1398
2657.5302071092437,1403
2659.3197236018286,1422
2661.10886909058,1384
2662.8976438718782,1345
2664.686048242183,1369
2666.4740824980327,1403
2668.2617469360443,1388
2670.0490418529134,1359
2671.8359675454153,1384
2673.622524310403,1346
2675.408712444811,1360
2677.1945322456495,1351
2678.979984010009,1354
2680.76506803506,1389
2682.5497846180497,1338
2684.334134056306,1372
2686.1181166472343,1356
2687.9017326883213,1318
2689.6849824771293,1342
2691.4678663113013,1392
2693.2503844885596,1336
2695.032537306705,1357
2696.8143250636167,1299
2698.5957480572542,1303
2700.3768065856534,1283
2702.1575009469316,1312
2703.937831439283,1318
2705.717798360982,1328
2707.4974020103837,1261
2709.276642685917,1269
2711.055520686095,1304
2712.834036309506,1283
2714.612189854819,1273
2716.389981620782,1318
2718.1674119062204,1228
2719.944481010041,1246
2721.721189231226,1292
2723.4975368688415,1338
2725.273524222027,1272
2727.0491515900053,1250
2728.824419272075,1284
2730.5993275676146,1296
2732.3738767760838,1291
2734.148067197016,1290
2735.921899130031,1239
2737.6953728748194,1262
2739.468488731156,1240
2741.2412469988926,1243
2743.0136479779617,1261
2744.785691968372,1232
2746.5573792702116,1251
2748.3287101836504,1255
2750.099685008934,1293
2751.870304046388,1216
2753.640567596418,1233
2755.4104759595057,1295
2757.1800294362156,1273
2758.949228327187,1210
2760.7180729331412,1269
2762.486563554877,1227
2764.254700493272,1254
2766.022484049284,1282
2767.789914523947,1255
2769.5569922183786,1208
2771.3237174337705,1252
2773.090090471394,1209
2774.8561116326036,1176
2776.6217812188274,1229
2778.3870995315756,1251
2780.1520668724356,1248
2781.9166835430747,1216
2783.6809498452394,1220
2785.444866080754,1305
2787.2084325515225,1235
2788.971649559527,1251
2790.73451740683,1224
2792.4970363955713,1227
2794.2592068279705,1261
2796.0210290063264,1212
2797.7825032330147,1213
2799.543629810493,1274
2801.304409041296,1234
2803.0648412280366,1236
2804.8249266734088,1265
2806.5846656801846,1281
2808.344058551212,1221
2810.1031055894246,1250
2811.8618070978273,1226
2813.6201633795085,1197
2815.378174737636,1247
2817.1358414754536,1221
2818.893163896285,1242
2820.6501423035334,1235
2822.4067770006814,1236
2824.1630682912883,1282
2825.9190164789957,1231
2827.6746218675207,1255
2829.429884760661,1275
2831.184805462294,1250
2832.9393842763743,1270
2834.693621506936,1244
2836.4475174580916,1233
2838.201072434034,1249
2839.954286739034,1216
2841.707160677441,1281
2843.459694553685,1193
2845.2118886722724,1231
2846.96374333779,1224
2848.7152588549034,1248
2850.4664355283567,1272
2852.217273662973,1288
2853.9677735636546,1214
2855.7179355353833,1249
2857.4677598832186,1254
2859.217246912299,1227
2860.9663969278427,1231
2862.715210235146,1230
2864.4636871395846,1218
2866.211827946614,1246
2867.9596329617652,1246
2869.7071024906536,1193
2871.4542368389684,1172
2873.20103631248,1181
2874.947501217038,1242
2876.6936318585695,1281
2878.4394285430812,1191
2880.1848915766604,1264
2881.9300212654707,1259
2883.6748179157553,1236
2885.4192818338374,1230
2887.1634133261173,1240
2888.907212699077,1247
2890.6506802592744,1220
2892.393816313348,1240
2894.1366211680142,1189
2895.8790951300693,1202
2897.621238506388,1210
2899.363051603925,1226
2901.1045347297118,1229
2902.8456881908596,1250
2904.58651229456,1212
2906.327007348081,1248
2908.067173658772,1213
2909.8070115340597,1262
2911.5465212814497,1248
2913.285703208527,1257
2915.0245576229563,1220
2916.7630848324807,1258
2918.5012851449196,1248
2920.2391588681758,1231
2921.976706310227,1215
2923.7139277791334,1229
2925.4508235830313,1204
2927.187394030137,1198
2928.923639428745,1233
2930.6595600872306,1237
2932.395156314046,1201
2934.1304284177218,1273
2935.8653767068713,1296
2937.6000014901815,1262
2939.3343030764227,1253
2941.068281774442,1225
2942.8019378931644,1290
2944.5352717415976,1236
2946.2682836288236,1297
2948.0009738640065,1300
2949.7333427563885,1245
2951.465390615289,1285
2953.1971177501086,1241
2954.9285244703265,1254
2956.6596110855,1254
2958.3903779052657,1214
2960.1208252393385,1175
2961.8509533975125,1211
2963.5807626896617,1237
2965.3102534257378,1236
2967.0394259157715,1157
2968.768280469873,1226
2970.496817398232,1261
2972.2250370111146,1264
2973.952939618869,1176
2975.6805255319196,1207
2977.4077950607707,1228
2979.134748516006,1196
2980.861386208289,1272
2982.587708448359,1206
2984.313715547037,1241
2986.039407815222,1257
2987.764785563891,1247
2989.489849104102,1200
2991.2145987469908,1214
2992.9390348037705,1185
2994.6631575857346,1188
2996.3869674042576,1220
2998.1104645707887,1216
2999.83364939686,1129
3001.5565221940783,1204
3003.2790832741334,1205
3005.0013329487924,1200
3006.7232715298996,1145
3008.4448993293804,1216
3010.166216659239,1178
3011.887223831558,1157
3013.607921158498,1200
3015.3283089522993,1210
3017.0483875252826,1182
3018.7681571898443,1179
3020.4876182584626,1211
3022.2067710436927,1250
3023.9256158581707,1229
3025.644153014609,1222
3027.362382825801,1201
3029.0803056046193,1213
3030.797921664012,1203
3032.5152313170106,1194
3034.2322348767225,1228
3035.9489326563353,1161
3037.665324969115,1207
3039.3814121284063,1176
3041.097194447633,1232
3042.812672240299,1181
3044.5278458199855,1213
3046.2427155003525,1203
3047.9572815951406,1197
3049.671544418167,1201
3051.38550428333,1200
3053.0991615046073,1169
3054.812516396051,1223
3056.5255692717974,1184
3058.2383204460575,1224
3059.9507702331257,1201
3061.662918947372,1216
3063.3747669032446,1183
3065.0863144152736,1297
3066.7975617980674,1216
3068.508509366309,1224
3070.219157434767,1227
3071.9295063182844,1191
3073.639556331785,1182
3075.3493077902704,1201
3077.058761008821,1102
3078.7679163025964,1185
3080.476773986837,1191
3082.1853343768594,1228
3083.89359778806,1187
3085.6015645359153,1224
3087.3092349359786,1132
3089.016609303884,1188
3090.7236879553434,1239
3092.4304712061476,1242
3094.136959372166,1133
3095.843152769349,1208
3097.5490517137237,1195
3099.2546565213966,1165
3100.959967508554,1151
3102.66498499146,1152
3104.3697092864577,1187
3106.0741407099695,1185
3107.778279578498,1226
3109.482126208622,1221
3111.1856809170004,1206
3112.8889440203716,1190
3114.5919158355528,1261
3116.294596679439,1202
3117.996986869006,1179
3119.6990867213062,1197
3121.4008965534726,1200
3123.102416682717,1159
3124.803647426329,1144
3126.5045891016784,1189
3128.205242026213,1182
3129.90560651746,1215
3131.605682893025,1200
3133.3054714705922,1210
3135.0049725679282,1167
3136.7041865028714,1148
3138.4031135933465,1140
3140.101754157353,1196
3141.800108512971,1279
3143.498176978357,1212
3145.1959598717494,1217
3146.8934575114636,1189
3148.5906702158954,1174
3150.2875983035183,1172
3151.9842420928853,1205
3153.680601902627,1153
3155.376678051456,1187
3157.07247085816,1180
3158.767980641609,1171
3160.463207720748,1182
3162.158152414606,1168
3163.8528150422862,1188
3165.5471959229726,1253
3167.2412953759303,1236
3168.9351137204976,1181
3170.628651276098,1201
3172.3219083622307,1200
3174.014885298474,1210
3175.707582404485,1188
3177.4000000000005,1202
3179.092138404835,1202
3180.7839979388846,1198
3182.47557892212,1218
3184.166881674594,1157
3185.8579065164386,1151
3187.5486537678626,1154
3189.2391237491547,1167
3190.9293167806827,1184
3192.6192331828934,1203
3194.3088732763117,1179
3195.998237381542,1144
3197.687325819268,1136
3199.376138910251,1124
3201.064676975334,1120
3202.7529403354347,1173
3204.4409293115523,1168
3206.1286442247647,1194
3207.816085396229,1195
3209.5032531471825,1191
3211.190147798936,1183
3212.8767696728846,1177
3214.5631190905015,1151
3216.2491963733373,1167
3217.9350018430214,1171
3219.6205358212637,1152
3221.305798629851,1116
3222.990790590651,1123
3224.6755120256103,1139
3226.359963256751,1179
3228.0441446061795,1130
3229.7280563960758,1176
3231.411698948703,1138
3233.0950725863995,1180
3234.778177631587,1109
3236.461014406761,1155
3238.1435832345005,1173
3239.8258844374595,1187
3241.507918338374,1200
3243.1896852600576,1210
3244.8711855254023,1154
3246.552419457381,1150
3248.233387379042,1133
3249.914089613516,1172
3251.59452648401,1188
3253.274698313813,1142
3254.95460542629,1098
3256.6342481448855,1112
3258.313626793125,1166
3259.9927416946084,1140
3261.6715931730196,1085
3263.3501815521176,1121
3265.0285071557437,1167
3266.706570307815,1150
3268.3843713323286,1141
3270.0619105533615,1155
3271.739188295068,1144
3273.4162048816834,1181
3275.0929606375184,1145
3276.769455886966,1221
3278.445690954498,1190
3280.1216661646613,1140
3281.797381842087,1137
3283.4728383114807,1168
3285.1480358976296,1122
3286.8229749253996,1162
3288.4976557197333,1155
3290.172078605655,1193
3291.846243908266,1156
3293.5201519527463,1154
3295.193803064357,1155
3296.8671975684374,1180
3298.5403357904024,1183
3300.21321805575,1082
3301.8858446900567,1191
3303.558216018975,1134
3305.23033236824,1183
3306.9021940636603,1140
3308.57380143113,1168
3310.2451547966184,1166
3311.916254486174,1194
3313.5871008259246,1147
3315.2576941420766,1170
3316.9280347609147,1185
3318.5981230088046,1164
3320.2679592121895,1153
3321.9375436975924,1113
3323.606876791612,1136
3325.27595882093,1188
3326.944790112305,1195
3328.6133709925753,1179
3330.2817017886573,1143
3331.949782827547,1146
3333.617614436319,1131
3335.2851969421245,1127
3336.952530672199,1129
3338.619615953853,1153
3340.286453114475,1168
3341.9530424815357,1160
3343.619384382583,1160
3345.2854791452437,1149
3346.951327097224,1158
3348.6169285663073,1163
3350.2822838803577,1150
3351.947393367319,1156
3353.61225735521,1129
3355.2768761721345,1106
3356.9412501462693,1170
3358.605379605873,1167
3360.2692648792827,1165
3361.9329062949146,1176
3363.596304181263,1173
