CollectionTime,9/20/2024 10:50:04 AM
ExposureUsed,3
CalibratedSpectrum
-962.7078968117929,655
-959.9714848408522,641
-957.2358232597828,587
-954.5009119013725,564
-951.7667505983302,590
-949.0333391832855,596
-946.3006774887896,593
-943.5687653473143,552
-940.837602591253,602
-938.1071890529199,564
-935.3775245645503,563
-932.6486089583007,587
-929.9204420662485,580
-927.1930237203925,606
-924.4663537526524,603
-921.7404319948689,616
-919.0152582788041,591
-916.2908324361409,586
-913.5671542984834,578
-910.8442236973568,564
-908.1220404642074,569
-905.4006044304027,630
-902.679915427231,578
-899.959973285902,573
-897.2407778375464,553
-894.5223289132158,563
-891.8046263438832,620
-889.0876699604426,617
-886.3714595937089,579
-883.6559950744183,609
-880.9412762332282,576
-878.2273029007168,561
-875.5140749073835,589
-872.8015920836489,564
-870.0898542598545,592
-867.3788612662631,575
-864.6686129330585,561
-861.9591090903457,586
-859.2503495681506,586
-856.5423341964203,550
-853.8350628050229,590
-851.1285352237478,635
-848.4227512823054,610
-845.7177108103272,582
-843.0134136373656,569
-840.3098595928943,576
-837.6070485063082,582
-834.9049802069229,592
-832.2036545239757,564
-829.5030712866244,584
-826.8032303239481,563
-824.1041314649472,557
-821.4057745385428,573
-818.7081593735775,583
-816.0112857988148,580
-813.3151536429393,578
-810.6197627345566,591
-807.9251129021936,588
-805.2312039742981,600
-802.5380357792392,603
-799.8456081453069,600
-797.1539209007124,631
-794.462973873588,624
-791.772766891987,624
-789.083299783884,584
-786.3945723771743,582
-783.7065844996748,596
-781.0193359791231,608
-778.3328266431781,594
-775.6470563194197,561
-772.9620248353489,580
-770.2777320183878,640
-767.5941776958798,643
-764.9113616950891,639
-762.2292838432011,596
-759.5479439673222,599
-756.8673418944801,589
-754.1874774516235,587
-751.5083504656222,605
-748.8299607632671,593
-746.15230817127,610
-743.475392516264,621
-740.7992136248035,611
-738.1237713233636,623
-735.4490654383407,598
-732.7750957960521,588
-730.1018622227365,594
-727.4293645445534,622
-724.7576025875837,590
-722.0865761778291,612
-719.4162851412126,645
-716.7467293035781,634
-714.0779084906909,644
-711.409822528237,602
-708.7424712418238,628
-706.0758544569796,642
-703.4099719991541,624
-700.7448236937178,629
-698.0804093659622,608
-695.4167288411002,611
-692.7537819442656,631
-690.0915685005134,618
-687.4300883348199,627
-684.7693412720819,621
-682.1093271371178,669
-679.4500457546669,638
-676.7914969493897,615
-674.1336805458676,636
-671.4765963686034,653
-668.8202442420206,665
-666.1646239904642,621
-663.5097354382001,632
-660.8555784094151,664
-658.2021527282176,660
-655.5494582186366,688
-652.8974947046223,717
-650.2462620100463,669
-647.5957599587009,652
-644.9459883742998,658
-642.2969470804776,673
-639.6486359007902,698
-637.0010546587141,691
-634.3542031776476,701
-631.7080812809096,678
-629.0626887917401,692
-626.4180255333008,693
-623.7740913286734,669
-621.1308860008619,685
-618.4884093727904,677
-615.8466612673046,696
-613.2056415071715,663
-610.5653499150785,660
-607.9257863136347,678
-605.28695052537,707
-602.6488423727357,664
-600.0114616781036,681
-597.3748082637674,684
-594.7388819519412,728
-592.1036825647604,748
-589.4692099242818,714
-586.8354638524829,724
-584.2024441712624,745
-581.5701507024403,724
-578.9385832677575,725
-576.3077416888759,745
-573.6776257873787,746
-571.0482353847704,755
-568.4195703024757,707
-565.7916303618415,766
-563.164415384135,731
-560.5379251905453,687
-557.9121596021815,716
-555.2871184400748,721
-552.6628015251767,713
-550.0392086783606,741
-547.4163397204204,749
-544.794194472071,783
-542.1727727539491,804
-539.5520743866118,807
-536.9320991905377,823
-534.3128469861261,871
-531.6943175936979,840
-529.0765108334947,779
-526.4594265256793,901
-523.8430644903358,1042
-521.2274245474689,1147
-518.612506517005,1208
-515.9983102187913,1229
-513.3848354725959,1227
-510.77208209810846,1311
-508.16004991493924,1278
-505.5487387426199,1304
-502.9381484006032,1360
-500.3282787082628,1294
-497.71912948489364,1299
-495.1107005497117,1202
-492.5029917218539,1131
-489.8960028203786,993
-487.28973366426493,922
-484.68418407241325,895
-482.07935386364494,893
-479.47524285670266,857
-476.87185087025,823
-474.2691777228715,880
-471.66722323307334,919
-469.0659872192821,880
-466.4654694998459,893
-463.86566989303384,874
-461.26658821703614,847
-458.66822428996414,877
-456.07057792985,877
-453.4736489546475,950
-450.877437182231,852
-448.28194243039627,836
-445.68716451686,886
-443.09310325926003,853
-440.49975847515555,814
-437.9071299820263,870
-435.31521759727354,877
-432.72402113821954,883
-430.13354042210767,852
-427.5437752661022,837
-424.95472548728867,923
-422.36639090267386,907
-419.7787713291855,982
-417.1918665836721,1017
-414.60567648290385,971
-412.0202008435715,948
-409.4354394822874,942
-406.8513922155845,929
-404.26805885991723,934
-401.685439231661,966
-399.103533147112,978
-396.522340422488,961
-393.9418608739278,941
-391.3620943174908,909
-388.7830405691583,888
-386.2046994448317,828
-383.6270707603344,854
-381.05015433141045,825
-378.473949973725,809
-375.8984575028645,768
-373.32367673433623,686
-370.74960748356875,700
-368.1762495659117,690
-365.60360279663576,598
-363.03166699093265,590
-360.4604419639154,544
-357.8899275306178,522
-355.32012350599507,564
-352.7510297049233,509
-350.1826459421999,489
-347.61497203254316,527
-345.04800779059235,483
-342.4817530309082,510
-339.91620756797226,604
-337.35137121618743,622
-334.7872437898774,590
-332.22382510328725,576
-329.66111497058273,588
-327.09911320585127,571
-324.53781962310075,580
-321.9772340362607,542
-319.4173562591816,553
-316.8581861056348,547
-314.2997233893127,557
-311.7419679238294,599
-309.1849195227194,611
-306.62857799943856,602
-304.0729431673641,571
-301.51801483979375,562
-298.963792829947,536
-296.41027695096386,547
-293.85746701590574,608
-291.3053628377552,644
-288.7539642294155,653
-286.2032710037115,608
-283.65328297338897,645
-281.1039999511146,686
-278.5554217494762,680
-276.007548180983,602
-273.4603790580651,590
-270.9139141930734,623
-268.3681533982807,645
-265.8230964858798,714
-263.27874326798565,764
-260.7350935566336,780
-258.1921471637804,778
-255.6499039013039,820
-253.10836358100266,768
-250.56752601459698,681
-248.02739101372765,760
-245.48795838995704,878
-242.94922795476816,823
-240.41119951956557,801
-237.8738728956746,752
-235.33724789434166,742
-232.80132432673452,790
-230.2661020039418,716
-227.73158073697357,739
-225.19776033676033,851
-222.66464061415422,945
-220.1322213799284,921
-217.60050244477725,919
-215.06948361931552,1016
-212.53916471408013,1102
-210.00954553952818,950
-207.48062590603843,836
-204.9524056239104,833
-202.4248845033651,961
-199.8980623545441,1013
-197.37193898751036,1214
-194.84651421224817,1232
-192.32178783866232,1203
-189.79775967657952,1102
-187.27442953574644,1061
-184.7517972258321,1129
-182.2298625564256,962
-179.7086253370378,879
-177.18808537710026,973
-174.66824248596583,1116
-172.14909647290835,1287
-169.6306471471229,1227
-167.11289431772548,1071
-164.59583779375328,990
-162.07947738416453,1129
-159.5638128978386,1309
-157.04884414357605,1514
-154.53457093009854,1361
-152.02099306604828,1292
-149.50811035998936,1262
-146.99592262040665,1505
-144.48442965570587,1521
-141.97363127421409,1594
-139.46352728417958,1642
-136.95411749377126,1648
-134.44540171107985,1411
-131.93737974411636,1182
-129.43005140081357,1232
-126.92341648902493,1559
-124.41747481652521,1980
-121.91222619101006,2354
-119.40767042009657,2673
-116.90380731132257,2984
-114.40063667214702,3251
-111.8981583099503,3324
-109.3963720320337,4003
-106.89527764561933,4485
-104.39487495785067,5814
-101.89516377579241,8235
-99.39614390642998,13338
-96.89781515667039,17503
-94.40017733334128,18121
-91.90323024319173,16383
-89.40697369289148,12913
-86.91140748903172,7042
-84.41653143812482,4400
-81.92234534660395,5609
-79.42884902082358,10237
-76.93604226705907,16008
-74.4439248915071,21401
-71.95249670028534,23917
-69.46175749943245,20281
-66.97170709490854,14671
-64.48234529259423,10749
-61.99367189829195,9962
-59.50568671772464,9433
-57.01838955653636,8721
-54.53178022029283,9546
-52.045858514480074,10243
-49.560624244506016,11139
-47.07607721569923,9832
-44.59221723330904,12363
-42.10904410250669,15356
-39.62655762838392,16824
-37.14475761595372,19226
-34.66364387015028,22330
-32.18321619582866,26769
-29.70347439776515,31923
-27.224418280657005,33992
-24.74604764912317,41725
-22.26836230770266,55418
-19.7913620608565,65036
-17.315046712966478,65036
-14.83941606833514,65036
-12.36446993118659,65036
-9.89020810566592,65036
-7.416630395839093,65036
-4.94373660569363,65036
-2.471526539137585,65036
-6.821210263296962E-13,65036
2.47084320796705,65036
4.941003281093458,65036
7.410480415786196,65036
9.879274808531363,65036
12.347386655893956,65036
14.814816154518212,65036
17.28156350112681,65036
19.74762889252179,65036
22.21301252558385,65036
24.67771459727237,22209
27.141735304626195,6127
29.605074844762612,5221
32.06773341487792,4521
34.52971121224755,4894
36.99100843422559,3825
39.45162527824516,3112
41.91156194181792,4892
44.370818622535126,5223
46.82939551806646,4103
49.287292826160524,4580
51.74451074464503,3921
54.201049471426245,3025
56.65690920448981,3458
59.112090141899785,2717
61.56659248179983,2552
64.02041642241159,2792
66.4735621620365,3025
68.92602989905402,2931
71.37781983192338,2698
73.82893215918205,2221
76.27936707944684,1804
78.72912479141326,1941
81.17820549385567,2277
83.62660938562783,1914
86.07433666566146,1793
88.5213875329681,1791
90.96776218663751,1921
93.41346082583925,2026
95.85848364982041,2199
98.30283085790859,1701
100.7465026495089,1716
103.18949922410604,1637
105.63182078126385,1333
108.07346752062438,1472
110.51443964190923,1471
112.95473734491827,1477
115.39436082953114,1461
117.83331029570547,1430
120.27158594347827,1451
122.7091879729652,1618
125.1461165843615,1486
127.58237197794062,1575
130.01795435405518,1728
132.4528639131364,1806
134.88710085569494,1580
137.32066538231982,1399
139.75355769367923,1445
142.1857779905207,1493
144.61732647366978,1173
147.04820334403132,1129
149.47840880258934,1202
151.90794305040674,1474
154.33680628862487,1699
156.76499871846443,1716
159.19252054122433,1718
161.61937195828352,1652
164.04555317109896,1770
166.47106438120693,1884
168.89590579022217,1876
171.320077599839,1879
173.7435800118302,2198
176.16641322804742,2275
178.58857745042144,2301
181.01007288096173,2390
183.43089972175687,2195
185.85105817497413,2253
188.27054844285988,2169
190.6893707277394,2126
193.10752523201643,2323
195.5250121581745,2502
197.9418317087751,2569
200.3579840864594,2462
202.7734694939469,2443
205.18828813403627,2531
207.6024402096051,2530
210.01592592360964,2518
212.42874547908548,2585
214.84089907914665,2436
217.2523869269868,2454
219.66320922587727,2453
222.0733661791695,2440
224.48285799029293,2536
226.8916848627572,2589
229.29984700014882,2477
231.7073446061355,2469
234.11417788446204,2488
236.520347038953,2518
238.92585227351185,2642
241.33069379212054,2746
243.73487179884035,2689
246.1383864978112,2663
248.541238093252,2702
250.9434267894609,2793
253.34495279081432,2704
255.74581630176783,2757
258.1460175268563,2749
260.54555667069314,2773
262.9444339379703,2697
265.3426495334594,2735
267.7402036620107,2720
270.1370965285529,2706
272.53332833809407,2698
274.9288992957214,2512
277.32380960660055,2446
279.718059475976,2464
282.1116491091717,2421
284.5045787115897,2395
286.89684848871195,2463
289.2884586460981,2459
291.67940938938807,2370
294.0697009242996,2410
296.4593334566299,2355
298.84830719225477,2459
301.23662233712923,2458
303.6242790972866,2447
306.01127767884,2326
308.39761828798066,2359
310.78330113097934,2289
313.16832641418534,2282
315.5526943440269,2257
317.9364051270112,2195
320.3194589697242,2257
322.70185607883093,2268
325.0835966610754,2169
327.4646809232805,2121
329.8451090723478,2156
332.2248813152577,2257
334.6039978590701,2232
336.9824589109231,2230
339.36026467803447,2181
341.7374153677,2169
344.113911187295,2130
346.48975234427337,2170
348.8649390461686,2211
351.2394715005918,2131
353.61334991523415,2173
355.9865744978655,2218
358.35914545633375,2220
360.73106299856715,2209
363.10232733257146,2146
365.47293866643247,2060
367.84289720831396,2029
370.2122031664593,2011
372.5808567491905,2071
374.9488581649083,2060
377.31620762209275,2066
379.6829053293021,2072
382.0489514951745,2002
384.4143463284262,2031
386.7790900378528,2033
389.14318283232853,1948
391.50662492080653,2007
393.86941651231916,2026
396.23155781597745,2025
398.5930490409713,2090
400.9538903965696,2029
403.3140820921202,2069
405.6736243370498,2043
408.03251734086336,1964
410.3907613131465,1968
412.74835646356166,2012
415.10530300185144,1955
417.4616011378372,1983
419.81725108141893,2028
422.1722530425758,1931
424.5266072313656,1947
426.880313857925,1967
429.2333731324701,2037
431.58578526529516,1907
433.9375504667738,1947
436.2886689473588,1950
438.63914091758113,1920
440.9889665880513,1894
443.33814616945835,1857
445.68667987257015,1931
448.03456790823395,1855
450.3818104873759,1853
452.72840782100013,1822
455.07436012019105,1863
457.41966759611057,1924
459.7643304600007,1898
462.10834892318155,1955
464.4517231970525,1819
466.79445349309174,1953
469.1365400228566,1958
471.4779829979826,1906
473.81878263018564,1929
476.15893913125876,1991
478.4984527130747,1920
480.8373235875855,2013
483.17555196682144,2040
485.5131380628919,1980
487.8500820879857,2061
490.1863842543697,2111
492.52204477439034,2251
494.8570638604725,2316
497.1914417251204,2402
499.52517858091653,2686
501.85827464052306,2864
504.19073011668036,3056
506.5225452222086,3106
508.85372017000566,3124
511.18425517304956,3303
513.514150444396,3735
515.8434061971808,4729
518.1720226446176,5225
520.4999999999999,5301
522.8273384766991,5092
525.1540382881666,4744
527.480099647932,4327
529.8055227696037,3348
532.1303078668694,2481
534.454455153496,2085
536.777964843328,1953
539.1008371502907,1898
541.4230722883866,1835
543.744670471698,1825
546.0656319143858,1804
548.3859568306899,1843
550.7056454349294,1777
553.0246979415016,1728
555.3431145648834,1811
557.6608955196306,1805
559.978041020377,1772
562.2945512818363,1739
564.6104265188006,1810
566.9256669461412,1746
569.2402727788082,1811
571.5542442318302,1814
573.8675815203156,1839
576.1802848594508,1764
578.4923544645015,1881
580.8037905508126,1801
583.114593333807,1774
585.4247630289875,1789
587.7342998519354,1699
590.0432040183106,1841
592.3514757438526,1818
594.6591152443794,1839
596.9661227357875,1822
599.2724984340531,1784
601.578242555231,1811
603.8833553154542,1755
606.1878369309362,1801
608.4916876179676,1825
610.7949075929192,1776
613.0974970722403,1732
615.3994562724587,1800
617.7007854101818,1802
620.0014847020951,1790
622.3015543649641,1795
624.6009946156324,1875
626.8998056710224,1827
629.1979877481361,1856
631.4955410640538,1792
633.7924658359349,1755
636.0887622810175,1829
638.3844306166192,1856
640.6794710601358,1817
642.9738838290426,1825
645.2676691408932,1903
647.5608272133207,1767
649.853358264037,1829
652.1452625108324,1886
654.4365401715764,1781
656.7271914642178,1816
659.0172166067838,1912
661.3066158173809,1846
663.5953893141935,1872
665.8835373154867,1920
668.1710600396028,1796
670.4579577049639,1831
672.7442305300709,1841
675.0298787335033,1878
677.3149025339197,1861
679.599302150058,1895
681.8830778007342,1812
684.1662297048437,1826
686.4487580813608,1941
688.7306631493387,1862
691.0119451279091,1869
693.2926042362834,1915
695.5726406937516,1853
697.8520547196814,1848
700.1308465335215,1887
702.4090163547982,1795
704.6865644031171,1897
706.9634908981619,1837
709.2397960596965,1876
711.5154801075631,1992
713.7905432616823,1873
716.0649857420548,1932
718.3388077687592,1851
720.612009561953,1841
722.8845913418733,1865
725.1565533288352,1830
727.427895743234,1894
729.6986188055427,1856
731.9687227363137,1853
734.238207756178,1861
736.5070740858458,1869
738.7753219461066,1767
741.0429515578281,1852
743.3099631419569,1884
745.5763569195191,1854
747.8421331116193,1845
750.1072919394409,1814
752.3718336242467,1860
754.6357583873777,1776
756.8990664502545,1826
759.1617580343765,1833
761.423833361321,1861
763.6852926527457,1841
765.9461361303862,1875
768.206364016058,1859
770.4659765316536,1923
772.7249738991469,1833
774.9833563405886,1786
777.2411240781092,1846
779.4982773339183,1962
781.7548163303044,1878
784.010741289634,1877
786.2660524343538,1857
788.5207499869881,1845
790.7748341701416,1833
793.0283052064964,1874
795.2811633188143,1952
797.5334087299362,1841
799.7850416627813,1847
802.0360623403484,1866
804.2864709857143,1858
806.5362678220353,1889
808.7854530725468,1904
811.0340269605625,1917
813.2819897094754,1855
815.5293415427581,1906
817.77608268396,1897
820.0222133567116,1884
822.2677337847211,1923
824.5126441917765,1782
826.7569448017433,1812
829.0006358385675,1917
831.2437175262731,1877
833.4861900889629,1898
835.7280537508192,1896
837.9693087361026,1823
840.2099552691533,1868
842.4499935743896,1962
844.689423876309,1840
846.9282463994886,1864
849.1664613685833,1856
851.4040690083276,1885
853.6410695435349,1867
855.877463199097,1804
858.1132501999847,1914
860.3484307712487,1856
862.5830051380175,1922
864.8169735254988,1826
867.0503361589791,1856
869.2830932638243,1901
871.5152450654786,1900
873.7467917894654,1909
875.9777336613873,1982
878.2080709069252,1908
880.4378037518389,1851
882.666932421968,1925
884.8954571432301,1922
887.1233781416219,1893
889.3506956432192,1919
891.5774098741766,1922
893.803521060728,1864
896.0290294291852,1824
898.2539352059397,1868
900.4782386174619,1859
902.7019398903011,1796
904.925039251085,1833
907.147536926521,1841
909.3694331433943,1878
911.59072812857,1843
913.8114221089921,1872
916.0315153116827,1878
918.2510079637437,1843
920.4699002923547,1808
922.6881925247761,1869
924.905884888345,1871
927.1229776104793,1814
929.3394709186747,1829
931.555365040506,1822
933.7706602036275,1826
935.9853566357709,1801
938.1994545647489,1876
940.4129542184515,1876
942.6258558248488,1893
944.8381596119883,1876
947.0498658079974,1845
949.2609746410825,1847
951.4714863395287,1867
953.6814011316998,1882
955.8907192460387,1809
958.0994409110671,1850
960.3075663553858,1886
962.5150958076741,1810
964.7220294966913,1795
966.928367651274,1794
969.1341105003388,1824
971.3392582728806,1853
973.5438111979742,1817
975.747769504772,1845
977.9511334225061,1793
980.153903180487,1760
982.3560790081052,1779
984.5576611348289,1805
986.7586497902058,1784
988.9590452038618,1725
991.158847605503,1762
993.3580572249133,1710
995.5566742919558,1736
997.7546990365728,1680
999.952131688785,1590
1002.1489724786926,1619
1004.3452216364743,1643
1006.5408793923874,1657
1008.7359459767691,1614
1010.9304216200343,1592
1013.1243065526781,1584
1015.3176010052733,1566
1017.510305208472,1529
1019.7024193930064,1558
1021.8939437896848,1552
1024.0848786293977,1613
1026.2752241431122,1496
1028.4649805618747,1541
1030.6541481168115,1570
1032.842727039127,1568
1035.0307175601051,1558
1037.2181199111074,1552
1039.4049343235752,1506
1041.591161029029,1514
1043.7768002590683,1554
1045.9618522453698,1496
1048.1463172196918,1513
1050.3301954138697,1482
1052.513487059818,1497
1054.69619238953,1466
1056.8783116350783,1464
1059.0598450286152,1476
1061.2407928023704,1528
1063.4211551886528,1516
1065.6009324198508,1497
1067.780124728432,1432
1069.9587323469414,1534
1072.1367555080046,1496
1074.314194444325,1487
1076.4910493886855,1500
1078.667320573947,1462
1080.843008233051,1470
1083.0181125990161,1446
1085.1926339049414,1488
1087.3665723840027,1507
1089.5399282694575,1433
1091.7127017946405,1403
1093.8848931929647,1451
1096.0565026979243,1428
1098.2275305430899,1420
1100.3979769621128,1425
1102.567842188722,1435
1104.737126456726,1430
1106.9058300000124,1456
1109.0739530525475,1455
1111.2414958483764,1365
1113.4084586216231,1417
1115.5748416064907,1466
1117.7406450372605,1458
1119.9058691482942,1413
1122.0705141740304,1481
1124.2345803489884,1385
1126.3980679077658,1441
1128.5609770850388,1431
1130.7233081155623,1399
1132.8850612341707,1432
1135.0462366757774,1423
1137.2068346753745,1416
1139.3668554680326,1447
1141.526299288901,1413
1143.68516637321,1416
1145.8434569562655,1482
1148.001171273455,1411
1150.158309560244,1409
1152.3148720521767,1444
1154.470858984876,1399
1156.626270594044,1470
1158.7811071154629,1394
1160.9353687849912,1407
1163.089055838569,1398
1165.242168512213,1385
1167.3947070420209,1423
1169.5466716641677,1352
1171.6980626149075,1388
1173.8488801305748,1381
1175.9991244475814,1329
1178.1487958024186,1419
1180.2978944316555,1388
1182.4464205719428,1432
1184.5943744600072,1394
1186.7417563326567,1397
1188.8885664267755,1414
1191.0348049793297,1413
1193.1804722273619,1380
1195.325568407995,1450
1197.4700937584303,1443
1199.614048515948,1396
1201.7574329179074,1401
1203.900247201746,1438
1206.042491604982,1411
1208.1841663652099,1424
1210.3252717201053,1478
1212.465807907422,1464
1214.6057751649923,1480
1216.7451737307279,1429
1218.8840038426192,1384
1221.0222657387353,1450
1223.1599596572241,1427
1225.2970858363137,1527
1227.4336445143094,1461
1229.5696359295966,1410
1231.705060320639,1445
1233.8399179259786,1380
1235.9742089842384,1488
1238.107933734118,1519
1240.2410924143974,1456
1242.373685263935,1396
1244.5057125216676,1450
1246.6371744266116,1443
1248.7680712178621,1498
1250.898403134593,1481
1253.028170416058,1473
1255.1573733015875,1569
1257.2860120305932,1432
1259.4140868425648,1476
1261.54159797707,1528
1263.6685456737569,1449
1265.7949301723515,1490
1267.9207517126597,1504
1270.046010534565,1464
1272.1707068780306,1501
1274.2948409830983,1440
1276.4184130898889,1535
1278.541423438603,1520
1280.6638722695184,1548
1282.785759822993,1526
1284.9070863394636,1518
1287.0278520594447,1580
1289.1480572235314,1609
1291.2677020723963,1569
1293.3867868467923,1537
1295.5053117875495,1612
1297.623277135579,1627
1299.740683131868,1669
1301.8575300174857,1659
1303.973818033578,1693
1306.0895474213703,1622
1308.2047184221678,1642
1310.3193312773528,1681
1312.4333862283888,1669
1314.5468835168163,1684
1316.659823384255,1673
1318.7722060724045,1637
1320.8840318230418,1669
1322.9953008780249,1667
1325.1060134792888,1701
1327.2161698688478,1688
1329.3257702887959,1678
1331.4348149813054,1689
1333.5433041886276,1638
1335.6512381530933,1682
1337.7586171171101,1630
1339.8654413231675,1655
1341.9717110138317,1590
1344.0774264317488,1622
1346.1825878196432,1636
1348.2871954203192,1602
1350.3912494766587,1659
1352.4947502316231,1622
1354.5976979282532,1591
1356.7000928096686,1576
1358.8019351190665,1686
1360.9032250997243,1608
1363.0039629949988,1522
1365.1041490483235,1609
1367.2037835032133,1580
1369.3028666032606,1650
1371.401398592137,1600
1373.4993797135926,1601
1375.5968102114575,1582
1377.6936903296396,1637
1379.7900203121262,1603
1381.8858004029835,1573
1383.9810308463561,1619
1386.075711886469,1567
1388.1698437676241,1587
1390.2634267342032,1635
1392.356461030667,1551
1394.4489469015557,1529
1396.5408845914872,1543
1398.6322743451592,1569
1400.7231164073469,1633
1402.813411022907,1617
1404.903158436773,1606
1406.9923588939578,1557
1409.0810126395531,1661
1411.1691199187303,1613
1413.2566809767386,1629
1415.343696058907,1718
1417.4301654106425,1658
1419.5160892774315,1667
1421.6014679048399,1546
1423.6863015385125,1636
1425.7705904241707,1638
1427.8543348076178,1621
1429.9375349347342,1613
1432.0201910514802,1691
1434.102303403894,1714
1436.1838722380944,1735
1438.2648978002767,1643
1440.3453803367174,1677
1442.4253200937692,1667
1444.5047173178677,1691
1446.5835722555234,1692
1448.6618851533285,1763
1450.739656257952,1803
1452.8168858161434,1800
1454.8935740747306,1778
1456.96972128062,1760
1459.045327680797,1857
1461.120393522327,1790
1463.1949190523528,1917
1465.2689045180973,1794
1467.3423501668608,1894
1469.415256246024,1954
1471.4876230030463,1867
1473.559450685465,1959
1475.6307395408976,1962
1477.7014898170391,1931
1479.771701761665,1988
1481.8413756226287,1966
1483.9105116478618,1982
1485.9791100853772,1967
1488.0471711832643,1991
1490.1146951896926,2081
1492.1816823529098,2031
1494.2481329212433,2055
1496.3140471430984,2123
1498.3794252669609,2104
1500.4442675413939,1978
1502.5085742150404,2061
1504.572345536622,2146
1506.6355817549388,2188
1508.6982831188702,2167
1510.7604498773744,2162
1512.8220822794883,2146
1514.8831805743293,2208
1516.9437450110909,2155
1519.003775839048,2211
1521.0632733075522,2285
1523.1222376660367,2219
1525.1806691640113,2280
1527.2385680510652,2242
1529.2959345768668,2319
1531.3527689911643,2230
1533.4090715437833,2261
1535.4648424846291,2319
1537.5200820636855,2401
1539.5747905310159,2376
1541.6289681367616,2419
1543.6826151311434,2503
1545.7357317644614,2511
1547.7883182870937,2461
1549.8403749494987,2498
1551.8919020022113,2612
1553.9428996958477,2591
1555.9933682811015,2699
1558.0433080087469,2708
1560.0927191296346,2750
1562.1416018946961,2741
1564.1899565549415,2718
1566.2377833614592,2725
1568.2850825654164,2699
1570.3318544180606,2569
1572.3780991707158,2648
1574.423817074788,2527
1576.4690083817595,2515
1578.5136733431923,2344
1580.5578122107272,2348
1582.601425236085,2275
1584.6445126710646,2185
1586.6870747675434,2235
1588.7291117774776,2122
1590.7706239529034,2093
1592.8116115459347,2048
1594.8520748087658,2039
1596.8920139936686,1967
1598.9314293529933,1921
1600.9703211391711,1949
1603.008689604711,1866
1605.0465350022005,1883
1607.0838575843068,1755
1609.1206576037753,1774
1611.1569353134305,1743
1613.1926909661765,1663
1615.2279248149953,1732
1617.2626371129481,1663
1619.2968281131757,1675
1621.3304980688963,1597
1623.3636472334088,1662
1625.39627586009,1581
1627.428384202396,1528
1629.459972513861,1526
1631.4910410480993,1540
1633.5215900588028,1588
1635.551619799744,1496
1637.5811305247717,1500
1639.6101224878166,1518
1641.6385959428862,1517
1643.6665511440683,1506
1645.693988345528,1531
1647.7209078015112,1525
1649.7473097663405,1524
1651.7731944944203,1442
1653.7985622402307,1464
1655.823413258333,1435
1657.847747803366,1465
1659.8715661300494,1477
1661.8948684931793,1439
1663.9176551476316,1504
1665.9399263483624,1425
1667.9616823504057,1445
1669.982923408873,1387
1672.0036497789574,1441
1674.0238617159293,1455
1676.043559475138,1484
1678.0627433120121,1436
1680.081413482059,1479
1682.0995702408654,1467
1684.117213844096,1409
1686.134344547495,1492
1688.1509626068864,1496
1690.1670682781705,1434
1692.182661817329,1471
1694.1977434804217,1481
1696.2123135235875,1413
1698.226372203043,1429
1700.2399197750851,1470
1702.2529564960905,1419
1704.2654826225112,1389
1706.277498410882,1422
1708.2890041178139,1404
1710.2999999999988,1465
1712.3104863142066,1409
1714.3204633172854,1358
1716.329931266163,1466
1718.3388904178469,1474
1720.3473410294214,1406
1722.3552833580516,1395
1724.3627176609807,1402
1726.3696441955308,1418
1728.3760632191033,1382
1730.3819749891782,1407
1732.3873797633146,1392
1734.3922777991502,1367
1736.3966693544012,1435
1738.4005546868639,1374
1740.4039340544127,1379
1742.406807715001,1374
1744.4091759266616,1437
1746.4110389475054,1378
1748.4123970357223,1369
1750.413250449582,1400
1752.4135994474318,1420
1754.4134442876993,1395
1756.4127852288902,1421
1758.4116225295893,1404
1760.4099564484595,1412
1762.407787244244,1423
1764.405115175764,1452
1766.4019405019203,1446
1768.3982634816916,1419
1770.3940843741357,1362
1772.3894034383907,1401
1774.3842209336717,1372
1776.378537119274,1391
1778.372352254571,1416
1780.3656665990156,1320
1782.3584804121397,1356
1784.3507939535534,1375
1786.3426074829463,1452
1788.3339212600863,1425
1790.3247355448211,1374
1792.3150505970766,1433
1794.3048666768573,1359
1796.2941840442477,1391
1798.2830029594106,1393
1800.2713236825884,1343
1802.2591464741004,1365
1804.2464715943465,1391
1806.2332993038058,1406
1808.2196298630352,1384
1810.2054635326708,1356
1812.190800573428,1416
1814.175641246101,1357
1816.1599858115628,1392
1818.1438345307652,1362
1820.127187664738,1360
1822.1100454745924,1336
1824.092408221516,1360
1826.0742761667766,1388
1828.055649571721,1380
1830.0365286977735,1370
1832.0169138064398,1394
1833.9968051593014,1380
1835.9762030180214,1364
1837.9551076443408,1358
1839.9335193000788,1363
1841.9114382471344,1372
1843.888864747485,1364
1845.8657990631878,1306
1847.842241456378,1419
1849.8181921892697,1381
1851.7936515241558,1379
1853.7686197234098,1352
1855.7430970494815,1312
1857.7170837649014,1367
1859.6905801322787,1347
1861.6635864143004,1335
1863.6361028737338,1362
1865.608129773424,1333
1867.5796673762961,1337
1869.5507159453537,1372
1871.521275743678,1358
1873.4913470344313,1407
1875.4609300808534,1307
1877.4300251462632,1343
1879.3986324940588,1394
1881.366752387717,1420
1883.3343850907936,1357
1885.3015308669228,1370
1887.268189979819,1367
1889.2343626932739,1414
1891.2000492711595,1387
1893.1652499774254,1372
1895.1299650761011,1363
1897.0941948312952,1329
1899.0579395071945,1358
1901.0211993680641,1401
1902.98397467825,1407
1904.9462657021745,1389
1906.9080727043415,1418
1908.869395949332,1403
1910.8302357018065,1350
1912.790592226504,1355
1914.7504657882428,1339
1916.7098566519212,1371
1918.6687650825133,1405
1920.6271913450764,1388
1922.5851357047422,1336
1924.5425984267245,1433
1926.499579776314,1368
1928.4560800188833,1420
1930.4120994198802,1389
1932.367638244833,1358
1934.32269675935,1358
1936.2772752291175,1348
1938.231373919899,1362
1940.1849930975404,1401
1942.1381330279637,1392
1944.0907939771696,1352
1946.0429762112412,1327
1947.9946799963363,1364
1949.9459055986945,1366
1951.896653284633,1359
1953.8469233205478,1401
1955.7967159729142,1327
1957.7460315082863,1379
1959.6948701932974,1361
1961.6432322946594,1372
1963.5911180791632,1321
1965.5385278136787,1317
1967.4854617651545,1320
1969.4319202006182,1330
1971.377903387176,1309
1973.3234115920136,1312
1975.268445082395,1377
1977.2130041256642,1316
1979.1570889892423,1338
1981.1006999406304,1337
1983.04383724741,1324
1984.986501177238,1344
1986.928691997853,1326
1988.8704099770712,1381
1990.811655382789,1343
1992.7524284829801,1327
1994.692729545698,1281
1996.6325588390755,1336
1998.5719166313224,1364
2000.5108031907307,1355
2002.4492187856677,1291
2004.387163684583,1285
2006.3246381560011,1335
2008.2616424685298,1377
2010.1981768908527,1382
2012.1342416917332,1345
2014.069837140014,1380
2016.0049635046162,1345
2017.9396210545406,1344
2019.8738100588666,1341
2021.8075307867502,1316
2023.740783507431,1280
2025.6735684902228,1299
2027.6058860045214,1385
2029.5377363198004,1292
2031.4691197056118,1296
2033.4000364315875,1297
2035.3304867674374,1327
2037.260470982952,1328
2039.189989347998,1307
2041.1190421325232,1291
2043.047629606554,1344
2044.9757520401945,1343
2046.9034097036288,1301
2048.8306028671195,1310
2050.7573318010086,1268
2052.683596775716,1334
2054.609398061742,1290
2056.5347359296647,1235
2058.4596106501403,1322
2060.384022493906,1328
2062.3079717317764,1300
2064.231458634646,1364
2066.1544834734873,1300
2068.077046519352,1295
2069.99914804337,1323
2071.9207883167524,1267
2073.8419676107865,1314
2075.7626861968406,1330
2077.6829443463607,1279
2079.6027423308715,1322
2081.522080421977,1279
2083.440958891362,1312
2085.359378010786,1340
2087.2773380520907,1289
2089.194839287196,1329
2091.111881988101,1267
2093.0284664268825,1292
2094.9445928756973,1299
2096.86026160678,1306
2098.775472892446,1265
2100.690227005088,1355
2102.604524217178,1320
2104.5183648012676,1326
2106.431749029985,1276
2108.34467717604,1292
2110.2571495122206,1321
2112.169166311393,1326
2114.080727846503,1309
2115.9918343905747,1288
2117.902486216711,1339
2119.8126835980956,1276
2121.722426807987,1331
2123.6317161197285,1357
2125.5405518067364,1359
2127.448934142509,1325
2129.356863400624,1369
2131.264339854737,1361
2133.1713637785815,1292
2135.077935445972,1358
2136.9840551308002,1328
2138.889723107037,1289
2140.7949396487334,1303
2142.699705030018,1336
2144.6040195250994,1365
2146.507883408264,1341
2148.4112969538774,1397
2150.3142604363848,1295
2152.2167741303097,1261
2154.1188383102535,1352
2156.0204532508997,1380
2157.9216192270064,1353
2159.822336513414,1351
2161.7226053850413,1363
2163.622426116884,1316
2165.5217989840185,1358
2167.4207242616,1387
2169.319202224862,1382
2171.2172331491165,1367
2173.1148173097563,1372
2175.0119549822507,1320
2176.90864644215,1411
2178.8048919650823,1316
2180.7006918267534,1365
2182.596046302952,1366
2184.4909556695407,1383
2186.3854202024645,1401
2188.279440177746,1385
2190.173015871487,1302
2192.066147559868,1364
2193.958835519149,1346
2195.851080025667,1367
2197.7428813558417,1385
2199.6342397861667,1354
2201.5251555932186,1327
2203.415629053651,1384
2205.3056604441986,1405
2207.19525004167,1397
2209.084398122958,1349
2210.9731049650327,1333
2212.861370844941,1378
2214.749196039812,1415
2216.636580826851,1387
2218.523525483344,1353
2220.410030286655,1395
2222.296095514226,1375
2224.1817214435805,1360
2226.066908352319,1420
2227.951656518121,1383
2229.835966218746,1377
2231.71983773203,1378
2233.6032713358913,1397
2235.486267308324,1412
2237.3688259274036,1387
2239.2509474712824,1335
2241.132632218193,1407
2243.013880446447,1411
2244.8946924344323,1356
2246.7750684606203,1370
2248.6550088035574,1359
2250.534513741871,1415
2252.413583554265,1394
2254.292218519526,1377
2256.170418916517,1434
2258.0481850241786,1378
2259.925517121534,1407
2261.8024154876825,1393
2263.678880401803,1370
2265.5549121431536,1360
2267.430510991071,1353
2269.305677224971,1365
2271.180411124348,1325
2273.0547129687766,1299
2274.9285830379076,1384
2276.8020216114737,1327
2278.6750289692845,1328
2280.5476053912294,1434
2282.4197511572766,1385
2284.2914665474727,1405
2286.162751841943,1343
2288.0336073208937,1383
2289.904033264608,1414
2291.774029953448,1380
2293.6435976678554,1392
2295.5127366883517,1339
2297.381447295534,1308
2299.2497297700825,1309
2301.1175843927526,1325
2302.9850114443825,1267
2304.852011205885,1283
2306.7185839582553,1282
2308.5847299825664,1245
2310.4504495599676,1265
2312.3157429716925,1256
2314.1806104990483,1236
2316.0450524234247,1261
2317.9090690262888,1224
2319.772660589186,1239
2321.635827393742,1268
2323.498569721661,1265
2325.3608878547248,1206
2327.2227820747967,1276
2329.0842526638157,1257
2330.945299903803,1242
2332.805924076857,1227
2334.6661254651535,1234
2336.525904350951,1237
2338.3852610165827,1284
2340.244195744464,1193
2342.102708817088,1250
2343.9608005170253,1200
2345.8184711269287,1177
2347.675720929526,1215
2349.532550207628,1220
2351.38895924412,1229
2353.24494832197,1188
2355.100517724223,1237
2356.955667734004,1260
2358.810398634514,1269
2360.664710709037,1292
2362.5186042409337,1294
2364.3720795136437,1269
2366.225136810686,1311
2368.0777764156583,1259
2369.929998612237,1253
2371.7818036841777,1214
2373.633191915315,1251
2375.484163589562,1200
2377.3347189909114,1249
2379.184858403434,1238
2381.03458211128,1258
2382.8838903986775,1273
2384.732783549936,1307
2386.5812618494406,1278
2388.4293255816588,1311
2390.2769750311327,1279
2392.1242104824883,1311
2393.971032220427,1322
2395.8174405297295,1323
2397.6634356952563,1334
2399.509018001947,1283
2401.3541877348193,1313
2403.1989451789705,1312
2405.043290619576,1346
2406.8872243418905,1300
2408.730746631247,1364
2410.5738577730594,1355
2412.4165580528183,1317
2414.258847756095,1454
2416.100727168537,1432
2417.9421965758734,1399
2419.783256263912,1435
2421.623906518538,1479
2423.4641476257157,1468
2425.303979871491,1553
2427.143403541984,1539
2428.9824189233977,1536
2430.821026302012,1528
2432.6592259641866,1553
2434.497018196361,1556
2436.33440328505,1534
2438.171381516851,1522
2440.00795317844,1482
2441.844118556569,1452
2443.6798779380724,1528
2445.5152316098606,1492
2447.3501798589255,1406
2449.1847229723357,1446
2451.0188612372403,1422
2452.8525949408663,1428
2454.6859243705203,1411
2456.518849813587,1336
2458.3513715575314,1435
2460.183489889895,1368
2462.015205098301,1339
2463.8465174704493,1392
2465.67742729412,1346
2467.5079348571717,1390
2469.338040447542,1368
2471.1677443532476,1313
2472.9970468623833,1306
2474.825948263123,1316
2476.6544488437207,1318
2478.482548892508,1315
2480.310248697896,1371
2482.137548548374,1385
2483.9644487325118,1320
2485.790949538956,1364
2487.617051256433,1315
2489.44275417375,1337
2491.26805857979,1313
2493.0929647635157,1365
2494.917473013971,1321
2496.741583620276,1357
2498.5652968716304,1352
2500.3886130573137,1339
2502.2115324666834,1374
2504.0340553891765,1293
2505.856182114308,1313
2507.6779129316733,1343
2509.499248130945,1323
2511.3201880018764,1305
2513.140732834298,1352
2514.9608829181198,1351
2516.780638543331,1370
2518.6,1332
2520.418967578273,1366
2522.237541568376,1378
2524.0557222606144,1380
2525.8735099453706,1386
2527.6909049131086,1369
2529.507907454368,1400
2531.32451785977,1364
2533.140736420014,1428
2534.9565634258774,1413
2536.771999168218,1407
2538.5870439379714,1398
2540.4016980261526,1451
2542.2159617238544,1409
2544.02983532225,1440
2545.8433191125914,1420
2547.656413386209,1409
2549.4691184345115,1351
2551.2814345489874,1391
2553.093362021204,1449
2554.904901142808,1428
2556.716052205523,1454
2558.526815501153,1448
2560.3371913215824,1439
2562.147179958771,1474
2563.956781704761,1462
2565.7659968516705,1435
2567.5748256916986,1440
2569.3832685171224,1438
2571.1913256202984,1480
2572.9989972936614,1462
2574.806283829725,1475
2576.613185521084,1459
2578.4197026604074,1482
2580.2258355404483,1494
2582.031584454035,1516
2583.836949694077,1498
2585.6419315535613,1502
2587.4465303255533,1492
2589.2507463032002,1475
2591.0545797797245,1533
2592.8580310484303,1506
2594.6611004026995,1548
2596.463788135992,1479
2598.266094541849,1476
2600.0680199138874,1497
2601.869564545807,1529
2603.670728731383,1505
2605.4715127644704,1507
2607.2719169390048,1460
2609.071941548998,1447
2610.8715868885433,1524
2612.670853251811,1482
2614.469740933052,1480
2616.268250226594,1492
2618.0663814268455,1566
2619.864134828292,1464
2621.6615107255006,1508
2623.458509413115,1452
2625.2551311858597,1513
2627.0513763385347,1529
2628.8472451660223,1436
2630.6427379632833,1473
2632.4378550253564,1452
2634.232596647359,1449
2636.026963124488,1391
2637.8209547520187,1493
2639.6145718253065,1423
2641.407814639785,1373
2643.200683490966,1435
2644.9931786744414,1466
2646.7853004858807,1395
2648.577049221034,1368
2650.3684251757277,1369
2652.1594286458712,1389
2653.9500599274484,1367
2655.740319316525,1359
2657.5302071092437,1386
2659.3197236018286,1361
2661.10886909058,1401
2662.8976438718782,1348
2664.686048242183,1396
2666.4740824980327,1373
2668.2617469360443,1355
2670.0490418529134,1322
2671.8359675454153,1301
2673.622524310403,1341
2675.408712444811,1367
2677.1945322456495,1323
2678.979984010009,1321
2680.76506803506,1300
2682.5497846180497,1335
2684.334134056306,1295
2686.1181166472343,1308
2687.9017326883213,1287
2689.6849824771293,1290
2691.4678663113013,1299
2693.2503844885596,1299
2695.032537306705,1335
2696.8143250636167,1303
2698.5957480572542,1292
2700.3768065856534,1286
2702.1575009469316,1318
2703.937831439283,1299
2705.717798360982,1253
2707.4974020103837,1273
2709.276642685917,1218
2711.055520686095,1270
2712.834036309506,1290
2714.612189854819,1255
2716.389981620782,1240
2718.1674119062204,1290
2719.944481010041,1266
2721.721189231226,1346
2723.4975368688415,1238
2725.273524222027,1213
2727.0491515900053,1249
2728.824419272075,1232
2730.5993275676146,1235
2732.3738767760838,1266
2734.148067197016,1257
2735.921899130031,1209
2737.6953728748194,1269
2739.468488731156,1264
2741.2412469988926,1258
2743.0136479779617,1229
2744.785691968372,1240
2746.5573792702116,1261
2748.3287101836504,1240
2750.099685008934,1245
2751.870304046388,1245
2753.640567596418,1253
2755.4104759595057,1216
2757.1800294362156,1226
2758.949228327187,1207
2760.7180729331412,1253
2762.486563554877,1245
2764.254700493272,1188
2766.022484049284,1254
2767.789914523947,1219
2769.5569922183786,1219
2771.3237174337705,1206
2773.090090471394,1218
2774.8561116326036,1244
2776.6217812188274,1207
2778.3870995315756,1222
2780.1520668724356,1242
2781.9166835430747,1226
2783.6809498452394,1267
2785.444866080754,1200
2787.2084325515225,1221
2788.971649559527,1222
2790.73451740683,1205
2792.4970363955713,1210
2794.2592068279705,1221
2796.0210290063264,1190
2797.7825032330147,1212
2799.543629810493,1222
2801.304409041296,1254
2803.0648412280366,1244
2804.8249266734088,1250
2806.5846656801846,1198
2808.344058551212,1209
2810.1031055894246,1184
2811.8618070978273,1263
2813.6201633795085,1198
2815.378174737636,1236
2817.1358414754536,1235
2818.893163896285,1195
2820.6501423035334,1236
2822.4067770006814,1227
2824.1630682912883,1229
2825.9190164789957,1238
2827.6746218675207,1251
2829.429884760661,1190
2831.184805462294,1276
2832.9393842763743,1254
2834.693621506936,1161
2836.4475174580916,1277
2838.201072434034,1210
2839.954286739034,1220
2841.707160677441,1188
2843.459694553685,1222
2845.2118886722724,1154
2846.96374333779,1177
2848.7152588549034,1212
2850.4664355283567,1207
2852.217273662973,1257
2853.9677735636546,1198
2855.7179355353833,1214
2857.4677598832186,1194
2859.217246912299,1194
2860.9663969278427,1213
2862.715210235146,1134
2864.4636871395846,1231
2866.211827946614,1195
2867.9596329617652,1236
2869.7071024906536,1201
2871.4542368389684,1200
2873.20103631248,1184
2874.947501217038,1184
2876.6936318585695,1202
2878.4394285430812,1165
2880.1848915766604,1273
2881.9300212654707,1213
2883.6748179157553,1218
2885.4192818338374,1255
2887.1634133261173,1238
2888.907212699077,1259
2890.6506802592744,1244
2892.393816313348,1215
2894.1366211680142,1281
2895.8790951300693,1223
2897.621238506388,1230
2899.363051603925,1275
2901.1045347297118,1247
2902.8456881908596,1192
2904.58651229456,1250
2906.327007348081,1179
2908.067173658772,1200
2909.8070115340597,1178
2911.5465212814497,1167
2913.285703208527,1205
2915.0245576229563,1167
2916.7630848324807,1153
2918.5012851449196,1234
2920.2391588681758,1220
2921.976706310227,1217
2923.7139277791334,1223
2925.4508235830313,1203
2927.187394030137,1203
2928.923639428745,1192
2930.6595600872306,1268
2932.395156314046,1200
2934.1304284177218,1253
2935.8653767068713,1226
2937.6000014901815,1305
2939.3343030764227,1238
2941.068281774442,1270
2942.8019378931644,1240
2944.5352717415976,1171
2946.2682836288236,1240
2948.0009738640065,1243
2949.7333427563885,1208
2951.465390615289,1257
2953.1971177501086,1227
2954.9285244703265,1203
2956.6596110855,1233
2958.3903779052657,1198
2960.1208252393385,1208
2961.8509533975125,1216
2963.5807626896617,1219
2965.3102534257378,1289
2967.0394259157715,1197
2968.768280469873,1219
2970.496817398232,1260
2972.2250370111146,1209
2973.952939618869,1119
2975.6805255319196,1205
2977.4077950607707,1237
2979.134748516006,1244
2980.861386208289,1274
2982.587708448359,1162
2984.313715547037,1229
2986.039407815222,1218
2987.764785563891,1196
2989.489849104102,1181
2991.2145987469908,1170
2992.9390348037705,1179
2994.6631575857346,1190
2996.3869674042576,1164
2998.1104645707887,1222
2999.83364939686,1161
3001.5565221940783,1129
3003.2790832741334,1196
3005.0013329487924,1178
3006.7232715298996,1121
3008.4448993293804,1171
3010.166216659239,1223
3011.887223831558,1170
3013.607921158498,1199
3015.3283089522993,1193
3017.0483875252826,1152
3018.7681571898443,1190
3020.4876182584626,1204
3022.2067710436927,1200
3023.9256158581707,1164
3025.644153014609,1192
3027.362382825801,1186
3029.0803056046193,1156
3030.797921664012,1150
3032.5152313170106,1163
3034.2322348767225,1146
3035.9489326563353,1140
3037.665324969115,1154
3039.3814121284063,1150
3041.097194447633,1176
3042.812672240299,1155
3044.5278458199855,1163
3046.2427155003525,1172
3047.9572815951406,1121
3049.671544418167,1194
3051.38550428333,1169
3053.0991615046073,1179
3054.812516396051,1171
3056.5255692717974,1173
3058.2383204460575,1216
3059.9507702331257,1171
3061.662918947372,1157
3063.3747669032446,1229
3065.0863144152736,1198
3066.7975617980674,1177
3068.508509366309,1165
3070.219157434767,1153
3071.9295063182844,1167
3073.639556331785,1200
3075.3493077902704,1235
3077.058761008821,1172
3078.7679163025964,1177
3080.476773986837,1194
3082.1853343768594,1156
3083.89359778806,1164
3085.6015645359153,1117
3087.3092349359786,1175
3089.016609303884,1112
3090.7236879553434,1165
3092.4304712061476,1181
3094.136959372166,1172
3095.843152769349,1156
3097.5490517137237,1187
3099.2546565213966,1106
3100.959967508554,1147
3102.66498499146,1168
3104.3697092864577,1129
3106.0741407099695,1164
3107.778279578498,1161
3109.482126208622,1190
3111.1856809170004,1152
3112.8889440203716,1161
3114.5919158355528,1183
3116.294596679439,1136
3117.996986869006,1221
3119.6990867213062,1173
3121.4008965534726,1202
3123.102416682717,1171
3124.803647426329,1211
3126.5045891016784,1172
3128.205242026213,1171
3129.90560651746,1152
3131.605682893025,1169
3133.3054714705922,1171
3135.0049725679282,1158
3136.7041865028714,1161
3138.4031135933465,1203
3140.101754157353,1125
3141.800108512971,1176
3143.498176978357,1168
3145.1959598717494,1166
3146.8934575114636,1148
3148.5906702158954,1155
3150.2875983035183,1119
3151.9842420928853,1158
3153.680601902627,1188
3155.376678051456,1161
3157.07247085816,1158
3158.767980641609,1142
3160.463207720748,1176
3162.158152414606,1188
3163.8528150422862,1192
3165.5471959229726,1148
3167.2412953759303,1163
3168.9351137204976,1198
3170.628651276098,1169
3172.3219083622307,1143
3174.014885298474,1195
3175.707582404485,1123
3177.4000000000005,1171
3179.092138404835,1208
3180.7839979388846,1185
3182.47557892212,1136
3184.166881674594,1166
3185.8579065164386,1165
3187.5486537678626,1152
3189.2391237491547,1176
3190.9293167806827,1180
3192.6192331828934,1142
3194.3088732763117,1115
3195.998237381542,1213
3197.687325819268,1151
3199.376138910251,1173
3201.064676975334,1159
3202.7529403354347,1120
3204.4409293115523,1193
3206.1286442247647,1160
3207.816085396229,1156
3209.5032531471825,1177
3211.190147798936,1133
3212.8767696728846,1114
3214.5631190905015,1088
3216.2491963733373,1143
3217.9350018430214,1181
3219.6205358212637,1162
3221.305798629851,1104
3222.990790590651,1065
3224.6755120256103,1191
3226.359963256751,1137
3228.0441446061795,1137
3229.7280563960758,1125
3231.411698948703,1200
3233.0950725863995,1115
3234.778177631587,1181
3236.461014406761,1126
3238.1435832345005,1214
3239.8258844374595,1163
3241.507918338374,1112
3243.1896852600576,1149
3244.8711855254023,1231
3246.552419457381,1168
3248.233387379042,1100
3249.914089613516,1194
3251.59452648401,1128
3253.274698313813,1128
3254.95460542629,1117
3256.6342481448855,1172
3258.313626793125,1123
3259.9927416946084,1155
3261.6715931730196,1131
3263.3501815521176,1125
3265.0285071557437,1130
3266.706570307815,1147
3268.3843713323286,1156
3270.0619105533615,1141
3271.739188295068,1151
3273.4162048816834,1139
3275.0929606375184,1153
3276.769455886966,1143
3278.445690954498,1176
3280.1216661646613,1180
3281.797381842087,1123
3283.4728383114807,1100
3285.1480358976296,1143
3286.8229749253996,1155
3288.4976557197333,1175
3290.172078605655,1131
3291.846243908266,1137
3293.5201519527463,1163
3295.193803064357,1120
3296.8671975684374,1109
3298.5403357904024,1119
3300.21321805575,1122
3301.8858446900567,1109
3303.558216018975,1174
3305.23033236824,1161
3306.9021940636603,1125
3308.57380143113,1176
3310.2451547966184,1094
3311.916254486174,1175
3313.5871008259246,1172
3315.2576941420766,1212
3316.9280347609147,1205
3318.5981230088046,1137
3320.2679592121895,1147
3321.9375436975924,1138
3323.606876791612,1155
3325.27595882093,1155
3326.944790112305,1104
3328.6133709925753,1106
3330.2817017886573,1110
3331.949782827547,1132
3333.617614436319,1171
3335.2851969421245,1148
3336.952530672199,1154
3338.619615953853,1156
3340.286453114475,1162
3341.9530424815357,1165
3343.619384382583,1159
3345.2854791452437,1156
3346.951327097224,1105
3348.6169285663073,1129
3350.2822838803577,1108
3351.947393367319,1148
3353.61225735521,1096
3355.2768761721345,1168
3356.9412501462693,1182
3358.605379605873,1120
3360.2692648792827,1145
3361.9329062949146,1150
3363.596304181263,1159
