CollectionTime,9/20/2024 10:48:52 AM
ExposureUsed,3
CalibratedSpectrum
-962.7078968117929,634
-959.9714848408522,684
-957.2358232597828,616
-954.5009119013725,599
-951.7667505983302,636
-949.0333391832855,626
-946.3006774887896,611
-943.5687653473143,609
-940.837602591253,621
-938.1071890529199,604
-935.3775245645503,613
-932.6486089583007,621
-929.9204420662485,614
-927.1930237203925,652
-924.4663537526524,652
-921.7404319948689,629
-919.0152582788041,666
-916.2908324361409,656
-913.5671542984834,619
-910.8442236973568,619
-908.1220404642074,628
-905.4006044304027,609
-902.679915427231,641
-899.959973285902,617
-897.2407778375464,586
-894.5223289132158,578
-891.8046263438832,633
-889.0876699604426,664
-886.3714595937089,637
-883.6559950744183,631
-880.9412762332282,607
-878.2273029007168,612
-875.5140749073835,636
-872.8015920836489,589
-870.0898542598545,588
-867.3788612662631,612
-864.6686129330585,579
-861.9591090903457,591
-859.2503495681506,632
-856.5423341964203,585
-853.8350628050229,647
-851.1285352237478,638
-848.4227512823054,627
-845.7177108103272,583
-843.0134136373656,615
-840.3098595928943,634
-837.6070485063082,622
-834.9049802069229,638
-832.2036545239757,596
-829.5030712866244,661
-826.8032303239481,638
-824.1041314649472,628
-821.4057745385428,620
-818.7081593735775,640
-816.0112857988148,636
-813.3151536429393,640
-810.6197627345566,662
-807.9251129021936,584
-805.2312039742981,655
-802.5380357792392,622
-799.8456081453069,617
-797.1539209007124,641
-794.462973873588,695
-791.772766891987,672
-789.083299783884,635
-786.3945723771743,613
-783.7065844996748,610
-781.0193359791231,606
-778.3328266431781,609
-775.6470563194197,623
-772.9620248353489,641
-770.2777320183878,650
-767.5941776958798,650
-764.9113616950891,672
-762.2292838432011,611
-759.5479439673222,613
-756.8673418944801,609
-754.1874774516235,604
-751.5083504656222,610
-748.8299607632671,618
-746.15230817127,639
-743.475392516264,650
-740.7992136248035,636
-738.1237713233636,660
-735.4490654383407,664
-732.7750957960521,652
-730.1018622227365,607
-727.4293645445534,625
-724.7576025875837,665
-722.0865761778291,660
-719.4162851412126,700
-716.7467293035781,678
-714.0779084906909,699
-711.409822528237,722
-708.7424712418238,689
-706.0758544569796,667
-703.4099719991541,644
-700.7448236937178,659
-698.0804093659622,650
-695.4167288411002,665
-692.7537819442656,680
-690.0915685005134,636
-687.4300883348199,681
-684.7693412720819,685
-682.1093271371178,660
-679.4500457546669,661
-676.7914969493897,674
-674.1336805458676,641
-671.4765963686034,678
-668.8202442420206,685
-666.1646239904642,693
-663.5097354382001,696
-660.8555784094151,681
-658.2021527282176,699
-655.5494582186366,730
-652.8974947046223,744
-650.2462620100463,701
-647.5957599587009,716
-644.9459883742998,717
-642.2969470804776,725
-639.6486359007902,752
-637.0010546587141,779
-634.3542031776476,760
-631.7080812809096,680
-629.0626887917401,683
-626.4180255333008,712
-623.7740913286734,726
-621.1308860008619,749
-618.4884093727904,778
-615.8466612673046,742
-613.2056415071715,751
-610.5653499150785,731
-607.9257863136347,760
-605.28695052537,759
-602.6488423727357,731
-600.0114616781036,753
-597.3748082637674,716
-594.7388819519412,786
-592.1036825647604,782
-589.4692099242818,774
-586.8354638524829,811
-584.2024441712624,782
-581.5701507024403,809
-578.9385832677575,745
-576.3077416888759,824
-573.6776257873787,778
-571.0482353847704,781
-568.4195703024757,807
-565.7916303618415,784
-563.164415384135,795
-560.5379251905453,760
-557.9121596021815,776
-555.2871184400748,745
-552.6628015251767,752
-550.0392086783606,817
-547.4163397204204,795
-544.794194472071,838
-542.1727727539491,839
-539.5520743866118,890
-536.9320991905377,908
-534.3128469861261,966
-531.6943175936979,911
-529.0765108334947,865
-526.4594265256793,1000
-523.8430644903358,1120
-521.2274245474689,1218
-518.612506517005,1310
-515.9983102187913,1328
-513.3848354725959,1388
-510.77208209810846,1418
-508.16004991493924,1493
-505.5487387426199,1550
-502.9381484006032,1577
-500.3282787082628,1524
-497.71912948489364,1542
-495.1107005497117,1419
-492.5029917218539,1239
-489.8960028203786,1104
-487.28973366426493,1031
-484.68418407241325,981
-482.07935386364494,936
-479.47524285670266,954
-476.87185087025,921
-474.2691777228715,963
-471.66722323307334,964
-469.0659872192821,970
-466.4654694998459,894
-463.86566989303384,964
-461.26658821703614,931
-458.66822428996414,930
-456.07057792985,957
-453.4736489546475,1011
-450.877437182231,957
-448.28194243039627,930
-445.68716451686,922
-443.09310325926003,893
-440.49975847515555,885
-437.9071299820263,901
-435.31521759727354,958
-432.72402113821954,944
-430.13354042210767,906
-427.5437752661022,953
-424.95472548728867,976
-422.36639090267386,959
-419.7787713291855,1034
-417.1918665836721,1011
-414.60567648290385,970
-412.0202008435715,1001
-409.4354394822874,1021
-406.8513922155845,986
-404.26805885991723,962
-401.685439231661,1050
-399.103533147112,1011
-396.522340422488,982
-393.9418608739278,941
-391.3620943174908,968
-388.7830405691583,941
-386.2046994448317,914
-383.6270707603344,888
-381.05015433141045,825
-378.473949973725,813
-375.8984575028645,786
-373.32367673433623,749
-370.74960748356875,712
-368.1762495659117,670
-365.60360279663576,616
-363.03166699093265,624
-360.4604419639154,600
-357.8899275306178,525
-355.32012350599507,552
-352.7510297049233,566
-350.1826459421999,519
-347.61497203254316,548
-345.04800779059235,526
-342.4817530309082,526
-339.91620756797226,590
-337.35137121618743,570
-334.7872437898774,695
-332.22382510328725,591
-329.66111497058273,574
-327.09911320585127,575
-324.53781962310075,582
-321.9772340362607,580
-319.4173562591816,615
-316.8581861056348,568
-314.2997233893127,563
-311.7419679238294,593
-309.1849195227194,656
-306.62857799943856,654
-304.0729431673641,592
-301.51801483979375,605
-298.963792829947,576
-296.41027695096386,542
-293.85746701590574,602
-291.3053628377552,681
-288.7539642294155,694
-286.2032710037115,687
-283.65328297338897,691
-281.1039999511146,656
-278.5554217494762,702
-276.007548180983,695
-273.4603790580651,632
-270.9139141930734,686
-268.3681533982807,717
-265.8230964858798,765
-263.27874326798565,824
-260.7350935566336,795
-258.1921471637804,786
-255.6499039013039,863
-253.10836358100266,831
-250.56752601459698,765
-248.02739101372765,806
-245.48795838995704,937
-242.94922795476816,921
-240.41119951956557,833
-237.8738728956746,785
-235.33724789434166,828
-232.80132432673452,818
-230.2661020039418,746
-227.73158073697357,839
-225.19776033676033,1016
-222.66464061415422,1129
-220.1322213799284,1040
-217.60050244477725,941
-215.06948361931552,1017
-212.53916471408013,1158
-210.00954553952818,944
-207.48062590603843,860
-204.9524056239104,963
-202.4248845033651,1061
-199.8980623545441,1114
-197.37193898751036,1318
-194.84651421224817,1370
-192.32178783866232,1309
-189.79775967657952,1156
-187.27442953574644,1071
-184.7517972258321,1146
-182.2298625564256,1002
-179.7086253370378,965
-177.18808537710026,1063
-174.66824248596583,1326
-172.14909647290835,1390
-169.6306471471229,1498
-167.11289431772548,1158
-164.59583779375328,1048
-162.07947738416453,1199
-159.5638128978386,1339
-157.04884414357605,1588
-154.53457093009854,1588
-152.02099306604828,1450
-149.50811035998936,1470
-146.99592262040665,1587
-144.48442965570587,1637
-141.97363127421409,1563
-139.46352728417958,1633
-136.95411749377126,1716
-134.44540171107985,1629
-131.93737974411636,1355
-129.43005140081357,1358
-126.92341648902493,1581
-124.41747481652521,1806
-121.91222619101006,2286
-119.40767042009657,2908
-116.90380731132257,3299
-114.40063667214702,3528
-111.8981583099503,3888
-109.3963720320337,4899
-106.89527764561933,5875
-104.39487495785067,6135
-101.89516377579241,7566
-99.39614390642998,11927
-96.89781515667039,18088
-94.40017733334128,20203
-91.90323024319173,17389
-89.40697369289148,13139
-86.91140748903172,7722
-84.41653143812482,4825
-81.92234534660395,6208
-79.42884902082358,9325
-76.93604226705907,13503
-74.4439248915071,15623
-71.95249670028534,18242
-69.46175749943245,18426
-66.97170709490854,15406
-64.48234529259423,12024
-61.99367189829195,11702
-59.50568671772464,12203
-57.01838955653636,10964
-54.53178022029283,11356
-52.045858514480074,14780
-49.560624244506016,17397
-47.07607721569923,15918
-44.59221723330904,17938
-42.10904410250669,20575
-39.62655762838392,20222
-37.14475761595372,23076
-34.66364387015028,23715
-32.18321619582866,29906
-29.70347439776515,36943
-27.224418280657005,37071
-24.74604764912317,44375
-22.26836230770266,62672
-19.7913620608565,65035
-17.315046712966478,65035
-14.83941606833514,65035
-12.36446993118659,65035
-9.89020810566592,65035
-7.416630395839093,65035
-4.94373660569363,65035
-2.471526539137585,65035
-6.821210263296962E-13,65035
2.47084320796705,65035
4.941003281093458,65035
7.410480415786196,65035
9.879274808531363,65035
12.347386655893956,65035
14.814816154518212,65035
17.28156350112681,65035
19.74762889252179,65035
22.21301252558385,65035
24.67771459727237,22750
27.141735304626195,5890
29.605074844762612,5220
32.06773341487792,5133
34.52971121224755,4978
36.99100843422559,4175
39.45162527824516,4090
41.91156194181792,5078
44.370818622535126,5314
46.82939551806646,4750
49.287292826160524,5160
51.74451074464503,4539
54.201049471426245,3584
56.65690920448981,3588
59.112090141899785,3315
61.56659248179983,3261
64.02041642241159,3226
66.4735621620365,3492
68.92602989905402,3302
71.37781983192338,3071
73.82893215918205,2488
76.27936707944684,2182
78.72912479141326,2248
81.17820549385567,2269
83.62660938562783,1965
86.07433666566146,1849
88.5213875329681,1920
90.96776218663751,2246
93.41346082583925,2303
95.85848364982041,2551
98.30283085790859,1897
100.7465026495089,1750
103.18949922410604,1648
105.63182078126385,1597
108.07346752062438,1627
110.51443964190923,1555
112.95473734491827,1665
115.39436082953114,1695
117.83331029570547,1592
120.27158594347827,1613
122.7091879729652,1582
125.1461165843615,1560
127.58237197794062,1757
130.01795435405518,1927
132.4528639131364,1945
134.88710085569494,1717
137.32066538231982,1609
139.75355769367923,1674
142.1857779905207,1523
144.61732647366978,1256
147.04820334403132,1214
149.47840880258934,1193
151.90794305040674,1517
154.33680628862487,1729
156.76499871846443,1796
159.19252054122433,1886
161.61937195828352,1835
164.04555317109896,1826
166.47106438120693,1908
168.89590579022217,1949
171.320077599839,1945
173.7435800118302,2248
176.16641322804742,2430
178.58857745042144,2461
181.01007288096173,2554
183.43089972175687,2362
185.85105817497413,2481
188.27054844285988,2384
190.6893707277394,2305
193.10752523201643,2474
195.5250121581745,2586
197.9418317087751,2752
200.3579840864594,2610
202.7734694939469,2623
205.18828813403627,2776
207.6024402096051,2721
210.01592592360964,2665
212.42874547908548,2598
214.84089907914665,2671
217.2523869269868,2515
219.66320922587727,2633
222.0733661791695,2596
224.48285799029293,2754
226.8916848627572,2660
229.29984700014882,2617
231.7073446061355,2661
234.11417788446204,2721
236.520347038953,2673
238.92585227351185,2818
241.33069379212054,2782
243.73487179884035,2791
246.1383864978112,2809
248.541238093252,2775
250.9434267894609,2867
253.34495279081432,2818
255.74581630176783,3007
258.1460175268563,2775
260.54555667069314,2849
262.9444339379703,2742
265.3426495334594,2794
267.7402036620107,2871
270.1370965285529,2870
272.53332833809407,2846
274.9288992957214,2729
277.32380960660055,2641
279.718059475976,2527
282.1116491091717,2634
284.5045787115897,2613
286.89684848871195,2583
289.2884586460981,2535
291.67940938938807,2619
294.0697009242996,2553
296.4593334566299,2583
298.84830719225477,2580
301.23662233712923,2492
303.6242790972866,2537
306.01127767884,2499
308.39761828798066,2456
310.78330113097934,2454
313.16832641418534,2409
315.5526943440269,2430
317.9364051270112,2496
320.3194589697242,2424
322.70185607883093,2310
325.0835966610754,2388
327.4646809232805,2272
329.8451090723478,2303
332.2248813152577,2399
334.6039978590701,2409
336.9824589109231,2365
339.36026467803447,2324
341.7374153677,2315
344.113911187295,2303
346.48975234427337,2330
348.8649390461686,2308
351.2394715005918,2309
353.61334991523415,2323
355.9865744978655,2312
358.35914545633375,2328
360.73106299856715,2278
363.10232733257146,2242
365.47293866643247,2295
367.84289720831396,2253
370.2122031664593,2244
372.5808567491905,2215
374.9488581649083,2216
377.31620762209275,2245
379.6829053293021,2223
382.0489514951745,2188
384.4143463284262,2148
386.7790900378528,2148
389.14318283232853,2143
391.50662492080653,2177
393.86941651231916,2139
396.23155781597745,2241
398.5930490409713,2283
400.9538903965696,2207
403.3140820921202,2177
405.6736243370498,2184
408.03251734086336,2114
410.3907613131465,2066
412.74835646356166,2167
415.10530300185144,2068
417.4616011378372,2051
419.81725108141893,2128
422.1722530425758,2070
424.5266072313656,2146
426.880313857925,2087
429.2333731324701,2087
431.58578526529516,1984
433.9375504667738,2055
436.2886689473588,2037
438.63914091758113,2046
440.9889665880513,2046
443.33814616945835,2010
445.68667987257015,2037
448.03456790823395,2055
450.3818104873759,2017
452.72840782100013,1912
455.07436012019105,2009
457.41966759611057,2016
459.7643304600007,1961
462.10834892318155,2006
464.4517231970525,1971
466.79445349309174,2102
469.1365400228566,2056
471.4779829979826,2097
473.81878263018564,2162
476.15893913125876,2070
478.4984527130747,2176
480.8373235875855,2192
483.17555196682144,2152
485.5131380628919,2227
487.8500820879857,2300
490.1863842543697,2376
492.52204477439034,2408
494.8570638604725,2602
497.1914417251204,2786
499.52517858091653,3144
501.85827464052306,3312
504.19073011668036,3420
506.5225452222086,3505
508.85372017000566,3485
511.18425517304956,3560
513.514150444396,4167
515.8434061971808,5185
518.1720226446176,5866
520.4999999999999,5695
522.8273384766991,5548
525.1540382881666,5134
527.480099647932,4572
529.8055227696037,3564
532.1303078668694,2793
534.454455153496,2334
536.777964843328,2054
539.1008371502907,2050
541.4230722883866,2061
543.744670471698,2005
546.0656319143858,2056
548.3859568306899,1910
550.7056454349294,1857
553.0246979415016,1920
555.3431145648834,1929
557.6608955196306,1912
559.978041020377,1894
562.2945512818363,1924
564.6104265188006,1922
566.9256669461412,1944
569.2402727788082,1868
571.5542442318302,1931
573.8675815203156,1972
576.1802848594508,1935
578.4923544645015,1974
580.8037905508126,2000
583.114593333807,1970
585.4247630289875,1957
587.7342998519354,1956
590.0432040183106,1943
592.3514757438526,1965
594.6591152443794,2037
596.9661227357875,1913
599.2724984340531,1807
601.578242555231,1909
603.8833553154542,1857
606.1878369309362,1879
608.4916876179676,1891
610.7949075929192,1868
613.0974970722403,1959
615.3994562724587,1920
617.7007854101818,1962
620.0014847020951,1942
622.3015543649641,1934
624.6009946156324,2040
626.8998056710224,2002
629.1979877481361,1930
631.4955410640538,1895
633.7924658359349,1888
636.0887622810175,1905
638.3844306166192,1967
640.6794710601358,1962
642.9738838290426,1923
645.2676691408932,1990
647.5608272133207,1944
649.853358264037,1978
652.1452625108324,1981
654.4365401715764,1989
656.7271914642178,1940
659.0172166067838,2058
661.3066158173809,1957
663.5953893141935,1965
665.8835373154867,1961
668.1710600396028,2046
670.4579577049639,2030
672.7442305300709,2036
675.0298787335033,1954
677.3149025339197,2058
679.599302150058,2006
681.8830778007342,2006
684.1662297048437,1946
686.4487580813608,2013
688.7306631493387,1981
691.0119451279091,2034
693.2926042362834,2032
695.5726406937516,1994
697.8520547196814,2027
700.1308465335215,1968
702.4090163547982,2043
704.6865644031171,2000
706.9634908981619,1971
709.2397960596965,1992
711.5154801075631,2000
713.7905432616823,2062
716.0649857420548,1959
718.3388077687592,1938
720.612009561953,1991
722.8845913418733,1905
725.1565533288352,2018
727.427895743234,2000
729.6986188055427,2088
731.9687227363137,1977
734.238207756178,1941
736.5070740858458,1900
738.7753219461066,2005
741.0429515578281,1943
743.3099631419569,2046
745.5763569195191,2023
747.8421331116193,1928
750.1072919394409,1969
752.3718336242467,1916
754.6357583873777,1934
756.8990664502545,2021
759.1617580343765,1892
761.423833361321,1932
763.6852926527457,2071
765.9461361303862,1950
768.206364016058,1999
770.4659765316536,2022
772.7249738991469,1919
774.9833563405886,1943
777.2411240781092,2007
779.4982773339183,1991
781.7548163303044,2042
784.010741289634,2081
786.2660524343538,2065
788.5207499869881,2021
790.7748341701416,2021
793.0283052064964,2017
795.2811633188143,1997
797.5334087299362,2017
799.7850416627813,2004
802.0360623403484,1997
804.2864709857143,2006
806.5362678220353,2017
808.7854530725468,2034
811.0340269605625,2040
813.2819897094754,1987
815.5293415427581,2041
817.77608268396,2017
820.0222133567116,2015
822.2677337847211,2038
824.5126441917765,1967
826.7569448017433,2015
829.0006358385675,2007
831.2437175262731,2018
833.4861900889629,2037
835.7280537508192,2003
837.9693087361026,1980
840.2099552691533,2029
842.4499935743896,1963
844.689423876309,2016
846.9282463994886,2007
849.1664613685833,2035
851.4040690083276,1973
853.6410695435349,2027
855.877463199097,2016
858.1132501999847,2001
860.3484307712487,2078
862.5830051380175,2017
864.8169735254988,2001
867.0503361589791,1995
869.2830932638243,2033
871.5152450654786,2014
873.7467917894654,2140
875.9777336613873,2037
878.2080709069252,2067
880.4378037518389,2068
882.666932421968,2010
884.8954571432301,2055
887.1233781416219,1961
889.3506956432192,1970
891.5774098741766,2054
893.803521060728,2062
896.0290294291852,2048
898.2539352059397,2025
900.4782386174619,2023
902.7019398903011,2028
904.925039251085,1981
907.147536926521,1989
909.3694331433943,1969
911.59072812857,2056
913.8114221089921,1960
916.0315153116827,1988
918.2510079637437,1896
920.4699002923547,2007
922.6881925247761,2040
924.905884888345,2075
927.1229776104793,1943
929.3394709186747,1935
931.555365040506,1923
933.7706602036275,1966
935.9853566357709,2001
938.1994545647489,1978
940.4129542184515,1991
942.6258558248488,1938
944.8381596119883,1969
947.0498658079974,1985
949.2609746410825,1961
951.4714863395287,1969
953.6814011316998,1962
955.8907192460387,2005
958.0994409110671,1924
960.3075663553858,1895
962.5150958076741,1994
964.7220294966913,1908
966.928367651274,1969
969.1341105003388,1939
971.3392582728806,1968
973.5438111979742,1907
975.747769504772,1930
977.9511334225061,1872
980.153903180487,1903
982.3560790081052,1968
984.5576611348289,1873
986.7586497902058,1880
988.9590452038618,1890
991.158847605503,1938
993.3580572249133,1861
995.5566742919558,1811
997.7546990365728,1830
999.952131688785,1832
1002.1489724786926,1722
1004.3452216364743,1733
1006.5408793923874,1742
1008.7359459767691,1647
1010.9304216200343,1676
1013.1243065526781,1699
1015.3176010052733,1717
1017.510305208472,1651
1019.7024193930064,1661
1021.8939437896848,1670
1024.0848786293977,1658
1026.2752241431122,1645
1028.4649805618747,1729
1030.6541481168115,1669
1032.842727039127,1619
1035.0307175601051,1684
1037.2181199111074,1618
1039.4049343235752,1641
1041.591161029029,1622
1043.7768002590683,1570
1045.9618522453698,1600
1048.1463172196918,1627
1050.3301954138697,1587
1052.513487059818,1552
1054.69619238953,1580
1056.8783116350783,1628
1059.0598450286152,1572
1061.2407928023704,1556
1063.4211551886528,1615
1065.6009324198508,1659
1067.780124728432,1574
1069.9587323469414,1681
1072.1367555080046,1565
1074.314194444325,1585
1076.4910493886855,1569
1078.667320573947,1600
1080.843008233051,1576
1083.0181125990161,1572
1085.1926339049414,1549
1087.3665723840027,1529
1089.5399282694575,1528
1091.7127017946405,1500
1093.8848931929647,1509
1096.0565026979243,1500
1098.2275305430899,1539
1100.3979769621128,1515
1102.567842188722,1471
1104.737126456726,1536
1106.9058300000124,1490
1109.0739530525475,1505
1111.2414958483764,1529
1113.4084586216231,1444
1115.5748416064907,1550
1117.7406450372605,1522
1119.9058691482942,1528
1122.0705141740304,1495
1124.2345803489884,1478
1126.3980679077658,1512
1128.5609770850388,1517
1130.7233081155623,1536
1132.8850612341707,1506
1135.0462366757774,1495
1137.2068346753745,1495
1139.3668554680326,1545
1141.526299288901,1474
1143.68516637321,1476
1145.8434569562655,1523
1148.001171273455,1543
1150.158309560244,1462
1152.3148720521767,1480
1154.470858984876,1522
1156.626270594044,1462
1158.7811071154629,1518
1160.9353687849912,1508
1163.089055838569,1431
1165.242168512213,1451
1167.3947070420209,1547
1169.5466716641677,1482
1171.6980626149075,1486
1173.8488801305748,1419
1175.9991244475814,1457
1178.1487958024186,1500
1180.2978944316555,1483
1182.4464205719428,1534
1184.5943744600072,1445
1186.7417563326567,1520
1188.8885664267755,1466
1191.0348049793297,1535
1193.1804722273619,1432
1195.325568407995,1516
1197.4700937584303,1461
1199.614048515948,1481
1201.7574329179074,1459
1203.900247201746,1509
1206.042491604982,1525
1208.1841663652099,1500
1210.3252717201053,1503
1212.465807907422,1519
1214.6057751649923,1498
1216.7451737307279,1528
1218.8840038426192,1470
1221.0222657387353,1519
1223.1599596572241,1481
1225.2970858363137,1472
1227.4336445143094,1519
1229.5696359295966,1510
1231.705060320639,1508
1233.8399179259786,1535
1235.9742089842384,1509
1238.107933734118,1470
1240.2410924143974,1505
1242.373685263935,1558
1244.5057125216676,1545
1246.6371744266116,1520
1248.7680712178621,1574
1250.898403134593,1544
1253.028170416058,1540
1255.1573733015875,1564
1257.2860120305932,1568
1259.4140868425648,1543
1261.54159797707,1599
1263.6685456737569,1551
1265.7949301723515,1546
1267.9207517126597,1558
1270.046010534565,1602
1272.1707068780306,1531
1274.2948409830983,1543
1276.4184130898889,1624
1278.541423438603,1590
1280.6638722695184,1706
1282.785759822993,1662
1284.9070863394636,1639
1287.0278520594447,1624
1289.1480572235314,1658
1291.2677020723963,1600
1293.3867868467923,1624
1295.5053117875495,1651
1297.623277135579,1714
1299.740683131868,1668
1301.8575300174857,1704
1303.973818033578,1696
1306.0895474213703,1739
1308.2047184221678,1711
1310.3193312773528,1705
1312.4333862283888,1743
1314.5468835168163,1712
1316.659823384255,1718
1318.7722060724045,1765
1320.8840318230418,1619
1322.9953008780249,1731
1325.1060134792888,1724
1327.2161698688478,1710
1329.3257702887959,1748
1331.4348149813054,1748
1333.5433041886276,1781
1335.6512381530933,1754
1337.7586171171101,1720
1339.8654413231675,1691
1341.9717110138317,1744
1344.0774264317488,1677
1346.1825878196432,1675
1348.2871954203192,1701
1350.3912494766587,1684
1352.4947502316231,1659
1354.5976979282532,1725
1356.7000928096686,1638
1358.8019351190665,1651
1360.9032250997243,1650
1363.0039629949988,1667
1365.1041490483235,1626
1367.2037835032133,1668
1369.3028666032606,1607
1371.401398592137,1679
1373.4993797135926,1613
1375.5968102114575,1685
1377.6936903296396,1659
1379.7900203121262,1682
1381.8858004029835,1630
1383.9810308463561,1610
1386.075711886469,1650
1388.1698437676241,1633
1390.2634267342032,1599
1392.356461030667,1614
1394.4489469015557,1647
1396.5408845914872,1644
1398.6322743451592,1629
1400.7231164073469,1640
1402.813411022907,1617
1404.903158436773,1698
1406.9923588939578,1673
1409.0810126395531,1646
1411.1691199187303,1646
1413.2566809767386,1580
1415.343696058907,1675
1417.4301654106425,1697
1419.5160892774315,1620
1421.6014679048399,1708
1423.6863015385125,1648
1425.7705904241707,1656
1427.8543348076178,1681
1429.9375349347342,1652
1432.0201910514802,1701
1434.102303403894,1689
1436.1838722380944,1694
1438.2648978002767,1750
1440.3453803367174,1687
1442.4253200937692,1684
1444.5047173178677,1797
1446.5835722555234,1738
1448.6618851533285,1796
1450.739656257952,1800
1452.8168858161434,1765
1454.8935740747306,1833
1456.96972128062,1745
1459.045327680797,1873
1461.120393522327,1769
1463.1949190523528,1808
1465.2689045180973,1852
1467.3423501668608,1893
1469.415256246024,1935
1471.4876230030463,1912
1473.559450685465,2005
1475.6307395408976,1944
1477.7014898170391,1932
1479.771701761665,1923
1481.8413756226287,1942
1483.9105116478618,1949
1485.9791100853772,1978
1488.0471711832643,1970
1490.1146951896926,2010
1492.1816823529098,2011
1494.2481329212433,2047
1496.3140471430984,2023
1498.3794252669609,2119
1500.4442675413939,2048
1502.5085742150404,2041
1504.572345536622,2078
1506.6355817549388,2078
1508.6982831188702,2109
1510.7604498773744,2111
1512.8220822794883,2158
1514.8831805743293,2099
1516.9437450110909,2066
1519.003775839048,2193
1521.0632733075522,2151
1523.1222376660367,2199
1525.1806691640113,2149
1527.2385680510652,2210
1529.2959345768668,2226
1531.3527689911643,2192
1533.4090715437833,2210
1535.4648424846291,2216
1537.5200820636855,2296
1539.5747905310159,2305
1541.6289681367616,2404
1543.6826151311434,2372
1545.7357317644614,2358
1547.7883182870937,2327
1549.8403749494987,2461
1551.8919020022113,2480
1553.9428996958477,2516
1555.9933682811015,2350
1558.0433080087469,2471
1560.0927191296346,2531
1562.1416018946961,2586
1564.1899565549415,2556
1566.2377833614592,2464
1568.2850825654164,2455
1570.3318544180606,2513
1572.3780991707158,2445
1574.423817074788,2414
1576.4690083817595,2412
1578.5136733431923,2243
1580.5578122107272,2290
1582.601425236085,2266
1584.6445126710646,2121
1586.6870747675434,2148
1588.7291117774776,2024
1590.7706239529034,2043
1592.8116115459347,1939
1594.8520748087658,1949
1596.8920139936686,1872
1598.9314293529933,1934
1600.9703211391711,1895
1603.008689604711,1809
1605.0465350022005,1839
1607.0838575843068,1735
1609.1206576037753,1728
1611.1569353134305,1800
1613.1926909661765,1714
1615.2279248149953,1730
1617.2626371129481,1731
1619.2968281131757,1706
1621.3304980688963,1685
1623.3636472334088,1670
1625.39627586009,1663
1627.428384202396,1648
1629.459972513861,1615
1631.4910410480993,1610
1633.5215900588028,1606
1635.551619799744,1605
1637.5811305247717,1594
1639.6101224878166,1550
1641.6385959428862,1546
1643.6665511440683,1571
1645.693988345528,1587
1647.7209078015112,1599
1649.7473097663405,1539
1651.7731944944203,1564
1653.7985622402307,1537
1655.823413258333,1560
1657.847747803366,1540
1659.8715661300494,1555
1661.8948684931793,1557
1663.9176551476316,1554
1665.9399263483624,1498
1667.9616823504057,1561
1669.982923408873,1473
1672.0036497789574,1553
1674.0238617159293,1522
1676.043559475138,1457
1678.0627433120121,1550
1680.081413482059,1557
1682.0995702408654,1513
1684.117213844096,1603
1686.134344547495,1527
1688.1509626068864,1502
1690.1670682781705,1444
1692.182661817329,1544
1694.1977434804217,1567
1696.2123135235875,1490
1698.226372203043,1487
1700.2399197750851,1514
1702.2529564960905,1523
1704.2654826225112,1496
1706.277498410882,1551
1708.2890041178139,1471
1710.2999999999988,1494
1712.3104863142066,1503
1714.3204633172854,1443
1716.329931266163,1555
1718.3388904178469,1465
1720.3473410294214,1477
1722.3552833580516,1496
1724.3627176609807,1493
1726.3696441955308,1468
1728.3760632191033,1523
1730.3819749891782,1446
1732.3873797633146,1475
1734.3922777991502,1525
1736.3966693544012,1517
1738.4005546868639,1497
1740.4039340544127,1463
1742.406807715001,1465
1744.4091759266616,1453
1746.4110389475054,1524
1748.4123970357223,1517
1750.413250449582,1516
1752.4135994474318,1511
1754.4134442876993,1527
1756.4127852288902,1554
1758.4116225295893,1487
1760.4099564484595,1516
1762.407787244244,1566
1764.405115175764,1515
1766.4019405019203,1464
1768.3982634816916,1504
1770.3940843741357,1476
1772.3894034383907,1400
1774.3842209336717,1454
1776.378537119274,1459
1778.372352254571,1450
1780.3656665990156,1415
1782.3584804121397,1436
1784.3507939535534,1417
1786.3426074829463,1531
1788.3339212600863,1452
1790.3247355448211,1477
1792.3150505970766,1439
1794.3048666768573,1470
1796.2941840442477,1445
1798.2830029594106,1438
1800.2713236825884,1508
1802.2591464741004,1500
1804.2464715943465,1453
1806.2332993038058,1501
1808.2196298630352,1468
1810.2054635326708,1470
1812.190800573428,1468
1814.175641246101,1455
1816.1599858115628,1447
1818.1438345307652,1440
1820.127187664738,1471
1822.1100454745924,1447
1824.092408221516,1462
1826.0742761667766,1422
1828.055649571721,1453
1830.0365286977735,1518
1832.0169138064398,1415
1833.9968051593014,1526
1835.9762030180214,1435
1837.9551076443408,1454
1839.9335193000788,1462
1841.9114382471344,1493
1843.888864747485,1518
1845.8657990631878,1397
1847.842241456378,1419
1849.8181921892697,1464
1851.7936515241558,1401
1853.7686197234098,1416
1855.7430970494815,1410
1857.7170837649014,1504
1859.6905801322787,1438
1861.6635864143004,1413
1863.6361028737338,1486
1865.608129773424,1475
1867.5796673762961,1477
1869.5507159453537,1495
1871.521275743678,1475
1873.4913470344313,1496
1875.4609300808534,1466
1877.4300251462632,1518
1879.3986324940588,1465
1881.366752387717,1484
1883.3343850907936,1443
1885.3015308669228,1453
1887.268189979819,1479
1889.2343626932739,1516
1891.2000492711595,1513
1893.1652499774254,1493
1895.1299650761011,1482
1897.0941948312952,1465
1899.0579395071945,1474
1901.0211993680641,1488
1902.98397467825,1455
1904.9462657021745,1485
1906.9080727043415,1510
1908.869395949332,1528
1910.8302357018065,1485
1912.790592226504,1501
1914.7504657882428,1441
1916.7098566519212,1487
1918.6687650825133,1430
1920.6271913450764,1437
1922.5851357047422,1462
1924.5425984267245,1428
1926.499579776314,1427
1928.4560800188833,1451
1930.4120994198802,1463
1932.367638244833,1449
1934.32269675935,1452
1936.2772752291175,1463
1938.231373919899,1448
1940.1849930975404,1444
1942.1381330279637,1477
1944.0907939771696,1421
1946.0429762112412,1411
1947.9946799963363,1451
1949.9459055986945,1443
1951.896653284633,1409
1953.8469233205478,1368
1955.7967159729142,1477
1957.7460315082863,1381
1959.6948701932974,1507
1961.6432322946594,1408
1963.5911180791632,1415
1965.5385278136787,1419
1967.4854617651545,1449
1969.4319202006182,1380
1971.377903387176,1448
1973.3234115920136,1456
1975.268445082395,1459
1977.2130041256642,1436
1979.1570889892423,1436
1981.1006999406304,1418
1983.04383724741,1377
1984.986501177238,1398
1986.928691997853,1416
1988.8704099770712,1398
1990.811655382789,1386
1992.7524284829801,1431
1994.692729545698,1400
1996.6325588390755,1408
1998.5719166313224,1422
2000.5108031907307,1432
2002.4492187856677,1375
2004.387163684583,1360
2006.3246381560011,1386
2008.2616424685298,1440
2010.1981768908527,1436
2012.1342416917332,1368
2014.069837140014,1426
2016.0049635046162,1383
2017.9396210545406,1432
2019.8738100588666,1427
2021.8075307867502,1462
2023.740783507431,1437
2025.6735684902228,1463
2027.6058860045214,1398
2029.5377363198004,1429
2031.4691197056118,1439
2033.4000364315875,1434
2035.3304867674374,1391
2037.260470982952,1390
2039.189989347998,1415
2041.1190421325232,1386
2043.047629606554,1421
2044.9757520401945,1379
2046.9034097036288,1347
2048.8306028671195,1375
2050.7573318010086,1400
2052.683596775716,1361
2054.609398061742,1419
2056.5347359296647,1437
2058.4596106501403,1414
2060.384022493906,1391
2062.3079717317764,1426
2064.231458634646,1430
2066.1544834734873,1375
2068.077046519352,1408
2069.99914804337,1380
2071.9207883167524,1408
2073.8419676107865,1404
2075.7626861968406,1424
2077.6829443463607,1391
2079.6027423308715,1442
2081.522080421977,1351
2083.440958891362,1437
2085.359378010786,1414
2087.2773380520907,1445
2089.194839287196,1401
2091.111881988101,1426
2093.0284664268825,1415
2094.9445928756973,1437
2096.86026160678,1413
2098.775472892446,1417
2100.690227005088,1431
2102.604524217178,1415
2104.5183648012676,1419
2106.431749029985,1469
2108.34467717604,1379
2110.2571495122206,1459
2112.169166311393,1412
2114.080727846503,1451
2115.9918343905747,1457
2117.902486216711,1403
2119.8126835980956,1450
2121.722426807987,1448
2123.6317161197285,1447
2125.5405518067364,1399
2127.448934142509,1472
2129.356863400624,1494
2131.264339854737,1468
2133.1713637785815,1429
2135.077935445972,1441
2136.9840551308002,1430
2138.889723107037,1430
2140.7949396487334,1465
2142.699705030018,1453
2144.6040195250994,1408
2146.507883408264,1397
2148.4112969538774,1493
2150.3142604363848,1433
2152.2167741303097,1427
2154.1188383102535,1456
2156.0204532508997,1476
2157.9216192270064,1465
2159.822336513414,1387
2161.7226053850413,1479
2163.622426116884,1434
2165.5217989840185,1487
2167.4207242616,1484
2169.319202224862,1431
2171.2172331491165,1398
2173.1148173097563,1468
2175.0119549822507,1458
2176.90864644215,1381
2178.8048919650823,1501
2180.7006918267534,1415
2182.596046302952,1494
2184.4909556695407,1491
2186.3854202024645,1414
2188.279440177746,1517
2190.173015871487,1486
2192.066147559868,1474
2193.958835519149,1484
2195.851080025667,1428
2197.7428813558417,1469
2199.6342397861667,1438
2201.5251555932186,1484
2203.415629053651,1535
2205.3056604441986,1493
2207.19525004167,1490
2209.084398122958,1500
2210.9731049650327,1538
2212.861370844941,1434
2214.749196039812,1490
2216.636580826851,1469
2218.523525483344,1511
2220.410030286655,1490
2222.296095514226,1558
2224.1817214435805,1532
2226.066908352319,1473
2227.951656518121,1472
2229.835966218746,1428
2231.71983773203,1552
2233.6032713358913,1525
2235.486267308324,1480
2237.3688259274036,1440
2239.2509474712824,1466
2241.132632218193,1526
2243.013880446447,1495
2244.8946924344323,1451
2246.7750684606203,1491
2248.6550088035574,1493
2250.534513741871,1475
2252.413583554265,1508
2254.292218519526,1496
2256.170418916517,1470
2258.0481850241786,1505
2259.925517121534,1415
2261.8024154876825,1466
2263.678880401803,1473
2265.5549121431536,1508
2267.430510991071,1506
2269.305677224971,1534
2271.180411124348,1518
2273.0547129687766,1431
2274.9285830379076,1400
2276.8020216114737,1394
2278.6750289692845,1507
2280.5476053912294,1540
2282.4197511572766,1496
2284.2914665474727,1527
2286.162751841943,1549
2288.0336073208937,1548
2289.904033264608,1487
2291.774029953448,1584
2293.6435976678554,1549
2295.5127366883517,1475
2297.381447295534,1388
2299.2497297700825,1377
2301.1175843927526,1413
2302.9850114443825,1401
2304.852011205885,1318
2306.7185839582553,1358
2308.5847299825664,1328
2310.4504495599676,1310
2312.3157429716925,1346
2314.1806104990483,1297
2316.0450524234247,1315
2317.9090690262888,1323
2319.772660589186,1376
2321.635827393742,1311
2323.498569721661,1370
2325.3608878547248,1307
2327.2227820747967,1324
2329.0842526638157,1343
2330.945299903803,1336
2332.805924076857,1338
2334.6661254651535,1319
2336.525904350951,1297
2338.3852610165827,1287
2340.244195744464,1281
2342.102708817088,1320
2343.9608005170253,1316
2345.8184711269287,1280
2347.675720929526,1380
2349.532550207628,1312
2351.38895924412,1272
2353.24494832197,1315
2355.100517724223,1308
2356.955667734004,1319
2358.810398634514,1342
2360.664710709037,1332
2362.5186042409337,1353
2364.3720795136437,1334
2366.225136810686,1304
2368.0777764156583,1355
2369.929998612237,1393
2371.7818036841777,1346
2373.633191915315,1342
2375.484163589562,1316
2377.3347189909114,1324
2379.184858403434,1319
2381.03458211128,1354
2382.8838903986775,1349
2384.732783549936,1383
2386.5812618494406,1366
2388.4293255816588,1375
2390.2769750311327,1373
2392.1242104824883,1394
2393.971032220427,1372
2395.8174405297295,1376
2397.6634356952563,1373
2399.509018001947,1374
2401.3541877348193,1378
2403.1989451789705,1426
2405.043290619576,1423
2406.8872243418905,1409
2408.730746631247,1404
2410.5738577730594,1468
2412.4165580528183,1419
2414.258847756095,1449
2416.100727168537,1479
2417.9421965758734,1507
2419.783256263912,1519
2421.623906518538,1521
2423.4641476257157,1489
2425.303979871491,1555
2427.143403541984,1617
2428.9824189233977,1560
2430.821026302012,1626
2432.6592259641866,1588
2434.497018196361,1592
2436.33440328505,1603
2438.171381516851,1534
2440.00795317844,1559
2441.844118556569,1525
2443.6798779380724,1568
2445.5152316098606,1484
2447.3501798589255,1573
2449.1847229723357,1412
2451.0188612372403,1444
2452.8525949408663,1513
2454.6859243705203,1504
2456.518849813587,1413
2458.3513715575314,1441
2460.183489889895,1442
2462.015205098301,1431
2463.8465174704493,1483
2465.67742729412,1458
2467.5079348571717,1413
2469.338040447542,1411
2471.1677443532476,1458
2472.9970468623833,1447
2474.825948263123,1438
2476.6544488437207,1460
2478.482548892508,1400
2480.310248697896,1372
2482.137548548374,1404
2483.9644487325118,1355
2485.790949538956,1410
2487.617051256433,1401
2489.44275417375,1382
2491.26805857979,1449
2493.0929647635157,1396
2494.917473013971,1372
2496.741583620276,1392
2498.5652968716304,1411
2500.3886130573137,1424
2502.2115324666834,1453
2504.0340553891765,1448
2505.856182114308,1424
2507.6779129316733,1410
2509.499248130945,1391
2511.3201880018764,1410
2513.140732834298,1407
2514.9608829181198,1436
2516.780638543331,1415
2518.6,1416
2520.418967578273,1426
2522.237541568376,1440
2524.0557222606144,1407
2525.8735099453706,1436
2527.6909049131086,1430
2529.507907454368,1471
2531.32451785977,1408
2533.140736420014,1447
2534.9565634258774,1422
2536.771999168218,1416
2538.5870439379714,1432
2540.4016980261526,1426
2542.2159617238544,1452
2544.02983532225,1458
2545.8433191125914,1447
2547.656413386209,1518
2549.4691184345115,1449
2551.2814345489874,1427
2553.093362021204,1424
2554.904901142808,1460
2556.716052205523,1481
2558.526815501153,1476
2560.3371913215824,1486
2562.147179958771,1477
2563.956781704761,1459
2565.7659968516705,1512
2567.5748256916986,1468
2569.3832685171224,1456
2571.1913256202984,1533
2572.9989972936614,1497
2574.806283829725,1503
2576.613185521084,1546
2578.4197026604074,1521
2580.2258355404483,1539
2582.031584454035,1516
2583.836949694077,1520
2585.6419315535613,1502
2587.4465303255533,1473
2589.2507463032002,1506
2591.0545797797245,1560
2592.8580310484303,1463
2594.6611004026995,1536
2596.463788135992,1516
2598.266094541849,1478
2600.0680199138874,1518
2601.869564545807,1467
2603.670728731383,1560
2605.4715127644704,1526
2607.2719169390048,1515
2609.071941548998,1510
2610.8715868885433,1532
2612.670853251811,1515
2614.469740933052,1455
2616.268250226594,1469
2618.0663814268455,1539
2619.864134828292,1478
2621.6615107255006,1475
2623.458509413115,1494
2625.2551311858597,1471
2627.0513763385347,1436
2628.8472451660223,1476
2630.6427379632833,1410
2632.4378550253564,1472
2634.232596647359,1397
2636.026963124488,1399
2637.8209547520187,1458
2639.6145718253065,1479
2641.407814639785,1519
2643.200683490966,1432
2644.9931786744414,1425
2646.7853004858807,1502
2648.577049221034,1468
2650.3684251757277,1461
2652.1594286458712,1428
2653.9500599274484,1405
2655.740319316525,1431
2657.5302071092437,1411
2659.3197236018286,1430
2661.10886909058,1425
2662.8976438718782,1463
2664.686048242183,1386
2666.4740824980327,1409
2668.2617469360443,1442
2670.0490418529134,1356
2671.8359675454153,1383
2673.622524310403,1417
2675.408712444811,1352
2677.1945322456495,1332
2678.979984010009,1365
2680.76506803506,1397
2682.5497846180497,1401
2684.334134056306,1351
2686.1181166472343,1393
2687.9017326883213,1349
2689.6849824771293,1347
2691.4678663113013,1337
2693.2503844885596,1379
2695.032537306705,1360
2696.8143250636167,1379
2698.5957480572542,1335
2700.3768065856534,1373
2702.1575009469316,1343
2703.937831439283,1363
2705.717798360982,1364
2707.4974020103837,1319
2709.276642685917,1360
2711.055520686095,1364
2712.834036309506,1372
2714.612189854819,1327
2716.389981620782,1341
2718.1674119062204,1304
2719.944481010041,1364
2721.721189231226,1335
2723.4975368688415,1310
2725.273524222027,1254
2727.0491515900053,1276
2728.824419272075,1298
2730.5993275676146,1334
2732.3738767760838,1324
2734.148067197016,1294
2735.921899130031,1309
2737.6953728748194,1363
2739.468488731156,1341
2741.2412469988926,1323
2743.0136479779617,1280
2744.785691968372,1322
2746.5573792702116,1337
2748.3287101836504,1372
2750.099685008934,1324
2751.870304046388,1360
2753.640567596418,1326
2755.4104759595057,1283
2757.1800294362156,1277
2758.949228327187,1362
2760.7180729331412,1283
2762.486563554877,1310
2764.254700493272,1319
2766.022484049284,1310
2767.789914523947,1337
2769.5569922183786,1315
2771.3237174337705,1347
2773.090090471394,1272
2774.8561116326036,1250
2776.6217812188274,1253
2778.3870995315756,1296
2780.1520668724356,1323
2781.9166835430747,1286
2783.6809498452394,1343
2785.444866080754,1318
2787.2084325515225,1305
2788.971649559527,1277
2790.73451740683,1242
2792.4970363955713,1250
2794.2592068279705,1276
2796.0210290063264,1335
2797.7825032330147,1262
2799.543629810493,1260
2801.304409041296,1300
2803.0648412280366,1305
2804.8249266734088,1306
2806.5846656801846,1348
2808.344058551212,1330
2810.1031055894246,1287
2811.8618070978273,1325
2813.6201633795085,1294
2815.378174737636,1305
2817.1358414754536,1288
2818.893163896285,1257
2820.6501423035334,1343
2822.4067770006814,1269
2824.1630682912883,1251
2825.9190164789957,1293
2827.6746218675207,1298
2829.429884760661,1304
2831.184805462294,1354
2832.9393842763743,1306
2834.693621506936,1301
2836.4475174580916,1288
2838.201072434034,1262
2839.954286739034,1297
2841.707160677441,1333
2843.459694553685,1329
2845.2118886722724,1247
2846.96374333779,1317
2848.7152588549034,1343
2850.4664355283567,1314
2852.217273662973,1366
2853.9677735636546,1324
2855.7179355353833,1281
2857.4677598832186,1375
2859.217246912299,1235
2860.9663969278427,1253
2862.715210235146,1269
2864.4636871395846,1284
2866.211827946614,1297
2867.9596329617652,1312
2869.7071024906536,1299
2871.4542368389684,1270
2873.20103631248,1285
2874.947501217038,1289
2876.6936318585695,1270
2878.4394285430812,1280
2880.1848915766604,1308
2881.9300212654707,1324
2883.6748179157553,1315
2885.4192818338374,1279
2887.1634133261173,1312
2888.907212699077,1304
2890.6506802592744,1325
2892.393816313348,1289
2894.1366211680142,1334
2895.8790951300693,1281
2897.621238506388,1252
2899.363051603925,1373
2901.1045347297118,1235
2902.8456881908596,1292
2904.58651229456,1284
2906.327007348081,1294
2908.067173658772,1315
2909.8070115340597,1228
2911.5465212814497,1287
2913.285703208527,1319
2915.0245576229563,1253
2916.7630848324807,1235
2918.5012851449196,1224
2920.2391588681758,1282
2921.976706310227,1289
2923.7139277791334,1274
2925.4508235830313,1233
2927.187394030137,1330
2928.923639428745,1282
2930.6595600872306,1315
2932.395156314046,1321
2934.1304284177218,1305
2935.8653767068713,1311
2937.6000014901815,1315
2939.3343030764227,1325
2941.068281774442,1299
2942.8019378931644,1284
2944.5352717415976,1310
2946.2682836288236,1353
2948.0009738640065,1329
2949.7333427563885,1310
2951.465390615289,1322
2953.1971177501086,1334
2954.9285244703265,1292
2956.6596110855,1311
2958.3903779052657,1311
2960.1208252393385,1277
2961.8509533975125,1282
2963.5807626896617,1276
2965.3102534257378,1214
2967.0394259157715,1264
2968.768280469873,1311
2970.496817398232,1267
2972.2250370111146,1271
2973.952939618869,1290
2975.6805255319196,1303
2977.4077950607707,1275
2979.134748516006,1269
2980.861386208289,1314
2982.587708448359,1282
2984.313715547037,1277
2986.039407815222,1251
2987.764785563891,1308
2989.489849104102,1258
2991.2145987469908,1292
2992.9390348037705,1303
2994.6631575857346,1231
2996.3869674042576,1287
2998.1104645707887,1228
2999.83364939686,1256
3001.5565221940783,1238
3003.2790832741334,1271
3005.0013329487924,1185
3006.7232715298996,1248
3008.4448993293804,1268
3010.166216659239,1271
3011.887223831558,1265
3013.607921158498,1253
3015.3283089522993,1248
3017.0483875252826,1232
3018.7681571898443,1229
3020.4876182584626,1256
3022.2067710436927,1244
3023.9256158581707,1307
3025.644153014609,1201
3027.362382825801,1254
3029.0803056046193,1227
3030.797921664012,1268
3032.5152313170106,1263
3034.2322348767225,1240
3035.9489326563353,1237
3037.665324969115,1227
3039.3814121284063,1268
3041.097194447633,1257
3042.812672240299,1227
3044.5278458199855,1207
3046.2427155003525,1256
3047.9572815951406,1234
3049.671544418167,1178
3051.38550428333,1271
3053.0991615046073,1308
3054.812516396051,1267
3056.5255692717974,1226
3058.2383204460575,1249
3059.9507702331257,1281
3061.662918947372,1226
3063.3747669032446,1254
3065.0863144152736,1289
3066.7975617980674,1238
3068.508509366309,1269
3070.219157434767,1259
3071.9295063182844,1225
3073.639556331785,1207
3075.3493077902704,1218
3077.058761008821,1245
3078.7679163025964,1271
3080.476773986837,1240
3082.1853343768594,1205
3083.89359778806,1252
3085.6015645359153,1234
3087.3092349359786,1242
3089.016609303884,1256
3090.7236879553434,1240
3092.4304712061476,1271
3094.136959372166,1204
3095.843152769349,1288
3097.5490517137237,1215
3099.2546565213966,1207
3100.959967508554,1235
3102.66498499146,1230
3104.3697092864577,1211
3106.0741407099695,1188
3107.778279578498,1214
3109.482126208622,1218
3111.1856809170004,1194
3112.8889440203716,1189
3114.5919158355528,1249
3116.294596679439,1240
3117.996986869006,1235
3119.6990867213062,1236
3121.4008965534726,1284
3123.102416682717,1249
3124.803647426329,1282
3126.5045891016784,1230
3128.205242026213,1263
3129.90560651746,1254
3131.605682893025,1232
3133.3054714705922,1210
3135.0049725679282,1269
3136.7041865028714,1256
3138.4031135933465,1198
3140.101754157353,1284
3141.800108512971,1234
3143.498176978357,1302
3145.1959598717494,1278
3146.8934575114636,1241
3148.5906702158954,1254
3150.2875983035183,1227
3151.9842420928853,1244
3153.680601902627,1216
3155.376678051456,1226
3157.07247085816,1183
3158.767980641609,1274
3160.463207720748,1272
3162.158152414606,1251
3163.8528150422862,1253
3165.5471959229726,1227
3167.2412953759303,1244
3168.9351137204976,1236
3170.628651276098,1255
3172.3219083622307,1242
3174.014885298474,1241
3175.707582404485,1250
3177.4000000000005,1239
3179.092138404835,1237
3180.7839979388846,1221
3182.47557892212,1186
3184.166881674594,1258
3185.8579065164386,1250
3187.5486537678626,1278
3189.2391237491547,1237
3190.9293167806827,1288
3192.6192331828934,1218
3194.3088732763117,1192
3195.998237381542,1231
3197.687325819268,1216
3199.376138910251,1205
3201.064676975334,1230
3202.7529403354347,1260
3204.4409293115523,1241
3206.1286442247647,1252
3207.816085396229,1199
3209.5032531471825,1178
3211.190147798936,1271
3212.8767696728846,1229
3214.5631190905015,1231
3216.2491963733373,1186
3217.9350018430214,1206
3219.6205358212637,1201
3221.305798629851,1213
3222.990790590651,1221
3224.6755120256103,1181
3226.359963256751,1201
3228.0441446061795,1289
3229.7280563960758,1218
3231.411698948703,1222
3233.0950725863995,1212
3234.778177631587,1207
3236.461014406761,1242
3238.1435832345005,1186
3239.8258844374595,1222
3241.507918338374,1240
3243.1896852600576,1231
3244.8711855254023,1171
3246.552419457381,1252
3248.233387379042,1241
3249.914089613516,1199
3251.59452648401,1222
3253.274698313813,1236
3254.95460542629,1198
3256.6342481448855,1224
3258.313626793125,1202
3259.9927416946084,1215
3261.6715931730196,1259
3263.3501815521176,1179
3265.0285071557437,1194
3266.706570307815,1202
3268.3843713323286,1204
3270.0619105533615,1174
3271.739188295068,1230
3273.4162048816834,1251
3275.0929606375184,1248
3276.769455886966,1218
3278.445690954498,1255
3280.1216661646613,1196
3281.797381842087,1253
3283.4728383114807,1261
3285.1480358976296,1236
3286.8229749253996,1258
3288.4976557197333,1237
3290.172078605655,1222
3291.846243908266,1210
3293.5201519527463,1288
3295.193803064357,1208
3296.8671975684374,1223
3298.5403357904024,1245
3300.21321805575,1229
3301.8858446900567,1241
3303.558216018975,1211
3305.23033236824,1217
3306.9021940636603,1208
3308.57380143113,1222
3310.2451547966184,1240
3311.916254486174,1248
3313.5871008259246,1202
3315.2576941420766,1191
3316.9280347609147,1222
3318.5981230088046,1218
3320.2679592121895,1200
3321.9375436975924,1217
3323.606876791612,1225
3325.27595882093,1179
3326.944790112305,1227
3328.6133709925753,1187
3330.2817017886573,1213
3331.949782827547,1227
3333.617614436319,1231
3335.2851969421245,1195
3336.952530672199,1254
3338.619615953853,1200
3340.286453114475,1198
3341.9530424815357,1254
3343.619384382583,1258
3345.2854791452437,1210
3346.951327097224,1194
3348.6169285663073,1226
3350.2822838803577,1215
3351.947393367319,1179
3353.61225735521,1224
3355.2768761721345,1220
3356.9412501462693,1262
3358.605379605873,1185
3360.2692648792827,1204
3361.9329062949146,1225
3363.596304181263,1171
