CollectionTime,9/20/2024 10:49:11 AM
ExposureUsed,3
CalibratedSpectrum
-962.7078968117929,541
-959.9714848408522,557
-957.2358232597828,534
-954.5009119013725,561
-951.7667505983302,562
-949.0333391832855,609
-946.3006774887896,607
-943.5687653473143,549
-940.837602591253,535
-938.1071890529199,580
-935.3775245645503,550
-932.6486089583007,563
-929.9204420662485,554
-927.1930237203925,564
-924.4663537526524,550
-921.7404319948689,582
-919.0152582788041,585
-916.2908324361409,609
-913.5671542984834,535
-910.8442236973568,545
-908.1220404642074,574
-905.4006044304027,579
-902.679915427231,591
-899.959973285902,550
-897.2407778375464,536
-894.5223289132158,542
-891.8046263438832,565
-889.0876699604426,578
-886.3714595937089,534
-883.6559950744183,532
-880.9412762332282,531
-878.2273029007168,544
-875.5140749073835,547
-872.8015920836489,516
-870.0898542598545,550
-867.3788612662631,541
-864.6686129330585,529
-861.9591090903457,558
-859.2503495681506,537
-856.5423341964203,543
-853.8350628050229,535
-851.1285352237478,520
-848.4227512823054,561
-845.7177108103272,542
-843.0134136373656,557
-840.3098595928943,559
-837.6070485063082,553
-834.9049802069229,576
-832.2036545239757,547
-829.5030712866244,526
-826.8032303239481,577
-824.1041314649472,550
-821.4057745385428,527
-818.7081593735775,577
-816.0112857988148,551
-813.3151536429393,543
-810.6197627345566,567
-807.9251129021936,567
-805.2312039742981,543
-802.5380357792392,568
-799.8456081453069,576
-797.1539209007124,608
-794.462973873588,559
-791.772766891987,567
-789.083299783884,542
-786.3945723771743,525
-783.7065844996748,541
-781.0193359791231,549
-778.3328266431781,555
-775.6470563194197,561
-772.9620248353489,575
-770.2777320183878,553
-767.5941776958798,591
-764.9113616950891,595
-762.2292838432011,570
-759.5479439673222,564
-756.8673418944801,566
-754.1874774516235,617
-751.5083504656222,552
-748.8299607632671,563
-746.15230817127,572
-743.475392516264,576
-740.7992136248035,544
-738.1237713233636,592
-735.4490654383407,596
-732.7750957960521,564
-730.1018622227365,563
-727.4293645445534,555
-724.7576025875837,586
-722.0865761778291,597
-719.4162851412126,597
-716.7467293035781,581
-714.0779084906909,609
-711.409822528237,633
-708.7424712418238,628
-706.0758544569796,607
-703.4099719991541,597
-700.7448236937178,589
-698.0804093659622,598
-695.4167288411002,600
-692.7537819442656,587
-690.0915685005134,596
-687.4300883348199,621
-684.7693412720819,603
-682.1093271371178,608
-679.4500457546669,598
-676.7914969493897,580
-674.1336805458676,606
-671.4765963686034,583
-668.8202442420206,602
-666.1646239904642,632
-663.5097354382001,597
-660.8555784094151,620
-658.2021527282176,650
-655.5494582186366,649
-652.8974947046223,624
-650.2462620100463,620
-647.5957599587009,651
-644.9459883742998,611
-642.2969470804776,620
-639.6486359007902,638
-637.0010546587141,675
-634.3542031776476,678
-631.7080812809096,631
-629.0626887917401,612
-626.4180255333008,628
-623.7740913286734,633
-621.1308860008619,644
-618.4884093727904,660
-615.8466612673046,658
-613.2056415071715,638
-610.5653499150785,641
-607.9257863136347,659
-605.28695052537,667
-602.6488423727357,649
-600.0114616781036,669
-597.3748082637674,692
-594.7388819519412,662
-592.1036825647604,693
-589.4692099242818,689
-586.8354638524829,686
-584.2024441712624,709
-581.5701507024403,675
-578.9385832677575,687
-576.3077416888759,699
-573.6776257873787,676
-571.0482353847704,666
-568.4195703024757,690
-565.7916303618415,684
-563.164415384135,650
-560.5379251905453,652
-557.9121596021815,718
-555.2871184400748,713
-552.6628015251767,690
-550.0392086783606,723
-547.4163397204204,725
-544.794194472071,743
-542.1727727539491,742
-539.5520743866118,750
-536.9320991905377,778
-534.3128469861261,819
-531.6943175936979,762
-529.0765108334947,804
-526.4594265256793,859
-523.8430644903358,1048
-521.2274245474689,1102
-518.612506517005,1114
-515.9983102187913,1197
-513.3848354725959,1250
-510.77208209810846,1286
-508.16004991493924,1376
-505.5487387426199,1439
-502.9381484006032,1418
-500.3282787082628,1362
-497.71912948489364,1320
-495.1107005497117,1197
-492.5029917218539,1123
-489.8960028203786,1021
-487.28973366426493,913
-484.68418407241325,858
-482.07935386364494,829
-479.47524285670266,874
-476.87185087025,848
-474.2691777228715,828
-471.66722323307334,829
-469.0659872192821,841
-466.4654694998459,874
-463.86566989303384,883
-461.26658821703614,886
-458.66822428996414,837
-456.07057792985,892
-453.4736489546475,883
-450.877437182231,852
-448.28194243039627,816
-445.68716451686,831
-443.09310325926003,805
-440.49975847515555,816
-437.9071299820263,815
-435.31521759727354,865
-432.72402113821954,880
-430.13354042210767,871
-427.5437752661022,846
-424.95472548728867,868
-422.36639090267386,908
-419.7787713291855,917
-417.1918665836721,917
-414.60567648290385,890
-412.0202008435715,874
-409.4354394822874,877
-406.8513922155845,917
-404.26805885991723,907
-401.685439231661,971
-399.103533147112,936
-396.522340422488,943
-393.9418608739278,904
-391.3620943174908,870
-388.7830405691583,856
-386.2046994448317,805
-383.6270707603344,794
-381.05015433141045,760
-378.473949973725,760
-375.8984575028645,753
-373.32367673433623,672
-370.74960748356875,647
-368.1762495659117,619
-365.60360279663576,565
-363.03166699093265,584
-360.4604419639154,562
-357.8899275306178,513
-355.32012350599507,550
-352.7510297049233,531
-350.1826459421999,496
-347.61497203254316,479
-345.04800779059235,477
-342.4817530309082,499
-339.91620756797226,561
-337.35137121618743,566
-334.7872437898774,538
-332.22382510328725,491
-329.66111497058273,514
-327.09911320585127,492
-324.53781962310075,476
-321.9772340362607,484
-319.4173562591816,505
-316.8581861056348,507
-314.2997233893127,485
-311.7419679238294,485
-309.1849195227194,520
-306.62857799943856,532
-304.0729431673641,504
-301.51801483979375,520
-298.963792829947,540
-296.41027695096386,537
-293.85746701590574,509
-291.3053628377552,569
-288.7539642294155,565
-286.2032710037115,580
-283.65328297338897,591
-281.1039999511146,589
-278.5554217494762,632
-276.007548180983,600
-273.4603790580651,599
-270.9139141930734,610
-268.3681533982807,602
-265.8230964858798,628
-263.27874326798565,647
-260.7350935566336,653
-258.1921471637804,662
-255.6499039013039,749
-253.10836358100266,734
-250.56752601459698,672
-248.02739101372765,722
-245.48795838995704,815
-242.94922795476816,752
-240.41119951956557,690
-237.8738728956746,688
-235.33724789434166,721
-232.80132432673452,738
-230.2661020039418,662
-227.73158073697357,720
-225.19776033676033,788
-222.66464061415422,812
-220.1322213799284,804
-217.60050244477725,769
-215.06948361931552,836
-212.53916471408013,943
-210.00954553952818,890
-207.48062590603843,784
-204.9524056239104,808
-202.4248845033651,814
-199.8980623545441,872
-197.37193898751036,949
-194.84651421224817,969
-192.32178783866232,928
-189.79775967657952,867
-187.27442953574644,896
-184.7517972258321,1005
-182.2298625564256,875
-179.7086253370378,808
-177.18808537710026,917
-174.66824248596583,997
-172.14909647290835,1164
-169.6306471471229,1145
-167.11289431772548,970
-164.59583779375328,879
-162.07947738416453,973
-159.5638128978386,1115
-157.04884414357605,1246
-154.53457093009854,1319
-152.02099306604828,1173
-149.50811035998936,1109
-146.99592262040665,1281
-144.48442965570587,1368
-141.97363127421409,1385
-139.46352728417958,1418
-136.95411749377126,1510
-134.44540171107985,1333
-131.93737974411636,1048
-129.43005140081357,1142
-126.92341648902493,1463
-124.41747481652521,1809
-121.91222619101006,2004
-119.40767042009657,2436
-116.90380731132257,2728
-114.40063667214702,2802
-111.8981583099503,3435
-109.3963720320337,4450
-106.89527764561933,5249
-104.39487495785067,5463
-101.89516377579241,7340
-99.39614390642998,12027
-96.89781515667039,18105
-94.40017733334128,19496
-91.90323024319173,16551
-89.40697369289148,12880
-86.91140748903172,7747
-84.41653143812482,4587
-81.92234534660395,5515
-79.42884902082358,8957
-76.93604226705907,13365
-74.4439248915071,16495
-71.95249670028534,18971
-69.46175749943245,17842
-66.97170709490854,14358
-64.48234529259423,10509
-61.99367189829195,9394
-59.50568671772464,8617
-57.01838955653636,7150
-54.53178022029283,7998
-52.045858514480074,9312
-49.560624244506016,12201
-47.07607721569923,13922
-44.59221723330904,12216
-42.10904410250669,12545
-39.62655762838392,15331
-37.14475761595372,18434
-34.66364387015028,21345
-32.18321619582866,26450
-29.70347439776515,31482
-27.224418280657005,34205
-24.74604764912317,40846
-22.26836230770266,56574
-19.7913620608565,65036
-17.315046712966478,65036
-14.83941606833514,65036
-12.36446993118659,65036
-9.89020810566592,65036
-7.416630395839093,65036
-4.94373660569363,65036
-2.471526539137585,65036
-6.821210263296962E-13,65036
2.47084320796705,65036
4.941003281093458,65036
7.410480415786196,65036
9.879274808531363,65036
12.347386655893956,65036
14.814816154518212,65036
17.28156350112681,65036
19.74762889252179,65036
22.21301252558385,22436
24.67771459727237,5276
27.141735304626195,4112
29.605074844762612,4557
32.06773341487792,4259
34.52971121224755,3675
36.99100843422559,3303
39.45162527824516,2917
41.91156194181792,3240
44.370818622535126,3344
46.82939551806646,3045
49.287292826160524,3571
51.74451074464503,3824
54.201049471426245,2817
56.65690920448981,2193
59.112090141899785,2232
61.56659248179983,2523
64.02041642241159,2541
66.4735621620365,2424
68.92602989905402,2756
71.37781983192338,2628
73.82893215918205,2207
76.27936707944684,1569
78.72912479141326,1443
81.17820549385567,1597
83.62660938562783,1557
86.07433666566146,1540
88.5213875329681,1525
90.96776218663751,1712
93.41346082583925,1689
95.85848364982041,1778
98.30283085790859,1504
100.7465026495089,1342
103.18949922410604,1242
105.63182078126385,1288
108.07346752062438,1359
110.51443964190923,1208
112.95473734491827,1135
115.39436082953114,1223
117.83331029570547,1281
120.27158594347827,1202
122.7091879729652,1235
125.1461165843615,1206
127.58237197794062,1199
130.01795435405518,1335
132.4528639131364,1359
134.88710085569494,1102
137.32066538231982,1232
139.75355769367923,1266
142.1857779905207,1083
144.61732647366978,1007
147.04820334403132,1039
149.47840880258934,1131
151.90794305040674,1197
154.33680628862487,1384
156.76499871846443,1392
159.19252054122433,1378
161.61937195828352,1477
164.04555317109896,1620
166.47106438120693,1717
168.89590579022217,1758
171.320077599839,1855
173.7435800118302,2009
176.16641322804742,2133
178.58857745042144,2167
181.01007288096173,2172
183.43089972175687,2174
185.85105817497413,2176
188.27054844285988,2125
190.6893707277394,2149
193.10752523201643,2224
195.5250121581745,2250
197.9418317087751,2250
200.3579840864594,2207
202.7734694939469,2266
205.18828813403627,2467
207.6024402096051,2500
210.01592592360964,2423
212.42874547908548,2466
214.84089907914665,2355
217.2523869269868,2388
219.66320922587727,2377
222.0733661791695,2391
224.48285799029293,2468
226.8916848627572,2413
229.29984700014882,2435
231.7073446061355,2437
234.11417788446204,2494
236.520347038953,2475
238.92585227351185,2581
241.33069379212054,2600
243.73487179884035,2643
246.1383864978112,2630
248.541238093252,2544
250.9434267894609,2630
253.34495279081432,2579
255.74581630176783,2670
258.1460175268563,2581
260.54555667069314,2615
262.9444339379703,2641
265.3426495334594,2612
267.7402036620107,2660
270.1370965285529,2628
272.53332833809407,2559
274.9288992957214,2448
277.32380960660055,2293
279.718059475976,2298
282.1116491091717,2325
284.5045787115897,2367
286.89684848871195,2303
289.2884586460981,2354
291.67940938938807,2469
294.0697009242996,2549
296.4593334566299,2432
298.84830719225477,2383
301.23662233712923,2408
303.6242790972866,2344
306.01127767884,2413
308.39761828798066,2241
310.78330113097934,2324
313.16832641418534,2228
315.5526943440269,2248
317.9364051270112,2242
320.3194589697242,2265
322.70185607883093,2207
325.0835966610754,2270
327.4646809232805,2206
329.8451090723478,2208
332.2248813152577,2186
334.6039978590701,2116
336.9824589109231,2167
339.36026467803447,2225
341.7374153677,2227
344.113911187295,2076
346.48975234427337,2108
348.8649390461686,2149
351.2394715005918,2095
353.61334991523415,2184
355.9865744978655,2118
358.35914545633375,2186
360.73106299856715,2178
363.10232733257146,2094
365.47293866643247,2150
367.84289720831396,2075
370.2122031664593,2061
372.5808567491905,2073
374.9488581649083,1984
377.31620762209275,1985
379.6829053293021,2068
382.0489514951745,2065
384.4143463284262,2008
386.7790900378528,2061
389.14318283232853,1994
391.50662492080653,2054
393.86941651231916,1988
396.23155781597745,1968
398.5930490409713,2004
400.9538903965696,1965
403.3140820921202,2026
405.6736243370498,2006
408.03251734086336,1997
410.3907613131465,1915
412.74835646356166,1995
415.10530300185144,1932
417.4616011378372,1927
419.81725108141893,1936
422.1722530425758,1963
424.5266072313656,1977
426.880313857925,2022
429.2333731324701,1951
431.58578526529516,1934
433.9375504667738,1953
436.2886689473588,1906
438.63914091758113,1935
440.9889665880513,1907
443.33814616945835,1954
445.68667987257015,1873
448.03456790823395,1788
450.3818104873759,1839
452.72840782100013,1836
455.07436012019105,1863
457.41966759611057,1780
459.7643304600007,1845
462.10834892318155,1896
464.4517231970525,1841
466.79445349309174,1917
469.1365400228566,1885
471.4779829979826,1917
473.81878263018564,1890
476.15893913125876,1962
478.4984527130747,1981
480.8373235875855,1947
483.17555196682144,1956
485.5131380628919,2037
487.8500820879857,2056
490.1863842543697,2129
492.52204477439034,2133
494.8570638604725,2263
497.1914417251204,2521
499.52517858091653,2789
501.85827464052306,3000
504.19073011668036,3142
506.5225452222086,3295
508.85372017000566,3353
511.18425517304956,3395
513.514150444396,3895
515.8434061971808,4883
518.1720226446176,5379
520.4999999999999,5381
522.8273384766991,5037
525.1540382881666,4725
527.480099647932,4312
529.8055227696037,3438
532.1303078668694,2553
534.454455153496,2182
536.777964843328,2046
539.1008371502907,1849
541.4230722883866,1878
543.744670471698,1816
546.0656319143858,1755
548.3859568306899,1772
550.7056454349294,1766
553.0246979415016,1783
555.3431145648834,1742
557.6608955196306,1773
559.978041020377,1743
562.2945512818363,1715
564.6104265188006,1840
566.9256669461412,1812
569.2402727788082,1742
571.5542442318302,1825
573.8675815203156,1815
576.1802848594508,1857
578.4923544645015,1797
580.8037905508126,1840
583.114593333807,1857
585.4247630289875,1834
587.7342998519354,1774
590.0432040183106,1740
592.3514757438526,1752
594.6591152443794,1791
596.9661227357875,1781
599.2724984340531,1731
601.578242555231,1784
603.8833553154542,1796
606.1878369309362,1740
608.4916876179676,1722
610.7949075929192,1752
613.0974970722403,1761
615.3994562724587,1799
617.7007854101818,1802
620.0014847020951,1784
622.3015543649641,1750
624.6009946156324,1815
626.8998056710224,1765
629.1979877481361,1764
631.4955410640538,1807
633.7924658359349,1776
636.0887622810175,1806
638.3844306166192,1779
640.6794710601358,1834
642.9738838290426,1870
645.2676691408932,1840
647.5608272133207,1787
649.853358264037,1813
652.1452625108324,1871
654.4365401715764,1805
656.7271914642178,1769
659.0172166067838,1841
661.3066158173809,1784
663.5953893141935,1856
665.8835373154867,1840
668.1710600396028,1809
670.4579577049639,1910
672.7442305300709,1861
675.0298787335033,1917
677.3149025339197,1856
679.599302150058,1878
681.8830778007342,1825
684.1662297048437,1856
686.4487580813608,1945
688.7306631493387,1797
691.0119451279091,1862
693.2926042362834,1808
695.5726406937516,1826
697.8520547196814,1843
700.1308465335215,1753
702.4090163547982,1873
704.6865644031171,1854
706.9634908981619,1823
709.2397960596965,1840
711.5154801075631,1844
713.7905432616823,1867
716.0649857420548,1878
718.3388077687592,1939
720.612009561953,1876
722.8845913418733,1832
725.1565533288352,1868
727.427895743234,1841
729.6986188055427,1824
731.9687227363137,1806
734.238207756178,1825
736.5070740858458,1762
738.7753219461066,1728
741.0429515578281,1788
743.3099631419569,1775
745.5763569195191,1827
747.8421331116193,1806
750.1072919394409,1864
752.3718336242467,1848
754.6357583873777,1774
756.8990664502545,1835
759.1617580343765,1809
761.423833361321,1841
763.6852926527457,1843
765.9461361303862,1804
768.206364016058,1798
770.4659765316536,1889
772.7249738991469,1865
774.9833563405886,1872
777.2411240781092,1791
779.4982773339183,1791
781.7548163303044,1788
784.010741289634,1880
786.2660524343538,1857
788.5207499869881,1895
790.7748341701416,1822
793.0283052064964,1919
795.2811633188143,1892
797.5334087299362,1854
799.7850416627813,1846
802.0360623403484,1878
804.2864709857143,1920
806.5362678220353,1882
808.7854530725468,1940
811.0340269605625,1785
813.2819897094754,1882
815.5293415427581,1897
817.77608268396,1858
820.0222133567116,1878
822.2677337847211,1830
824.5126441917765,1875
826.7569448017433,1942
829.0006358385675,1790
831.2437175262731,1887
833.4861900889629,1843
835.7280537508192,1846
837.9693087361026,1868
840.2099552691533,1911
842.4499935743896,1812
844.689423876309,1845
846.9282463994886,1852
849.1664613685833,1793
851.4040690083276,1883
853.6410695435349,1886
855.877463199097,1822
858.1132501999847,1833
860.3484307712487,1907
862.5830051380175,1912
864.8169735254988,1865
867.0503361589791,1809
869.2830932638243,1856
871.5152450654786,1932
873.7467917894654,1912
875.9777336613873,1834
878.2080709069252,1864
880.4378037518389,1896
882.666932421968,1914
884.8954571432301,1956
887.1233781416219,1819
889.3506956432192,1932
891.5774098741766,1913
893.803521060728,1899
896.0290294291852,1901
898.2539352059397,1935
900.4782386174619,1882
902.7019398903011,1845
904.925039251085,1930
907.147536926521,1867
909.3694331433943,1900
911.59072812857,1824
913.8114221089921,1889
916.0315153116827,1842
918.2510079637437,1842
920.4699002923547,1835
922.6881925247761,1876
924.905884888345,1855
927.1229776104793,1779
929.3394709186747,1827
931.555365040506,1883
933.7706602036275,1884
935.9853566357709,1872
938.1994545647489,1880
940.4129542184515,1905
942.6258558248488,1918
944.8381596119883,1874
947.0498658079974,1853
949.2609746410825,1880
951.4714863395287,1940
953.6814011316998,1847
955.8907192460387,1854
958.0994409110671,1891
960.3075663553858,1841
962.5150958076741,1837
964.7220294966913,1841
966.928367651274,1832
969.1341105003388,1861
971.3392582728806,1785
973.5438111979742,1808
975.747769504772,1722
977.9511334225061,1747
980.153903180487,1738
982.3560790081052,1861
984.5576611348289,1800
986.7586497902058,1772
988.9590452038618,1768
991.158847605503,1752
993.3580572249133,1736
995.5566742919558,1660
997.7546990365728,1652
999.952131688785,1627
1002.1489724786926,1603
1004.3452216364743,1625
1006.5408793923874,1642
1008.7359459767691,1577
1010.9304216200343,1556
1013.1243065526781,1537
1015.3176010052733,1559
1017.510305208472,1569
1019.7024193930064,1533
1021.8939437896848,1538
1024.0848786293977,1509
1026.2752241431122,1478
1028.4649805618747,1581
1030.6541481168115,1602
1032.842727039127,1618
1035.0307175601051,1589
1037.2181199111074,1563
1039.4049343235752,1544
1041.591161029029,1496
1043.7768002590683,1503
1045.9618522453698,1449
1048.1463172196918,1506
1050.3301954138697,1503
1052.513487059818,1521
1054.69619238953,1483
1056.8783116350783,1479
1059.0598450286152,1495
1061.2407928023704,1493
1063.4211551886528,1523
1065.6009324198508,1511
1067.780124728432,1491
1069.9587323469414,1511
1072.1367555080046,1475
1074.314194444325,1504
1076.4910493886855,1491
1078.667320573947,1419
1080.843008233051,1440
1083.0181125990161,1474
1085.1926339049414,1444
1087.3665723840027,1460
1089.5399282694575,1437
1091.7127017946405,1433
1093.8848931929647,1424
1096.0565026979243,1471
1098.2275305430899,1423
1100.3979769621128,1480
1102.567842188722,1406
1104.737126456726,1378
1106.9058300000124,1431
1109.0739530525475,1404
1111.2414958483764,1433
1113.4084586216231,1435
1115.5748416064907,1409
1117.7406450372605,1407
1119.9058691482942,1364
1122.0705141740304,1427
1124.2345803489884,1434
1126.3980679077658,1424
1128.5609770850388,1416
1130.7233081155623,1346
1132.8850612341707,1396
1135.0462366757774,1350
1137.2068346753745,1456
1139.3668554680326,1391
1141.526299288901,1402
1143.68516637321,1362
1145.8434569562655,1388
1148.001171273455,1394
1150.158309560244,1380
1152.3148720521767,1349
1154.470858984876,1400
1156.626270594044,1404
1158.7811071154629,1392
1160.9353687849912,1366
1163.089055838569,1372
1165.242168512213,1377
1167.3947070420209,1398
1169.5466716641677,1407
1171.6980626149075,1404
1173.8488801305748,1407
1175.9991244475814,1394
1178.1487958024186,1350
1180.2978944316555,1325
1182.4464205719428,1396
1184.5943744600072,1428
1186.7417563326567,1363
1188.8885664267755,1403
1191.0348049793297,1439
1193.1804722273619,1392
1195.325568407995,1390
1197.4700937584303,1387
1199.614048515948,1418
1201.7574329179074,1404
1203.900247201746,1361
1206.042491604982,1340
1208.1841663652099,1390
1210.3252717201053,1416
1212.465807907422,1416
1214.6057751649923,1410
1216.7451737307279,1426
1218.8840038426192,1404
1221.0222657387353,1456
1223.1599596572241,1431
1225.2970858363137,1393
1227.4336445143094,1362
1229.5696359295966,1455
1231.705060320639,1389
1233.8399179259786,1370
1235.9742089842384,1412
1238.107933734118,1453
1240.2410924143974,1463
1242.373685263935,1445
1244.5057125216676,1417
1246.6371744266116,1401
1248.7680712178621,1426
1250.898403134593,1438
1253.028170416058,1433
1255.1573733015875,1425
1257.2860120305932,1419
1259.4140868425648,1460
1261.54159797707,1498
1263.6685456737569,1517
1265.7949301723515,1438
1267.9207517126597,1488
1270.046010534565,1490
1272.1707068780306,1423
1274.2948409830983,1508
1276.4184130898889,1444
1278.541423438603,1494
1280.6638722695184,1538
1282.785759822993,1474
1284.9070863394636,1490
1287.0278520594447,1505
1289.1480572235314,1485
1291.2677020723963,1537
1293.3867868467923,1559
1295.5053117875495,1571
1297.623277135579,1502
1299.740683131868,1542
1301.8575300174857,1617
1303.973818033578,1646
1306.0895474213703,1639
1308.2047184221678,1644
1310.3193312773528,1658
1312.4333862283888,1587
1314.5468835168163,1664
1316.659823384255,1642
1318.7722060724045,1645
1320.8840318230418,1637
1322.9953008780249,1669
1325.1060134792888,1689
1327.2161698688478,1674
1329.3257702887959,1609
1331.4348149813054,1655
1333.5433041886276,1658
1335.6512381530933,1606
1337.7586171171101,1654
1339.8654413231675,1603
1341.9717110138317,1639
1344.0774264317488,1661
1346.1825878196432,1641
1348.2871954203192,1596
1350.3912494766587,1627
1352.4947502316231,1641
1354.5976979282532,1587
1356.7000928096686,1588
1358.8019351190665,1568
1360.9032250997243,1556
1363.0039629949988,1536
1365.1041490483235,1557
1367.2037835032133,1573
1369.3028666032606,1588
1371.401398592137,1565
1373.4993797135926,1581
1375.5968102114575,1568
1377.6936903296396,1565
1379.7900203121262,1496
1381.8858004029835,1554
1383.9810308463561,1509
1386.075711886469,1520
1388.1698437676241,1551
1390.2634267342032,1564
1392.356461030667,1555
1394.4489469015557,1498
1396.5408845914872,1527
1398.6322743451592,1544
1400.7231164073469,1585
1402.813411022907,1525
1404.903158436773,1572
1406.9923588939578,1531
1409.0810126395531,1538
1411.1691199187303,1496
1413.2566809767386,1575
1415.343696058907,1612
1417.4301654106425,1596
1419.5160892774315,1514
1421.6014679048399,1592
1423.6863015385125,1556
1425.7705904241707,1621
1427.8543348076178,1598
1429.9375349347342,1646
1432.0201910514802,1611
1434.102303403894,1592
1436.1838722380944,1624
1438.2648978002767,1634
1440.3453803367174,1681
1442.4253200937692,1636
1444.5047173178677,1664
1446.5835722555234,1697
1448.6618851533285,1733
1450.739656257952,1725
1452.8168858161434,1696
1454.8935740747306,1685
1456.96972128062,1800
1459.045327680797,1817
1461.120393522327,1801
1463.1949190523528,1794
1465.2689045180973,1773
1467.3423501668608,1816
1469.415256246024,1880
1471.4876230030463,1852
1473.559450685465,1865
1475.6307395408976,1865
1477.7014898170391,1844
1479.771701761665,1890
1481.8413756226287,1958
1483.9105116478618,1950
1485.9791100853772,1909
1488.0471711832643,2001
1490.1146951896926,1939
1492.1816823529098,1945
1494.2481329212433,2014
1496.3140471430984,1994
1498.3794252669609,2019
1500.4442675413939,2024
1502.5085742150404,2022
1504.572345536622,2083
1506.6355817549388,2008
1508.6982831188702,2072
1510.7604498773744,2063
1512.8220822794883,2058
1514.8831805743293,2130
1516.9437450110909,2156
1519.003775839048,2139
1521.0632733075522,2108
1523.1222376660367,2161
1525.1806691640113,2120
1527.2385680510652,2206
1529.2959345768668,2189
1531.3527689911643,2199
1533.4090715437833,2307
1535.4648424846291,2224
1537.5200820636855,2248
1539.5747905310159,2324
1541.6289681367616,2331
1543.6826151311434,2344
1545.7357317644614,2440
1547.7883182870937,2347
1549.8403749494987,2425
1551.8919020022113,2462
1553.9428996958477,2557
1555.9933682811015,2512
1558.0433080087469,2490
1560.0927191296346,2538
1562.1416018946961,2525
1564.1899565549415,2653
1566.2377833614592,2606
1568.2850825654164,2550
1570.3318544180606,2502
1572.3780991707158,2464
1574.423817074788,2574
1576.4690083817595,2355
1578.5136733431923,2277
1580.5578122107272,2233
1582.601425236085,2213
1584.6445126710646,2072
1586.6870747675434,2106
1588.7291117774776,1983
1590.7706239529034,1997
1592.8116115459347,1969
1594.8520748087658,1967
1596.8920139936686,1960
1598.9314293529933,1847
1600.9703211391711,1903
1603.008689604711,1859
1605.0465350022005,1769
1607.0838575843068,1809
1609.1206576037753,1765
1611.1569353134305,1705
1613.1926909661765,1728
1615.2279248149953,1636
1617.2626371129481,1652
1619.2968281131757,1570
1621.3304980688963,1573
1623.3636472334088,1592
1625.39627586009,1564
1627.428384202396,1505
1629.459972513861,1611
1631.4910410480993,1510
1633.5215900588028,1473
1635.551619799744,1542
1637.5811305247717,1532
1639.6101224878166,1498
1641.6385959428862,1520
1643.6665511440683,1525
1645.693988345528,1553
1647.7209078015112,1508
1649.7473097663405,1492
1651.7731944944203,1441
1653.7985622402307,1497
1655.823413258333,1450
1657.847747803366,1469
1659.8715661300494,1452
1661.8948684931793,1430
1663.9176551476316,1443
1665.9399263483624,1465
1667.9616823504057,1475
1669.982923408873,1410
1672.0036497789574,1461
1674.0238617159293,1459
1676.043559475138,1447
1678.0627433120121,1428
1680.081413482059,1381
1682.0995702408654,1436
1684.117213844096,1463
1686.134344547495,1431
1688.1509626068864,1438
1690.1670682781705,1445
1692.182661817329,1407
1694.1977434804217,1380
1696.2123135235875,1433
1698.226372203043,1418
1700.2399197750851,1441
1702.2529564960905,1456
1704.2654826225112,1377
1706.277498410882,1397
1708.2890041178139,1450
1710.2999999999988,1366
1712.3104863142066,1365
1714.3204633172854,1436
1716.329931266163,1424
1718.3388904178469,1412
1720.3473410294214,1443
1722.3552833580516,1434
1724.3627176609807,1439
1726.3696441955308,1401
1728.3760632191033,1439
1730.3819749891782,1370
1732.3873797633146,1402
1734.3922777991502,1418
1736.3966693544012,1460
1738.4005546868639,1421
1740.4039340544127,1357
1742.406807715001,1367
1744.4091759266616,1329
1746.4110389475054,1395
1748.4123970357223,1393
1750.413250449582,1379
1752.4135994474318,1373
1754.4134442876993,1423
1756.4127852288902,1424
1758.4116225295893,1372
1760.4099564484595,1383
1762.407787244244,1371
1764.405115175764,1381
1766.4019405019203,1422
1768.3982634816916,1326
1770.3940843741357,1345
1772.3894034383907,1367
1774.3842209336717,1352
1776.378537119274,1349
1778.372352254571,1415
1780.3656665990156,1381
1782.3584804121397,1389
1784.3507939535534,1398
1786.3426074829463,1376
1788.3339212600863,1402
1790.3247355448211,1395
1792.3150505970766,1379
1794.3048666768573,1365
1796.2941840442477,1329
1798.2830029594106,1378
1800.2713236825884,1355
1802.2591464741004,1289
1804.2464715943465,1373
1806.2332993038058,1340
1808.2196298630352,1370
1810.2054635326708,1400
1812.190800573428,1410
1814.175641246101,1396
1816.1599858115628,1376
1818.1438345307652,1348
1820.127187664738,1386
1822.1100454745924,1387
1824.092408221516,1361
1826.0742761667766,1316
1828.055649571721,1377
1830.0365286977735,1416
1832.0169138064398,1381
1833.9968051593014,1368
1835.9762030180214,1397
1837.9551076443408,1344
1839.9335193000788,1341
1841.9114382471344,1386
1843.888864747485,1356
1845.8657990631878,1310
1847.842241456378,1360
1849.8181921892697,1353
1851.7936515241558,1391
1853.7686197234098,1287
1855.7430970494815,1413
1857.7170837649014,1341
1859.6905801322787,1358
1861.6635864143004,1335
1863.6361028737338,1406
1865.608129773424,1399
1867.5796673762961,1364
1869.5507159453537,1376
1871.521275743678,1331
1873.4913470344313,1369
1875.4609300808534,1361
1877.4300251462632,1391
1879.3986324940588,1368
1881.366752387717,1384
1883.3343850907936,1358
1885.3015308669228,1334
1887.268189979819,1374
1889.2343626932739,1385
1891.2000492711595,1368
1893.1652499774254,1375
1895.1299650761011,1382
1897.0941948312952,1381
1899.0579395071945,1345
1901.0211993680641,1364
1902.98397467825,1347
1904.9462657021745,1412
1906.9080727043415,1347
1908.869395949332,1404
1910.8302357018065,1385
1912.790592226504,1398
1914.7504657882428,1344
1916.7098566519212,1355
1918.6687650825133,1363
1920.6271913450764,1357
1922.5851357047422,1402
1924.5425984267245,1336
1926.499579776314,1340
1928.4560800188833,1379
1930.4120994198802,1368
1932.367638244833,1306
1934.32269675935,1341
1936.2772752291175,1396
1938.231373919899,1337
1940.1849930975404,1378
1942.1381330279637,1386
1944.0907939771696,1324
1946.0429762112412,1302
1947.9946799963363,1392
1949.9459055986945,1312
1951.896653284633,1337
1953.8469233205478,1355
1955.7967159729142,1317
1957.7460315082863,1382
1959.6948701932974,1302
1961.6432322946594,1312
1963.5911180791632,1303
1965.5385278136787,1300
1967.4854617651545,1320
1969.4319202006182,1389
1971.377903387176,1325
1973.3234115920136,1322
1975.268445082395,1312
1977.2130041256642,1379
1979.1570889892423,1350
1981.1006999406304,1328
1983.04383724741,1355
1984.986501177238,1331
1986.928691997853,1305
1988.8704099770712,1341
1990.811655382789,1302
1992.7524284829801,1321
1994.692729545698,1274
1996.6325588390755,1276
1998.5719166313224,1351
2000.5108031907307,1350
2002.4492187856677,1281
2004.387163684583,1300
2006.3246381560011,1272
2008.2616424685298,1300
2010.1981768908527,1311
2012.1342416917332,1331
2014.069837140014,1283
2016.0049635046162,1322
2017.9396210545406,1271
2019.8738100588666,1328
2021.8075307867502,1317
2023.740783507431,1309
2025.6735684902228,1327
2027.6058860045214,1352
2029.5377363198004,1326
2031.4691197056118,1301
2033.4000364315875,1252
2035.3304867674374,1315
2037.260470982952,1289
2039.189989347998,1294
2041.1190421325232,1245
2043.047629606554,1271
2044.9757520401945,1318
2046.9034097036288,1310
2048.8306028671195,1264
2050.7573318010086,1283
2052.683596775716,1307
2054.609398061742,1241
2056.5347359296647,1245
2058.4596106501403,1309
2060.384022493906,1298
2062.3079717317764,1317
2064.231458634646,1342
2066.1544834734873,1273
2068.077046519352,1287
2069.99914804337,1297
2071.9207883167524,1303
2073.8419676107865,1326
2075.7626861968406,1308
2077.6829443463607,1288
2079.6027423308715,1313
2081.522080421977,1289
2083.440958891362,1292
2085.359378010786,1278
2087.2773380520907,1341
2089.194839287196,1292
2091.111881988101,1314
2093.0284664268825,1320
2094.9445928756973,1343
2096.86026160678,1316
2098.775472892446,1277
2100.690227005088,1328
2102.604524217178,1334
2104.5183648012676,1340
2106.431749029985,1288
2108.34467717604,1320
2110.2571495122206,1362
2112.169166311393,1294
2114.080727846503,1287
2115.9918343905747,1329
2117.902486216711,1318
2119.8126835980956,1332
2121.722426807987,1338
2123.6317161197285,1313
2125.5405518067364,1304
2127.448934142509,1306
2129.356863400624,1391
2131.264339854737,1325
2133.1713637785815,1354
2135.077935445972,1307
2136.9840551308002,1320
2138.889723107037,1288
2140.7949396487334,1269
2142.699705030018,1312
2144.6040195250994,1315
2146.507883408264,1324
2148.4112969538774,1305
2150.3142604363848,1298
2152.2167741303097,1324
2154.1188383102535,1347
2156.0204532508997,1366
2157.9216192270064,1350
2159.822336513414,1366
2161.7226053850413,1360
2163.622426116884,1353
2165.5217989840185,1420
2167.4207242616,1313
2169.319202224862,1362
2171.2172331491165,1359
2173.1148173097563,1387
2175.0119549822507,1310
2176.90864644215,1316
2178.8048919650823,1374
2180.7006918267534,1354
2182.596046302952,1357
2184.4909556695407,1384
2186.3854202024645,1382
2188.279440177746,1386
2190.173015871487,1366
2192.066147559868,1329
2193.958835519149,1307
2195.851080025667,1397
2197.7428813558417,1328
2199.6342397861667,1336
2201.5251555932186,1348
2203.415629053651,1391
2205.3056604441986,1384
2207.19525004167,1390
2209.084398122958,1391
2210.9731049650327,1364
2212.861370844941,1342
2214.749196039812,1375
2216.636580826851,1416
2218.523525483344,1360
2220.410030286655,1365
2222.296095514226,1338
2224.1817214435805,1388
2226.066908352319,1335
2227.951656518121,1386
2229.835966218746,1403
2231.71983773203,1389
2233.6032713358913,1395
2235.486267308324,1400
2237.3688259274036,1407
2239.2509474712824,1360
2241.132632218193,1371
2243.013880446447,1368
2244.8946924344323,1376
2246.7750684606203,1340
2248.6550088035574,1359
2250.534513741871,1390
2252.413583554265,1363
2254.292218519526,1403
2256.170418916517,1374
2258.0481850241786,1369
2259.925517121534,1349
2261.8024154876825,1386
2263.678880401803,1357
2265.5549121431536,1414
2267.430510991071,1387
2269.305677224971,1380
2271.180411124348,1319
2273.0547129687766,1327
2274.9285830379076,1371
2276.8020216114737,1348
2278.6750289692845,1341
2280.5476053912294,1335
2282.4197511572766,1338
2284.2914665474727,1435
2286.162751841943,1430
2288.0336073208937,1435
2289.904033264608,1492
2291.774029953448,1440
2293.6435976678554,1361
2295.5127366883517,1366
2297.381447295534,1381
2299.2497297700825,1350
2301.1175843927526,1291
2302.9850114443825,1303
2304.852011205885,1268
2306.7185839582553,1262
2308.5847299825664,1220
2310.4504495599676,1261
2312.3157429716925,1288
2314.1806104990483,1243
2316.0450524234247,1237
2317.9090690262888,1266
2319.772660589186,1212
2321.635827393742,1237
2323.498569721661,1261
2325.3608878547248,1259
2327.2227820747967,1287
2329.0842526638157,1223
2330.945299903803,1227
2332.805924076857,1251
2334.6661254651535,1219
2336.525904350951,1251
2338.3852610165827,1225
2340.244195744464,1227
2342.102708817088,1241
2343.9608005170253,1220
2345.8184711269287,1208
2347.675720929526,1238
2349.532550207628,1219
2351.38895924412,1238
2353.24494832197,1231
2355.100517724223,1187
2356.955667734004,1239
2358.810398634514,1193
2360.664710709037,1204
2362.5186042409337,1206
2364.3720795136437,1248
2366.225136810686,1262
2368.0777764156583,1288
2369.929998612237,1231
2371.7818036841777,1242
2373.633191915315,1188
2375.484163589562,1213
2377.3347189909114,1227
2379.184858403434,1251
2381.03458211128,1293
2382.8838903986775,1285
2384.732783549936,1264
2386.5812618494406,1293
2388.4293255816588,1272
2390.2769750311327,1258
2392.1242104824883,1305
2393.971032220427,1272
2395.8174405297295,1315
2397.6634356952563,1329
2399.509018001947,1340
2401.3541877348193,1239
2403.1989451789705,1312
2405.043290619576,1330
2406.8872243418905,1341
2408.730746631247,1355
2410.5738577730594,1365
2412.4165580528183,1356
2414.258847756095,1392
2416.100727168537,1429
2417.9421965758734,1393
2419.783256263912,1429
2421.623906518538,1423
2423.4641476257157,1459
2425.303979871491,1477
2427.143403541984,1448
2428.9824189233977,1471
2430.821026302012,1485
2432.6592259641866,1476
2434.497018196361,1451
2436.33440328505,1517
2438.171381516851,1493
2440.00795317844,1509
2441.844118556569,1532
2443.6798779380724,1476
2445.5152316098606,1493
2447.3501798589255,1354
2449.1847229723357,1467
2451.0188612372403,1416
2452.8525949408663,1421
2454.6859243705203,1410
2456.518849813587,1400
2458.3513715575314,1379
2460.183489889895,1354
2462.015205098301,1340
2463.8465174704493,1321
2465.67742729412,1345
2467.5079348571717,1376
2469.338040447542,1321
2471.1677443532476,1343
2472.9970468623833,1304
2474.825948263123,1315
2476.6544488437207,1350
2478.482548892508,1342
2480.310248697896,1315
2482.137548548374,1297
2483.9644487325118,1341
2485.790949538956,1377
2487.617051256433,1300
2489.44275417375,1317
2491.26805857979,1279
2493.0929647635157,1335
2494.917473013971,1329
2496.741583620276,1341
2498.5652968716304,1354
2500.3886130573137,1338
2502.2115324666834,1319
2504.0340553891765,1307
2505.856182114308,1334
2507.6779129316733,1304
2509.499248130945,1356
2511.3201880018764,1341
2513.140732834298,1331
2514.9608829181198,1323
2516.780638543331,1349
2518.6,1307
2520.418967578273,1318
2522.237541568376,1296
2524.0557222606144,1307
2525.8735099453706,1396
2527.6909049131086,1326
2529.507907454368,1329
2531.32451785977,1340
2533.140736420014,1362
2534.9565634258774,1343
2536.771999168218,1354
2538.5870439379714,1353
2540.4016980261526,1388
2542.2159617238544,1374
2544.02983532225,1384
2545.8433191125914,1398
2547.656413386209,1441
2549.4691184345115,1429
2551.2814345489874,1407
2553.093362021204,1396
2554.904901142808,1382
2556.716052205523,1479
2558.526815501153,1447
2560.3371913215824,1408
2562.147179958771,1364
2563.956781704761,1422
2565.7659968516705,1416
2567.5748256916986,1379
2569.3832685171224,1389
2571.1913256202984,1415
2572.9989972936614,1423
2574.806283829725,1487
2576.613185521084,1412
2578.4197026604074,1418
2580.2258355404483,1401
2582.031584454035,1457
2583.836949694077,1497
2585.6419315535613,1502
2587.4465303255533,1453
2589.2507463032002,1484
2591.0545797797245,1455
2592.8580310484303,1474
2594.6611004026995,1504
2596.463788135992,1469
2598.266094541849,1445
2600.0680199138874,1475
2601.869564545807,1502
2603.670728731383,1430
2605.4715127644704,1446
2607.2719169390048,1398
2609.071941548998,1458
2610.8715868885433,1450
2612.670853251811,1471
2614.469740933052,1421
2616.268250226594,1485
2618.0663814268455,1512
2619.864134828292,1448
2621.6615107255006,1445
2623.458509413115,1464
2625.2551311858597,1476
2627.0513763385347,1404
2628.8472451660223,1377
2630.6427379632833,1446
2632.4378550253564,1453
2634.232596647359,1366
2636.026963124488,1425
2637.8209547520187,1443
2639.6145718253065,1429
2641.407814639785,1403
2643.200683490966,1363
2644.9931786744414,1368
2646.7853004858807,1353
2648.577049221034,1409
2650.3684251757277,1388
2652.1594286458712,1395
2653.9500599274484,1374
2655.740319316525,1400
2657.5302071092437,1369
2659.3197236018286,1328
2661.10886909058,1350
2662.8976438718782,1346
2664.686048242183,1387
2666.4740824980327,1320
2668.2617469360443,1327
2670.0490418529134,1304
2671.8359675454153,1352
2673.622524310403,1377
2675.408712444811,1327
2677.1945322456495,1318
2678.979984010009,1278
2680.76506803506,1344
2682.5497846180497,1299
2684.334134056306,1320
2686.1181166472343,1329
2687.9017326883213,1295
2689.6849824771293,1287
2691.4678663113013,1307
2693.2503844885596,1302
2695.032537306705,1221
2696.8143250636167,1247
2698.5957480572542,1277
2700.3768065856534,1266
2702.1575009469316,1279
2703.937831439283,1293
2705.717798360982,1272
2707.4974020103837,1302
2709.276642685917,1295
2711.055520686095,1236
2712.834036309506,1235
2714.612189854819,1268
2716.389981620782,1286
2718.1674119062204,1239
2719.944481010041,1273
2721.721189231226,1261
2723.4975368688415,1213
2725.273524222027,1248
2727.0491515900053,1260
2728.824419272075,1247
2730.5993275676146,1239
2732.3738767760838,1264
2734.148067197016,1276
2735.921899130031,1224
2737.6953728748194,1293
2739.468488731156,1262
2741.2412469988926,1275
2743.0136479779617,1240
2744.785691968372,1246
2746.5573792702116,1189
2748.3287101836504,1207
2750.099685008934,1225
2751.870304046388,1274
2753.640567596418,1263
2755.4104759595057,1172
2757.1800294362156,1141
2758.949228327187,1236
2760.7180729331412,1224
2762.486563554877,1221
2764.254700493272,1252
2766.022484049284,1260
2767.789914523947,1212
2769.5569922183786,1200
2771.3237174337705,1242
2773.090090471394,1296
2774.8561116326036,1231
2776.6217812188274,1243
2778.3870995315756,1190
2780.1520668724356,1158
2781.9166835430747,1189
2783.6809498452394,1192
2785.444866080754,1256
2787.2084325515225,1222
2788.971649559527,1236
2790.73451740683,1243
2792.4970363955713,1209
2794.2592068279705,1245
2796.0210290063264,1207
2797.7825032330147,1211
2799.543629810493,1213
2801.304409041296,1206
2803.0648412280366,1224
2804.8249266734088,1230
2806.5846656801846,1216
2808.344058551212,1166
2810.1031055894246,1226
2811.8618070978273,1163
2813.6201633795085,1208
2815.378174737636,1269
2817.1358414754536,1202
2818.893163896285,1270
2820.6501423035334,1210
2822.4067770006814,1184
2824.1630682912883,1194
2825.9190164789957,1229
2827.6746218675207,1205
2829.429884760661,1212
2831.184805462294,1241
2832.9393842763743,1211
2834.693621506936,1245
2836.4475174580916,1184
2838.201072434034,1210
2839.954286739034,1228
2841.707160677441,1227
2843.459694553685,1224
2845.2118886722724,1233
2846.96374333779,1209
2848.7152588549034,1222
2850.4664355283567,1228
2852.217273662973,1203
2853.9677735636546,1275
2855.7179355353833,1315
2857.4677598832186,1234
2859.217246912299,1188
2860.9663969278427,1202
2862.715210235146,1212
2864.4636871395846,1246
2866.211827946614,1218
2867.9596329617652,1207
2869.7071024906536,1179
2871.4542368389684,1258
2873.20103631248,1192
2874.947501217038,1201
2876.6936318585695,1206
2878.4394285430812,1212
2880.1848915766604,1214
2881.9300212654707,1231
2883.6748179157553,1234
2885.4192818338374,1194
2887.1634133261173,1197
2888.907212699077,1235
2890.6506802592744,1190
2892.393816313348,1205
2894.1366211680142,1236
2895.8790951300693,1187
2897.621238506388,1169
2899.363051603925,1226
2901.1045347297118,1180
2902.8456881908596,1217
2904.58651229456,1226
2906.327007348081,1241
2908.067173658772,1185
2909.8070115340597,1252
2911.5465212814497,1234
2913.285703208527,1163
2915.0245576229563,1194
2916.7630848324807,1251
2918.5012851449196,1237
2920.2391588681758,1194
2921.976706310227,1192
2923.7139277791334,1189
2925.4508235830313,1194
2927.187394030137,1232
2928.923639428745,1243
2930.6595600872306,1186
2932.395156314046,1198
2934.1304284177218,1265
2935.8653767068713,1250
2937.6000014901815,1222
2939.3343030764227,1240
2941.068281774442,1279
2942.8019378931644,1179
2944.5352717415976,1195
2946.2682836288236,1211
2948.0009738640065,1191
2949.7333427563885,1213
2951.465390615289,1291
2953.1971177501086,1224
2954.9285244703265,1215
2956.6596110855,1216
2958.3903779052657,1224
2960.1208252393385,1210
2961.8509533975125,1154
2963.5807626896617,1223
2965.3102534257378,1172
2967.0394259157715,1180
2968.768280469873,1168
2970.496817398232,1208
2972.2250370111146,1199
2973.952939618869,1189
2975.6805255319196,1200
2977.4077950607707,1240
2979.134748516006,1220
2980.861386208289,1202
2982.587708448359,1185
2984.313715547037,1198
2986.039407815222,1144
2987.764785563891,1213
2989.489849104102,1182
2991.2145987469908,1171
2992.9390348037705,1177
2994.6631575857346,1128
2996.3869674042576,1181
2998.1104645707887,1159
2999.83364939686,1199
3001.5565221940783,1215
3003.2790832741334,1131
3005.0013329487924,1199
3006.7232715298996,1181
3008.4448993293804,1110
3010.166216659239,1187
3011.887223831558,1151
3013.607921158498,1200
3015.3283089522993,1184
3017.0483875252826,1188
3018.7681571898443,1207
3020.4876182584626,1174
3022.2067710436927,1174
3023.9256158581707,1153
3025.644153014609,1151
3027.362382825801,1204
3029.0803056046193,1206
3030.797921664012,1192
3032.5152313170106,1165
3034.2322348767225,1149
3035.9489326563353,1140
3037.665324969115,1146
3039.3814121284063,1227
3041.097194447633,1183
3042.812672240299,1215
3044.5278458199855,1143
3046.2427155003525,1108
3047.9572815951406,1160
3049.671544418167,1215
3051.38550428333,1136
3053.0991615046073,1125
3054.812516396051,1167
3056.5255692717974,1156
3058.2383204460575,1182
3059.9507702331257,1187
3061.662918947372,1167
3063.3747669032446,1142
3065.0863144152736,1149
3066.7975617980674,1184
3068.508509366309,1180
3070.219157434767,1175
3071.9295063182844,1176
3073.639556331785,1142
3075.3493077902704,1172
3077.058761008821,1140
3078.7679163025964,1167
3080.476773986837,1232
3082.1853343768594,1192
3083.89359778806,1161
3085.6015645359153,1143
3087.3092349359786,1153
3089.016609303884,1156
3090.7236879553434,1210
3092.4304712061476,1115
3094.136959372166,1167
3095.843152769349,1163
3097.5490517137237,1163
3099.2546565213966,1138
3100.959967508554,1194
3102.66498499146,1134
3104.3697092864577,1142
3106.0741407099695,1133
3107.778279578498,1159
3109.482126208622,1176
3111.1856809170004,1241
3112.8889440203716,1165
3114.5919158355528,1177
3116.294596679439,1167
3117.996986869006,1202
3119.6990867213062,1188
3121.4008965534726,1193
3123.102416682717,1172
3124.803647426329,1161
3126.5045891016784,1191
3128.205242026213,1161
3129.90560651746,1145
3131.605682893025,1159
3133.3054714705922,1147
3135.0049725679282,1187
3136.7041865028714,1165
3138.4031135933465,1164
3140.101754157353,1172
3141.800108512971,1181
3143.498176978357,1176
3145.1959598717494,1174
3146.8934575114636,1125
3148.5906702158954,1147
3150.2875983035183,1144
3151.9842420928853,1178
3153.680601902627,1183
3155.376678051456,1218
3157.07247085816,1142
3158.767980641609,1152
3160.463207720748,1177
3162.158152414606,1136
3163.8528150422862,1154
3165.5471959229726,1144
3167.2412953759303,1186
3168.9351137204976,1177
3170.628651276098,1123
3172.3219083622307,1186
3174.014885298474,1142
3175.707582404485,1176
3177.4000000000005,1108
3179.092138404835,1179
3180.7839979388846,1166
3182.47557892212,1147
3184.166881674594,1198
3185.8579065164386,1184
3187.5486537678626,1114
3189.2391237491547,1148
3190.9293167806827,1200
3192.6192331828934,1124
3194.3088732763117,1133
3195.998237381542,1165
3197.687325819268,1206
3199.376138910251,1131
3201.064676975334,1156
3202.7529403354347,1126
3204.4409293115523,1149
3206.1286442247647,1167
3207.816085396229,1120
3209.5032531471825,1126
3211.190147798936,1164
3212.8767696728846,1140
3214.5631190905015,1147
3216.2491963733373,1143
3217.9350018430214,1157
3219.6205358212637,1126
3221.305798629851,1139
3222.990790590651,1127
3224.6755120256103,1159
3226.359963256751,1110
3228.0441446061795,1115
3229.7280563960758,1112
3231.411698948703,1113
3233.0950725863995,1204
3234.778177631587,1184
3236.461014406761,1124
3238.1435832345005,1177
3239.8258844374595,1157
3241.507918338374,1152
3243.1896852600576,1133
3244.8711855254023,1147
3246.552419457381,1127
3248.233387379042,1129
3249.914089613516,1154
3251.59452648401,1105
3253.274698313813,1209
3254.95460542629,1140
3256.6342481448855,1082
3258.313626793125,1148
3259.9927416946084,1175
3261.6715931730196,1121
3263.3501815521176,1099
3265.0285071557437,1145
3266.706570307815,1143
3268.3843713323286,1122
3270.0619105533615,1171
3271.739188295068,1097
3273.4162048816834,1164
3275.0929606375184,1106
3276.769455886966,1163
3278.445690954498,1124
3280.1216661646613,1171
3281.797381842087,1121
3283.4728383114807,1144
3285.1480358976296,1170
3286.8229749253996,1122
3288.4976557197333,1134
3290.172078605655,1102
3291.846243908266,1102
3293.5201519527463,1140
3295.193803064357,1130
3296.8671975684374,1140
3298.5403357904024,1071
3300.21321805575,1136
3301.8858446900567,1118
3303.558216018975,1133
3305.23033236824,1151
3306.9021940636603,1147
3308.57380143113,1113
3310.2451547966184,1152
3311.916254486174,1160
3313.5871008259246,1151
3315.2576941420766,1202
3316.9280347609147,1097
3318.5981230088046,1191
3320.2679592121895,1076
3321.9375436975924,1133
3323.606876791612,1176
3325.27595882093,1130
3326.944790112305,1100
3328.6133709925753,1143
3330.2817017886573,1160
3331.949782827547,1125
3333.617614436319,1142
3335.2851969421245,1120
3336.952530672199,1164
3338.619615953853,1135
3340.286453114475,1183
3341.9530424815357,1140
3343.619384382583,1160
3345.2854791452437,1155
3346.951327097224,1094
3348.6169285663073,1125
3350.2822838803577,1133
3351.947393367319,1217
3353.61225735521,1115
3355.2768761721345,1125
3356.9412501462693,1155
3358.605379605873,1137
3360.2692648792827,1136
3361.9329062949146,1166
3363.596304181263,1126
