CollectionTime,9/20/2024 10:42:18 AM
ExposureUsed,3
CalibratedSpectrum
-962.7078968117929,551
-959.9714848408522,589
-957.2358232597828,582
-954.5009119013725,623
-951.7667505983302,608
-949.0333391832855,619
-946.3006774887896,596
-943.5687653473143,635
-940.837602591253,604
-938.1071890529199,606
-935.3775245645503,601
-932.6486089583007,607
-929.9204420662485,592
-927.1930237203925,636
-924.4663537526524,662
-921.7404319948689,640
-919.0152582788041,660
-916.2908324361409,637
-913.5671542984834,606
-910.8442236973568,595
-908.1220404642074,602
-905.4006044304027,588
-902.679915427231,598
-899.959973285902,599
-897.2407778375464,611
-894.5223289132158,593
-891.8046263438832,581
-889.0876699604426,593
-886.3714595937089,602
-883.6559950744183,586
-880.9412762332282,585
-878.2273029007168,562
-875.5140749073835,573
-872.8015920836489,541
-870.0898542598545,541
-867.3788612662631,588
-864.6686129330585,582
-861.9591090903457,610
-859.2503495681506,565
-856.5423341964203,585
-853.8350628050229,612
-851.1285352237478,596
-848.4227512823054,591
-845.7177108103272,598
-843.0134136373656,565
-840.3098595928943,563
-837.6070485063082,575
-834.9049802069229,610
-832.2036545239757,611
-829.5030712866244,652
-826.8032303239481,596
-824.1041314649472,609
-821.4057745385428,568
-818.7081593735775,557
-816.0112857988148,603
-813.3151536429393,598
-810.6197627345566,577
-807.9251129021936,586
-805.2312039742981,594
-802.5380357792392,618
-799.8456081453069,653
-797.1539209007124,602
-794.462973873588,623
-791.772766891987,606
-789.083299783884,609
-786.3945723771743,614
-783.7065844996748,614
-781.0193359791231,633
-778.3328266431781,590
-775.6470563194197,601
-772.9620248353489,639
-770.2777320183878,645
-767.5941776958798,680
-764.9113616950891,671
-762.2292838432011,609
-759.5479439673222,614
-756.8673418944801,600
-754.1874774516235,615
-751.5083504656222,619
-748.8299607632671,644
-746.15230817127,609
-743.475392516264,625
-740.7992136248035,619
-738.1237713233636,609
-735.4490654383407,617
-732.7750957960521,609
-730.1018622227365,617
-727.4293645445534,649
-724.7576025875837,592
-722.0865761778291,624
-719.4162851412126,629
-716.7467293035781,635
-714.0779084906909,697
-711.409822528237,660
-708.7424712418238,644
-706.0758544569796,670
-703.4099719991541,690
-700.7448236937178,708
-698.0804093659622,661
-695.4167288411002,647
-692.7537819442656,635
-690.0915685005134,658
-687.4300883348199,661
-684.7693412720819,719
-682.1093271371178,645
-679.4500457546669,640
-676.7914969493897,621
-674.1336805458676,682
-671.4765963686034,644
-668.8202442420206,667
-666.1646239904642,642
-663.5097354382001,660
-660.8555784094151,687
-658.2021527282176,707
-655.5494582186366,692
-652.8974947046223,705
-650.2462620100463,662
-647.5957599587009,705
-644.9459883742998,744
-642.2969470804776,712
-639.6486359007902,699
-637.0010546587141,707
-634.3542031776476,735
-631.7080812809096,703
-629.0626887917401,712
-626.4180255333008,720
-623.7740913286734,762
-621.1308860008619,781
-618.4884093727904,713
-615.8466612673046,743
-613.2056415071715,713
-610.5653499150785,777
-607.9257863136347,737
-605.28695052537,765
-602.6488423727357,750
-600.0114616781036,738
-597.3748082637674,732
-594.7388819519412,801
-592.1036825647604,794
-589.4692099242818,773
-586.8354638524829,786
-584.2024441712624,764
-581.5701507024403,831
-578.9385832677575,883
-576.3077416888759,857
-573.6776257873787,835
-571.0482353847704,764
-568.4195703024757,744
-565.7916303618415,776
-563.164415384135,773
-560.5379251905453,811
-557.9121596021815,749
-555.2871184400748,714
-552.6628015251767,820
-550.0392086783606,825
-547.4163397204204,823
-544.794194472071,852
-542.1727727539491,825
-539.5520743866118,813
-536.9320991905377,845
-534.3128469861261,884
-531.6943175936979,961
-529.0765108334947,932
-526.4594265256793,1082
-523.8430644903358,1233
-521.2274245474689,1399
-518.612506517005,1469
-515.9983102187913,1539
-513.3848354725959,1775
-510.77208209810846,1919
-508.16004991493924,2113
-505.5487387426199,2179
-502.9381484006032,2189
-500.3282787082628,2186
-497.71912948489364,2011
-495.1107005497117,1702
-492.5029917218539,1418
-489.8960028203786,1233
-487.28973366426493,1147
-484.68418407241325,982
-482.07935386364494,1026
-479.47524285670266,953
-476.87185087025,978
-474.2691777228715,986
-471.66722323307334,1024
-469.0659872192821,1000
-466.4654694998459,961
-463.86566989303384,964
-461.26658821703614,944
-458.66822428996414,912
-456.07057792985,936
-453.4736489546475,973
-450.877437182231,935
-448.28194243039627,904
-445.68716451686,889
-443.09310325926003,932
-440.49975847515555,930
-437.9071299820263,967
-435.31521759727354,998
-432.72402113821954,950
-430.13354042210767,1075
-427.5437752661022,991
-424.95472548728867,1008
-422.36639090267386,1021
-419.7787713291855,1052
-417.1918665836721,1016
-414.60567648290385,1035
-412.0202008435715,1054
-409.4354394822874,993
-406.8513922155845,1018
-404.26805885991723,1005
-401.685439231661,1064
-399.103533147112,1087
-396.522340422488,1102
-393.9418608739278,986
-391.3620943174908,1019
-388.7830405691583,1020
-386.2046994448317,983
-383.6270707603344,892
-381.05015433141045,919
-378.473949973725,916
-375.8984575028645,817
-373.32367673433623,790
-370.74960748356875,796
-368.1762495659117,756
-365.60360279663576,705
-363.03166699093265,688
-360.4604419639154,650
-357.8899275306178,641
-355.32012350599507,627
-352.7510297049233,570
-350.1826459421999,562
-347.61497203254316,566
-345.04800779059235,613
-342.4817530309082,582
-339.91620756797226,602
-337.35137121618743,603
-334.7872437898774,611
-332.22382510328725,595
-329.66111497058273,585
-327.09911320585127,640
-324.53781962310075,603
-321.9772340362607,613
-319.4173562591816,641
-316.8581861056348,648
-314.2997233893127,652
-311.7419679238294,661
-309.1849195227194,746
-306.62857799943856,719
-304.0729431673641,704
-301.51801483979375,785
-298.963792829947,661
-296.41027695096386,633
-293.85746701590574,685
-291.3053628377552,704
-288.7539642294155,668
-286.2032710037115,770
-283.65328297338897,796
-281.1039999511146,789
-278.5554217494762,922
-276.007548180983,927
-273.4603790580651,767
-270.9139141930734,752
-268.3681533982807,827
-265.8230964858798,952
-263.27874326798565,943
-260.7350935566336,892
-258.1921471637804,881
-255.6499039013039,885
-253.10836358100266,880
-250.56752601459698,780
-248.02739101372765,870
-245.48795838995704,898
-242.94922795476816,1002
-240.41119951956557,1048
-237.8738728956746,977
-235.33724789434166,923
-232.80132432673452,930
-230.2661020039418,831
-227.73158073697357,838
-225.19776033676033,895
-222.66464061415422,1014
-220.1322213799284,1131
-217.60050244477725,1068
-215.06948361931552,1158
-212.53916471408013,1182
-210.00954553952818,1064
-207.48062590603843,917
-204.9524056239104,998
-202.4248845033651,1044
-199.8980623545441,1219
-197.37193898751036,1317
-194.84651421224817,1332
-192.32178783866232,1194
-189.79775967657952,1173
-187.27442953574644,1183
-184.7517972258321,1067
-182.2298625564256,1110
-179.7086253370378,1095
-177.18808537710026,1151
-174.66824248596583,1254
-172.14909647290835,1391
-169.6306471471229,1383
-167.11289431772548,1362
-164.59583779375328,1421
-162.07947738416453,1796
-159.5638128978386,1869
-157.04884414357605,1810
-154.53457093009854,1796
-152.02099306604828,1629
-149.50811035998936,1565
-146.99592262040665,1963
-144.48442965570587,1802
-141.97363127421409,1955
-139.46352728417958,1829
-136.95411749377126,1825
-134.44540171107985,1672
-131.93737974411636,1472
-129.43005140081357,1571
-126.92341648902493,1830
-124.41747481652521,2290
-121.91222619101006,2647
-119.40767042009657,2648
-116.90380731132257,2980
-114.40063667214702,3673
-111.8981583099503,4817
-109.3963720320337,6506
-106.89527764561933,8265
-104.39487495785067,9155
-101.89516377579241,11357
-99.39614390642998,15803
-96.89781515667039,22508
-94.40017733334128,29420
-91.90323024319173,27842
-89.40697369289148,19977
-86.91140748903172,13160
-84.41653143812482,9708
-81.92234534660395,10727
-79.42884902082358,15194
-76.93604226705907,17100
-74.4439248915071,16881
-71.95249670028534,13873
-69.46175749943245,10001
-66.97170709490854,8105
-64.48234529259423,8652
-61.99367189829195,9668
-59.50568671772464,12248
-57.01838955653636,16370
-54.53178022029283,18117
-52.045858514480074,22817
-49.560624244506016,26141
-47.07607721569923,29122
-44.59221723330904,30154
-42.10904410250669,32692
-39.62655762838392,30969
-37.14475761595372,27580
-34.66364387015028,26722
-32.18321619582866,23747
-29.70347439776515,29502
-27.224418280657005,36723
-24.74604764912317,37977
-22.26836230770266,53604
-19.7913620608565,65032
-17.315046712966478,65032
-14.83941606833514,65032
-12.36446993118659,65032
-9.89020810566592,65032
-7.416630395839093,65032
-4.94373660569363,65032
-2.471526539137585,65032
-6.821210263296962E-13,65032
2.47084320796705,65032
4.941003281093458,65032
7.410480415786196,65032
9.879274808531363,65032
12.347386655893956,65032
14.814816154518212,65032
17.28156350112681,65032
19.74762889252179,65032
22.21301252558385,26179
24.67771459727237,8213
27.141735304626195,7274
29.605074844762612,7177
32.06773341487792,5782
34.52971121224755,4795
36.99100843422559,5007
39.45162527824516,4182
41.91156194181792,4324
44.370818622535126,4432
46.82939551806646,4750
49.287292826160524,5901
51.74451074464503,5111
54.201049471426245,4299
56.65690920448981,3468
59.112090141899785,3092
61.56659248179983,3540
64.02041642241159,3401
66.4735621620365,3602
68.92602989905402,3901
71.37781983192338,3693
73.82893215918205,3341
76.27936707944684,2591
78.72912479141326,2597
81.17820549385567,2352
83.62660938562783,2274
86.07433666566146,2397
88.5213875329681,2392
90.96776218663751,2100
93.41346082583925,2172
95.85848364982041,2440
98.30283085790859,2336
100.7465026495089,2083
103.18949922410604,1923
105.63182078126385,1693
108.07346752062438,1934
110.51443964190923,2088
112.95473734491827,1964
115.39436082953114,1869
117.83331029570547,2138
120.27158594347827,2097
122.7091879729652,2070
125.1461165843615,1953
127.58237197794062,1961
130.01795435405518,1775
132.4528639131364,1700
134.88710085569494,1946
137.32066538231982,2167
139.75355769367923,1863
142.1857779905207,1662
144.61732647366978,1492
147.04820334403132,1396
149.47840880258934,1385
151.90794305040674,1457
154.33680628862487,1680
156.76499871846443,2095
159.19252054122433,2119
161.61937195828352,2029
164.04555317109896,2131
166.47106438120693,2195
168.89590579022217,2071
171.320077599839,2220
173.7435800118302,2423
176.16641322804742,2502
178.58857745042144,2770
181.01007288096173,2499
183.43089972175687,2591
185.85105817497413,2517
188.27054844285988,2602
190.6893707277394,2693
193.10752523201643,2596
195.5250121581745,2823
197.9418317087751,2805
200.3579840864594,2737
202.7734694939469,2891
205.18828813403627,2906
207.6024402096051,2964
210.01592592360964,2886
212.42874547908548,2878
214.84089907914665,2783
217.2523869269868,2753
219.66320922587727,2802
222.0733661791695,2716
224.48285799029293,2849
226.8916848627572,2986
229.29984700014882,2874
231.7073446061355,2789
234.11417788446204,2878
236.520347038953,2857
238.92585227351185,2895
241.33069379212054,2799
243.73487179884035,3015
246.1383864978112,2896
248.541238093252,3058
250.9434267894609,3057
253.34495279081432,2912
255.74581630176783,2844
258.1460175268563,2943
260.54555667069314,2889
262.9444339379703,3022
265.3426495334594,3045
267.7402036620107,3055
270.1370965285529,3027
272.53332833809407,2986
274.9288992957214,2740
277.32380960660055,2759
279.718059475976,2757
282.1116491091717,2780
284.5045787115897,2805
286.89684848871195,2777
289.2884586460981,2783
291.67940938938807,2855
294.0697009242996,2955
296.4593334566299,2865
298.84830719225477,2752
301.23662233712923,2823
303.6242790972866,2683
306.01127767884,2604
308.39761828798066,2695
310.78330113097934,2696
313.16832641418534,2569
315.5526943440269,2593
317.9364051270112,2592
320.3194589697242,2472
322.70185607883093,2613
325.0835966610754,2599
327.4646809232805,2615
329.8451090723478,2541
332.2248813152577,2595
334.6039978590701,2599
336.9824589109231,2533
339.36026467803447,2484
341.7374153677,2382
344.113911187295,2373
346.48975234427337,2397
348.8649390461686,2503
351.2394715005918,2498
353.61334991523415,2383
355.9865744978655,2448
358.35914545633375,2555
360.73106299856715,2520
363.10232733257146,2368
365.47293866643247,2316
367.84289720831396,2309
370.2122031664593,2297
372.5808567491905,2267
374.9488581649083,2247
377.31620762209275,2349
379.6829053293021,2381
382.0489514951745,2287
384.4143463284262,2377
386.7790900378528,2281
389.14318283232853,2284
391.50662492080653,2360
393.86941651231916,2231
396.23155781597745,2176
398.5930490409713,2219
400.9538903965696,2330
403.3140820921202,2233
405.6736243370498,2234
408.03251734086336,2225
410.3907613131465,2197
412.74835646356166,2237
415.10530300185144,2181
417.4616011378372,2199
419.81725108141893,2188
422.1722530425758,2253
424.5266072313656,2202
426.880313857925,2200
429.2333731324701,2166
431.58578526529516,2147
433.9375504667738,2191
436.2886689473588,2054
438.63914091758113,2080
440.9889665880513,2096
443.33814616945835,2135
445.68667987257015,2141
448.03456790823395,2155
450.3818104873759,2040
452.72840782100013,1994
455.07436012019105,2043
457.41966759611057,2035
459.7643304600007,2085
462.10834892318155,2060
464.4517231970525,2118
466.79445349309174,2164
469.1365400228566,2173
471.4779829979826,2061
473.81878263018564,2161
476.15893913125876,2296
478.4984527130747,2381
480.8373235875855,2384
483.17555196682144,2418
485.5131380628919,2472
487.8500820879857,2466
490.1863842543697,2662
492.52204477439034,2762
494.8570638604725,2940
497.1914417251204,3448
499.52517858091653,4001
501.85827464052306,4439
504.19073011668036,4703
506.5225452222086,5064
508.85372017000566,5051
511.18425517304956,5063
513.514150444396,5533
515.8434061971808,6578
518.1720226446176,6998
520.4999999999999,6728
522.8273384766991,6442
525.1540382881666,5934
527.480099647932,5068
529.8055227696037,3948
532.1303078668694,2932
534.454455153496,2535
536.777964843328,2357
539.1008371502907,2307
541.4230722883866,2283
543.744670471698,2131
546.0656319143858,2155
548.3859568306899,2149
550.7056454349294,2108
553.0246979415016,2091
555.3431145648834,2053
557.6608955196306,1999
559.978041020377,2031
562.2945512818363,2097
564.6104265188006,2115
566.9256669461412,2057
569.2402727788082,2142
571.5542442318302,2072
573.8675815203156,2091
576.1802848594508,2062
578.4923544645015,2056
580.8037905508126,2153
583.114593333807,2134
585.4247630289875,2100
587.7342998519354,2024
590.0432040183106,2087
592.3514757438526,2208
594.6591152443794,2178
596.9661227357875,2115
599.2724984340531,2098
601.578242555231,2136
603.8833553154542,2062
606.1878369309362,2049
608.4916876179676,2051
610.7949075929192,2060
613.0974970722403,2000
615.3994562724587,2066
617.7007854101818,2109
620.0014847020951,2180
622.3015543649641,2108
624.6009946156324,2117
626.8998056710224,2095
629.1979877481361,2092
631.4955410640538,2139
633.7924658359349,2100
636.0887622810175,2054
638.3844306166192,2092
640.6794710601358,2211
642.9738838290426,2123
645.2676691408932,2102
647.5608272133207,2107
649.853358264037,2168
652.1452625108324,2203
654.4365401715764,2203
656.7271914642178,2059
659.0172166067838,2153
661.3066158173809,2108
663.5953893141935,2193
665.8835373154867,2160
668.1710600396028,2049
670.4579577049639,2052
672.7442305300709,2165
675.0298787335033,2115
677.3149025339197,2092
679.599302150058,2094
681.8830778007342,2038
684.1662297048437,2036
686.4487580813608,2089
688.7306631493387,2091
691.0119451279091,2102
693.2926042362834,2141
695.5726406937516,1999
697.8520547196814,2063
700.1308465335215,2076
702.4090163547982,1994
704.6865644031171,2091
706.9634908981619,2121
709.2397960596965,2138
711.5154801075631,2103
713.7905432616823,2124
716.0649857420548,2097
718.3388077687592,2034
720.612009561953,2109
722.8845913418733,2045
725.1565533288352,2148
727.427895743234,2066
729.6986188055427,2028
731.9687227363137,2041
734.238207756178,2108
736.5070740858458,2094
738.7753219461066,2074
741.0429515578281,2065
743.3099631419569,2142
745.5763569195191,2038
747.8421331116193,2128
750.1072919394409,2056
752.3718336242467,2044
754.6357583873777,2111
756.8990664502545,2019
759.1617580343765,2083
761.423833361321,2123
763.6852926527457,2158
765.9461361303862,2106
768.206364016058,2114
770.4659765316536,2086
772.7249738991469,2134
774.9833563405886,2149
777.2411240781092,2061
779.4982773339183,2020
781.7548163303044,2032
784.010741289634,2089
786.2660524343538,2150
788.5207499869881,2158
790.7748341701416,2120
793.0283052064964,2052
795.2811633188143,2186
797.5334087299362,2147
799.7850416627813,2172
802.0360623403484,2151
804.2864709857143,2140
806.5362678220353,2178
808.7854530725468,2188
811.0340269605625,2112
813.2819897094754,2065
815.5293415427581,2067
817.77608268396,2200
820.0222133567116,2118
822.2677337847211,2115
824.5126441917765,2077
826.7569448017433,2114
829.0006358385675,2145
831.2437175262731,2092
833.4861900889629,2101
835.7280537508192,2202
837.9693087361026,2124
840.2099552691533,2160
842.4499935743896,2230
844.689423876309,2055
846.9282463994886,2067
849.1664613685833,2124
851.4040690083276,2145
853.6410695435349,2111
855.877463199097,2165
858.1132501999847,2133
860.3484307712487,2077
862.5830051380175,2139
864.8169735254988,2104
867.0503361589791,2172
869.2830932638243,2199
871.5152450654786,2156
873.7467917894654,2160
875.9777336613873,2111
878.2080709069252,2250
880.4378037518389,2170
882.666932421968,2153
884.8954571432301,2251
887.1233781416219,2151
889.3506956432192,2159
891.5774098741766,2187
893.803521060728,2219
896.0290294291852,2220
898.2539352059397,2218
900.4782386174619,2163
902.7019398903011,2201
904.925039251085,2131
907.147536926521,2228
909.3694331433943,2202
911.59072812857,2184
913.8114221089921,2143
916.0315153116827,2189
918.2510079637437,2152
920.4699002923547,2230
922.6881925247761,2145
924.905884888345,2173
927.1229776104793,2163
929.3394709186747,2128
931.555365040506,2092
933.7706602036275,2165
935.9853566357709,2106
938.1994545647489,2205
940.4129542184515,2148
942.6258558248488,2106
944.8381596119883,2270
947.0498658079974,2279
949.2609746410825,2211
951.4714863395287,2174
953.6814011316998,2155
955.8907192460387,2116
958.0994409110671,2200
960.3075663553858,2138
962.5150958076741,2132
964.7220294966913,2152
966.928367651274,2161
969.1341105003388,2095
971.3392582728806,2092
973.5438111979742,2077
975.747769504772,2056
977.9511334225061,2067
980.153903180487,2046
982.3560790081052,1989
984.5576611348289,1985
986.7586497902058,2036
988.9590452038618,2038
991.158847605503,1975
993.3580572249133,1932
995.5566742919558,1869
997.7546990365728,1847
999.952131688785,1769
1002.1489724786926,1734
1004.3452216364743,1825
1006.5408793923874,1794
1008.7359459767691,1696
1010.9304216200343,1773
1013.1243065526781,1703
1015.3176010052733,1734
1017.510305208472,1699
1019.7024193930064,1717
1021.8939437896848,1802
1024.0848786293977,1680
1026.2752241431122,1649
1028.4649805618747,1704
1030.6541481168115,1767
1032.842727039127,1708
1035.0307175601051,1673
1037.2181199111074,1665
1039.4049343235752,1759
1041.591161029029,1618
1043.7768002590683,1653
1045.9618522453698,1631
1048.1463172196918,1671
1050.3301954138697,1619
1052.513487059818,1596
1054.69619238953,1672
1056.8783116350783,1597
1059.0598450286152,1621
1061.2407928023704,1660
1063.4211551886528,1605
1065.6009324198508,1632
1067.780124728432,1627
1069.9587323469414,1657
1072.1367555080046,1643
1074.314194444325,1600
1076.4910493886855,1585
1078.667320573947,1599
1080.843008233051,1488
1083.0181125990161,1558
1085.1926339049414,1560
1087.3665723840027,1520
1089.5399282694575,1583
1091.7127017946405,1602
1093.8848931929647,1577
1096.0565026979243,1555
1098.2275305430899,1498
1100.3979769621128,1501
1102.567842188722,1475
1104.737126456726,1481
1106.9058300000124,1526
1109.0739530525475,1534
1111.2414958483764,1491
1113.4084586216231,1525
1115.5748416064907,1540
1117.7406450372605,1557
1119.9058691482942,1483
1122.0705141740304,1529
1124.2345803489884,1535
1126.3980679077658,1501
1128.5609770850388,1491
1130.7233081155623,1490
1132.8850612341707,1453
1135.0462366757774,1463
1137.2068346753745,1494
1139.3668554680326,1511
1141.526299288901,1487
1143.68516637321,1491
1145.8434569562655,1507
1148.001171273455,1477
1150.158309560244,1515
1152.3148720521767,1484
1154.470858984876,1487
1156.626270594044,1536
1158.7811071154629,1507
1160.9353687849912,1420
1163.089055838569,1418
1165.242168512213,1512
1167.3947070420209,1469
1169.5466716641677,1456
1171.6980626149075,1478
1173.8488801305748,1465
1175.9991244475814,1448
1178.1487958024186,1443
1180.2978944316555,1494
1182.4464205719428,1474
1184.5943744600072,1463
1186.7417563326567,1442
1188.8885664267755,1443
1191.0348049793297,1464
1193.1804722273619,1425
1195.325568407995,1487
1197.4700937584303,1434
1199.614048515948,1454
1201.7574329179074,1449
1203.900247201746,1459
1206.042491604982,1453
1208.1841663652099,1408
1210.3252717201053,1421
1212.465807907422,1468
1214.6057751649923,1442
1216.7451737307279,1463
1218.8840038426192,1479
1221.0222657387353,1461
1223.1599596572241,1398
1225.2970858363137,1402
1227.4336445143094,1473
1229.5696359295966,1469
1231.705060320639,1459
1233.8399179259786,1449
1235.9742089842384,1475
1238.107933734118,1504
1240.2410924143974,1500
1242.373685263935,1461
1244.5057125216676,1429
1246.6371744266116,1452
1248.7680712178621,1431
1250.898403134593,1527
1253.028170416058,1508
1255.1573733015875,1513
1257.2860120305932,1435
1259.4140868425648,1500
1261.54159797707,1476
1263.6685456737569,1500
1265.7949301723515,1423
1267.9207517126597,1444
1270.046010534565,1473
1272.1707068780306,1459
1274.2948409830983,1532
1276.4184130898889,1485
1278.541423438603,1429
1280.6638722695184,1459
1282.785759822993,1543
1284.9070863394636,1518
1287.0278520594447,1536
1289.1480572235314,1501
1291.2677020723963,1488
1293.3867868467923,1525
1295.5053117875495,1462
1297.623277135579,1511
1299.740683131868,1516
1301.8575300174857,1540
1303.973818033578,1545
1306.0895474213703,1631
1308.2047184221678,1602
1310.3193312773528,1645
1312.4333862283888,1508
1314.5468835168163,1535
1316.659823384255,1519
1318.7722060724045,1506
1320.8840318230418,1533
1322.9953008780249,1597
1325.1060134792888,1547
1327.2161698688478,1547
1329.3257702887959,1561
1331.4348149813054,1604
1333.5433041886276,1527
1335.6512381530933,1488
1337.7586171171101,1551
1339.8654413231675,1577
1341.9717110138317,1532
1344.0774264317488,1484
1346.1825878196432,1508
1348.2871954203192,1456
1350.3912494766587,1562
1352.4947502316231,1496
1354.5976979282532,1593
1356.7000928096686,1519
1358.8019351190665,1501
1360.9032250997243,1513
1363.0039629949988,1552
1365.1041490483235,1480
1367.2037835032133,1496
1369.3028666032606,1538
1371.401398592137,1542
1373.4993797135926,1457
1375.5968102114575,1512
1377.6936903296396,1545
1379.7900203121262,1545
1381.8858004029835,1538
1383.9810308463561,1464
1386.075711886469,1490
1388.1698437676241,1452
1390.2634267342032,1558
1392.356461030667,1523
1394.4489469015557,1561
1396.5408845914872,1547
1398.6322743451592,1573
1400.7231164073469,1625
1402.813411022907,1608
1404.903158436773,1572
1406.9923588939578,1539
1409.0810126395531,1609
1411.1691199187303,1563
1413.2566809767386,1638
1415.343696058907,1590
1417.4301654106425,1614
1419.5160892774315,1561
1421.6014679048399,1612
1423.6863015385125,1567
1425.7705904241707,1614
1427.8543348076178,1568
1429.9375349347342,1580
1432.0201910514802,1638
1434.102303403894,1626
1436.1838722380944,1619
1438.2648978002767,1593
1440.3453803367174,1675
1442.4253200937692,1616
1444.5047173178677,1603
1446.5835722555234,1689
1448.6618851533285,1668
1450.739656257952,1599
1452.8168858161434,1698
1454.8935740747306,1649
1456.96972128062,1613
1459.045327680797,1660
1461.120393522327,1731
1463.1949190523528,1707
1465.2689045180973,1682
1467.3423501668608,1699
1469.415256246024,1767
1471.4876230030463,1733
1473.559450685465,1788
1475.6307395408976,1753
1477.7014898170391,1805
1479.771701761665,1694
1481.8413756226287,1751
1483.9105116478618,1766
1485.9791100853772,1763
1488.0471711832643,1815
1490.1146951896926,1809
1492.1816823529098,1748
1494.2481329212433,1858
1496.3140471430984,1792
1498.3794252669609,1733
1500.4442675413939,1790
1502.5085742150404,1887
1504.572345536622,1825
1506.6355817549388,1861
1508.6982831188702,1808
1510.7604498773744,1796
1512.8220822794883,1863
1514.8831805743293,1864
1516.9437450110909,1892
1519.003775839048,1864
1521.0632733075522,1851
1523.1222376660367,1859
1525.1806691640113,1864
1527.2385680510652,1844
1529.2959345768668,1887
1531.3527689911643,1894
1533.4090715437833,1916
1535.4648424846291,1857
1537.5200820636855,1948
1539.5747905310159,1883
1541.6289681367616,1993
1543.6826151311434,1914
1545.7357317644614,1938
1547.7883182870937,1950
1549.8403749494987,1985
1551.8919020022113,2016
1553.9428996958477,2039
1555.9933682811015,2107
1558.0433080087469,2067
1560.0927191296346,2009
1562.1416018946961,2120
1564.1899565549415,2112
1566.2377833614592,2109
1568.2850825654164,2039
1570.3318544180606,2060
1572.3780991707158,2098
1574.423817074788,2121
1576.4690083817595,1969
1578.5136733431923,1971
1580.5578122107272,1909
1582.601425236085,1949
1584.6445126710646,1912
1586.6870747675434,1822
1588.7291117774776,1839
1590.7706239529034,1807
1592.8116115459347,1709
1594.8520748087658,1696
1596.8920139936686,1681
1598.9314293529933,1668
1600.9703211391711,1650
1603.008689604711,1758
1605.0465350022005,1644
1607.0838575843068,1615
1609.1206576037753,1658
1611.1569353134305,1646
1613.1926909661765,1630
1615.2279248149953,1657
1617.2626371129481,1656
1619.2968281131757,1571
1621.3304980688963,1562
1623.3636472334088,1545
1625.39627586009,1584
1627.428384202396,1604
1629.459972513861,1524
1631.4910410480993,1557
1633.5215900588028,1549
1635.551619799744,1573
1637.5811305247717,1459
1639.6101224878166,1476
1641.6385959428862,1579
1643.6665511440683,1470
1645.693988345528,1488
1647.7209078015112,1544
1649.7473097663405,1537
1651.7731944944203,1482
1653.7985622402307,1533
1655.823413258333,1491
1657.847747803366,1523
1659.8715661300494,1565
1661.8948684931793,1531
1663.9176551476316,1486
1665.9399263483624,1471
1667.9616823504057,1500
1669.982923408873,1508
1672.0036497789574,1463
1674.0238617159293,1495
1676.043559475138,1543
1678.0627433120121,1497
1680.081413482059,1526
1682.0995702408654,1507
1684.117213844096,1526
1686.134344547495,1516
1688.1509626068864,1465
1690.1670682781705,1487
1692.182661817329,1484
1694.1977434804217,1484
1696.2123135235875,1499
1698.226372203043,1535
1700.2399197750851,1543
1702.2529564960905,1475
1704.2654826225112,1574
1706.277498410882,1490
1708.2890041178139,1487
1710.2999999999988,1503
1712.3104863142066,1510
1714.3204633172854,1490
1716.329931266163,1516
1718.3388904178469,1494
1720.3473410294214,1509
1722.3552833580516,1479
1724.3627176609807,1459
1726.3696441955308,1511
1728.3760632191033,1527
1730.3819749891782,1473
1732.3873797633146,1462
1734.3922777991502,1485
1736.3966693544012,1516
1738.4005546868639,1487
1740.4039340544127,1479
1742.406807715001,1490
1744.4091759266616,1484
1746.4110389475054,1478
1748.4123970357223,1505
1750.413250449582,1493
1752.4135994474318,1505
1754.4134442876993,1574
1756.4127852288902,1555
1758.4116225295893,1482
1760.4099564484595,1508
1762.407787244244,1481
1764.405115175764,1456
1766.4019405019203,1565
1768.3982634816916,1454
1770.3940843741357,1471
1772.3894034383907,1480
1774.3842209336717,1550
1776.378537119274,1492
1778.372352254571,1491
1780.3656665990156,1524
1782.3584804121397,1487
1784.3507939535534,1438
1786.3426074829463,1514
1788.3339212600863,1509
1790.3247355448211,1499
1792.3150505970766,1475
1794.3048666768573,1508
1796.2941840442477,1484
1798.2830029594106,1496
1800.2713236825884,1476
1802.2591464741004,1472
1804.2464715943465,1504
1806.2332993038058,1467
1808.2196298630352,1436
1810.2054635326708,1539
1812.190800573428,1491
1814.175641246101,1497
1816.1599858115628,1461
1818.1438345307652,1510
1820.127187664738,1469
1822.1100454745924,1481
1824.092408221516,1486
1826.0742761667766,1428
1828.055649571721,1427
1830.0365286977735,1475
1832.0169138064398,1499
1833.9968051593014,1460
1835.9762030180214,1503
1837.9551076443408,1527
1839.9335193000788,1493
1841.9114382471344,1437
1843.888864747485,1488
1845.8657990631878,1488
1847.842241456378,1463
1849.8181921892697,1413
1851.7936515241558,1441
1853.7686197234098,1472
1855.7430970494815,1431
1857.7170837649014,1500
1859.6905801322787,1525
1861.6635864143004,1456
1863.6361028737338,1526
1865.608129773424,1504
1867.5796673762961,1458
1869.5507159453537,1518
1871.521275743678,1527
1873.4913470344313,1467
1875.4609300808534,1503
1877.4300251462632,1499
1879.3986324940588,1451
1881.366752387717,1544
1883.3343850907936,1465
1885.3015308669228,1529
1887.268189979819,1531
1889.2343626932739,1481
1891.2000492711595,1500
1893.1652499774254,1507
1895.1299650761011,1510
1897.0941948312952,1491
1899.0579395071945,1506
1901.0211993680641,1476
1902.98397467825,1571
1904.9462657021745,1566
1906.9080727043415,1551
1908.869395949332,1445
1910.8302357018065,1492
1912.790592226504,1529
1914.7504657882428,1532
1916.7098566519212,1515
1918.6687650825133,1479
1920.6271913450764,1531
1922.5851357047422,1487
1924.5425984267245,1546
1926.499579776314,1502
1928.4560800188833,1473
1930.4120994198802,1577
1932.367638244833,1500
1934.32269675935,1554
1936.2772752291175,1532
1938.231373919899,1508
1940.1849930975404,1472
1942.1381330279637,1461
1944.0907939771696,1498
1946.0429762112412,1516
1947.9946799963363,1484
1949.9459055986945,1446
1951.896653284633,1516
1953.8469233205478,1499
1955.7967159729142,1480
1957.7460315082863,1515
1959.6948701932974,1416
1961.6432322946594,1421
1963.5911180791632,1492
1965.5385278136787,1399
1967.4854617651545,1514
1969.4319202006182,1448
1971.377903387176,1406
1973.3234115920136,1527
1975.268445082395,1510
1977.2130041256642,1495
1979.1570889892423,1449
1981.1006999406304,1456
1983.04383724741,1386
1984.986501177238,1441
1986.928691997853,1442
1988.8704099770712,1404
1990.811655382789,1406
1992.7524284829801,1436
1994.692729545698,1480
1996.6325588390755,1460
1998.5719166313224,1473
2000.5108031907307,1424
2002.4492187856677,1450
2004.387163684583,1428
2006.3246381560011,1448
2008.2616424685298,1460
2010.1981768908527,1482
2012.1342416917332,1487
2014.069837140014,1455
2016.0049635046162,1428
2017.9396210545406,1449
2019.8738100588666,1451
2021.8075307867502,1447
2023.740783507431,1473
2025.6735684902228,1447
2027.6058860045214,1445
2029.5377363198004,1481
2031.4691197056118,1438
2033.4000364315875,1408
2035.3304867674374,1438
2037.260470982952,1462
2039.189989347998,1389
2041.1190421325232,1398
2043.047629606554,1411
2044.9757520401945,1412
2046.9034097036288,1396
2048.8306028671195,1408
2050.7573318010086,1506
2052.683596775716,1465
2054.609398061742,1418
2056.5347359296647,1493
2058.4596106501403,1506
2060.384022493906,1426
2062.3079717317764,1415
2064.231458634646,1456
2066.1544834734873,1394
2068.077046519352,1398
2069.99914804337,1430
2071.9207883167524,1415
2073.8419676107865,1504
2075.7626861968406,1442
2077.6829443463607,1459
2079.6027423308715,1445
2081.522080421977,1404
2083.440958891362,1479
2085.359378010786,1442
2087.2773380520907,1479
2089.194839287196,1489
2091.111881988101,1462
2093.0284664268825,1430
2094.9445928756973,1484
2096.86026160678,1421
2098.775472892446,1461
2100.690227005088,1479
2102.604524217178,1433
2104.5183648012676,1445
2106.431749029985,1475
2108.34467717604,1476
2110.2571495122206,1480
2112.169166311393,1408
2114.080727846503,1470
2115.9918343905747,1511
2117.902486216711,1419
2119.8126835980956,1462
2121.722426807987,1462
2123.6317161197285,1504
2125.5405518067364,1490
2127.448934142509,1499
2129.356863400624,1477
2131.264339854737,1576
2133.1713637785815,1536
2135.077935445972,1520
2136.9840551308002,1530
2138.889723107037,1528
2140.7949396487334,1496
2142.699705030018,1483
2144.6040195250994,1538
2146.507883408264,1505
2148.4112969538774,1516
2150.3142604363848,1492
2152.2167741303097,1572
2154.1188383102535,1528
2156.0204532508997,1527
2157.9216192270064,1495
2159.822336513414,1460
2161.7226053850413,1476
2163.622426116884,1510
2165.5217989840185,1498
2167.4207242616,1553
2169.319202224862,1550
2171.2172331491165,1537
2173.1148173097563,1515
2175.0119549822507,1512
2176.90864644215,1528
2178.8048919650823,1525
2180.7006918267534,1538
2182.596046302952,1539
2184.4909556695407,1482
2186.3854202024645,1585
2188.279440177746,1552
2190.173015871487,1564
2192.066147559868,1544
2193.958835519149,1541
2195.851080025667,1540
2197.7428813558417,1558
2199.6342397861667,1529
2201.5251555932186,1556
2203.415629053651,1541
2205.3056604441986,1624
2207.19525004167,1599
2209.084398122958,1529
2210.9731049650327,1598
2212.861370844941,1570
2214.749196039812,1588
2216.636580826851,1636
2218.523525483344,1598
2220.410030286655,1565
2222.296095514226,1631
2224.1817214435805,1585
2226.066908352319,1604
2227.951656518121,1542
2229.835966218746,1568
2231.71983773203,1592
2233.6032713358913,1650
2235.486267308324,1522
2237.3688259274036,1562
2239.2509474712824,1547
2241.132632218193,1535
2243.013880446447,1532
2244.8946924344323,1550
2246.7750684606203,1500
2248.6550088035574,1581
2250.534513741871,1569
2252.413583554265,1597
2254.292218519526,1582
2256.170418916517,1565
2258.0481850241786,1523
2259.925517121534,1529
2261.8024154876825,1571
2263.678880401803,1538
2265.5549121431536,1602
2267.430510991071,1594
2269.305677224971,1464
2271.180411124348,1505
2273.0547129687766,1500
2274.9285830379076,1550
2276.8020216114737,1510
2278.6750289692845,1561
2280.5476053912294,1615
2282.4197511572766,1641
2284.2914665474727,1678
2286.162751841943,1606
2288.0336073208937,1635
2289.904033264608,1568
2291.774029953448,1574
2293.6435976678554,1547
2295.5127366883517,1596
2297.381447295534,1507
2299.2497297700825,1466
2301.1175843927526,1434
2302.9850114443825,1416
2304.852011205885,1395
2306.7185839582553,1369
2308.5847299825664,1285
2310.4504495599676,1372
2312.3157429716925,1335
2314.1806104990483,1301
2316.0450524234247,1313
2317.9090690262888,1294
2319.772660589186,1369
2321.635827393742,1329
2323.498569721661,1332
2325.3608878547248,1280
2327.2227820747967,1261
2329.0842526638157,1350
2330.945299903803,1251
2332.805924076857,1328
2334.6661254651535,1261
2336.525904350951,1339
2338.3852610165827,1285
2340.244195744464,1306
2342.102708817088,1316
2343.9608005170253,1289
2345.8184711269287,1316
2347.675720929526,1337
2349.532550207628,1288
2351.38895924412,1302
2353.24494832197,1284
2355.100517724223,1350
2356.955667734004,1295
2358.810398634514,1295
2360.664710709037,1335
2362.5186042409337,1341
2364.3720795136437,1293
2366.225136810686,1319
2368.0777764156583,1342
2369.929998612237,1364
2371.7818036841777,1359
2373.633191915315,1352
2375.484163589562,1355
2377.3347189909114,1321
2379.184858403434,1310
2381.03458211128,1328
2382.8838903986775,1304
2384.732783549936,1412
2386.5812618494406,1353
2388.4293255816588,1365
2390.2769750311327,1325
2392.1242104824883,1317
2393.971032220427,1343
2395.8174405297295,1312
2397.6634356952563,1317
2399.509018001947,1360
2401.3541877348193,1391
2403.1989451789705,1383
2405.043290619576,1396
2406.8872243418905,1366
2408.730746631247,1367
2410.5738577730594,1357
2412.4165580528183,1385
2414.258847756095,1373
2416.100727168537,1420
2417.9421965758734,1426
2419.783256263912,1455
2421.623906518538,1517
2423.4641476257157,1445
2425.303979871491,1468
2427.143403541984,1517
2428.9824189233977,1505
2430.821026302012,1542
2432.6592259641866,1515
2434.497018196361,1553
2436.33440328505,1482
2438.171381516851,1454
2440.00795317844,1493
2441.844118556569,1465
2443.6798779380724,1437
2445.5152316098606,1463
2447.3501798589255,1413
2449.1847229723357,1457
2451.0188612372403,1426
2452.8525949408663,1397
2454.6859243705203,1393
2456.518849813587,1362
2458.3513715575314,1428
2460.183489889895,1447
2462.015205098301,1423
2463.8465174704493,1403
2465.67742729412,1441
2467.5079348571717,1381
2469.338040447542,1405
2471.1677443532476,1355
2472.9970468623833,1407
2474.825948263123,1377
2476.6544488437207,1417
2478.482548892508,1468
2480.310248697896,1391
2482.137548548374,1397
2483.9644487325118,1336
2485.790949538956,1347
2487.617051256433,1364
2489.44275417375,1348
2491.26805857979,1333
2493.0929647635157,1316
2494.917473013971,1311
2496.741583620276,1335
2498.5652968716304,1401
2500.3886130573137,1420
2502.2115324666834,1364
2504.0340553891765,1410
2505.856182114308,1392
2507.6779129316733,1382
2509.499248130945,1332
2511.3201880018764,1337
2513.140732834298,1403
2514.9608829181198,1366
2516.780638543331,1426
2518.6,1374
2520.418967578273,1384
2522.237541568376,1317
2524.0557222606144,1405
2525.8735099453706,1365
2527.6909049131086,1320
2529.507907454368,1388
2531.32451785977,1353
2533.140736420014,1382
2534.9565634258774,1404
2536.771999168218,1375
2538.5870439379714,1444
2540.4016980261526,1411
2542.2159617238544,1423
2544.02983532225,1413
2545.8433191125914,1411
2547.656413386209,1403
2549.4691184345115,1373
2551.2814345489874,1403
2553.093362021204,1431
2554.904901142808,1399
2556.716052205523,1431
2558.526815501153,1413
2560.3371913215824,1461
2562.147179958771,1416
2563.956781704761,1429
2565.7659968516705,1426
2567.5748256916986,1416
2569.3832685171224,1460
2571.1913256202984,1414
2572.9989972936614,1471
2574.806283829725,1440
2576.613185521084,1395
2578.4197026604074,1428
2580.2258355404483,1454
2582.031584454035,1466
2583.836949694077,1439
2585.6419315535613,1449
2587.4465303255533,1443
2589.2507463032002,1436
2591.0545797797245,1452
2592.8580310484303,1440
2594.6611004026995,1439
2596.463788135992,1485
2598.266094541849,1459
2600.0680199138874,1484
2601.869564545807,1475
2603.670728731383,1445
2605.4715127644704,1445
2607.2719169390048,1523
2609.071941548998,1444
2610.8715868885433,1463
2612.670853251811,1430
2614.469740933052,1455
2616.268250226594,1468
2618.0663814268455,1440
2619.864134828292,1460
2621.6615107255006,1465
2623.458509413115,1462
2625.2551311858597,1404
2627.0513763385347,1464
2628.8472451660223,1425
2630.6427379632833,1344
2632.4378550253564,1397
2634.232596647359,1390
2636.026963124488,1380
2637.8209547520187,1453
2639.6145718253065,1423
2641.407814639785,1423
2643.200683490966,1438
2644.9931786744414,1440
2646.7853004858807,1399
2648.577049221034,1398
2650.3684251757277,1360
2652.1594286458712,1374
2653.9500599274484,1384
2655.740319316525,1392
2657.5302071092437,1369
2659.3197236018286,1386
2661.10886909058,1318
2662.8976438718782,1365
2664.686048242183,1414
2666.4740824980327,1399
2668.2617469360443,1380
2670.0490418529134,1377
2671.8359675454153,1325
2673.622524310403,1320
2675.408712444811,1320
2677.1945322456495,1357
2678.979984010009,1364
2680.76506803506,1401
2682.5497846180497,1343
2684.334134056306,1344
2686.1181166472343,1363
2687.9017326883213,1372
2689.6849824771293,1290
2691.4678663113013,1289
2693.2503844885596,1327
2695.032537306705,1332
2696.8143250636167,1381
2698.5957480572542,1322
2700.3768065856534,1387
2702.1575009469316,1384
2703.937831439283,1321
2705.717798360982,1342
2707.4974020103837,1311
2709.276642685917,1274
2711.055520686095,1333
2712.834036309506,1330
2714.612189854819,1292
2716.389981620782,1288
2718.1674119062204,1281
2719.944481010041,1333
2721.721189231226,1316
2723.4975368688415,1335
2725.273524222027,1287
2727.0491515900053,1321
2728.824419272075,1329
2730.5993275676146,1276
2732.3738767760838,1292
2734.148067197016,1385
2735.921899130031,1294
2737.6953728748194,1305
2739.468488731156,1353
2741.2412469988926,1315
2743.0136479779617,1315
2744.785691968372,1273
2746.5573792702116,1300
2748.3287101836504,1316
2750.099685008934,1306
2751.870304046388,1312
2753.640567596418,1308
2755.4104759595057,1282
2757.1800294362156,1274
2758.949228327187,1337
2760.7180729331412,1300
2762.486563554877,1304
2764.254700493272,1382
2766.022484049284,1259
2767.789914523947,1355
2769.5569922183786,1267
2771.3237174337705,1284
2773.090090471394,1287
2774.8561116326036,1279
2776.6217812188274,1336
2778.3870995315756,1289
2780.1520668724356,1294
2781.9166835430747,1360
2783.6809498452394,1279
2785.444866080754,1350
2787.2084325515225,1252
2788.971649559527,1303
2790.73451740683,1341
2792.4970363955713,1339
2794.2592068279705,1295
2796.0210290063264,1304
2797.7825032330147,1290
2799.543629810493,1332
2801.304409041296,1312
2803.0648412280366,1288
2804.8249266734088,1328
2806.5846656801846,1295
2808.344058551212,1360
2810.1031055894246,1276
2811.8618070978273,1341
2813.6201633795085,1327
2815.378174737636,1316
2817.1358414754536,1254
2818.893163896285,1222
2820.6501423035334,1301
2822.4067770006814,1330
2824.1630682912883,1279
2825.9190164789957,1292
2827.6746218675207,1300
2829.429884760661,1347
2831.184805462294,1320
2832.9393842763743,1352
2834.693621506936,1315
2836.4475174580916,1301
2838.201072434034,1324
2839.954286739034,1330
2841.707160677441,1355
2843.459694553685,1354
2845.2118886722724,1296
2846.96374333779,1309
2848.7152588549034,1309
2850.4664355283567,1341
2852.217273662973,1362
2853.9677735636546,1349
2855.7179355353833,1300
2857.4677598832186,1347
2859.217246912299,1310
2860.9663969278427,1284
2862.715210235146,1276
2864.4636871395846,1284
2866.211827946614,1326
2867.9596329617652,1313
2869.7071024906536,1272
2871.4542368389684,1267
2873.20103631248,1278
2874.947501217038,1300
2876.6936318585695,1302
2878.4394285430812,1316
2880.1848915766604,1356
2881.9300212654707,1340
2883.6748179157553,1371
2885.4192818338374,1318
2887.1634133261173,1357
2888.907212699077,1256
2890.6506802592744,1307
2892.393816313348,1332
2894.1366211680142,1340
2895.8790951300693,1305
2897.621238506388,1283
2899.363051603925,1296
2901.1045347297118,1268
2902.8456881908596,1308
2904.58651229456,1275
2906.327007348081,1285
2908.067173658772,1320
2909.8070115340597,1283
2911.5465212814497,1293
2913.285703208527,1267
2915.0245576229563,1307
2916.7630848324807,1316
2918.5012851449196,1298
2920.2391588681758,1284
2921.976706310227,1344
2923.7139277791334,1293
2925.4508235830313,1312
2927.187394030137,1273
2928.923639428745,1309
2930.6595600872306,1310
2932.395156314046,1362
2934.1304284177218,1292
2935.8653767068713,1340
2937.6000014901815,1282
2939.3343030764227,1366
2941.068281774442,1386
2942.8019378931644,1296
2944.5352717415976,1311
2946.2682836288236,1320
2948.0009738640065,1307
2949.7333427563885,1320
2951.465390615289,1273
2953.1971177501086,1313
2954.9285244703265,1314
2956.6596110855,1326
2958.3903779052657,1362
2960.1208252393385,1333
2961.8509533975125,1293
2963.5807626896617,1346
2965.3102534257378,1306
2967.0394259157715,1292
2968.768280469873,1336
2970.496817398232,1319
2972.2250370111146,1317
2973.952939618869,1362
2975.6805255319196,1262
2977.4077950607707,1344
2979.134748516006,1349
2980.861386208289,1308
2982.587708448359,1292
2984.313715547037,1327
2986.039407815222,1332
2987.764785563891,1309
2989.489849104102,1288
2991.2145987469908,1302
2992.9390348037705,1289
2994.6631575857346,1244
2996.3869674042576,1303
2998.1104645707887,1280
2999.83364939686,1289
3001.5565221940783,1265
3003.2790832741334,1242
3005.0013329487924,1226
3006.7232715298996,1258
3008.4448993293804,1290
3010.166216659239,1318
3011.887223831558,1300
3013.607921158498,1279
3015.3283089522993,1305
3017.0483875252826,1262
3018.7681571898443,1244
3020.4876182584626,1266
3022.2067710436927,1251
3023.9256158581707,1266
3025.644153014609,1248
3027.362382825801,1293
3029.0803056046193,1280
3030.797921664012,1272
3032.5152313170106,1318
3034.2322348767225,1264
3035.9489326563353,1241
3037.665324969115,1260
3039.3814121284063,1264
3041.097194447633,1305
3042.812672240299,1281
3044.5278458199855,1276
3046.2427155003525,1255
3047.9572815951406,1337
3049.671544418167,1277
3051.38550428333,1298
3053.0991615046073,1292
3054.812516396051,1331
3056.5255692717974,1269
3058.2383204460575,1276
3059.9507702331257,1287
3061.662918947372,1257
3063.3747669032446,1267
3065.0863144152736,1301
3066.7975617980674,1278
3068.508509366309,1297
3070.219157434767,1265
3071.9295063182844,1222
3073.639556331785,1267
3075.3493077902704,1232
3077.058761008821,1273
3078.7679163025964,1290
3080.476773986837,1308
3082.1853343768594,1294
3083.89359778806,1263
3085.6015645359153,1216
3087.3092349359786,1232
3089.016609303884,1251
3090.7236879553434,1205
3092.4304712061476,1254
3094.136959372166,1267
3095.843152769349,1267
3097.5490517137237,1301
3099.2546565213966,1258
3100.959967508554,1240
3102.66498499146,1266
3104.3697092864577,1316
3106.0741407099695,1325
3107.778279578498,1310
3109.482126208622,1296
3111.1856809170004,1286
3112.8889440203716,1292
3114.5919158355528,1293
3116.294596679439,1293
3117.996986869006,1319
3119.6990867213062,1285
3121.4008965534726,1272
3123.102416682717,1274
3124.803647426329,1250
3126.5045891016784,1224
3128.205242026213,1305
3129.90560651746,1307
3131.605682893025,1249
3133.3054714705922,1344
3135.0049725679282,1320
3136.7041865028714,1258
3138.4031135933465,1244
3140.101754157353,1272
3141.800108512971,1220
3143.498176978357,1296
3145.1959598717494,1292
3146.8934575114636,1334
3148.5906702158954,1278
3150.2875983035183,1245
3151.9842420928853,1274
3153.680601902627,1351
3155.376678051456,1210
3157.07247085816,1267
3158.767980641609,1227
3160.463207720748,1264
3162.158152414606,1287
3163.8528150422862,1277
3165.5471959229726,1329
3167.2412953759303,1320
3168.9351137204976,1300
3170.628651276098,1285
3172.3219083622307,1301
3174.014885298474,1284
3175.707582404485,1253
3177.4000000000005,1246
3179.092138404835,1309
3180.7839979388846,1264
3182.47557892212,1291
3184.166881674594,1260
3185.8579065164386,1292
3187.5486537678626,1275
3189.2391237491547,1272
3190.9293167806827,1282
3192.6192331828934,1317
3194.3088732763117,1296
3195.998237381542,1248
3197.687325819268,1240
3199.376138910251,1236
3201.064676975334,1288
3202.7529403354347,1241
3204.4409293115523,1276
3206.1286442247647,1281
3207.816085396229,1323
3209.5032531471825,1275
3211.190147798936,1216
3212.8767696728846,1243
3214.5631190905015,1282
3216.2491963733373,1280
3217.9350018430214,1193
3219.6205358212637,1256
3221.305798629851,1312
3222.990790590651,1205
3224.6755120256103,1259
3226.359963256751,1260
3228.0441446061795,1252
3229.7280563960758,1245
3231.411698948703,1215
3233.0950725863995,1278
3234.778177631587,1232
3236.461014406761,1302
3238.1435832345005,1310
3239.8258844374595,1248
3241.507918338374,1265
3243.1896852600576,1264
3244.8711855254023,1250
3246.552419457381,1258
3248.233387379042,1264
3249.914089613516,1267
3251.59452648401,1224
3253.274698313813,1236
3254.95460542629,1211
3256.6342481448855,1199
3258.313626793125,1234
3259.9927416946084,1239
3261.6715931730196,1205
3263.3501815521176,1241
3265.0285071557437,1188
3266.706570307815,1288
3268.3843713323286,1220
3270.0619105533615,1239
3271.739188295068,1246
3273.4162048816834,1258
3275.0929606375184,1302
3276.769455886966,1270
3278.445690954498,1292
3280.1216661646613,1278
3281.797381842087,1305
3283.4728383114807,1290
3285.1480358976296,1305
3286.8229749253996,1270
3288.4976557197333,1274
3290.172078605655,1256
3291.846243908266,1250
3293.5201519527463,1230
3295.193803064357,1236
3296.8671975684374,1272
3298.5403357904024,1219
3300.21321805575,1300
3301.8858446900567,1242
3303.558216018975,1254
3305.23033236824,1279
3306.9021940636603,1216
3308.57380143113,1228
3310.2451547966184,1337
3311.916254486174,1239
3313.5871008259246,1203
3315.2576941420766,1270
3316.9280347609147,1237
3318.5981230088046,1256
3320.2679592121895,1266
3321.9375436975924,1216
3323.606876791612,1229
3325.27595882093,1273
3326.944790112305,1242
3328.6133709925753,1246
3330.2817017886573,1253
3331.949782827547,1241
3333.617614436319,1283
3335.2851969421245,1267
3336.952530672199,1315
3338.619615953853,1238
3340.286453114475,1271
3341.9530424815357,1278
3343.619384382583,1252
3345.2854791452437,1238
3346.951327097224,1281
3348.6169285663073,1230
3350.2822838803577,1222
3351.947393367319,1286
3353.61225735521,1313
3355.2768761721345,1216
3356.9412501462693,1162
3358.605379605873,1204
3360.2692648792827,1258
3361.9329062949146,1238
3363.596304181263,1256
