CollectionTime,9/20/2024 10:40:36 AM
ExposureUsed,3
CalibratedSpectrum
-962.7078968117929,481
-959.9714848408522,521
-957.2358232597828,582
-954.5009119013725,557
-951.7667505983302,594
-949.0333391832855,575
-946.3006774887896,563
-943.5687653473143,573
-940.837602591253,574
-938.1071890529199,577
-935.3775245645503,579
-932.6486089583007,550
-929.9204420662485,534
-927.1930237203925,595
-924.4663537526524,610
-921.7404319948689,596
-919.0152582788041,571
-916.2908324361409,633
-913.5671542984834,547
-910.8442236973568,548
-908.1220404642074,555
-905.4006044304027,589
-902.679915427231,566
-899.959973285902,545
-897.2407778375464,559
-894.5223289132158,564
-891.8046263438832,557
-889.0876699604426,533
-886.3714595937089,554
-883.6559950744183,536
-880.9412762332282,517
-878.2273029007168,514
-875.5140749073835,525
-872.8015920836489,520
-870.0898542598545,510
-867.3788612662631,554
-864.6686129330585,539
-861.9591090903457,560
-859.2503495681506,528
-856.5423341964203,513
-853.8350628050229,573
-851.1285352237478,567
-848.4227512823054,535
-845.7177108103272,534
-843.0134136373656,515
-840.3098595928943,521
-837.6070485063082,550
-834.9049802069229,572
-832.2036545239757,539
-829.5030712866244,573
-826.8032303239481,576
-824.1041314649472,534
-821.4057745385428,546
-818.7081593735775,577
-816.0112857988148,552
-813.3151536429393,526
-810.6197627345566,543
-807.9251129021936,546
-805.2312039742981,539
-802.5380357792392,548
-799.8456081453069,557
-797.1539209007124,579
-794.462973873588,556
-791.772766891987,547
-789.083299783884,592
-786.3945723771743,596
-783.7065844996748,590
-781.0193359791231,550
-778.3328266431781,548
-775.6470563194197,557
-772.9620248353489,576
-770.2777320183878,560
-767.5941776958798,598
-764.9113616950891,588
-762.2292838432011,536
-759.5479439673222,544
-756.8673418944801,550
-754.1874774516235,582
-751.5083504656222,614
-748.8299607632671,584
-746.15230817127,569
-743.475392516264,565
-740.7992136248035,577
-738.1237713233636,578
-735.4490654383407,569
-732.7750957960521,581
-730.1018622227365,547
-727.4293645445534,567
-724.7576025875837,635
-722.0865761778291,607
-719.4162851412126,604
-716.7467293035781,617
-714.0779084906909,591
-711.409822528237,593
-708.7424712418238,583
-706.0758544569796,603
-703.4099719991541,601
-700.7448236937178,592
-698.0804093659622,584
-695.4167288411002,601
-692.7537819442656,572
-690.0915685005134,622
-687.4300883348199,631
-684.7693412720819,624
-682.1093271371178,618
-679.4500457546669,585
-676.7914969493897,571
-674.1336805458676,620
-671.4765963686034,611
-668.8202442420206,626
-666.1646239904642,597
-663.5097354382001,580
-660.8555784094151,587
-658.2021527282176,611
-655.5494582186366,593
-652.8974947046223,609
-650.2462620100463,647
-647.5957599587009,633
-644.9459883742998,661
-642.2969470804776,641
-639.6486359007902,674
-637.0010546587141,703
-634.3542031776476,692
-631.7080812809096,708
-629.0626887917401,661
-626.4180255333008,635
-623.7740913286734,653
-621.1308860008619,696
-618.4884093727904,663
-615.8466612673046,698
-613.2056415071715,677
-610.5653499150785,720
-607.9257863136347,729
-605.28695052537,676
-602.6488423727357,684
-600.0114616781036,723
-597.3748082637674,681
-594.7388819519412,723
-592.1036825647604,728
-589.4692099242818,699
-586.8354638524829,662
-584.2024441712624,745
-581.5701507024403,749
-578.9385832677575,792
-576.3077416888759,729
-573.6776257873787,728
-571.0482353847704,701
-568.4195703024757,697
-565.7916303618415,736
-563.164415384135,772
-560.5379251905453,785
-557.9121596021815,716
-555.2871184400748,687
-552.6628015251767,735
-550.0392086783606,778
-547.4163397204204,837
-544.794194472071,826
-542.1727727539491,799
-539.5520743866118,782
-536.9320991905377,819
-534.3128469861261,929
-531.6943175936979,869
-529.0765108334947,907
-526.4594265256793,987
-523.8430644903358,1244
-521.2274245474689,1389
-518.612506517005,1517
-515.9983102187913,1558
-513.3848354725959,1788
-510.77208209810846,1984
-508.16004991493924,2229
-505.5487387426199,2355
-502.9381484006032,2358
-500.3282787082628,2231
-497.71912948489364,2106
-495.1107005497117,1881
-492.5029917218539,1522
-489.8960028203786,1296
-487.28973366426493,1045
-484.68418407241325,986
-482.07935386364494,955
-479.47524285670266,930
-476.87185087025,972
-474.2691777228715,968
-471.66722323307334,959
-469.0659872192821,962
-466.4654694998459,991
-463.86566989303384,937
-461.26658821703614,909
-458.66822428996414,923
-456.07057792985,987
-453.4736489546475,931
-450.877437182231,892
-448.28194243039627,892
-445.68716451686,869
-443.09310325926003,905
-440.49975847515555,889
-437.9071299820263,940
-435.31521759727354,948
-432.72402113821954,942
-430.13354042210767,870
-427.5437752661022,917
-424.95472548728867,944
-422.36639090267386,950
-419.7787713291855,980
-417.1918665836721,1014
-414.60567648290385,1013
-412.0202008435715,977
-409.4354394822874,1050
-406.8513922155845,1010
-404.26805885991723,1006
-401.685439231661,1036
-399.103533147112,1025
-396.522340422488,1026
-393.9418608739278,964
-391.3620943174908,970
-388.7830405691583,951
-386.2046994448317,929
-383.6270707603344,886
-381.05015433141045,868
-378.473949973725,876
-375.8984575028645,847
-373.32367673433623,795
-370.74960748356875,780
-368.1762495659117,756
-365.60360279663576,717
-363.03166699093265,668
-360.4604419639154,658
-357.8899275306178,637
-355.32012350599507,638
-352.7510297049233,596
-350.1826459421999,630
-347.61497203254316,600
-345.04800779059235,589
-342.4817530309082,578
-339.91620756797226,626
-337.35137121618743,604
-334.7872437898774,636
-332.22382510328725,561
-329.66111497058273,582
-327.09911320585127,640
-324.53781962310075,656
-321.9772340362607,601
-319.4173562591816,601
-316.8581861056348,588
-314.2997233893127,604
-311.7419679238294,611
-309.1849195227194,640
-306.62857799943856,731
-304.0729431673641,650
-301.51801483979375,708
-298.963792829947,664
-296.41027695096386,633
-293.85746701590574,663
-291.3053628377552,713
-288.7539642294155,681
-286.2032710037115,728
-283.65328297338897,710
-281.1039999511146,764
-278.5554217494762,839
-276.007548180983,905
-273.4603790580651,782
-270.9139141930734,750
-268.3681533982807,810
-265.8230964858798,857
-263.27874326798565,952
-260.7350935566336,880
-258.1921471637804,822
-255.6499039013039,985
-253.10836358100266,963
-250.56752601459698,808
-248.02739101372765,893
-245.48795838995704,961
-242.94922795476816,1021
-240.41119951956557,1008
-237.8738728956746,960
-235.33724789434166,1006
-232.80132432673452,969
-230.2661020039418,899
-227.73158073697357,954
-225.19776033676033,995
-222.66464061415422,1114
-220.1322213799284,975
-217.60050244477725,962
-215.06948361931552,1090
-212.53916471408013,1142
-210.00954553952818,1040
-207.48062590603843,974
-204.9524056239104,1024
-202.4248845033651,1148
-199.8980623545441,1180
-197.37193898751036,1311
-194.84651421224817,1235
-192.32178783866232,1158
-189.79775967657952,1200
-187.27442953574644,1288
-184.7517972258321,1330
-182.2298625564256,1066
-179.7086253370378,1017
-177.18808537710026,1062
-174.66824248596583,1376
-172.14909647290835,1478
-169.6306471471229,1479
-167.11289431772548,1416
-164.59583779375328,1435
-162.07947738416453,1594
-159.5638128978386,1841
-157.04884414357605,1934
-154.53457093009854,1773
-152.02099306604828,1586
-149.50811035998936,1663
-146.99592262040665,1875
-144.48442965570587,2007
-141.97363127421409,1889
-139.46352728417958,2026
-136.95411749377126,1907
-134.44540171107985,1828
-131.93737974411636,1621
-129.43005140081357,1444
-126.92341648902493,1722
-124.41747481652521,2248
-121.91222619101006,2614
-119.40767042009657,2774
-116.90380731132257,2981
-114.40063667214702,3762
-111.8981583099503,5436
-109.3963720320337,7872
-106.89527764561933,9200
-104.39487495785067,10143
-101.89516377579241,13124
-99.39614390642998,20438
-96.89781515667039,27585
-94.40017733334128,29395
-91.90323024319173,28196
-89.40697369289148,22059
-86.91140748903172,13055
-84.41653143812482,10137
-81.92234534660395,11830
-79.42884902082358,15739
-76.93604226705907,19339
-74.4439248915071,20939
-71.95249670028534,20094
-69.46175749943245,15634
-66.97170709490854,11946
-64.48234529259423,10582
-61.99367189829195,13562
-59.50568671772464,14513
-57.01838955653636,16731
-54.53178022029283,20684
-52.045858514480074,24986
-49.560624244506016,28461
-47.07607721569923,28051
-44.59221723330904,29015
-42.10904410250669,28974
-39.62655762838392,24109
-37.14475761595372,21135
-34.66364387015028,22684
-32.18321619582866,27560
-29.70347439776515,29372
-27.224418280657005,31304
-24.74604764912317,42889
-22.26836230770266,65032
-19.7913620608565,65032
-17.315046712966478,65032
-14.83941606833514,65032
-12.36446993118659,65032
-9.89020810566592,65032
-7.416630395839093,65032
-4.94373660569363,65032
-2.471526539137585,65032
-6.821210263296962E-13,65032
2.47084320796705,65032
4.941003281093458,65032
7.410480415786196,65032
9.879274808531363,65032
12.347386655893956,65032
14.814816154518212,65032
17.28156350112681,65032
19.74762889252179,65032
22.21301252558385,26104
24.67771459727237,8403
27.141735304626195,7615
29.605074844762612,6535
32.06773341487792,6055
34.52971121224755,5907
36.99100843422559,5004
39.45162527824516,4507
41.91156194181792,4515
44.370818622535126,4239
46.82939551806646,4533
49.287292826160524,6237
51.74451074464503,4796
54.201049471426245,3856
56.65690920448981,3084
59.112090141899785,2652
61.56659248179983,3760
64.02041642241159,3717
66.4735621620365,3597
68.92602989905402,3989
71.37781983192338,4010
73.82893215918205,3215
76.27936707944684,2615
78.72912479141326,2661
81.17820549385567,2309
83.62660938562783,2155
86.07433666566146,2026
88.5213875329681,2246
90.96776218663751,2317
93.41346082583925,2535
95.85848364982041,2649
98.30283085790859,2326
100.7465026495089,2376
103.18949922410604,1817
105.63182078126385,1733
108.07346752062438,2038
110.51443964190923,1936
112.95473734491827,2006
115.39436082953114,1998
117.83331029570547,1849
120.27158594347827,1859
122.7091879729652,1924
125.1461165843615,1869
127.58237197794062,2038
130.01795435405518,1857
132.4528639131364,1688
134.88710085569494,1605
137.32066538231982,2081
139.75355769367923,1848
142.1857779905207,1589
144.61732647366978,1472
147.04820334403132,1379
149.47840880258934,1430
151.90794305040674,1568
154.33680628862487,1582
156.76499871846443,1884
159.19252054122433,1841
161.61937195828352,1857
164.04555317109896,1988
166.47106438120693,2049
168.89590579022217,2068
171.320077599839,2116
173.7435800118302,2439
176.16641322804742,2683
178.58857745042144,2520
181.01007288096173,2379
183.43089972175687,2380
185.85105817497413,2395
188.27054844285988,2349
190.6893707277394,2421
193.10752523201643,2578
195.5250121581745,2604
197.9418317087751,2568
200.3579840864594,2642
202.7734694939469,2815
205.18828813403627,2781
207.6024402096051,2772
210.01592592360964,2735
212.42874547908548,2763
214.84089907914665,2638
217.2523869269868,2659
219.66320922587727,2648
222.0733661791695,2596
224.48285799029293,2668
226.8916848627572,2764
229.29984700014882,2842
231.7073446061355,2755
234.11417788446204,2714
236.520347038953,2764
238.92585227351185,2943
241.33069379212054,2793
243.73487179884035,2688
246.1383864978112,2743
248.541238093252,2700
250.9434267894609,2818
253.34495279081432,2605
255.74581630176783,2668
258.1460175268563,2634
260.54555667069314,2646
262.9444339379703,2650
265.3426495334594,2753
267.7402036620107,2795
270.1370965285529,2768
272.53332833809407,2881
274.9288992957214,2688
277.32380960660055,2633
279.718059475976,2637
282.1116491091717,2584
284.5045787115897,2816
286.89684848871195,2711
289.2884586460981,2710
291.67940938938807,2823
294.0697009242996,2844
296.4593334566299,2715
298.84830719225477,2750
301.23662233712923,2697
303.6242790972866,2679
306.01127767884,2666
308.39761828798066,2612
310.78330113097934,2668
313.16832641418534,2614
315.5526943440269,2528
317.9364051270112,2570
320.3194589697242,2566
322.70185607883093,2482
325.0835966610754,2366
327.4646809232805,2464
329.8451090723478,2501
332.2248813152577,2435
334.6039978590701,2417
336.9824589109231,2332
339.36026467803447,2363
341.7374153677,2276
344.113911187295,2329
346.48975234427337,2277
348.8649390461686,2323
351.2394715005918,2305
353.61334991523415,2230
355.9865744978655,2255
358.35914545633375,2394
360.73106299856715,2343
363.10232733257146,2322
365.47293866643247,2240
367.84289720831396,2180
370.2122031664593,2157
372.5808567491905,2156
374.9488581649083,2189
377.31620762209275,2147
379.6829053293021,2202
382.0489514951745,2068
384.4143463284262,2101
386.7790900378528,2080
389.14318283232853,2089
391.50662492080653,2185
393.86941651231916,2124
396.23155781597745,2121
398.5930490409713,2183
400.9538903965696,2035
403.3140820921202,2092
405.6736243370498,2081
408.03251734086336,2033
410.3907613131465,2114
412.74835646356166,2148
415.10530300185144,2108
417.4616011378372,2029
419.81725108141893,2036
422.1722530425758,2096
424.5266072313656,2054
426.880313857925,2005
429.2333731324701,2001
431.58578526529516,2014
433.9375504667738,1982
436.2886689473588,1959
438.63914091758113,1998
440.9889665880513,1996
443.33814616945835,1957
445.68667987257015,1910
448.03456790823395,1957
450.3818104873759,1914
452.72840782100013,2041
455.07436012019105,2003
457.41966759611057,1913
459.7643304600007,1946
462.10834892318155,1874
464.4517231970525,1973
466.79445349309174,2014
469.1365400228566,2043
471.4779829979826,1993
473.81878263018564,2057
476.15893913125876,2051
478.4984527130747,2077
480.8373235875855,2179
483.17555196682144,2232
485.5131380628919,2295
487.8500820879857,2424
490.1863842543697,2623
492.52204477439034,2688
494.8570638604725,3088
497.1914417251204,3700
499.52517858091653,4345
501.85827464052306,4904
504.19073011668036,5204
506.5225452222086,5278
508.85372017000566,5486
511.18425517304956,5488
513.514150444396,5867
515.8434061971808,6757
518.1720226446176,7047
520.4999999999999,6889
522.8273384766991,6395
525.1540382881666,6131
527.480099647932,5084
529.8055227696037,3890
532.1303078668694,2966
534.454455153496,2520
536.777964843328,2283
539.1008371502907,2249
541.4230722883866,2197
543.744670471698,2121
546.0656319143858,2087
548.3859568306899,2079
550.7056454349294,2154
553.0246979415016,2041
555.3431145648834,1998
557.6608955196306,2024
559.978041020377,1990
562.2945512818363,2064
564.6104265188006,2077
566.9256669461412,2051
569.2402727788082,2013
571.5542442318302,2006
573.8675815203156,2009
576.1802848594508,2045
578.4923544645015,2069
580.8037905508126,2096
583.114593333807,2071
585.4247630289875,1999
587.7342998519354,2081
590.0432040183106,2036
592.3514757438526,2126
594.6591152443794,2145
596.9661227357875,2062
599.2724984340531,2018
601.578242555231,2051
603.8833553154542,1973
606.1878369309362,2010
608.4916876179676,1974
610.7949075929192,1969
613.0974970722403,2059
615.3994562724587,1999
617.7007854101818,1991
620.0014847020951,2049
622.3015543649641,2045
624.6009946156324,1953
626.8998056710224,1955
629.1979877481361,1992
631.4955410640538,1988
633.7924658359349,1986
636.0887622810175,2059
638.3844306166192,2000
640.6794710601358,2078
642.9738838290426,2116
645.2676691408932,2037
647.5608272133207,1995
649.853358264037,1983
652.1452625108324,2053
654.4365401715764,2190
656.7271914642178,2157
659.0172166067838,2029
661.3066158173809,2066
663.5953893141935,2004
665.8835373154867,2030
668.1710600396028,2064
670.4579577049639,2026
672.7442305300709,2076
675.0298787335033,2132
677.3149025339197,2093
679.599302150058,1975
681.8830778007342,2033
684.1662297048437,2015
686.4487580813608,2109
688.7306631493387,2059
691.0119451279091,2100
693.2926042362834,2056
695.5726406937516,2058
697.8520547196814,1990
700.1308465335215,1997
702.4090163547982,1946
704.6865644031171,2033
706.9634908981619,2034
709.2397960596965,2033
711.5154801075631,2067
713.7905432616823,1998
716.0649857420548,2064
718.3388077687592,2088
720.612009561953,2097
722.8845913418733,2009
725.1565533288352,1948
727.427895743234,2042
729.6986188055427,2093
731.9687227363137,1977
734.238207756178,2028
736.5070740858458,2018
738.7753219461066,1991
741.0429515578281,1961
743.3099631419569,2055
745.5763569195191,2028
747.8421331116193,2030
750.1072919394409,2006
752.3718336242467,2088
754.6357583873777,2054
756.8990664502545,2049
759.1617580343765,2085
761.423833361321,2042
763.6852926527457,2162
765.9461361303862,2108
768.206364016058,2061
770.4659765316536,2054
772.7249738991469,2104
774.9833563405886,2111
777.2411240781092,2070
779.4982773339183,2019
781.7548163303044,2078
784.010741289634,2134
786.2660524343538,2207
788.5207499869881,2113
790.7748341701416,2165
793.0283052064964,2046
795.2811633188143,2092
797.5334087299362,2056
799.7850416627813,2077
802.0360623403484,2064
804.2864709857143,2158
806.5362678220353,2152
808.7854530725468,2192
811.0340269605625,2152
813.2819897094754,2082
815.5293415427581,2142
817.77608268396,2154
820.0222133567116,2059
822.2677337847211,2138
824.5126441917765,2096
826.7569448017433,2040
829.0006358385675,2051
831.2437175262731,2061
833.4861900889629,2052
835.7280537508192,2098
837.9693087361026,2057
840.2099552691533,2027
842.4499935743896,2126
844.689423876309,2087
846.9282463994886,2108
849.1664613685833,2095
851.4040690083276,2060
853.6410695435349,2119
855.877463199097,2061
858.1132501999847,2160
860.3484307712487,2174
862.5830051380175,2075
864.8169735254988,2055
867.0503361589791,2071
869.2830932638243,2154
871.5152450654786,2179
873.7467917894654,2128
875.9777336613873,2051
878.2080709069252,2120
880.4378037518389,2118
882.666932421968,2156
884.8954571432301,2163
887.1233781416219,2190
889.3506956432192,2081
891.5774098741766,2187
893.803521060728,2119
896.0290294291852,2201
898.2539352059397,2081
900.4782386174619,2164
902.7019398903011,2199
904.925039251085,2215
907.147536926521,2202
909.3694331433943,2244
911.59072812857,2172
913.8114221089921,2135
916.0315153116827,2195
918.2510079637437,2190
920.4699002923547,2151
922.6881925247761,2134
924.905884888345,2124
927.1229776104793,2059
929.3394709186747,2076
931.555365040506,2075
933.7706602036275,2091
935.9853566357709,2120
938.1994545647489,2229
940.4129542184515,2175
942.6258558248488,2147
944.8381596119883,2096
947.0498658079974,2165
949.2609746410825,2096
951.4714863395287,2152
953.6814011316998,2175
955.8907192460387,2143
958.0994409110671,2120
960.3075663553858,2128
962.5150958076741,2113
964.7220294966913,2101
966.928367651274,2016
969.1341105003388,1972
971.3392582728806,2043
973.5438111979742,2033
975.747769504772,1996
977.9511334225061,1957
980.153903180487,1959
982.3560790081052,1909
984.5576611348289,1952
986.7586497902058,1949
988.9590452038618,1960
991.158847605503,1933
993.3580572249133,1879
995.5566742919558,1804
997.7546990365728,1801
999.952131688785,1822
1002.1489724786926,1738
1004.3452216364743,1746
1006.5408793923874,1679
1008.7359459767691,1655
1010.9304216200343,1679
1013.1243065526781,1704
1015.3176010052733,1745
1017.510305208472,1716
1019.7024193930064,1685
1021.8939437896848,1691
1024.0848786293977,1608
1026.2752241431122,1645
1028.4649805618747,1685
1030.6541481168115,1588
1032.842727039127,1609
1035.0307175601051,1588
1037.2181199111074,1658
1039.4049343235752,1604
1041.591161029029,1566
1043.7768002590683,1569
1045.9618522453698,1583
1048.1463172196918,1554
1050.3301954138697,1530
1052.513487059818,1598
1054.69619238953,1563
1056.8783116350783,1526
1059.0598450286152,1567
1061.2407928023704,1533
1063.4211551886528,1601
1065.6009324198508,1545
1067.780124728432,1538
1069.9587323469414,1570
1072.1367555080046,1508
1074.314194444325,1545
1076.4910493886855,1549
1078.667320573947,1540
1080.843008233051,1519
1083.0181125990161,1444
1085.1926339049414,1484
1087.3665723840027,1502
1089.5399282694575,1464
1091.7127017946405,1472
1093.8848931929647,1486
1096.0565026979243,1467
1098.2275305430899,1502
1100.3979769621128,1486
1102.567842188722,1468
1104.737126456726,1421
1106.9058300000124,1483
1109.0739530525475,1499
1111.2414958483764,1450
1113.4084586216231,1410
1115.5748416064907,1399
1117.7406450372605,1496
1119.9058691482942,1471
1122.0705141740304,1495
1124.2345803489884,1440
1126.3980679077658,1510
1128.5609770850388,1492
1130.7233081155623,1415
1132.8850612341707,1400
1135.0462366757774,1373
1137.2068346753745,1463
1139.3668554680326,1434
1141.526299288901,1394
1143.68516637321,1471
1145.8434569562655,1381
1148.001171273455,1399
1150.158309560244,1401
1152.3148720521767,1384
1154.470858984876,1421
1156.626270594044,1359
1158.7811071154629,1433
1160.9353687849912,1382
1163.089055838569,1414
1165.242168512213,1423
1167.3947070420209,1428
1169.5466716641677,1403
1171.6980626149075,1360
1173.8488801305748,1367
1175.9991244475814,1444
1178.1487958024186,1391
1180.2978944316555,1330
1182.4464205719428,1370
1184.5943744600072,1366
1186.7417563326567,1375
1188.8885664267755,1399
1191.0348049793297,1406
1193.1804722273619,1402
1195.325568407995,1327
1197.4700937584303,1352
1199.614048515948,1338
1201.7574329179074,1427
1203.900247201746,1379
1206.042491604982,1374
1208.1841663652099,1404
1210.3252717201053,1327
1212.465807907422,1427
1214.6057751649923,1363
1216.7451737307279,1406
1218.8840038426192,1367
1221.0222657387353,1321
1223.1599596572241,1336
1225.2970858363137,1341
1227.4336445143094,1387
1229.5696359295966,1385
1231.705060320639,1350
1233.8399179259786,1420
1235.9742089842384,1362
1238.107933734118,1415
1240.2410924143974,1385
1242.373685263935,1344
1244.5057125216676,1328
1246.6371744266116,1373
1248.7680712178621,1391
1250.898403134593,1361
1253.028170416058,1383
1255.1573733015875,1389
1257.2860120305932,1327
1259.4140868425648,1392
1261.54159797707,1397
1263.6685456737569,1385
1265.7949301723515,1399
1267.9207517126597,1326
1270.046010534565,1420
1272.1707068780306,1356
1274.2948409830983,1392
1276.4184130898889,1398
1278.541423438603,1417
1280.6638722695184,1395
1282.785759822993,1402
1284.9070863394636,1399
1287.0278520594447,1348
1289.1480572235314,1442
1291.2677020723963,1421
1293.3867868467923,1411
1295.5053117875495,1396
1297.623277135579,1375
1299.740683131868,1354
1301.8575300174857,1367
1303.973818033578,1351
1306.0895474213703,1377
1308.2047184221678,1362
1310.3193312773528,1424
1312.4333862283888,1393
1314.5468835168163,1329
1316.659823384255,1369
1318.7722060724045,1329
1320.8840318230418,1388
1322.9953008780249,1331
1325.1060134792888,1353
1327.2161698688478,1362
1329.3257702887959,1370
1331.4348149813054,1413
1333.5433041886276,1354
1335.6512381530933,1377
1337.7586171171101,1364
1339.8654413231675,1315
1341.9717110138317,1385
1344.0774264317488,1428
1346.1825878196432,1355
1348.2871954203192,1332
1350.3912494766587,1468
1352.4947502316231,1422
1354.5976979282532,1401
1356.7000928096686,1386
1358.8019351190665,1389
1360.9032250997243,1377
1363.0039629949988,1380
1365.1041490483235,1431
1367.2037835032133,1362
1369.3028666032606,1443
1371.401398592137,1330
1373.4993797135926,1438
1375.5968102114575,1417
1377.6936903296396,1388
1379.7900203121262,1421
1381.8858004029835,1397
1383.9810308463561,1405
1386.075711886469,1412
1388.1698437676241,1411
1390.2634267342032,1413
1392.356461030667,1381
1394.4489469015557,1449
1396.5408845914872,1434
1398.6322743451592,1445
1400.7231164073469,1407
1402.813411022907,1381
1404.903158436773,1395
1406.9923588939578,1435
1409.0810126395531,1398
1411.1691199187303,1420
1413.2566809767386,1460
1415.343696058907,1435
1417.4301654106425,1395
1419.5160892774315,1437
1421.6014679048399,1394
1423.6863015385125,1379
1425.7705904241707,1390
1427.8543348076178,1440
1429.9375349347342,1467
1432.0201910514802,1485
1434.102303403894,1372
1436.1838722380944,1391
1438.2648978002767,1497
1440.3453803367174,1457
1442.4253200937692,1460
1444.5047173178677,1469
1446.5835722555234,1438
1448.6618851533285,1420
1450.739656257952,1416
1452.8168858161434,1421
1454.8935740747306,1431
1456.96972128062,1416
1459.045327680797,1379
1461.120393522327,1383
1463.1949190523528,1482
1465.2689045180973,1496
1467.3423501668608,1432
1469.415256246024,1463
1471.4876230030463,1396
1473.559450685465,1480
1475.6307395408976,1507
1477.7014898170391,1396
1479.771701761665,1392
1481.8413756226287,1408
1483.9105116478618,1450
1485.9791100853772,1403
1488.0471711832643,1383
1490.1146951896926,1398
1492.1816823529098,1431
1494.2481329212433,1458
1496.3140471430984,1409
1498.3794252669609,1467
1500.4442675413939,1424
1502.5085742150404,1389
1504.572345536622,1439
1506.6355817549388,1397
1508.6982831188702,1424
1510.7604498773744,1465
1512.8220822794883,1459
1514.8831805743293,1427
1516.9437450110909,1428
1519.003775839048,1434
1521.0632733075522,1433
1523.1222376660367,1453
1525.1806691640113,1405
1527.2385680510652,1467
1529.2959345768668,1432
1531.3527689911643,1447
1533.4090715437833,1451
1535.4648424846291,1434
1537.5200820636855,1411
1539.5747905310159,1438
1541.6289681367616,1410
1543.6826151311434,1421
1545.7357317644614,1451
1547.7883182870937,1389
1549.8403749494987,1477
1551.8919020022113,1446
1553.9428996958477,1459
1555.9933682811015,1470
1558.0433080087469,1472
1560.0927191296346,1431
1562.1416018946961,1438
1564.1899565549415,1441
1566.2377833614592,1440
1568.2850825654164,1457
1570.3318544180606,1363
1572.3780991707158,1394
1574.423817074788,1457
1576.4690083817595,1424
1578.5136733431923,1472
1580.5578122107272,1382
1582.601425236085,1425
1584.6445126710646,1463
1586.6870747675434,1331
1588.7291117774776,1366
1590.7706239529034,1390
1592.8116115459347,1426
1594.8520748087658,1448
1596.8920139936686,1371
1598.9314293529933,1420
1600.9703211391711,1395
1603.008689604711,1540
1605.0465350022005,1465
1607.0838575843068,1417
1609.1206576037753,1395
1611.1569353134305,1443
1613.1926909661765,1401
1615.2279248149953,1425
1617.2626371129481,1429
1619.2968281131757,1392
1621.3304980688963,1452
1623.3636472334088,1462
1625.39627586009,1371
1627.428384202396,1450
1629.459972513861,1433
1631.4910410480993,1438
1633.5215900588028,1408
1635.551619799744,1404
1637.5811305247717,1397
1639.6101224878166,1417
1641.6385959428862,1440
1643.6665511440683,1361
1645.693988345528,1394
1647.7209078015112,1387
1649.7473097663405,1402
1651.7731944944203,1409
1653.7985622402307,1364
1655.823413258333,1421
1657.847747803366,1462
1659.8715661300494,1412
1661.8948684931793,1422
1663.9176551476316,1437
1665.9399263483624,1376
1667.9616823504057,1411
1669.982923408873,1365
1672.0036497789574,1372
1674.0238617159293,1366
1676.043559475138,1370
1678.0627433120121,1405
1680.081413482059,1337
1682.0995702408654,1407
1684.117213844096,1441
1686.134344547495,1345
1688.1509626068864,1399
1690.1670682781705,1370
1692.182661817329,1344
1694.1977434804217,1387
1696.2123135235875,1460
1698.226372203043,1428
1700.2399197750851,1431
1702.2529564960905,1412
1704.2654826225112,1391
1706.277498410882,1340
1708.2890041178139,1451
1710.2999999999988,1411
1712.3104863142066,1425
1714.3204633172854,1413
1716.329931266163,1394
1718.3388904178469,1368
1720.3473410294214,1421
1722.3552833580516,1455
1724.3627176609807,1427
1726.3696441955308,1418
1728.3760632191033,1442
1730.3819749891782,1413
1732.3873797633146,1378
1734.3922777991502,1425
1736.3966693544012,1367
1738.4005546868639,1412
1740.4039340544127,1382
1742.406807715001,1404
1744.4091759266616,1386
1746.4110389475054,1424
1748.4123970357223,1413
1750.413250449582,1359
1752.4135994474318,1480
1754.4134442876993,1441
1756.4127852288902,1439
1758.4116225295893,1414
1760.4099564484595,1348
1762.407787244244,1380
1764.405115175764,1429
1766.4019405019203,1392
1768.3982634816916,1416
1770.3940843741357,1416
1772.3894034383907,1432
1774.3842209336717,1396
1776.378537119274,1388
1778.372352254571,1411
1780.3656665990156,1414
1782.3584804121397,1413
1784.3507939535534,1446
1786.3426074829463,1495
1788.3339212600863,1463
1790.3247355448211,1474
1792.3150505970766,1468
1794.3048666768573,1440
1796.2941840442477,1457
1798.2830029594106,1440
1800.2713236825884,1436
1802.2591464741004,1439
1804.2464715943465,1438
1806.2332993038058,1415
1808.2196298630352,1455
1810.2054635326708,1465
1812.190800573428,1439
1814.175641246101,1442
1816.1599858115628,1451
1818.1438345307652,1435
1820.127187664738,1423
1822.1100454745924,1468
1824.092408221516,1420
1826.0742761667766,1381
1828.055649571721,1405
1830.0365286977735,1430
1832.0169138064398,1437
1833.9968051593014,1471
1835.9762030180214,1503
1837.9551076443408,1458
1839.9335193000788,1394
1841.9114382471344,1479
1843.888864747485,1410
1845.8657990631878,1426
1847.842241456378,1413
1849.8181921892697,1380
1851.7936515241558,1473
1853.7686197234098,1419
1855.7430970494815,1505
1857.7170837649014,1432
1859.6905801322787,1406
1861.6635864143004,1380
1863.6361028737338,1437
1865.608129773424,1451
1867.5796673762961,1479
1869.5507159453537,1422
1871.521275743678,1408
1873.4913470344313,1531
1875.4609300808534,1505
1877.4300251462632,1422
1879.3986324940588,1429
1881.366752387717,1479
1883.3343850907936,1440
1885.3015308669228,1465
1887.268189979819,1444
1889.2343626932739,1450
1891.2000492711595,1436
1893.1652499774254,1432
1895.1299650761011,1457
1897.0941948312952,1428
1899.0579395071945,1437
1901.0211993680641,1429
1902.98397467825,1422
1904.9462657021745,1435
1906.9080727043415,1416
1908.869395949332,1501
1910.8302357018065,1451
1912.790592226504,1413
1914.7504657882428,1461
1916.7098566519212,1480
1918.6687650825133,1441
1920.6271913450764,1411
1922.5851357047422,1406
1924.5425984267245,1429
1926.499579776314,1475
1928.4560800188833,1403
1930.4120994198802,1423
1932.367638244833,1461
1934.32269675935,1469
1936.2772752291175,1448
1938.231373919899,1481
1940.1849930975404,1481
1942.1381330279637,1455
1944.0907939771696,1436
1946.0429762112412,1396
1947.9946799963363,1393
1949.9459055986945,1419
1951.896653284633,1431
1953.8469233205478,1449
1955.7967159729142,1422
1957.7460315082863,1479
1959.6948701932974,1421
1961.6432322946594,1417
1963.5911180791632,1461
1965.5385278136787,1421
1967.4854617651545,1460
1969.4319202006182,1379
1971.377903387176,1434
1973.3234115920136,1457
1975.268445082395,1443
1977.2130041256642,1424
1979.1570889892423,1475
1981.1006999406304,1363
1983.04383724741,1405
1984.986501177238,1449
1986.928691997853,1419
1988.8704099770712,1424
1990.811655382789,1440
1992.7524284829801,1439
1994.692729545698,1420
1996.6325588390755,1506
1998.5719166313224,1387
2000.5108031907307,1461
2002.4492187856677,1405
2004.387163684583,1409
2006.3246381560011,1449
2008.2616424685298,1458
2010.1981768908527,1397
2012.1342416917332,1427
2014.069837140014,1437
2016.0049635046162,1430
2017.9396210545406,1465
2019.8738100588666,1467
2021.8075307867502,1423
2023.740783507431,1442
2025.6735684902228,1444
2027.6058860045214,1429
2029.5377363198004,1473
2031.4691197056118,1443
2033.4000364315875,1451
2035.3304867674374,1395
2037.260470982952,1476
2039.189989347998,1413
2041.1190421325232,1452
2043.047629606554,1400
2044.9757520401945,1457
2046.9034097036288,1409
2048.8306028671195,1388
2050.7573318010086,1487
2052.683596775716,1416
2054.609398061742,1459
2056.5347359296647,1468
2058.4596106501403,1440
2060.384022493906,1421
2062.3079717317764,1429
2064.231458634646,1478
2066.1544834734873,1425
2068.077046519352,1436
2069.99914804337,1407
2071.9207883167524,1399
2073.8419676107865,1398
2075.7626861968406,1484
2077.6829443463607,1444
2079.6027423308715,1449
2081.522080421977,1433
2083.440958891362,1419
2085.359378010786,1426
2087.2773380520907,1454
2089.194839287196,1453
2091.111881988101,1452
2093.0284664268825,1428
2094.9445928756973,1401
2096.86026160678,1415
2098.775472892446,1502
2100.690227005088,1460
2102.604524217178,1495
2104.5183648012676,1456
2106.431749029985,1469
2108.34467717604,1442
2110.2571495122206,1426
2112.169166311393,1395
2114.080727846503,1490
2115.9918343905747,1413
2117.902486216711,1509
2119.8126835980956,1463
2121.722426807987,1503
2123.6317161197285,1447
2125.5405518067364,1505
2127.448934142509,1550
2129.356863400624,1464
2131.264339854737,1502
2133.1713637785815,1487
2135.077935445972,1497
2136.9840551308002,1514
2138.889723107037,1499
2140.7949396487334,1536
2142.699705030018,1458
2144.6040195250994,1520
2146.507883408264,1477
2148.4112969538774,1498
2150.3142604363848,1528
2152.2167741303097,1503
2154.1188383102535,1541
2156.0204532508997,1549
2157.9216192270064,1531
2159.822336513414,1492
2161.7226053850413,1510
2163.622426116884,1471
2165.5217989840185,1486
2167.4207242616,1520
2169.319202224862,1512
2171.2172331491165,1501
2173.1148173097563,1585
2175.0119549822507,1540
2176.90864644215,1498
2178.8048919650823,1538
2180.7006918267534,1535
2182.596046302952,1539
2184.4909556695407,1516
2186.3854202024645,1567
2188.279440177746,1531
2190.173015871487,1537
2192.066147559868,1479
2193.958835519149,1589
2195.851080025667,1564
2197.7428813558417,1545
2199.6342397861667,1515
2201.5251555932186,1509
2203.415629053651,1524
2205.3056604441986,1656
2207.19525004167,1550
2209.084398122958,1610
2210.9731049650327,1596
2212.861370844941,1584
2214.749196039812,1566
2216.636580826851,1619
2218.523525483344,1644
2220.410030286655,1615
2222.296095514226,1612
2224.1817214435805,1563
2226.066908352319,1653
2227.951656518121,1584
2229.835966218746,1593
2231.71983773203,1569
2233.6032713358913,1555
2235.486267308324,1533
2237.3688259274036,1608
2239.2509474712824,1540
2241.132632218193,1575
2243.013880446447,1572
2244.8946924344323,1646
2246.7750684606203,1563
2248.6550088035574,1585
2250.534513741871,1620
2252.413583554265,1594
2254.292218519526,1592
2256.170418916517,1553
2258.0481850241786,1613
2259.925517121534,1504
2261.8024154876825,1556
2263.678880401803,1573
2265.5549121431536,1634
2267.430510991071,1547
2269.305677224971,1504
2271.180411124348,1547
2273.0547129687766,1488
2274.9285830379076,1554
2276.8020216114737,1568
2278.6750289692845,1544
2280.5476053912294,1576
2282.4197511572766,1553
2284.2914665474727,1585
2286.162751841943,1576
2288.0336073208937,1578
2289.904033264608,1585
2291.774029953448,1564
2293.6435976678554,1546
2295.5127366883517,1544
2297.381447295534,1518
2299.2497297700825,1399
2301.1175843927526,1396
2302.9850114443825,1401
2304.852011205885,1340
2306.7185839582553,1348
2308.5847299825664,1313
2310.4504495599676,1315
2312.3157429716925,1325
2314.1806104990483,1332
2316.0450524234247,1307
2317.9090690262888,1333
2319.772660589186,1282
2321.635827393742,1319
2323.498569721661,1255
2325.3608878547248,1275
2327.2227820747967,1306
2329.0842526638157,1252
2330.945299903803,1266
2332.805924076857,1310
2334.6661254651535,1261
2336.525904350951,1284
2338.3852610165827,1292
2340.244195744464,1267
2342.102708817088,1343
2343.9608005170253,1238
2345.8184711269287,1268
2347.675720929526,1272
2349.532550207628,1269
2351.38895924412,1249
2353.24494832197,1259
2355.100517724223,1234
2356.955667734004,1268
2358.810398634514,1278
2360.664710709037,1275
2362.5186042409337,1278
2364.3720795136437,1273
2366.225136810686,1245
2368.0777764156583,1292
2369.929998612237,1271
2371.7818036841777,1266
2373.633191915315,1296
2375.484163589562,1323
2377.3347189909114,1235
2379.184858403434,1321
2381.03458211128,1282
2382.8838903986775,1222
2384.732783549936,1266
2386.5812618494406,1268
2388.4293255816588,1256
2390.2769750311327,1306
2392.1242104824883,1258
2393.971032220427,1256
2395.8174405297295,1258
2397.6634356952563,1296
2399.509018001947,1306
2401.3541877348193,1328
2403.1989451789705,1269
2405.043290619576,1297
2406.8872243418905,1252
2408.730746631247,1225
2410.5738577730594,1303
2412.4165580528183,1241
2414.258847756095,1283
2416.100727168537,1287
2417.9421965758734,1295
2419.783256263912,1271
2421.623906518538,1286
2423.4641476257157,1220
2425.303979871491,1254
2427.143403541984,1245
2428.9824189233977,1257
2430.821026302012,1258
2432.6592259641866,1269
2434.497018196361,1321
2436.33440328505,1301
2438.171381516851,1307
2440.00795317844,1274
2441.844118556569,1262
2443.6798779380724,1255
2445.5152316098606,1278
2447.3501798589255,1249
2449.1847229723357,1267
2451.0188612372403,1286
2452.8525949408663,1324
2454.6859243705203,1296
2456.518849813587,1286
2458.3513715575314,1305
2460.183489889895,1262
2462.015205098301,1288
2463.8465174704493,1292
2465.67742729412,1285
2467.5079348571717,1270
2469.338040447542,1278
2471.1677443532476,1297
2472.9970468623833,1290
2474.825948263123,1270
2476.6544488437207,1286
2478.482548892508,1270
2480.310248697896,1241
2482.137548548374,1255
2483.9644487325118,1240
2485.790949538956,1287
2487.617051256433,1248
2489.44275417375,1269
2491.26805857979,1231
2493.0929647635157,1316
2494.917473013971,1275
2496.741583620276,1268
2498.5652968716304,1335
2500.3886130573137,1280
2502.2115324666834,1277
2504.0340553891765,1268
2505.856182114308,1250
2507.6779129316733,1245
2509.499248130945,1285
2511.3201880018764,1289
2513.140732834298,1260
2514.9608829181198,1243
2516.780638543331,1279
2518.6,1259
2520.418967578273,1271
2522.237541568376,1288
2524.0557222606144,1234
2525.8735099453706,1277
2527.6909049131086,1233
2529.507907454368,1320
2531.32451785977,1269
2533.140736420014,1304
2534.9565634258774,1258
2536.771999168218,1287
2538.5870439379714,1285
2540.4016980261526,1262
2542.2159617238544,1245
2544.02983532225,1286
2545.8433191125914,1246
2547.656413386209,1273
2549.4691184345115,1234
2551.2814345489874,1289
2553.093362021204,1260
2554.904901142808,1286
2556.716052205523,1251
2558.526815501153,1269
2560.3371913215824,1272
2562.147179958771,1236
2563.956781704761,1291
2565.7659968516705,1234
2567.5748256916986,1240
2569.3832685171224,1261
2571.1913256202984,1250
2572.9989972936614,1227
2574.806283829725,1226
2576.613185521084,1200
2578.4197026604074,1243
2580.2258355404483,1291
2582.031584454035,1290
2583.836949694077,1228
2585.6419315535613,1305
2587.4465303255533,1246
2589.2507463032002,1276
2591.0545797797245,1240
2592.8580310484303,1314
2594.6611004026995,1272
2596.463788135992,1245
2598.266094541849,1233
2600.0680199138874,1252
2601.869564545807,1260
2603.670728731383,1306
2605.4715127644704,1288
2607.2719169390048,1257
2609.071941548998,1250
2610.8715868885433,1199
2612.670853251811,1288
2614.469740933052,1256
2616.268250226594,1277
2618.0663814268455,1265
2619.864134828292,1285
2621.6615107255006,1315
2623.458509413115,1241
2625.2551311858597,1233
2627.0513763385347,1308
2628.8472451660223,1278
2630.6427379632833,1279
2632.4378550253564,1258
2634.232596647359,1290
2636.026963124488,1244
2637.8209547520187,1220
2639.6145718253065,1220
2641.407814639785,1279
2643.200683490966,1267
2644.9931786744414,1260
2646.7853004858807,1258
2648.577049221034,1272
2650.3684251757277,1240
2652.1594286458712,1277
2653.9500599274484,1252
2655.740319316525,1163
2657.5302071092437,1239
2659.3197236018286,1319
2661.10886909058,1313
2662.8976438718782,1220
2664.686048242183,1297
2666.4740824980327,1322
2668.2617469360443,1282
2670.0490418529134,1218
2671.8359675454153,1254
2673.622524310403,1251
2675.408712444811,1278
2677.1945322456495,1304
2678.979984010009,1259
2680.76506803506,1257
2682.5497846180497,1289
2684.334134056306,1248
2686.1181166472343,1303
2687.9017326883213,1268
2689.6849824771293,1284
2691.4678663113013,1248
2693.2503844885596,1247
2695.032537306705,1198
2696.8143250636167,1243
2698.5957480572542,1293
2700.3768065856534,1254
2702.1575009469316,1262
2703.937831439283,1209
2705.717798360982,1252
2707.4974020103837,1243
2709.276642685917,1232
2711.055520686095,1254
2712.834036309506,1294
2714.612189854819,1305
2716.389981620782,1292
2718.1674119062204,1242
2719.944481010041,1232
2721.721189231226,1228
2723.4975368688415,1317
2725.273524222027,1253
2727.0491515900053,1277
2728.824419272075,1233
2730.5993275676146,1197
2732.3738767760838,1247
2734.148067197016,1221
2735.921899130031,1286
2737.6953728748194,1290
2739.468488731156,1255
2741.2412469988926,1295
2743.0136479779617,1282
2744.785691968372,1284
2746.5573792702116,1259
2748.3287101836504,1259
2750.099685008934,1267
2751.870304046388,1220
2753.640567596418,1197
2755.4104759595057,1289
2757.1800294362156,1310
2758.949228327187,1296
2760.7180729331412,1234
2762.486563554877,1319
2764.254700493272,1265
2766.022484049284,1270
2767.789914523947,1329
2769.5569922183786,1275
2771.3237174337705,1253
2773.090090471394,1327
2774.8561116326036,1331
2776.6217812188274,1299
2778.3870995315756,1221
2780.1520668724356,1234
2781.9166835430747,1250
2783.6809498452394,1257
2785.444866080754,1298
2787.2084325515225,1308
2788.971649559527,1285
2790.73451740683,1281
2792.4970363955713,1228
2794.2592068279705,1266
2796.0210290063264,1254
2797.7825032330147,1286
2799.543629810493,1317
2801.304409041296,1219
2803.0648412280366,1266
2804.8249266734088,1300
2806.5846656801846,1301
2808.344058551212,1279
2810.1031055894246,1306
2811.8618070978273,1276
2813.6201633795085,1249
2815.378174737636,1279
2817.1358414754536,1274
2818.893163896285,1321
2820.6501423035334,1301
2822.4067770006814,1311
2824.1630682912883,1252
2825.9190164789957,1280
2827.6746218675207,1257
2829.429884760661,1253
2831.184805462294,1288
2832.9393842763743,1292
2834.693621506936,1257
2836.4475174580916,1277
2838.201072434034,1222
2839.954286739034,1293
2841.707160677441,1308
2843.459694553685,1253
2845.2118886722724,1314
2846.96374333779,1261
2848.7152588549034,1333
2850.4664355283567,1274
2852.217273662973,1306
2853.9677735636546,1272
2855.7179355353833,1296
2857.4677598832186,1264
2859.217246912299,1257
2860.9663969278427,1263
2862.715210235146,1288
2864.4636871395846,1232
2866.211827946614,1310
2867.9596329617652,1248
2869.7071024906536,1284
2871.4542368389684,1256
2873.20103631248,1283
2874.947501217038,1291
2876.6936318585695,1278
2878.4394285430812,1287
2880.1848915766604,1234
2881.9300212654707,1287
2883.6748179157553,1287
2885.4192818338374,1209
2887.1634133261173,1301
2888.907212699077,1337
2890.6506802592744,1343
2892.393816313348,1296
2894.1366211680142,1244
2895.8790951300693,1274
2897.621238506388,1271
2899.363051603925,1305
2901.1045347297118,1256
2902.8456881908596,1295
2904.58651229456,1283
2906.327007348081,1262
2908.067173658772,1313
2909.8070115340597,1300
2911.5465212814497,1275
2913.285703208527,1264
2915.0245576229563,1247
2916.7630848324807,1297
2918.5012851449196,1261
2920.2391588681758,1276
2921.976706310227,1285
2923.7139277791334,1317
2925.4508235830313,1259
2927.187394030137,1289
2928.923639428745,1297
2930.6595600872306,1282
2932.395156314046,1345
2934.1304284177218,1280
2935.8653767068713,1267
2937.6000014901815,1308
2939.3343030764227,1261
2941.068281774442,1344
2942.8019378931644,1275
2944.5352717415976,1262
2946.2682836288236,1292
2948.0009738640065,1280
2949.7333427563885,1255
2951.465390615289,1365
2953.1971177501086,1274
2954.9285244703265,1305
2956.6596110855,1312
2958.3903779052657,1257
2960.1208252393385,1328
2961.8509533975125,1280
2963.5807626896617,1266
2965.3102534257378,1290
2967.0394259157715,1307
2968.768280469873,1275
2970.496817398232,1282
2972.2250370111146,1267
2973.952939618869,1366
2975.6805255319196,1324
2977.4077950607707,1285
2979.134748516006,1294
2980.861386208289,1361
2982.587708448359,1322
2984.313715547037,1268
2986.039407815222,1278
2987.764785563891,1286
2989.489849104102,1246
2991.2145987469908,1232
2992.9390348037705,1263
2994.6631575857346,1289
2996.3869674042576,1303
2998.1104645707887,1260
2999.83364939686,1246
3001.5565221940783,1291
3003.2790832741334,1252
3005.0013329487924,1254
3006.7232715298996,1184
3008.4448993293804,1278
3010.166216659239,1300
3011.887223831558,1267
3013.607921158498,1258
3015.3283089522993,1286
3017.0483875252826,1277
3018.7681571898443,1259
3020.4876182584626,1343
3022.2067710436927,1291
3023.9256158581707,1303
3025.644153014609,1274
3027.362382825801,1217
3029.0803056046193,1236
3030.797921664012,1251
3032.5152313170106,1219
3034.2322348767225,1241
3035.9489326563353,1261
3037.665324969115,1249
3039.3814121284063,1257
3041.097194447633,1279
3042.812672240299,1301
3044.5278458199855,1239
3046.2427155003525,1279
3047.9572815951406,1274
3049.671544418167,1284
3051.38550428333,1248
3053.0991615046073,1212
3054.812516396051,1297
3056.5255692717974,1266
3058.2383204460575,1281
3059.9507702331257,1244
3061.662918947372,1233
3063.3747669032446,1228
3065.0863144152736,1300
3066.7975617980674,1273
3068.508509366309,1270
3070.219157434767,1289
3071.9295063182844,1258
3073.639556331785,1198
3075.3493077902704,1239
3077.058761008821,1252
3078.7679163025964,1232
3080.476773986837,1242
3082.1853343768594,1214
3083.89359778806,1233
3085.6015645359153,1296
3087.3092349359786,1259
3089.016609303884,1217
3090.7236879553434,1249
3092.4304712061476,1289
3094.136959372166,1235
3095.843152769349,1269
3097.5490517137237,1258
3099.2546565213966,1233
3100.959967508554,1312
3102.66498499146,1291
3104.3697092864577,1224
3106.0741407099695,1263
3107.778279578498,1253
3109.482126208622,1253
3111.1856809170004,1294
3112.8889440203716,1283
3114.5919158355528,1254
3116.294596679439,1263
3117.996986869006,1282
3119.6990867213062,1232
3121.4008965534726,1266
3123.102416682717,1314
3124.803647426329,1291
3126.5045891016784,1222
3128.205242026213,1222
3129.90560651746,1279
3131.605682893025,1254
3133.3054714705922,1284
3135.0049725679282,1289
3136.7041865028714,1214
3138.4031135933465,1224
3140.101754157353,1237
3141.800108512971,1269
3143.498176978357,1276
3145.1959598717494,1278
3146.8934575114636,1251
3148.5906702158954,1292
3150.2875983035183,1306
3151.9842420928853,1250
3153.680601902627,1285
3155.376678051456,1277
3157.07247085816,1277
3158.767980641609,1252
3160.463207720748,1342
3162.158152414606,1228
3163.8528150422862,1250
3165.5471959229726,1229
3167.2412953759303,1267
3168.9351137204976,1207
3170.628651276098,1273
3172.3219083622307,1285
3174.014885298474,1280
3175.707582404485,1248
3177.4000000000005,1253
3179.092138404835,1242
3180.7839979388846,1342
3182.47557892212,1281
3184.166881674594,1266
3185.8579065164386,1277
3187.5486537678626,1210
3189.2391237491547,1239
3190.9293167806827,1249
3192.6192331828934,1250
3194.3088732763117,1286
3195.998237381542,1289
3197.687325819268,1268
3199.376138910251,1239
3201.064676975334,1238
3202.7529403354347,1222
3204.4409293115523,1215
3206.1286442247647,1244
3207.816085396229,1235
3209.5032531471825,1256
3211.190147798936,1191
3212.8767696728846,1234
3214.5631190905015,1234
3216.2491963733373,1185
3217.9350018430214,1272
3219.6205358212637,1237
3221.305798629851,1211
3222.990790590651,1257
3224.6755120256103,1174
3226.359963256751,1229
3228.0441446061795,1285
3229.7280563960758,1274
3231.411698948703,1222
3233.0950725863995,1261
3234.778177631587,1224
3236.461014406761,1279
3238.1435832345005,1216
3239.8258844374595,1250
3241.507918338374,1266
3243.1896852600576,1227
3244.8711855254023,1252
3246.552419457381,1299
3248.233387379042,1276
3249.914089613516,1288
3251.59452648401,1240
3253.274698313813,1264
3254.95460542629,1232
3256.6342481448855,1244
3258.313626793125,1207
3259.9927416946084,1227
3261.6715931730196,1177
3263.3501815521176,1232
3265.0285071557437,1220
3266.706570307815,1198
3268.3843713323286,1233
3270.0619105533615,1253
3271.739188295068,1258
3273.4162048816834,1232
3275.0929606375184,1280
3276.769455886966,1284
3278.445690954498,1268
3280.1216661646613,1315
3281.797381842087,1282
3283.4728383114807,1275
3285.1480358976296,1230
3286.8229749253996,1303
3288.4976557197333,1282
3290.172078605655,1241
3291.846243908266,1297
3293.5201519527463,1259
3295.193803064357,1236
3296.8671975684374,1233
3298.5403357904024,1310
3300.21321805575,1245
3301.8858446900567,1234
3303.558216018975,1208
3305.23033236824,1262
3306.9021940636603,1250
3308.57380143113,1258
3310.2451547966184,1316
3311.916254486174,1238
3313.5871008259246,1307
3315.2576941420766,1295
3316.9280347609147,1243
3318.5981230088046,1268
3320.2679592121895,1264
3321.9375436975924,1260
3323.606876791612,1268
3325.27595882093,1303
3326.944790112305,1237
3328.6133709925753,1251
3330.2817017886573,1256
3331.949782827547,1210
3333.617614436319,1271
3335.2851969421245,1261
3336.952530672199,1228
3338.619615953853,1261
3340.286453114475,1237
3341.9530424815357,1247
3343.619384382583,1266
3345.2854791452437,1299
3346.951327097224,1273
3348.6169285663073,1270
3350.2822838803577,1253
3351.947393367319,1254
3353.61225735521,1243
3355.2768761721345,1205
3356.9412501462693,1238
3358.605379605873,1272
3360.2692648792827,1221
3361.9329062949146,1183
3363.596304181263,1190
