CollectionTime,9/20/2024 10:39:23 AM
ExposureUsed,3
CalibratedSpectrum
-962.7078968117929,488
-959.9714848408522,528
-957.2358232597828,532
-954.5009119013725,563
-951.7667505983302,593
-949.0333391832855,608
-946.3006774887896,582
-943.5687653473143,572
-940.837602591253,568
-938.1071890529199,575
-935.3775245645503,582
-932.6486089583007,573
-929.9204420662485,564
-927.1930237203925,575
-924.4663537526524,604
-921.7404319948689,605
-919.0152582788041,595
-916.2908324361409,635
-913.5671542984834,566
-910.8442236973568,548
-908.1220404642074,555
-905.4006044304027,550
-902.679915427231,536
-899.959973285902,566
-897.2407778375464,582
-894.5223289132158,569
-891.8046263438832,539
-889.0876699604426,538
-886.3714595937089,508
-883.6559950744183,540
-880.9412762332282,531
-878.2273029007168,516
-875.5140749073835,520
-872.8015920836489,509
-870.0898542598545,498
-867.3788612662631,494
-864.6686129330585,553
-861.9591090903457,530
-859.2503495681506,508
-856.5423341964203,498
-853.8350628050229,507
-851.1285352237478,547
-848.4227512823054,513
-845.7177108103272,500
-843.0134136373656,547
-840.3098595928943,502
-837.6070485063082,558
-834.9049802069229,566
-832.2036545239757,535
-829.5030712866244,541
-826.8032303239481,516
-824.1041314649472,502
-821.4057745385428,536
-818.7081593735775,533
-816.0112857988148,544
-813.3151536429393,529
-810.6197627345566,540
-807.9251129021936,498
-805.2312039742981,520
-802.5380357792392,556
-799.8456081453069,621
-797.1539209007124,581
-794.462973873588,560
-791.772766891987,623
-789.083299783884,577
-786.3945723771743,551
-783.7065844996748,553
-781.0193359791231,531
-778.3328266431781,574
-775.6470563194197,578
-772.9620248353489,547
-770.2777320183878,551
-767.5941776958798,568
-764.9113616950891,638
-762.2292838432011,536
-759.5479439673222,554
-756.8673418944801,549
-754.1874774516235,542
-751.5083504656222,565
-748.8299607632671,587
-746.15230817127,544
-743.475392516264,576
-740.7992136248035,577
-738.1237713233636,578
-735.4490654383407,541
-732.7750957960521,552
-730.1018622227365,540
-727.4293645445534,566
-724.7576025875837,583
-722.0865761778291,567
-719.4162851412126,577
-716.7467293035781,586
-714.0779084906909,643
-711.409822528237,608
-708.7424712418238,594
-706.0758544569796,615
-703.4099719991541,645
-700.7448236937178,620
-698.0804093659622,570
-695.4167288411002,573
-692.7537819442656,589
-690.0915685005134,575
-687.4300883348199,591
-684.7693412720819,606
-682.1093271371178,603
-679.4500457546669,596
-676.7914969493897,562
-674.1336805458676,577
-671.4765963686034,599
-668.8202442420206,595
-666.1646239904642,606
-663.5097354382001,567
-660.8555784094151,584
-658.2021527282176,578
-655.5494582186366,572
-652.8974947046223,642
-650.2462620100463,619
-647.5957599587009,595
-644.9459883742998,662
-642.2969470804776,614
-639.6486359007902,678
-637.0010546587141,657
-634.3542031776476,676
-631.7080812809096,656
-629.0626887917401,628
-626.4180255333008,658
-623.7740913286734,704
-621.1308860008619,721
-618.4884093727904,661
-615.8466612673046,641
-613.2056415071715,633
-610.5653499150785,656
-607.9257863136347,686
-605.28695052537,717
-602.6488423727357,692
-600.0114616781036,717
-597.3748082637674,708
-594.7388819519412,721
-592.1036825647604,771
-589.4692099242818,724
-586.8354638524829,771
-584.2024441712624,720
-581.5701507024403,734
-578.9385832677575,784
-576.3077416888759,746
-573.6776257873787,719
-571.0482353847704,652
-568.4195703024757,729
-565.7916303618415,695
-563.164415384135,697
-560.5379251905453,659
-557.9121596021815,705
-555.2871184400748,722
-552.6628015251767,743
-550.0392086783606,764
-547.4163397204204,770
-544.794194472071,832
-542.1727727539491,813
-539.5520743866118,792
-536.9320991905377,857
-534.3128469861261,855
-531.6943175936979,867
-529.0765108334947,884
-526.4594265256793,1076
-523.8430644903358,1197
-521.2274245474689,1340
-518.612506517005,1488
-515.9983102187913,1574
-513.3848354725959,1768
-510.77208209810846,1919
-508.16004991493924,2296
-505.5487387426199,2372
-502.9381484006032,2438
-500.3282787082628,2243
-497.71912948489364,2103
-495.1107005497117,1778
-492.5029917218539,1526
-489.8960028203786,1303
-487.28973366426493,1144
-484.68418407241325,1010
-482.07935386364494,940
-479.47524285670266,937
-476.87185087025,958
-474.2691777228715,951
-471.66722323307334,995
-469.0659872192821,938
-466.4654694998459,927
-463.86566989303384,867
-461.26658821703614,835
-458.66822428996414,885
-456.07057792985,898
-453.4736489546475,916
-450.877437182231,921
-448.28194243039627,839
-445.68716451686,836
-443.09310325926003,868
-440.49975847515555,874
-437.9071299820263,862
-435.31521759727354,876
-432.72402113821954,870
-430.13354042210767,895
-427.5437752661022,913
-424.95472548728867,930
-422.36639090267386,979
-419.7787713291855,995
-417.1918665836721,988
-414.60567648290385,975
-412.0202008435715,944
-409.4354394822874,915
-406.8513922155845,1006
-404.26805885991723,1057
-401.685439231661,1026
-399.103533147112,997
-396.522340422488,970
-393.9418608739278,890
-391.3620943174908,898
-388.7830405691583,881
-386.2046994448317,868
-383.6270707603344,843
-381.05015433141045,857
-378.473949973725,854
-375.8984575028645,867
-373.32367673433623,792
-370.74960748356875,761
-368.1762495659117,731
-365.60360279663576,692
-363.03166699093265,687
-360.4604419639154,655
-357.8899275306178,600
-355.32012350599507,593
-352.7510297049233,599
-350.1826459421999,563
-347.61497203254316,541
-345.04800779059235,606
-342.4817530309082,568
-339.91620756797226,628
-337.35137121618743,591
-334.7872437898774,580
-332.22382510328725,575
-329.66111497058273,566
-327.09911320585127,615
-324.53781962310075,580
-321.9772340362607,544
-319.4173562591816,602
-316.8581861056348,544
-314.2997233893127,569
-311.7419679238294,616
-309.1849195227194,675
-306.62857799943856,692
-304.0729431673641,641
-301.51801483979375,649
-298.963792829947,637
-296.41027695096386,678
-293.85746701590574,667
-291.3053628377552,656
-288.7539642294155,664
-286.2032710037115,699
-283.65328297338897,679
-281.1039999511146,693
-278.5554217494762,714
-276.007548180983,744
-273.4603790580651,715
-270.9139141930734,694
-268.3681533982807,738
-265.8230964858798,771
-263.27874326798565,814
-260.7350935566336,906
-258.1921471637804,922
-255.6499039013039,1038
-253.10836358100266,934
-250.56752601459698,861
-248.02739101372765,841
-245.48795838995704,913
-242.94922795476816,965
-240.41119951956557,932
-237.8738728956746,873
-235.33724789434166,894
-232.80132432673452,862
-230.2661020039418,853
-227.73158073697357,867
-225.19776033676033,924
-222.66464061415422,1170
-220.1322213799284,1218
-217.60050244477725,975
-215.06948361931552,1026
-212.53916471408013,1175
-210.00954553952818,1105
-207.48062590603843,1066
-204.9524056239104,1060
-202.4248845033651,999
-199.8980623545441,1138
-197.37193898751036,1206
-194.84651421224817,1247
-192.32178783866232,1121
-189.79775967657952,1058
-187.27442953574644,1168
-184.7517972258321,1157
-182.2298625564256,1036
-179.7086253370378,1012
-177.18808537710026,1076
-174.66824248596583,1212
-172.14909647290835,1350
-169.6306471471229,1388
-167.11289431772548,1326
-164.59583779375328,1240
-162.07947738416453,1456
-159.5638128978386,1543
-157.04884414357605,1594
-154.53457093009854,1549
-152.02099306604828,1468
-149.50811035998936,1433
-146.99592262040665,1617
-144.48442965570587,1832
-141.97363127421409,1773
-139.46352728417958,1756
-136.95411749377126,1735
-134.44540171107985,1527
-131.93737974411636,1299
-129.43005140081357,1448
-126.92341648902493,2002
-124.41747481652521,2235
-121.91222619101006,2292
-119.40767042009657,2454
-116.90380731132257,2794
-114.40063667214702,3407
-111.8981583099503,4830
-109.3963720320337,7130
-106.89527764561933,9832
-104.39487495785067,10659
-101.89516377579241,12760
-99.39614390642998,18707
-96.89781515667039,28030
-94.40017733334128,32742
-91.90323024319173,27514
-89.40697369289148,19674
-86.91140748903172,12900
-84.41653143812482,9931
-81.92234534660395,13680
-79.42884902082358,17288
-76.93604226705907,18990
-74.4439248915071,17084
-71.95249670028534,13375
-69.46175749943245,9884
-66.97170709490854,8036
-64.48234529259423,9321
-61.99367189829195,11317
-59.50568671772464,15785
-57.01838955653636,17706
-54.53178022029283,21035
-52.045858514480074,27580
-49.560624244506016,34400
-47.07607721569923,38740
-44.59221723330904,43631
-42.10904410250669,42497
-39.62655762838392,38079
-37.14475761595372,33979
-34.66364387015028,27219
-32.18321619582866,28530
-29.70347439776515,29696
-27.224418280657005,29074
-24.74604764912317,37186
-22.26836230770266,59482
-19.7913620608565,65031
-17.315046712966478,65031
-14.83941606833514,65031
-12.36446993118659,65031
-9.89020810566592,65031
-7.416630395839093,65031
-4.94373660569363,65031
-2.471526539137585,65031
-6.821210263296962E-13,65031
2.47084320796705,65031
4.941003281093458,65031
7.410480415786196,65031
9.879274808531363,65031
12.347386655893956,65031
14.814816154518212,65031
17.28156350112681,65031
19.74762889252179,65031
22.21301252558385,26547
24.67771459727237,8050
27.141735304626195,6895
29.605074844762612,6243
32.06773341487792,5927
34.52971121224755,5562
36.99100843422559,4719
39.45162527824516,4192
41.91156194181792,4095
44.370818622535126,3270
46.82939551806646,3988
49.287292826160524,5671
51.74451074464503,5265
54.201049471426245,4063
56.65690920448981,3251
59.112090141899785,2554
61.56659248179983,2772
64.02041642241159,2751
66.4735621620365,3187
68.92602989905402,3857
71.37781983192338,3581
73.82893215918205,2938
76.27936707944684,2465
78.72912479141326,2439
81.17820549385567,2001
83.62660938562783,1791
86.07433666566146,1938
88.5213875329681,2142
90.96776218663751,2044
93.41346082583925,2268
95.85848364982041,2655
98.30283085790859,2092
100.7465026495089,1534
103.18949922410604,1476
105.63182078126385,1703
108.07346752062438,1854
110.51443964190923,1907
112.95473734491827,1767
115.39436082953114,1704
117.83331029570547,1832
120.27158594347827,1730
122.7091879729652,1490
125.1461165843615,1625
127.58237197794062,1540
130.01795435405518,1482
132.4528639131364,1503
134.88710085569494,1695
137.32066538231982,1662
139.75355769367923,1493
142.1857779905207,1288
144.61732647366978,1163
147.04820334403132,1186
149.47840880258934,1353
151.90794305040674,1512
154.33680628862487,1784
156.76499871846443,1854
159.19252054122433,1894
161.61937195828352,1821
164.04555317109896,1851
166.47106438120693,2029
168.89590579022217,2121
171.320077599839,2281
173.7435800118302,2342
176.16641322804742,2470
178.58857745042144,2622
181.01007288096173,2418
183.43089972175687,2342
185.85105817497413,2242
188.27054844285988,2367
190.6893707277394,2425
193.10752523201643,2453
195.5250121581745,2640
197.9418317087751,2564
200.3579840864594,2473
202.7734694939469,2706
205.18828813403627,2889
207.6024402096051,2802
210.01592592360964,2724
212.42874547908548,2647
214.84089907914665,2482
217.2523869269868,2536
219.66320922587727,2564
222.0733661791695,2558
224.48285799029293,2598
226.8916848627572,2694
229.29984700014882,2686
231.7073446061355,2617
234.11417788446204,2635
236.520347038953,2688
238.92585227351185,2703
241.33069379212054,2899
243.73487179884035,2843
246.1383864978112,2715
248.541238093252,2737
250.9434267894609,2716
253.34495279081432,2645
255.74581630176783,2621
258.1460175268563,2596
260.54555667069314,2644
262.9444339379703,2585
265.3426495334594,2715
267.7402036620107,2809
270.1370965285529,2730
272.53332833809407,2745
274.9288992957214,2586
277.32380960660055,2516
279.718059475976,2654
282.1116491091717,2636
284.5045787115897,2690
286.89684848871195,2683
289.2884586460981,2681
291.67940938938807,2812
294.0697009242996,2787
296.4593334566299,2780
298.84830719225477,2765
301.23662233712923,2770
303.6242790972866,2572
306.01127767884,2545
308.39761828798066,2528
310.78330113097934,2636
313.16832641418534,2450
315.5526943440269,2568
317.9364051270112,2428
320.3194589697242,2446
322.70185607883093,2471
325.0835966610754,2384
327.4646809232805,2393
329.8451090723478,2417
332.2248813152577,2343
334.6039978590701,2339
336.9824589109231,2336
339.36026467803447,2314
341.7374153677,2347
344.113911187295,2203
346.48975234427337,2323
348.8649390461686,2418
351.2394715005918,2298
353.61334991523415,2282
355.9865744978655,2352
358.35914545633375,2271
360.73106299856715,2272
363.10232733257146,2201
365.47293866643247,2245
367.84289720831396,2195
370.2122031664593,2162
372.5808567491905,2214
374.9488581649083,2196
377.31620762209275,2100
379.6829053293021,2138
382.0489514951745,2109
384.4143463284262,2143
386.7790900378528,2171
389.14318283232853,2087
391.50662492080653,2148
393.86941651231916,2081
396.23155781597745,2162
398.5930490409713,2121
400.9538903965696,2061
403.3140820921202,2118
405.6736243370498,2084
408.03251734086336,2047
410.3907613131465,2029
412.74835646356166,2144
415.10530300185144,2038
417.4616011378372,2071
419.81725108141893,2046
422.1722530425758,2022
424.5266072313656,2149
426.880313857925,2040
429.2333731324701,2013
431.58578526529516,2061
433.9375504667738,1974
436.2886689473588,2009
438.63914091758113,2031
440.9889665880513,2003
443.33814616945835,2014
445.68667987257015,1965
448.03456790823395,1987
450.3818104873759,2001
452.72840782100013,1956
455.07436012019105,1971
457.41966759611057,2014
459.7643304600007,2072
462.10834892318155,1907
464.4517231970525,1978
466.79445349309174,2010
469.1365400228566,1986
471.4779829979826,2023
473.81878263018564,2088
476.15893913125876,2073
478.4984527130747,2170
480.8373235875855,2190
483.17555196682144,2251
485.5131380628919,2249
487.8500820879857,2463
490.1863842543697,2628
492.52204477439034,2864
494.8570638604725,3145
497.1914417251204,3571
499.52517858091653,4223
501.85827464052306,4877
504.19073011668036,5264
506.5225452222086,5497
508.85372017000566,5388
511.18425517304956,5486
513.514150444396,5823
515.8434061971808,6811
518.1720226446176,7114
520.4999999999999,6777
522.8273384766991,6348
525.1540382881666,5911
527.480099647932,5059
529.8055227696037,3779
532.1303078668694,2853
534.454455153496,2434
536.777964843328,2307
539.1008371502907,2264
541.4230722883866,2145
543.744670471698,2139
546.0656319143858,2062
548.3859568306899,2055
550.7056454349294,2047
553.0246979415016,2001
555.3431145648834,2019
557.6608955196306,2015
559.978041020377,1971
562.2945512818363,2026
564.6104265188006,1972
566.9256669461412,2001
569.2402727788082,2037
571.5542442318302,2014
573.8675815203156,1994
576.1802848594508,2038
578.4923544645015,1993
580.8037905508126,2038
583.114593333807,2094
585.4247630289875,2041
587.7342998519354,1954
590.0432040183106,2019
592.3514757438526,2084
594.6591152443794,2093
596.9661227357875,2008
599.2724984340531,1979
601.578242555231,2033
603.8833553154542,1986
606.1878369309362,2039
608.4916876179676,1998
610.7949075929192,1999
613.0974970722403,2000
615.3994562724587,1979
617.7007854101818,1939
620.0014847020951,1979
622.3015543649641,2029
624.6009946156324,1995
626.8998056710224,1985
629.1979877481361,2009
631.4955410640538,1954
633.7924658359349,1993
636.0887622810175,1944
638.3844306166192,1898
640.6794710601358,2094
642.9738838290426,2009
645.2676691408932,1956
647.5608272133207,2043
649.853358264037,1990
652.1452625108324,2083
654.4365401715764,2020
656.7271914642178,1947
659.0172166067838,1988
661.3066158173809,2032
663.5953893141935,2030
665.8835373154867,1999
668.1710600396028,1993
670.4579577049639,2020
672.7442305300709,2070
675.0298787335033,2015
677.3149025339197,1968
679.599302150058,2005
681.8830778007342,1987
684.1662297048437,2041
686.4487580813608,1970
688.7306631493387,1928
691.0119451279091,2003
693.2926042362834,2011
695.5726406937516,2043
697.8520547196814,2046
700.1308465335215,1985
702.4090163547982,1966
704.6865644031171,1917
706.9634908981619,1984
709.2397960596965,2068
711.5154801075631,2001
713.7905432616823,2019
716.0649857420548,1996
718.3388077687592,1947
720.612009561953,2004
722.8845913418733,2042
725.1565533288352,1999
727.427895743234,1918
729.6986188055427,2041
731.9687227363137,1978
734.238207756178,1996
736.5070740858458,2014
738.7753219461066,1986
741.0429515578281,2011
743.3099631419569,2036
745.5763569195191,2006
747.8421331116193,1999
750.1072919394409,1981
752.3718336242467,1955
754.6357583873777,1963
756.8990664502545,2003
759.1617580343765,2016
761.423833361321,1982
763.6852926527457,2025
765.9461361303862,2071
768.206364016058,2043
770.4659765316536,2000
772.7249738991469,2086
774.9833563405886,2003
777.2411240781092,1945
779.4982773339183,2020
781.7548163303044,2025
784.010741289634,2125
786.2660524343538,2062
788.5207499869881,2024
790.7748341701416,2097
793.0283052064964,2035
795.2811633188143,2111
797.5334087299362,2169
799.7850416627813,2131
802.0360623403484,2073
804.2864709857143,2013
806.5362678220353,2124
808.7854530725468,2077
811.0340269605625,2046
813.2819897094754,2057
815.5293415427581,2099
817.77608268396,2111
820.0222133567116,2044
822.2677337847211,2104
824.5126441917765,2014
826.7569448017433,2090
829.0006358385675,2054
831.2437175262731,2026
833.4861900889629,2060
835.7280537508192,2120
837.9693087361026,2070
840.2099552691533,2122
842.4499935743896,2130
844.689423876309,2085
846.9282463994886,2089
849.1664613685833,2039
851.4040690083276,2146
853.6410695435349,2042
855.877463199097,2107
858.1132501999847,2076
860.3484307712487,2139
862.5830051380175,2113
864.8169735254988,2097
867.0503361589791,2048
869.2830932638243,2094
871.5152450654786,2051
873.7467917894654,2144
875.9777336613873,2148
878.2080709069252,2055
880.4378037518389,2082
882.666932421968,2157
884.8954571432301,2152
887.1233781416219,2141
889.3506956432192,2208
891.5774098741766,2059
893.803521060728,2157
896.0290294291852,2151
898.2539352059397,2134
900.4782386174619,2151
902.7019398903011,2229
904.925039251085,2209
907.147536926521,2162
909.3694331433943,2183
911.59072812857,2147
913.8114221089921,2148
916.0315153116827,2107
918.2510079637437,2145
920.4699002923547,2120
922.6881925247761,2068
924.905884888345,2127
927.1229776104793,2166
929.3394709186747,2134
931.555365040506,2083
933.7706602036275,2071
935.9853566357709,2137
938.1994545647489,2163
940.4129542184515,2164
942.6258558248488,2167
944.8381596119883,2213
947.0498658079974,2120
949.2609746410825,2160
951.4714863395287,2110
953.6814011316998,2166
955.8907192460387,2142
958.0994409110671,2093
960.3075663553858,2086
962.5150958076741,2100
964.7220294966913,2068
966.928367651274,2096
969.1341105003388,2044
971.3392582728806,2060
973.5438111979742,2107
975.747769504772,1969
977.9511334225061,2047
980.153903180487,1972
982.3560790081052,1970
984.5576611348289,1972
986.7586497902058,1924
988.9590452038618,1931
991.158847605503,1871
993.3580572249133,1902
995.5566742919558,1851
997.7546990365728,1824
999.952131688785,1791
1002.1489724786926,1735
1004.3452216364743,1758
1006.5408793923874,1778
1008.7359459767691,1735
1010.9304216200343,1703
1013.1243065526781,1714
1015.3176010052733,1651
1017.510305208472,1649
1019.7024193930064,1666
1021.8939437896848,1627
1024.0848786293977,1651
1026.2752241431122,1716
1028.4649805618747,1612
1030.6541481168115,1645
1032.842727039127,1544
1035.0307175601051,1632
1037.2181199111074,1591
1039.4049343235752,1565
1041.591161029029,1587
1043.7768002590683,1593
1045.9618522453698,1587
1048.1463172196918,1599
1050.3301954138697,1616
1052.513487059818,1533
1054.69619238953,1578
1056.8783116350783,1554
1059.0598450286152,1613
1061.2407928023704,1572
1063.4211551886528,1550
1065.6009324198508,1562
1067.780124728432,1604
1069.9587323469414,1552
1072.1367555080046,1580
1074.314194444325,1573
1076.4910493886855,1587
1078.667320573947,1523
1080.843008233051,1493
1083.0181125990161,1539
1085.1926339049414,1496
1087.3665723840027,1480
1089.5399282694575,1493
1091.7127017946405,1547
1093.8848931929647,1507
1096.0565026979243,1474
1098.2275305430899,1468
1100.3979769621128,1429
1102.567842188722,1499
1104.737126456726,1462
1106.9058300000124,1481
1109.0739530525475,1443
1111.2414958483764,1460
1113.4084586216231,1474
1115.5748416064907,1469
1117.7406450372605,1494
1119.9058691482942,1522
1122.0705141740304,1462
1124.2345803489884,1415
1126.3980679077658,1477
1128.5609770850388,1494
1130.7233081155623,1411
1132.8850612341707,1444
1135.0462366757774,1451
1137.2068346753745,1409
1139.3668554680326,1485
1141.526299288901,1422
1143.68516637321,1493
1145.8434569562655,1489
1148.001171273455,1416
1150.158309560244,1393
1152.3148720521767,1396
1154.470858984876,1386
1156.626270594044,1409
1158.7811071154629,1400
1160.9353687849912,1423
1163.089055838569,1484
1165.242168512213,1472
1167.3947070420209,1398
1169.5466716641677,1367
1171.6980626149075,1411
1173.8488801305748,1360
1175.9991244475814,1451
1178.1487958024186,1412
1180.2978944316555,1327
1182.4464205719428,1392
1184.5943744600072,1421
1186.7417563326567,1379
1188.8885664267755,1403
1191.0348049793297,1417
1193.1804722273619,1369
1195.325568407995,1406
1197.4700937584303,1403
1199.614048515948,1384
1201.7574329179074,1364
1203.900247201746,1410
1206.042491604982,1425
1208.1841663652099,1347
1210.3252717201053,1378
1212.465807907422,1335
1214.6057751649923,1351
1216.7451737307279,1407
1218.8840038426192,1389
1221.0222657387353,1381
1223.1599596572241,1348
1225.2970858363137,1355
1227.4336445143094,1388
1229.5696359295966,1401
1231.705060320639,1419
1233.8399179259786,1462
1235.9742089842384,1423
1238.107933734118,1405
1240.2410924143974,1341
1242.373685263935,1377
1244.5057125216676,1447
1246.6371744266116,1401
1248.7680712178621,1390
1250.898403134593,1377
1253.028170416058,1436
1255.1573733015875,1395
1257.2860120305932,1386
1259.4140868425648,1378
1261.54159797707,1424
1263.6685456737569,1381
1265.7949301723515,1322
1267.9207517126597,1398
1270.046010534565,1431
1272.1707068780306,1435
1274.2948409830983,1424
1276.4184130898889,1431
1278.541423438603,1460
1280.6638722695184,1381
1282.785759822993,1452
1284.9070863394636,1401
1287.0278520594447,1361
1289.1480572235314,1378
1291.2677020723963,1431
1293.3867868467923,1427
1295.5053117875495,1359
1297.623277135579,1420
1299.740683131868,1444
1301.8575300174857,1367
1303.973818033578,1385
1306.0895474213703,1413
1308.2047184221678,1347
1310.3193312773528,1431
1312.4333862283888,1338
1314.5468835168163,1391
1316.659823384255,1352
1318.7722060724045,1383
1320.8840318230418,1402
1322.9953008780249,1411
1325.1060134792888,1423
1327.2161698688478,1463
1329.3257702887959,1343
1331.4348149813054,1409
1333.5433041886276,1409
1335.6512381530933,1378
1337.7586171171101,1362
1339.8654413231675,1420
1341.9717110138317,1426
1344.0774264317488,1403
1346.1825878196432,1445
1348.2871954203192,1393
1350.3912494766587,1404
1352.4947502316231,1406
1354.5976979282532,1453
1356.7000928096686,1431
1358.8019351190665,1431
1360.9032250997243,1464
1363.0039629949988,1487
1365.1041490483235,1411
1367.2037835032133,1466
1369.3028666032606,1357
1371.401398592137,1453
1373.4993797135926,1457
1375.5968102114575,1469
1377.6936903296396,1393
1379.7900203121262,1447
1381.8858004029835,1422
1383.9810308463561,1429
1386.075711886469,1365
1388.1698437676241,1443
1390.2634267342032,1494
1392.356461030667,1453
1394.4489469015557,1444
1396.5408845914872,1442
1398.6322743451592,1447
1400.7231164073469,1498
1402.813411022907,1402
1404.903158436773,1454
1406.9923588939578,1425
1409.0810126395531,1469
1411.1691199187303,1425
1413.2566809767386,1442
1415.343696058907,1431
1417.4301654106425,1479
1419.5160892774315,1432
1421.6014679048399,1508
1423.6863015385125,1476
1425.7705904241707,1425
1427.8543348076178,1517
1429.9375349347342,1480
1432.0201910514802,1468
1434.102303403894,1435
1436.1838722380944,1419
1438.2648978002767,1448
1440.3453803367174,1479
1442.4253200937692,1435
1444.5047173178677,1456
1446.5835722555234,1470
1448.6618851533285,1438
1450.739656257952,1393
1452.8168858161434,1423
1454.8935740747306,1405
1456.96972128062,1490
1459.045327680797,1475
1461.120393522327,1414
1463.1949190523528,1531
1465.2689045180973,1471
1467.3423501668608,1504
1469.415256246024,1476
1471.4876230030463,1420
1473.559450685465,1438
1475.6307395408976,1474
1477.7014898170391,1523
1479.771701761665,1474
1481.8413756226287,1477
1483.9105116478618,1446
1485.9791100853772,1492
1488.0471711832643,1455
1490.1146951896926,1503
1492.1816823529098,1483
1494.2481329212433,1428
1496.3140471430984,1483
1498.3794252669609,1475
1500.4442675413939,1460
1502.5085742150404,1442
1504.572345536622,1408
1506.6355817549388,1511
1508.6982831188702,1539
1510.7604498773744,1475
1512.8220822794883,1464
1514.8831805743293,1419
1516.9437450110909,1446
1519.003775839048,1401
1521.0632733075522,1415
1523.1222376660367,1569
1525.1806691640113,1437
1527.2385680510652,1439
1529.2959345768668,1393
1531.3527689911643,1447
1533.4090715437833,1406
1535.4648424846291,1427
1537.5200820636855,1457
1539.5747905310159,1440
1541.6289681367616,1451
1543.6826151311434,1394
1545.7357317644614,1473
1547.7883182870937,1448
1549.8403749494987,1546
1551.8919020022113,1509
1553.9428996958477,1452
1555.9933682811015,1449
1558.0433080087469,1462
1560.0927191296346,1444
1562.1416018946961,1411
1564.1899565549415,1460
1566.2377833614592,1482
1568.2850825654164,1390
1570.3318544180606,1403
1572.3780991707158,1447
1574.423817074788,1463
1576.4690083817595,1471
1578.5136733431923,1448
1580.5578122107272,1436
1582.601425236085,1421
1584.6445126710646,1439
1586.6870747675434,1423
1588.7291117774776,1401
1590.7706239529034,1430
1592.8116115459347,1468
1594.8520748087658,1468
1596.8920139936686,1414
1598.9314293529933,1435
1600.9703211391711,1532
1603.008689604711,1440
1605.0465350022005,1457
1607.0838575843068,1444
1609.1206576037753,1495
1611.1569353134305,1524
1613.1926909661765,1444
1615.2279248149953,1378
1617.2626371129481,1478
1619.2968281131757,1396
1621.3304980688963,1458
1623.3636472334088,1429
1625.39627586009,1523
1627.428384202396,1530
1629.459972513861,1410
1631.4910410480993,1420
1633.5215900588028,1423
1635.551619799744,1386
1637.5811305247717,1473
1639.6101224878166,1397
1641.6385959428862,1433
1643.6665511440683,1438
1645.693988345528,1427
1647.7209078015112,1427
1649.7473097663405,1421
1651.7731944944203,1445
1653.7985622402307,1415
1655.823413258333,1407
1657.847747803366,1444
1659.8715661300494,1432
1661.8948684931793,1384
1663.9176551476316,1479
1665.9399263483624,1442
1667.9616823504057,1429
1669.982923408873,1493
1672.0036497789574,1422
1674.0238617159293,1432
1676.043559475138,1428
1678.0627433120121,1451
1680.081413482059,1385
1682.0995702408654,1432
1684.117213844096,1459
1686.134344547495,1482
1688.1509626068864,1435
1690.1670682781705,1452
1692.182661817329,1443
1694.1977434804217,1433
1696.2123135235875,1415
1698.226372203043,1494
1700.2399197750851,1437
1702.2529564960905,1499
1704.2654826225112,1469
1706.277498410882,1467
1708.2890041178139,1455
1710.2999999999988,1446
1712.3104863142066,1476
1714.3204633172854,1448
1716.329931266163,1439
1718.3388904178469,1427
1720.3473410294214,1433
1722.3552833580516,1424
1724.3627176609807,1482
1726.3696441955308,1427
1728.3760632191033,1446
1730.3819749891782,1431
1732.3873797633146,1440
1734.3922777991502,1445
1736.3966693544012,1390
1738.4005546868639,1373
1740.4039340544127,1433
1742.406807715001,1477
1744.4091759266616,1469
1746.4110389475054,1478
1748.4123970357223,1392
1750.413250449582,1467
1752.4135994474318,1441
1754.4134442876993,1452
1756.4127852288902,1418
1758.4116225295893,1431
1760.4099564484595,1469
1762.407787244244,1452
1764.405115175764,1480
1766.4019405019203,1526
1768.3982634816916,1478
1770.3940843741357,1417
1772.3894034383907,1490
1774.3842209336717,1472
1776.378537119274,1456
1778.372352254571,1479
1780.3656665990156,1455
1782.3584804121397,1431
1784.3507939535534,1445
1786.3426074829463,1411
1788.3339212600863,1467
1790.3247355448211,1431
1792.3150505970766,1422
1794.3048666768573,1499
1796.2941840442477,1483
1798.2830029594106,1395
1800.2713236825884,1465
1802.2591464741004,1493
1804.2464715943465,1457
1806.2332993038058,1446
1808.2196298630352,1471
1810.2054635326708,1499
1812.190800573428,1497
1814.175641246101,1500
1816.1599858115628,1463
1818.1438345307652,1432
1820.127187664738,1436
1822.1100454745924,1520
1824.092408221516,1466
1826.0742761667766,1410
1828.055649571721,1481
1830.0365286977735,1490
1832.0169138064398,1475
1833.9968051593014,1462
1835.9762030180214,1513
1837.9551076443408,1482
1839.9335193000788,1470
1841.9114382471344,1518
1843.888864747485,1468
1845.8657990631878,1500
1847.842241456378,1448
1849.8181921892697,1427
1851.7936515241558,1442
1853.7686197234098,1484
1855.7430970494815,1443
1857.7170837649014,1470
1859.6905801322787,1473
1861.6635864143004,1415
1863.6361028737338,1531
1865.608129773424,1516
1867.5796673762961,1497
1869.5507159453537,1470
1871.521275743678,1463
1873.4913470344313,1489
1875.4609300808534,1490
1877.4300251462632,1454
1879.3986324940588,1496
1881.366752387717,1478
1883.3343850907936,1442
1885.3015308669228,1501
1887.268189979819,1512
1889.2343626932739,1480
1891.2000492711595,1531
1893.1652499774254,1465
1895.1299650761011,1529
1897.0941948312952,1534
1899.0579395071945,1524
1901.0211993680641,1502
1902.98397467825,1465
1904.9462657021745,1509
1906.9080727043415,1538
1908.869395949332,1537
1910.8302357018065,1528
1912.790592226504,1479
1914.7504657882428,1554
1916.7098566519212,1486
1918.6687650825133,1513
1920.6271913450764,1470
1922.5851357047422,1482
1924.5425984267245,1497
1926.499579776314,1519
1928.4560800188833,1515
1930.4120994198802,1455
1932.367638244833,1547
1934.32269675935,1465
1936.2772752291175,1518
1938.231373919899,1445
1940.1849930975404,1489
1942.1381330279637,1474
1944.0907939771696,1493
1946.0429762112412,1467
1947.9946799963363,1473
1949.9459055986945,1510
1951.896653284633,1438
1953.8469233205478,1430
1955.7967159729142,1450
1957.7460315082863,1448
1959.6948701932974,1398
1961.6432322946594,1438
1963.5911180791632,1419
1965.5385278136787,1440
1967.4854617651545,1465
1969.4319202006182,1431
1971.377903387176,1470
1973.3234115920136,1443
1975.268445082395,1504
1977.2130041256642,1503
1979.1570889892423,1502
1981.1006999406304,1478
1983.04383724741,1419
1984.986501177238,1526
1986.928691997853,1457
1988.8704099770712,1412
1990.811655382789,1449
1992.7524284829801,1458
1994.692729545698,1508
1996.6325588390755,1443
1998.5719166313224,1455
2000.5108031907307,1478
2002.4492187856677,1468
2004.387163684583,1466
2006.3246381560011,1492
2008.2616424685298,1481
2010.1981768908527,1491
2012.1342416917332,1494
2014.069837140014,1448
2016.0049635046162,1459
2017.9396210545406,1407
2019.8738100588666,1462
2021.8075307867502,1476
2023.740783507431,1476
2025.6735684902228,1447
2027.6058860045214,1448
2029.5377363198004,1493
2031.4691197056118,1455
2033.4000364315875,1447
2035.3304867674374,1485
2037.260470982952,1461
2039.189989347998,1441
2041.1190421325232,1472
2043.047629606554,1479
2044.9757520401945,1381
2046.9034097036288,1464
2048.8306028671195,1490
2050.7573318010086,1445
2052.683596775716,1421
2054.609398061742,1456
2056.5347359296647,1359
2058.4596106501403,1419
2060.384022493906,1437
2062.3079717317764,1395
2064.231458634646,1386
2066.1544834734873,1411
2068.077046519352,1429
2069.99914804337,1468
2071.9207883167524,1375
2073.8419676107865,1440
2075.7626861968406,1457
2077.6829443463607,1418
2079.6027423308715,1433
2081.522080421977,1452
2083.440958891362,1457
2085.359378010786,1457
2087.2773380520907,1435
2089.194839287196,1416
2091.111881988101,1463
2093.0284664268825,1461
2094.9445928756973,1490
2096.86026160678,1434
2098.775472892446,1463
2100.690227005088,1425
2102.604524217178,1456
2104.5183648012676,1502
2106.431749029985,1432
2108.34467717604,1428
2110.2571495122206,1468
2112.169166311393,1468
2114.080727846503,1401
2115.9918343905747,1449
2117.902486216711,1484
2119.8126835980956,1472
2121.722426807987,1532
2123.6317161197285,1453
2125.5405518067364,1492
2127.448934142509,1500
2129.356863400624,1537
2131.264339854737,1577
2133.1713637785815,1540
2135.077935445972,1478
2136.9840551308002,1435
2138.889723107037,1512
2140.7949396487334,1507
2142.699705030018,1495
2144.6040195250994,1499
2146.507883408264,1457
2148.4112969538774,1490
2150.3142604363848,1540
2152.2167741303097,1456
2154.1188383102535,1483
2156.0204532508997,1534
2157.9216192270064,1492
2159.822336513414,1476
2161.7226053850413,1526
2163.622426116884,1471
2165.5217989840185,1450
2167.4207242616,1477
2169.319202224862,1485
2171.2172331491165,1545
2173.1148173097563,1548
2175.0119549822507,1494
2176.90864644215,1512
2178.8048919650823,1550
2180.7006918267534,1568
2182.596046302952,1587
2184.4909556695407,1595
2186.3854202024645,1630
2188.279440177746,1573
2190.173015871487,1530
2192.066147559868,1570
2193.958835519149,1590
2195.851080025667,1552
2197.7428813558417,1551
2199.6342397861667,1572
2201.5251555932186,1549
2203.415629053651,1534
2205.3056604441986,1641
2207.19525004167,1518
2209.084398122958,1559
2210.9731049650327,1509
2212.861370844941,1629
2214.749196039812,1578
2216.636580826851,1631
2218.523525483344,1604
2220.410030286655,1580
2222.296095514226,1576
2224.1817214435805,1594
2226.066908352319,1627
2227.951656518121,1513
2229.835966218746,1617
2231.71983773203,1592
2233.6032713358913,1547
2235.486267308324,1563
2237.3688259274036,1512
2239.2509474712824,1605
2241.132632218193,1607
2243.013880446447,1608
2244.8946924344323,1526
2246.7750684606203,1616
2248.6550088035574,1584
2250.534513741871,1564
2252.413583554265,1630
2254.292218519526,1529
2256.170418916517,1571
2258.0481850241786,1503
2259.925517121534,1534
2261.8024154876825,1493
2263.678880401803,1528
2265.5549121431536,1566
2267.430510991071,1573
2269.305677224971,1576
2271.180411124348,1501
2273.0547129687766,1509
2274.9285830379076,1556
2276.8020216114737,1534
2278.6750289692845,1545
2280.5476053912294,1556
2282.4197511572766,1624
2284.2914665474727,1540
2286.162751841943,1550
2288.0336073208937,1654
2289.904033264608,1624
2291.774029953448,1550
2293.6435976678554,1543
2295.5127366883517,1446
2297.381447295534,1482
2299.2497297700825,1409
2301.1175843927526,1439
2302.9850114443825,1365
2304.852011205885,1361
2306.7185839582553,1345
2308.5847299825664,1390
2310.4504495599676,1274
2312.3157429716925,1288
2314.1806104990483,1259
2316.0450524234247,1273
2317.9090690262888,1275
2319.772660589186,1316
2321.635827393742,1286
2323.498569721661,1308
2325.3608878547248,1277
2327.2227820747967,1286
2329.0842526638157,1288
2330.945299903803,1288
2332.805924076857,1251
2334.6661254651535,1302
2336.525904350951,1247
2338.3852610165827,1346
2340.244195744464,1278
2342.102708817088,1279
2343.9608005170253,1268
2345.8184711269287,1290
2347.675720929526,1289
2349.532550207628,1291
2351.38895924412,1283
2353.24494832197,1299
2355.100517724223,1321
2356.955667734004,1339
2358.810398634514,1243
2360.664710709037,1356
2362.5186042409337,1268
2364.3720795136437,1310
2366.225136810686,1279
2368.0777764156583,1290
2369.929998612237,1301
2371.7818036841777,1260
2373.633191915315,1275
2375.484163589562,1266
2377.3347189909114,1282
2379.184858403434,1266
2381.03458211128,1311
2382.8838903986775,1298
2384.732783549936,1267
2386.5812618494406,1264
2388.4293255816588,1291
2390.2769750311327,1244
2392.1242104824883,1305
2393.971032220427,1274
2395.8174405297295,1256
2397.6634356952563,1328
2399.509018001947,1288
2401.3541877348193,1333
2403.1989451789705,1290
2405.043290619576,1306
2406.8872243418905,1344
2408.730746631247,1244
2410.5738577730594,1270
2412.4165580528183,1311
2414.258847756095,1278
2416.100727168537,1320
2417.9421965758734,1312
2419.783256263912,1231
2421.623906518538,1263
2423.4641476257157,1296
2425.303979871491,1295
2427.143403541984,1294
2428.9824189233977,1239
2430.821026302012,1220
2432.6592259641866,1305
2434.497018196361,1305
2436.33440328505,1295
2438.171381516851,1246
2440.00795317844,1242
2441.844118556569,1296
2443.6798779380724,1313
2445.5152316098606,1301
2447.3501798589255,1263
2449.1847229723357,1293
2451.0188612372403,1271
2452.8525949408663,1336
2454.6859243705203,1296
2456.518849813587,1272
2458.3513715575314,1266
2460.183489889895,1324
2462.015205098301,1275
2463.8465174704493,1341
2465.67742729412,1315
2467.5079348571717,1273
2469.338040447542,1338
2471.1677443532476,1292
2472.9970468623833,1326
2474.825948263123,1292
2476.6544488437207,1286
2478.482548892508,1291
2480.310248697896,1297
2482.137548548374,1305
2483.9644487325118,1261
2485.790949538956,1288
2487.617051256433,1285
2489.44275417375,1308
2491.26805857979,1288
2493.0929647635157,1295
2494.917473013971,1333
2496.741583620276,1294
2498.5652968716304,1361
2500.3886130573137,1272
2502.2115324666834,1288
2504.0340553891765,1248
2505.856182114308,1251
2507.6779129316733,1292
2509.499248130945,1242
2511.3201880018764,1266
2513.140732834298,1308
2514.9608829181198,1263
2516.780638543331,1293
2518.6,1259
2520.418967578273,1233
2522.237541568376,1257
2524.0557222606144,1303
2525.8735099453706,1266
2527.6909049131086,1226
2529.507907454368,1258
2531.32451785977,1276
2533.140736420014,1279
2534.9565634258774,1274
2536.771999168218,1314
2538.5870439379714,1240
2540.4016980261526,1257
2542.2159617238544,1233
2544.02983532225,1260
2545.8433191125914,1301
2547.656413386209,1276
2549.4691184345115,1246
2551.2814345489874,1300
2553.093362021204,1203
2554.904901142808,1270
2556.716052205523,1305
2558.526815501153,1275
2560.3371913215824,1316
2562.147179958771,1307
2563.956781704761,1260
2565.7659968516705,1312
2567.5748256916986,1272
2569.3832685171224,1293
2571.1913256202984,1260
2572.9989972936614,1227
2574.806283829725,1275
2576.613185521084,1224
2578.4197026604074,1280
2580.2258355404483,1300
2582.031584454035,1295
2583.836949694077,1299
2585.6419315535613,1292
2587.4465303255533,1259
2589.2507463032002,1295
2591.0545797797245,1285
2592.8580310484303,1241
2594.6611004026995,1288
2596.463788135992,1287
2598.266094541849,1290
2600.0680199138874,1268
2601.869564545807,1240
2603.670728731383,1270
2605.4715127644704,1281
2607.2719169390048,1288
2609.071941548998,1289
2610.8715868885433,1279
2612.670853251811,1307
2614.469740933052,1306
2616.268250226594,1285
2618.0663814268455,1246
2619.864134828292,1301
2621.6615107255006,1279
2623.458509413115,1250
2625.2551311858597,1239
2627.0513763385347,1239
2628.8472451660223,1211
2630.6427379632833,1318
2632.4378550253564,1226
2634.232596647359,1267
2636.026963124488,1171
2637.8209547520187,1295
2639.6145718253065,1284
2641.407814639785,1317
2643.200683490966,1253
2644.9931786744414,1300
2646.7853004858807,1326
2648.577049221034,1278
2650.3684251757277,1263
2652.1594286458712,1263
2653.9500599274484,1240
2655.740319316525,1262
2657.5302071092437,1289
2659.3197236018286,1240
2661.10886909058,1307
2662.8976438718782,1334
2664.686048242183,1323
2666.4740824980327,1290
2668.2617469360443,1289
2670.0490418529134,1248
2671.8359675454153,1256
2673.622524310403,1280
2675.408712444811,1299
2677.1945322456495,1258
2678.979984010009,1305
2680.76506803506,1238
2682.5497846180497,1232
2684.334134056306,1227
2686.1181166472343,1293
2687.9017326883213,1269
2689.6849824771293,1265
2691.4678663113013,1326
2693.2503844885596,1283
2695.032537306705,1281
2696.8143250636167,1277
2698.5957480572542,1233
2700.3768065856534,1229
2702.1575009469316,1270
2703.937831439283,1286
2705.717798360982,1267
2707.4974020103837,1249
2709.276642685917,1312
2711.055520686095,1251
2712.834036309506,1189
2714.612189854819,1281
2716.389981620782,1262
2718.1674119062204,1245
2719.944481010041,1312
2721.721189231226,1298
2723.4975368688415,1281
2725.273524222027,1268
2727.0491515900053,1276
2728.824419272075,1240
2730.5993275676146,1274
2732.3738767760838,1288
2734.148067197016,1272
2735.921899130031,1242
2737.6953728748194,1288
2739.468488731156,1255
2741.2412469988926,1241
2743.0136479779617,1311
2744.785691968372,1299
2746.5573792702116,1287
2748.3287101836504,1279
2750.099685008934,1232
2751.870304046388,1335
2753.640567596418,1266
2755.4104759595057,1312
2757.1800294362156,1247
2758.949228327187,1297
2760.7180729331412,1275
2762.486563554877,1270
2764.254700493272,1350
2766.022484049284,1278
2767.789914523947,1260
2769.5569922183786,1290
2771.3237174337705,1274
2773.090090471394,1309
2774.8561116326036,1313
2776.6217812188274,1304
2778.3870995315756,1294
2780.1520668724356,1228
2781.9166835430747,1272
2783.6809498452394,1266
2785.444866080754,1345
2787.2084325515225,1284
2788.971649559527,1231
2790.73451740683,1306
2792.4970363955713,1253
2794.2592068279705,1243
2796.0210290063264,1321
2797.7825032330147,1253
2799.543629810493,1235
2801.304409041296,1340
2803.0648412280366,1324
2804.8249266734088,1313
2806.5846656801846,1302
2808.344058551212,1324
2810.1031055894246,1291
2811.8618070978273,1273
2813.6201633795085,1289
2815.378174737636,1262
2817.1358414754536,1255
2818.893163896285,1247
2820.6501423035334,1294
2822.4067770006814,1298
2824.1630682912883,1249
2825.9190164789957,1252
2827.6746218675207,1336
2829.429884760661,1289
2831.184805462294,1278
2832.9393842763743,1307
2834.693621506936,1286
2836.4475174580916,1321
2838.201072434034,1304
2839.954286739034,1341
2841.707160677441,1288
2843.459694553685,1320
2845.2118886722724,1337
2846.96374333779,1326
2848.7152588549034,1281
2850.4664355283567,1329
2852.217273662973,1256
2853.9677735636546,1340
2855.7179355353833,1315
2857.4677598832186,1330
2859.217246912299,1265
2860.9663969278427,1321
2862.715210235146,1315
2864.4636871395846,1268
2866.211827946614,1238
2867.9596329617652,1277
2869.7071024906536,1287
2871.4542368389684,1307
2873.20103631248,1272
2874.947501217038,1287
2876.6936318585695,1344
2878.4394285430812,1338
2880.1848915766604,1278
2881.9300212654707,1299
2883.6748179157553,1275
2885.4192818338374,1275
2887.1634133261173,1297
2888.907212699077,1261
2890.6506802592744,1283
2892.393816313348,1298
2894.1366211680142,1304
2895.8790951300693,1308
2897.621238506388,1276
2899.363051603925,1301
2901.1045347297118,1305
2902.8456881908596,1317
2904.58651229456,1280
2906.327007348081,1282
2908.067173658772,1260
2909.8070115340597,1275
2911.5465212814497,1274
2913.285703208527,1278
2915.0245576229563,1298
2916.7630848324807,1340
2918.5012851449196,1251
2920.2391588681758,1311
2921.976706310227,1315
2923.7139277791334,1272
2925.4508235830313,1278
2927.187394030137,1259
2928.923639428745,1295
2930.6595600872306,1284
2932.395156314046,1339
2934.1304284177218,1271
2935.8653767068713,1328
2937.6000014901815,1315
2939.3343030764227,1323
2941.068281774442,1238
2942.8019378931644,1255
2944.5352717415976,1255
2946.2682836288236,1263
2948.0009738640065,1315
2949.7333427563885,1261
2951.465390615289,1335
2953.1971177501086,1340
2954.9285244703265,1295
2956.6596110855,1325
2958.3903779052657,1317
2960.1208252393385,1313
2961.8509533975125,1278
2963.5807626896617,1279
2965.3102534257378,1292
2967.0394259157715,1298
2968.768280469873,1307
2970.496817398232,1280
2972.2250370111146,1349
2973.952939618869,1340
2975.6805255319196,1320
2977.4077950607707,1334
2979.134748516006,1357
2980.861386208289,1349
2982.587708448359,1254
2984.313715547037,1293
2986.039407815222,1307
2987.764785563891,1320
2989.489849104102,1229
2991.2145987469908,1249
2992.9390348037705,1307
2994.6631575857346,1243
2996.3869674042576,1302
2998.1104645707887,1286
2999.83364939686,1323
3001.5565221940783,1342
3003.2790832741334,1245
3005.0013329487924,1297
3006.7232715298996,1319
3008.4448993293804,1249
3010.166216659239,1242
3011.887223831558,1272
3013.607921158498,1189
3015.3283089522993,1266
3017.0483875252826,1248
3018.7681571898443,1328
3020.4876182584626,1272
3022.2067710436927,1239
3023.9256158581707,1318
3025.644153014609,1330
3027.362382825801,1283
3029.0803056046193,1298
3030.797921664012,1267
3032.5152313170106,1274
3034.2322348767225,1223
3035.9489326563353,1227
3037.665324969115,1235
3039.3814121284063,1264
3041.097194447633,1314
3042.812672240299,1265
3044.5278458199855,1271
3046.2427155003525,1283
3047.9572815951406,1322
3049.671544418167,1270
3051.38550428333,1266
3053.0991615046073,1254
3054.812516396051,1258
3056.5255692717974,1222
3058.2383204460575,1240
3059.9507702331257,1250
3061.662918947372,1251
3063.3747669032446,1256
3065.0863144152736,1251
3066.7975617980674,1242
3068.508509366309,1203
3070.219157434767,1254
3071.9295063182844,1211
3073.639556331785,1283
3075.3493077902704,1179
3077.058761008821,1224
3078.7679163025964,1343
3080.476773986837,1319
3082.1853343768594,1267
3083.89359778806,1240
3085.6015645359153,1303
3087.3092349359786,1306
3089.016609303884,1235
3090.7236879553434,1274
3092.4304712061476,1248
3094.136959372166,1229
3095.843152769349,1276
3097.5490517137237,1303
3099.2546565213966,1253
3100.959967508554,1280
3102.66498499146,1275
3104.3697092864577,1195
3106.0741407099695,1275
3107.778279578498,1238
3109.482126208622,1290
3111.1856809170004,1259
3112.8889440203716,1278
3114.5919158355528,1273
3116.294596679439,1238
3117.996986869006,1259
3119.6990867213062,1278
3121.4008965534726,1324
3123.102416682717,1273
3124.803647426329,1256
3126.5045891016784,1283
3128.205242026213,1296
3129.90560651746,1279
3131.605682893025,1276
3133.3054714705922,1295
3135.0049725679282,1282
3136.7041865028714,1247
3138.4031135933465,1330
3140.101754157353,1267
3141.800108512971,1257
3143.498176978357,1248
3145.1959598717494,1265
3146.8934575114636,1290
3148.5906702158954,1269
3150.2875983035183,1323
3151.9842420928853,1202
3153.680601902627,1304
3155.376678051456,1281
3157.07247085816,1235
3158.767980641609,1270
3160.463207720748,1307
3162.158152414606,1246
3163.8528150422862,1299
3165.5471959229726,1239
3167.2412953759303,1321
3168.9351137204976,1254
3170.628651276098,1308
3172.3219083622307,1276
3174.014885298474,1293
3175.707582404485,1287
3177.4000000000005,1296
3179.092138404835,1237
3180.7839979388846,1280
3182.47557892212,1267
3184.166881674594,1226
3185.8579065164386,1308
3187.5486537678626,1272
3189.2391237491547,1235
3190.9293167806827,1242
3192.6192331828934,1261
3194.3088732763117,1238
3195.998237381542,1278
3197.687325819268,1227
3199.376138910251,1191
3201.064676975334,1235
3202.7529403354347,1254
3204.4409293115523,1248
3206.1286442247647,1272
3207.816085396229,1284
3209.5032531471825,1206
3211.190147798936,1264
3212.8767696728846,1243
3214.5631190905015,1264
3216.2491963733373,1277
3217.9350018430214,1244
3219.6205358212637,1276
3221.305798629851,1249
3222.990790590651,1207
3224.6755120256103,1263
3226.359963256751,1254
3228.0441446061795,1292
3229.7280563960758,1241
3231.411698948703,1228
3233.0950725863995,1187
3234.778177631587,1245
3236.461014406761,1238
3238.1435832345005,1261
3239.8258844374595,1275
3241.507918338374,1330
3243.1896852600576,1297
3244.8711855254023,1246
3246.552419457381,1297
3248.233387379042,1343
3249.914089613516,1341
3251.59452648401,1320
3253.274698313813,1206
3254.95460542629,1269
3256.6342481448855,1191
3258.313626793125,1202
3259.9927416946084,1225
3261.6715931730196,1248
3263.3501815521176,1221
3265.0285071557437,1256
3266.706570307815,1223
3268.3843713323286,1256
3270.0619105533615,1257
3271.739188295068,1334
3273.4162048816834,1266
3275.0929606375184,1259
3276.769455886966,1294
3278.445690954498,1286
3280.1216661646613,1250
3281.797381842087,1268
3283.4728383114807,1266
3285.1480358976296,1256
3286.8229749253996,1293
3288.4976557197333,1228
3290.172078605655,1250
3291.846243908266,1258
3293.5201519527463,1259
3295.193803064357,1294
3296.8671975684374,1232
3298.5403357904024,1212
3300.21321805575,1228
3301.8858446900567,1210
3303.558216018975,1230
3305.23033236824,1280
3306.9021940636603,1261
3308.57380143113,1269
3310.2451547966184,1297
3311.916254486174,1253
3313.5871008259246,1281
3315.2576941420766,1344
3316.9280347609147,1264
3318.5981230088046,1271
3320.2679592121895,1248
3321.9375436975924,1274
3323.606876791612,1270
3325.27595882093,1310
3326.944790112305,1252
3328.6133709925753,1242
3330.2817017886573,1219
3331.949782827547,1295
3333.617614436319,1320
3335.2851969421245,1265
3336.952530672199,1266
3338.619615953853,1253
3340.286453114475,1220
3341.9530424815357,1293
3343.619384382583,1296
3345.2854791452437,1304
3346.951327097224,1249
3348.6169285663073,1226
3350.2822838803577,1368
3351.947393367319,1268
3353.61225735521,1190
3355.2768761721345,1239
3356.9412501462693,1278
3358.605379605873,1251
3360.2692648792827,1246
3361.9329062949146,1196
3363.596304181263,1223
