CollectionTime,9/20/2024 10:38:17 AM
ExposureUsed,3
CalibratedSpectrum
-962.7078968117929,515
-959.9714848408522,515
-957.2358232597828,585
-954.5009119013725,595
-951.7667505983302,593
-949.0333391832855,589
-946.3006774887896,603
-943.5687653473143,573
-940.837602591253,595
-938.1071890529199,563
-935.3775245645503,579
-932.6486089583007,554
-929.9204420662485,560
-927.1930237203925,567
-924.4663537526524,589
-921.7404319948689,610
-919.0152582788041,590
-916.2908324361409,603
-913.5671542984834,574
-910.8442236973568,540
-908.1220404642074,543
-905.4006044304027,536
-902.679915427231,523
-899.959973285902,549
-897.2407778375464,558
-894.5223289132158,542
-891.8046263438832,570
-889.0876699604426,563
-886.3714595937089,523
-883.6559950744183,538
-880.9412762332282,506
-878.2273029007168,503
-875.5140749073835,519
-872.8015920836489,507
-870.0898542598545,507
-867.3788612662631,503
-864.6686129330585,534
-861.9591090903457,513
-859.2503495681506,515
-856.5423341964203,533
-853.8350628050229,526
-851.1285352237478,537
-848.4227512823054,524
-845.7177108103272,534
-843.0134136373656,529
-840.3098595928943,503
-837.6070485063082,518
-834.9049802069229,541
-832.2036545239757,518
-829.5030712866244,530
-826.8032303239481,539
-824.1041314649472,504
-821.4057745385428,542
-818.7081593735775,541
-816.0112857988148,557
-813.3151536429393,531
-810.6197627345566,532
-807.9251129021936,550
-805.2312039742981,535
-802.5380357792392,543
-799.8456081453069,537
-797.1539209007124,587
-794.462973873588,576
-791.772766891987,577
-789.083299783884,590
-786.3945723771743,568
-783.7065844996748,572
-781.0193359791231,542
-778.3328266431781,548
-775.6470563194197,597
-772.9620248353489,517
-770.2777320183878,541
-767.5941776958798,569
-764.9113616950891,572
-762.2292838432011,568
-759.5479439673222,521
-756.8673418944801,551
-754.1874774516235,590
-751.5083504656222,563
-748.8299607632671,576
-746.15230817127,588
-743.475392516264,567
-740.7992136248035,572
-738.1237713233636,575
-735.4490654383407,551
-732.7750957960521,539
-730.1018622227365,547
-727.4293645445534,558
-724.7576025875837,571
-722.0865761778291,614
-719.4162851412126,582
-716.7467293035781,624
-714.0779084906909,620
-711.409822528237,584
-708.7424712418238,552
-706.0758544569796,597
-703.4099719991541,581
-700.7448236937178,589
-698.0804093659622,586
-695.4167288411002,586
-692.7537819442656,566
-690.0915685005134,571
-687.4300883348199,562
-684.7693412720819,618
-682.1093271371178,617
-679.4500457546669,568
-676.7914969493897,575
-674.1336805458676,597
-671.4765963686034,583
-668.8202442420206,602
-666.1646239904642,553
-663.5097354382001,593
-660.8555784094151,572
-658.2021527282176,594
-655.5494582186366,610
-652.8974947046223,642
-650.2462620100463,617
-647.5957599587009,623
-644.9459883742998,635
-642.2969470804776,624
-639.6486359007902,672
-637.0010546587141,664
-634.3542031776476,727
-631.7080812809096,696
-629.0626887917401,646
-626.4180255333008,637
-623.7740913286734,648
-621.1308860008619,674
-618.4884093727904,620
-615.8466612673046,649
-613.2056415071715,660
-610.5653499150785,699
-607.9257863136347,733
-605.28695052537,700
-602.6488423727357,677
-600.0114616781036,700
-597.3748082637674,707
-594.7388819519412,684
-592.1036825647604,712
-589.4692099242818,736
-586.8354638524829,732
-584.2024441712624,745
-581.5701507024403,729
-578.9385832677575,762
-576.3077416888759,773
-573.6776257873787,692
-571.0482353847704,706
-568.4195703024757,713
-565.7916303618415,759
-563.164415384135,727
-560.5379251905453,711
-557.9121596021815,720
-555.2871184400748,706
-552.6628015251767,751
-550.0392086783606,744
-547.4163397204204,760
-544.794194472071,796
-542.1727727539491,788
-539.5520743866118,800
-536.9320991905377,844
-534.3128469861261,854
-531.6943175936979,824
-529.0765108334947,836
-526.4594265256793,993
-523.8430644903358,1247
-521.2274245474689,1406
-518.612506517005,1472
-515.9983102187913,1620
-513.3848354725959,1753
-510.77208209810846,1993
-508.16004991493924,2263
-505.5487387426199,2377
-502.9381484006032,2421
-500.3282787082628,2237
-497.71912948489364,2000
-495.1107005497117,1696
-492.5029917218539,1376
-489.8960028203786,1219
-487.28973366426493,1121
-484.68418407241325,1008
-482.07935386364494,909
-479.47524285670266,917
-476.87185087025,918
-474.2691777228715,955
-471.66722323307334,946
-469.0659872192821,965
-466.4654694998459,940
-463.86566989303384,885
-461.26658821703614,863
-458.66822428996414,866
-456.07057792985,906
-453.4736489546475,894
-450.877437182231,826
-448.28194243039627,800
-445.68716451686,833
-443.09310325926003,825
-440.49975847515555,806
-437.9071299820263,900
-435.31521759727354,941
-432.72402113821954,898
-430.13354042210767,901
-427.5437752661022,876
-424.95472548728867,912
-422.36639090267386,906
-419.7787713291855,931
-417.1918665836721,912
-414.60567648290385,951
-412.0202008435715,1010
-409.4354394822874,1006
-406.8513922155845,955
-404.26805885991723,992
-401.685439231661,1063
-399.103533147112,1035
-396.522340422488,997
-393.9418608739278,970
-391.3620943174908,974
-388.7830405691583,905
-386.2046994448317,915
-383.6270707603344,882
-381.05015433141045,880
-378.473949973725,855
-375.8984575028645,825
-373.32367673433623,779
-370.74960748356875,751
-368.1762495659117,703
-365.60360279663576,647
-363.03166699093265,658
-360.4604419639154,621
-357.8899275306178,636
-355.32012350599507,603
-352.7510297049233,606
-350.1826459421999,583
-347.61497203254316,588
-345.04800779059235,563
-342.4817530309082,561
-339.91620756797226,627
-337.35137121618743,622
-334.7872437898774,642
-332.22382510328725,569
-329.66111497058273,531
-327.09911320585127,607
-324.53781962310075,653
-321.9772340362607,557
-319.4173562591816,581
-316.8581861056348,559
-314.2997233893127,568
-311.7419679238294,578
-309.1849195227194,604
-306.62857799943856,696
-304.0729431673641,648
-301.51801483979375,664
-298.963792829947,621
-296.41027695096386,591
-293.85746701590574,664
-291.3053628377552,697
-288.7539642294155,706
-286.2032710037115,732
-283.65328297338897,715
-281.1039999511146,726
-278.5554217494762,756
-276.007548180983,801
-273.4603790580651,746
-270.9139141930734,709
-268.3681533982807,838
-265.8230964858798,892
-263.27874326798565,891
-260.7350935566336,812
-258.1921471637804,818
-255.6499039013039,942
-253.10836358100266,863
-250.56752601459698,774
-248.02739101372765,842
-245.48795838995704,942
-242.94922795476816,975
-240.41119951956557,946
-237.8738728956746,865
-235.33724789434166,918
-232.80132432673452,896
-230.2661020039418,851
-227.73158073697357,900
-225.19776033676033,986
-222.66464061415422,1122
-220.1322213799284,1090
-217.60050244477725,953
-215.06948361931552,1097
-212.53916471408013,1185
-210.00954553952818,1059
-207.48062590603843,1012
-204.9524056239104,949
-202.4248845033651,996
-199.8980623545441,1104
-197.37193898751036,1256
-194.84651421224817,1302
-192.32178783866232,1131
-189.79775967657952,1015
-187.27442953574644,1067
-184.7517972258321,1199
-182.2298625564256,1023
-179.7086253370378,992
-177.18808537710026,1082
-174.66824248596583,1281
-172.14909647290835,1390
-169.6306471471229,1354
-167.11289431772548,1182
-164.59583779375328,1215
-162.07947738416453,1428
-159.5638128978386,1568
-157.04884414357605,1608
-154.53457093009854,1620
-152.02099306604828,1308
-149.50811035998936,1362
-146.99592262040665,1819
-144.48442965570587,2012
-141.97363127421409,1923
-139.46352728417958,1944
-136.95411749377126,1722
-134.44540171107985,1499
-131.93737974411636,1414
-129.43005140081357,1498
-126.92341648902493,1877
-124.41747481652521,2341
-121.91222619101006,2862
-119.40767042009657,2931
-116.90380731132257,3174
-114.40063667214702,3760
-111.8981583099503,5301
-109.3963720320337,7227
-106.89527764561933,9837
-104.39487495785067,11094
-101.89516377579241,14487
-99.39614390642998,19321
-96.89781515667039,25469
-94.40017733334128,31300
-91.90323024319173,29569
-89.40697369289148,19430
-86.91140748903172,11438
-84.41653143812482,9619
-81.92234534660395,13190
-79.42884902082358,19019
-76.93604226705907,22631
-74.4439248915071,23285
-71.95249670028534,17962
-69.46175749943245,12220
-66.97170709490854,9653
-64.48234529259423,11429
-61.99367189829195,13073
-59.50568671772464,14276
-57.01838955653636,20956
-54.53178022029283,25436
-52.045858514480074,33213
-49.560624244506016,40947
-47.07607721569923,45661
-44.59221723330904,46809
-42.10904410250669,46081
-39.62655762838392,38550
-37.14475761595372,34949
-34.66364387015028,28806
-32.18321619582866,26473
-29.70347439776515,30389
-27.224418280657005,36341
-24.74604764912317,43998
-22.26836230770266,65032
-19.7913620608565,65032
-17.315046712966478,65032
-14.83941606833514,65032
-12.36446993118659,65032
-9.89020810566592,65032
-7.416630395839093,65032
-4.94373660569363,65032
-2.471526539137585,65032
-6.821210263296962E-13,65032
2.47084320796705,65032
4.941003281093458,65032
7.410480415786196,65032
9.879274808531363,65032
12.347386655893956,65032
14.814816154518212,65032
17.28156350112681,65032
19.74762889252179,65032
22.21301252558385,65032
24.67771459727237,16243
27.141735304626195,7890
29.605074844762612,6509
32.06773341487792,6123
34.52971121224755,6714
36.99100843422559,4694
39.45162527824516,4355
41.91156194181792,4366
44.370818622535126,4059
46.82939551806646,5040
49.287292826160524,6103
51.74451074464503,4573
54.201049471426245,3635
56.65690920448981,3109
59.112090141899785,2623
61.56659248179983,3189
64.02041642241159,3066
66.4735621620365,3471
68.92602989905402,3884
71.37781983192338,3524
73.82893215918205,2803
76.27936707944684,2455
78.72912479141326,2420
81.17820549385567,1986
83.62660938562783,2001
86.07433666566146,2225
88.5213875329681,2343
90.96776218663751,1934
93.41346082583925,2499
95.85848364982041,2771
98.30283085790859,2074
100.7465026495089,1925
103.18949922410604,1860
105.63182078126385,1738
108.07346752062438,1709
110.51443964190923,1648
112.95473734491827,1621
115.39436082953114,1671
117.83331029570547,1885
120.27158594347827,1738
122.7091879729652,1724
125.1461165843615,1758
127.58237197794062,1768
130.01795435405518,1720
132.4528639131364,1702
134.88710085569494,1804
137.32066538231982,1740
139.75355769367923,1573
142.1857779905207,1407
144.61732647366978,1309
147.04820334403132,1432
149.47840880258934,1460
151.90794305040674,1559
154.33680628862487,1699
156.76499871846443,1776
159.19252054122433,1767
161.61937195828352,1847
164.04555317109896,2051
166.47106438120693,2094
168.89590579022217,2065
171.320077599839,2171
173.7435800118302,2332
176.16641322804742,2466
178.58857745042144,2482
181.01007288096173,2451
183.43089972175687,2353
185.85105817497413,2294
188.27054844285988,2393
190.6893707277394,2457
193.10752523201643,2595
195.5250121581745,2676
197.9418317087751,2556
200.3579840864594,2528
202.7734694939469,2728
205.18828813403627,2762
207.6024402096051,2815
210.01592592360964,2579
212.42874547908548,2603
214.84089907914665,2570
217.2523869269868,2578
219.66320922587727,2658
222.0733661791695,2471
224.48285799029293,2618
226.8916848627572,2626
229.29984700014882,2604
231.7073446061355,2500
234.11417788446204,2675
236.520347038953,2715
238.92585227351185,2795
241.33069379212054,2784
243.73487179884035,2737
246.1383864978112,2745
248.541238093252,2763
250.9434267894609,2692
253.34495279081432,2607
255.74581630176783,2603
258.1460175268563,2562
260.54555667069314,2615
262.9444339379703,2671
265.3426495334594,2710
267.7402036620107,2728
270.1370965285529,2631
272.53332833809407,2714
274.9288992957214,2599
277.32380960660055,2572
279.718059475976,2577
282.1116491091717,2605
284.5045787115897,2612
286.89684848871195,2553
289.2884586460981,2710
291.67940938938807,2765
294.0697009242996,2779
296.4593334566299,2661
298.84830719225477,2730
301.23662233712923,2627
303.6242790972866,2644
306.01127767884,2651
308.39761828798066,2565
310.78330113097934,2490
313.16832641418534,2486
315.5526943440269,2471
317.9364051270112,2440
320.3194589697242,2529
322.70185607883093,2435
325.0835966610754,2361
327.4646809232805,2398
329.8451090723478,2413
332.2248813152577,2437
334.6039978590701,2317
336.9824589109231,2347
339.36026467803447,2403
341.7374153677,2299
344.113911187295,2310
346.48975234427337,2273
348.8649390461686,2320
351.2394715005918,2259
353.61334991523415,2266
355.9865744978655,2243
358.35914545633375,2381
360.73106299856715,2302
363.10232733257146,2278
365.47293866643247,2208
367.84289720831396,2229
370.2122031664593,2251
372.5808567491905,2193
374.9488581649083,2137
377.31620762209275,2152
379.6829053293021,2151
382.0489514951745,2113
384.4143463284262,2108
386.7790900378528,2090
389.14318283232853,2042
391.50662492080653,2098
393.86941651231916,2079
396.23155781597745,2038
398.5930490409713,2098
400.9538903965696,2073
403.3140820921202,2070
405.6736243370498,2019
408.03251734086336,2023
410.3907613131465,2001
412.74835646356166,2082
415.10530300185144,2068
417.4616011378372,2012
419.81725108141893,2070
422.1722530425758,2044
424.5266072313656,1970
426.880313857925,2018
429.2333731324701,1992
431.58578526529516,2042
433.9375504667738,2056
436.2886689473588,1960
438.63914091758113,2005
440.9889665880513,1977
443.33814616945835,1985
445.68667987257015,1926
448.03456790823395,1971
450.3818104873759,1945
452.72840782100013,1997
455.07436012019105,1972
457.41966759611057,1969
459.7643304600007,1938
462.10834892318155,1914
464.4517231970525,1964
466.79445349309174,2012
469.1365400228566,2050
471.4779829979826,2014
473.81878263018564,2056
476.15893913125876,2086
478.4984527130747,2080
480.8373235875855,2212
483.17555196682144,2161
485.5131380628919,2226
487.8500820879857,2351
490.1863842543697,2477
492.52204477439034,2716
494.8570638604725,2990
497.1914417251204,3461
499.52517858091653,4238
501.85827464052306,4790
504.19073011668036,5296
506.5225452222086,5381
508.85372017000566,5386
511.18425517304956,5517
513.514150444396,6050
515.8434061971808,6943
518.1720226446176,7334
520.4999999999999,6836
522.8273384766991,6496
525.1540382881666,5959
527.480099647932,5126
529.8055227696037,3877
532.1303078668694,2910
534.454455153496,2471
536.777964843328,2226
539.1008371502907,2137
541.4230722883866,2193
543.744670471698,2138
546.0656319143858,2053
548.3859568306899,2124
550.7056454349294,1996
553.0246979415016,1997
555.3431145648834,1942
557.6608955196306,1981
559.978041020377,1938
562.2945512818363,2012
564.6104265188006,2012
566.9256669461412,2071
569.2402727788082,2066
571.5542442318302,2028
573.8675815203156,2056
576.1802848594508,2098
578.4923544645015,2027
580.8037905508126,2043
583.114593333807,2018
585.4247630289875,2007
587.7342998519354,1910
590.0432040183106,1987
592.3514757438526,2152
594.6591152443794,2090
596.9661227357875,1998
599.2724984340531,2064
601.578242555231,1996
603.8833553154542,1971
606.1878369309362,1997
608.4916876179676,2020
610.7949075929192,2028
613.0974970722403,1960
615.3994562724587,1994
617.7007854101818,1955
620.0014847020951,2082
622.3015543649641,2064
624.6009946156324,1991
626.8998056710224,1922
629.1979877481361,1959
631.4955410640538,1989
633.7924658359349,2022
636.0887622810175,2006
638.3844306166192,2085
640.6794710601358,1990
642.9738838290426,2043
645.2676691408932,2016
647.5608272133207,2003
649.853358264037,2036
652.1452625108324,2034
654.4365401715764,2095
656.7271914642178,2066
659.0172166067838,2053
661.3066158173809,2034
663.5953893141935,2008
665.8835373154867,2002
668.1710600396028,2119
670.4579577049639,1982
672.7442305300709,2020
675.0298787335033,2063
677.3149025339197,1949
679.599302150058,2041
681.8830778007342,2014
684.1662297048437,1958
686.4487580813608,2074
688.7306631493387,2048
691.0119451279091,1961
693.2926042362834,1988
695.5726406937516,2012
697.8520547196814,1981
700.1308465335215,1963
702.4090163547982,1956
704.6865644031171,2025
706.9634908981619,1935
709.2397960596965,2038
711.5154801075631,2026
713.7905432616823,2085
716.0649857420548,2006
718.3388077687592,2002
720.612009561953,2042
722.8845913418733,2009
725.1565533288352,1980
727.427895743234,1980
729.6986188055427,2010
731.9687227363137,2043
734.238207756178,2064
736.5070740858458,2045
738.7753219461066,2114
741.0429515578281,1972
743.3099631419569,1984
745.5763569195191,1976
747.8421331116193,1943
750.1072919394409,1967
752.3718336242467,2031
754.6357583873777,1970
756.8990664502545,2034
759.1617580343765,1968
761.423833361321,2060
763.6852926527457,2005
765.9461361303862,2088
768.206364016058,2039
770.4659765316536,2026
772.7249738991469,2075
774.9833563405886,2038
777.2411240781092,1975
779.4982773339183,2031
781.7548163303044,2026
784.010741289634,2083
786.2660524343538,2112
788.5207499869881,2023
790.7748341701416,2100
793.0283052064964,2083
795.2811633188143,2088
797.5334087299362,2038
799.7850416627813,2114
802.0360623403484,2055
804.2864709857143,2048
806.5362678220353,2120
808.7854530725468,2012
811.0340269605625,2064
813.2819897094754,2027
815.5293415427581,2104
817.77608268396,2017
820.0222133567116,2022
822.2677337847211,2074
824.5126441917765,2070
826.7569448017433,2063
829.0006358385675,2081
831.2437175262731,1990
833.4861900889629,2036
835.7280537508192,2108
837.9693087361026,2088
840.2099552691533,2097
842.4499935743896,2117
844.689423876309,2089
846.9282463994886,2046
849.1664613685833,2070
851.4040690083276,2057
853.6410695435349,1999
855.877463199097,2115
858.1132501999847,2063
860.3484307712487,2135
862.5830051380175,2139
864.8169735254988,2097
867.0503361589791,2051
869.2830932638243,2142
871.5152450654786,2059
873.7467917894654,2090
875.9777336613873,2120
878.2080709069252,2052
880.4378037518389,2077
882.666932421968,2108
884.8954571432301,2158
887.1233781416219,2118
889.3506956432192,2166
891.5774098741766,2065
893.803521060728,2093
896.0290294291852,2075
898.2539352059397,2104
900.4782386174619,2123
902.7019398903011,2156
904.925039251085,2100
907.147536926521,2156
909.3694331433943,2269
911.59072812857,2163
913.8114221089921,2150
916.0315153116827,2075
918.2510079637437,2168
920.4699002923547,2107
922.6881925247761,2065
924.905884888345,2087
927.1229776104793,2100
929.3394709186747,2105
931.555365040506,2156
933.7706602036275,2112
935.9853566357709,2133
938.1994545647489,2184
940.4129542184515,2168
942.6258558248488,2157
944.8381596119883,2115
947.0498658079974,2116
949.2609746410825,2176
951.4714863395287,2077
953.6814011316998,2166
955.8907192460387,2080
958.0994409110671,2041
960.3075663553858,2158
962.5150958076741,2045
964.7220294966913,2069
966.928367651274,2019
969.1341105003388,2065
971.3392582728806,2011
973.5438111979742,2022
975.747769504772,1992
977.9511334225061,1913
980.153903180487,1968
982.3560790081052,1988
984.5576611348289,1958
986.7586497902058,1973
988.9590452038618,1935
991.158847605503,1908
993.3580572249133,1812
995.5566742919558,1830
997.7546990365728,1758
999.952131688785,1733
1002.1489724786926,1699
1004.3452216364743,1761
1006.5408793923874,1645
1008.7359459767691,1662
1010.9304216200343,1656
1013.1243065526781,1664
1015.3176010052733,1654
1017.510305208472,1640
1019.7024193930064,1662
1021.8939437896848,1662
1024.0848786293977,1614
1026.2752241431122,1625
1028.4649805618747,1616
1030.6541481168115,1645
1032.842727039127,1635
1035.0307175601051,1615
1037.2181199111074,1593
1039.4049343235752,1542
1041.591161029029,1558
1043.7768002590683,1589
1045.9618522453698,1544
1048.1463172196918,1574
1050.3301954138697,1537
1052.513487059818,1558
1054.69619238953,1516
1056.8783116350783,1525
1059.0598450286152,1496
1061.2407928023704,1579
1063.4211551886528,1554
1065.6009324198508,1603
1067.780124728432,1542
1069.9587323469414,1526
1072.1367555080046,1547
1074.314194444325,1521
1076.4910493886855,1504
1078.667320573947,1554
1080.843008233051,1537
1083.0181125990161,1497
1085.1926339049414,1486
1087.3665723840027,1470
1089.5399282694575,1442
1091.7127017946405,1495
1093.8848931929647,1441
1096.0565026979243,1462
1098.2275305430899,1456
1100.3979769621128,1433
1102.567842188722,1415
1104.737126456726,1407
1106.9058300000124,1466
1109.0739530525475,1495
1111.2414958483764,1455
1113.4084586216231,1451
1115.5748416064907,1432
1117.7406450372605,1447
1119.9058691482942,1445
1122.0705141740304,1437
1124.2345803489884,1470
1126.3980679077658,1429
1128.5609770850388,1444
1130.7233081155623,1428
1132.8850612341707,1414
1135.0462366757774,1427
1137.2068346753745,1381
1139.3668554680326,1427
1141.526299288901,1417
1143.68516637321,1444
1145.8434569562655,1400
1148.001171273455,1409
1150.158309560244,1384
1152.3148720521767,1382
1154.470858984876,1388
1156.626270594044,1478
1158.7811071154629,1385
1160.9353687849912,1421
1163.089055838569,1396
1165.242168512213,1441
1167.3947070420209,1444
1169.5466716641677,1426
1171.6980626149075,1381
1173.8488801305748,1326
1175.9991244475814,1405
1178.1487958024186,1342
1180.2978944316555,1372
1182.4464205719428,1405
1184.5943744600072,1360
1186.7417563326567,1396
1188.8885664267755,1380
1191.0348049793297,1408
1193.1804722273619,1378
1195.325568407995,1400
1197.4700937584303,1378
1199.614048515948,1352
1201.7574329179074,1363
1203.900247201746,1387
1206.042491604982,1341
1208.1841663652099,1354
1210.3252717201053,1347
1212.465807907422,1313
1214.6057751649923,1345
1216.7451737307279,1385
1218.8840038426192,1392
1221.0222657387353,1453
1223.1599596572241,1374
1225.2970858363137,1353
1227.4336445143094,1440
1229.5696359295966,1346
1231.705060320639,1369
1233.8399179259786,1381
1235.9742089842384,1365
1238.107933734118,1369
1240.2410924143974,1381
1242.373685263935,1409
1244.5057125216676,1288
1246.6371744266116,1387
1248.7680712178621,1379
1250.898403134593,1348
1253.028170416058,1360
1255.1573733015875,1328
1257.2860120305932,1371
1259.4140868425648,1412
1261.54159797707,1374
1263.6685456737569,1388
1265.7949301723515,1356
1267.9207517126597,1343
1270.046010534565,1347
1272.1707068780306,1331
1274.2948409830983,1341
1276.4184130898889,1345
1278.541423438603,1395
1280.6638722695184,1321
1282.785759822993,1367
1284.9070863394636,1326
1287.0278520594447,1354
1289.1480572235314,1365
1291.2677020723963,1367
1293.3867868467923,1342
1295.5053117875495,1412
1297.623277135579,1387
1299.740683131868,1359
1301.8575300174857,1377
1303.973818033578,1357
1306.0895474213703,1415
1308.2047184221678,1404
1310.3193312773528,1365
1312.4333862283888,1370
1314.5468835168163,1401
1316.659823384255,1412
1318.7722060724045,1397
1320.8840318230418,1417
1322.9953008780249,1401
1325.1060134792888,1306
1327.2161698688478,1412
1329.3257702887959,1370
1331.4348149813054,1370
1333.5433041886276,1367
1335.6512381530933,1354
1337.7586171171101,1355
1339.8654413231675,1392
1341.9717110138317,1348
1344.0774264317488,1385
1346.1825878196432,1401
1348.2871954203192,1355
1350.3912494766587,1351
1352.4947502316231,1392
1354.5976979282532,1370
1356.7000928096686,1423
1358.8019351190665,1359
1360.9032250997243,1416
1363.0039629949988,1376
1365.1041490483235,1352
1367.2037835032133,1396
1369.3028666032606,1369
1371.401398592137,1460
1373.4993797135926,1402
1375.5968102114575,1377
1377.6936903296396,1408
1379.7900203121262,1417
1381.8858004029835,1412
1383.9810308463561,1377
1386.075711886469,1361
1388.1698437676241,1431
1390.2634267342032,1462
1392.356461030667,1376
1394.4489469015557,1424
1396.5408845914872,1427
1398.6322743451592,1433
1400.7231164073469,1416
1402.813411022907,1438
1404.903158436773,1422
1406.9923588939578,1436
1409.0810126395531,1416
1411.1691199187303,1473
1413.2566809767386,1443
1415.343696058907,1387
1417.4301654106425,1460
1419.5160892774315,1376
1421.6014679048399,1446
1423.6863015385125,1458
1425.7705904241707,1426
1427.8543348076178,1421
1429.9375349347342,1416
1432.0201910514802,1449
1434.102303403894,1383
1436.1838722380944,1452
1438.2648978002767,1419
1440.3453803367174,1459
1442.4253200937692,1488
1444.5047173178677,1490
1446.5835722555234,1474
1448.6618851533285,1424
1450.739656257952,1442
1452.8168858161434,1439
1454.8935740747306,1415
1456.96972128062,1484
1459.045327680797,1477
1461.120393522327,1485
1463.1949190523528,1481
1465.2689045180973,1474
1467.3423501668608,1481
1469.415256246024,1446
1471.4876230030463,1459
1473.559450685465,1453
1475.6307395408976,1477
1477.7014898170391,1437
1479.771701761665,1437
1481.8413756226287,1413
1483.9105116478618,1415
1485.9791100853772,1427
1488.0471711832643,1371
1490.1146951896926,1382
1492.1816823529098,1411
1494.2481329212433,1437
1496.3140471430984,1466
1498.3794252669609,1426
1500.4442675413939,1453
1502.5085742150404,1466
1504.572345536622,1423
1506.6355817549388,1429
1508.6982831188702,1449
1510.7604498773744,1442
1512.8220822794883,1496
1514.8831805743293,1471
1516.9437450110909,1444
1519.003775839048,1467
1521.0632733075522,1453
1523.1222376660367,1486
1525.1806691640113,1404
1527.2385680510652,1385
1529.2959345768668,1476
1531.3527689911643,1462
1533.4090715437833,1479
1535.4648424846291,1447
1537.5200820636855,1443
1539.5747905310159,1436
1541.6289681367616,1460
1543.6826151311434,1421
1545.7357317644614,1515
1547.7883182870937,1497
1549.8403749494987,1448
1551.8919020022113,1482
1553.9428996958477,1441
1555.9933682811015,1522
1558.0433080087469,1480
1560.0927191296346,1401
1562.1416018946961,1443
1564.1899565549415,1454
1566.2377833614592,1442
1568.2850825654164,1411
1570.3318544180606,1452
1572.3780991707158,1450
1574.423817074788,1449
1576.4690083817595,1476
1578.5136733431923,1482
1580.5578122107272,1420
1582.601425236085,1409
1584.6445126710646,1429
1586.6870747675434,1452
1588.7291117774776,1416
1590.7706239529034,1483
1592.8116115459347,1476
1594.8520748087658,1398
1596.8920139936686,1441
1598.9314293529933,1496
1600.9703211391711,1477
1603.008689604711,1426
1605.0465350022005,1420
1607.0838575843068,1479
1609.1206576037753,1458
1611.1569353134305,1508
1613.1926909661765,1440
1615.2279248149953,1451
1617.2626371129481,1433
1619.2968281131757,1468
1621.3304980688963,1371
1623.3636472334088,1443
1625.39627586009,1421
1627.428384202396,1415
1629.459972513861,1419
1631.4910410480993,1432
1633.5215900588028,1468
1635.551619799744,1457
1637.5811305247717,1462
1639.6101224878166,1411
1641.6385959428862,1422
1643.6665511440683,1399
1645.693988345528,1387
1647.7209078015112,1464
1649.7473097663405,1405
1651.7731944944203,1417
1653.7985622402307,1412
1655.823413258333,1400
1657.847747803366,1421
1659.8715661300494,1535
1661.8948684931793,1471
1663.9176551476316,1462
1665.9399263483624,1488
1667.9616823504057,1431
1669.982923408873,1362
1672.0036497789574,1410
1674.0238617159293,1412
1676.043559475138,1439
1678.0627433120121,1447
1680.081413482059,1423
1682.0995702408654,1419
1684.117213844096,1408
1686.134344547495,1444
1688.1509626068864,1392
1690.1670682781705,1404
1692.182661817329,1443
1694.1977434804217,1413
1696.2123135235875,1456
1698.226372203043,1462
1700.2399197750851,1480
1702.2529564960905,1473
1704.2654826225112,1473
1706.277498410882,1369
1708.2890041178139,1443
1710.2999999999988,1428
1712.3104863142066,1402
1714.3204633172854,1410
1716.329931266163,1445
1718.3388904178469,1407
1720.3473410294214,1434
1722.3552833580516,1428
1724.3627176609807,1477
1726.3696441955308,1399
1728.3760632191033,1461
1730.3819749891782,1453
1732.3873797633146,1410
1734.3922777991502,1483
1736.3966693544012,1362
1738.4005546868639,1388
1740.4039340544127,1419
1742.406807715001,1454
1744.4091759266616,1445
1746.4110389475054,1464
1748.4123970357223,1451
1750.413250449582,1460
1752.4135994474318,1391
1754.4134442876993,1450
1756.4127852288902,1422
1758.4116225295893,1466
1760.4099564484595,1442
1762.407787244244,1473
1764.405115175764,1463
1766.4019405019203,1420
1768.3982634816916,1424
1770.3940843741357,1447
1772.3894034383907,1473
1774.3842209336717,1406
1776.378537119274,1415
1778.372352254571,1441
1780.3656665990156,1411
1782.3584804121397,1432
1784.3507939535534,1492
1786.3426074829463,1480
1788.3339212600863,1436
1790.3247355448211,1458
1792.3150505970766,1437
1794.3048666768573,1442
1796.2941840442477,1482
1798.2830029594106,1402
1800.2713236825884,1457
1802.2591464741004,1498
1804.2464715943465,1436
1806.2332993038058,1384
1808.2196298630352,1441
1810.2054635326708,1419
1812.190800573428,1504
1814.175641246101,1475
1816.1599858115628,1418
1818.1438345307652,1481
1820.127187664738,1438
1822.1100454745924,1430
1824.092408221516,1436
1826.0742761667766,1454
1828.055649571721,1453
1830.0365286977735,1413
1832.0169138064398,1431
1833.9968051593014,1465
1835.9762030180214,1442
1837.9551076443408,1441
1839.9335193000788,1429
1841.9114382471344,1409
1843.888864747485,1457
1845.8657990631878,1396
1847.842241456378,1374
1849.8181921892697,1389
1851.7936515241558,1473
1853.7686197234098,1451
1855.7430970494815,1409
1857.7170837649014,1448
1859.6905801322787,1418
1861.6635864143004,1454
1863.6361028737338,1390
1865.608129773424,1440
1867.5796673762961,1460
1869.5507159453537,1481
1871.521275743678,1492
1873.4913470344313,1525
1875.4609300808534,1453
1877.4300251462632,1421
1879.3986324940588,1433
1881.366752387717,1489
1883.3343850907936,1499
1885.3015308669228,1500
1887.268189979819,1448
1889.2343626932739,1422
1891.2000492711595,1465
1893.1652499774254,1487
1895.1299650761011,1515
1897.0941948312952,1478
1899.0579395071945,1449
1901.0211993680641,1513
1902.98397467825,1498
1904.9462657021745,1420
1906.9080727043415,1427
1908.869395949332,1465
1910.8302357018065,1442
1912.790592226504,1451
1914.7504657882428,1466
1916.7098566519212,1477
1918.6687650825133,1463
1920.6271913450764,1425
1922.5851357047422,1468
1924.5425984267245,1519
1926.499579776314,1456
1928.4560800188833,1408
1930.4120994198802,1468
1932.367638244833,1496
1934.32269675935,1470
1936.2772752291175,1439
1938.231373919899,1485
1940.1849930975404,1455
1942.1381330279637,1448
1944.0907939771696,1450
1946.0429762112412,1423
1947.9946799963363,1470
1949.9459055986945,1458
1951.896653284633,1453
1953.8469233205478,1388
1955.7967159729142,1445
1957.7460315082863,1434
1959.6948701932974,1485
1961.6432322946594,1459
1963.5911180791632,1450
1965.5385278136787,1516
1967.4854617651545,1480
1969.4319202006182,1438
1971.377903387176,1447
1973.3234115920136,1448
1975.268445082395,1476
1977.2130041256642,1412
1979.1570889892423,1398
1981.1006999406304,1410
1983.04383724741,1514
1984.986501177238,1429
1986.928691997853,1405
1988.8704099770712,1451
1990.811655382789,1403
1992.7524284829801,1358
1994.692729545698,1380
1996.6325588390755,1479
1998.5719166313224,1454
2000.5108031907307,1471
2002.4492187856677,1398
2004.387163684583,1409
2006.3246381560011,1428
2008.2616424685298,1440
2010.1981768908527,1455
2012.1342416917332,1480
2014.069837140014,1415
2016.0049635046162,1450
2017.9396210545406,1409
2019.8738100588666,1471
2021.8075307867502,1463
2023.740783507431,1399
2025.6735684902228,1463
2027.6058860045214,1401
2029.5377363198004,1421
2031.4691197056118,1441
2033.4000364315875,1417
2035.3304867674374,1438
2037.260470982952,1410
2039.189989347998,1445
2041.1190421325232,1404
2043.047629606554,1426
2044.9757520401945,1486
2046.9034097036288,1458
2048.8306028671195,1458
2050.7573318010086,1510
2052.683596775716,1420
2054.609398061742,1411
2056.5347359296647,1459
2058.4596106501403,1426
2060.384022493906,1460
2062.3079717317764,1402
2064.231458634646,1460
2066.1544834734873,1408
2068.077046519352,1421
2069.99914804337,1467
2071.9207883167524,1423
2073.8419676107865,1455
2075.7626861968406,1399
2077.6829443463607,1402
2079.6027423308715,1418
2081.522080421977,1422
2083.440958891362,1449
2085.359378010786,1440
2087.2773380520907,1419
2089.194839287196,1477
2091.111881988101,1415
2093.0284664268825,1436
2094.9445928756973,1379
2096.86026160678,1464
2098.775472892446,1417
2100.690227005088,1430
2102.604524217178,1454
2104.5183648012676,1403
2106.431749029985,1431
2108.34467717604,1497
2110.2571495122206,1421
2112.169166311393,1444
2114.080727846503,1456
2115.9918343905747,1475
2117.902486216711,1471
2119.8126835980956,1515
2121.722426807987,1533
2123.6317161197285,1475
2125.5405518067364,1484
2127.448934142509,1494
2129.356863400624,1493
2131.264339854737,1521
2133.1713637785815,1468
2135.077935445972,1470
2136.9840551308002,1465
2138.889723107037,1464
2140.7949396487334,1517
2142.699705030018,1468
2144.6040195250994,1522
2146.507883408264,1484
2148.4112969538774,1506
2150.3142604363848,1507
2152.2167741303097,1460
2154.1188383102535,1482
2156.0204532508997,1469
2157.9216192270064,1479
2159.822336513414,1591
2161.7226053850413,1494
2163.622426116884,1490
2165.5217989840185,1568
2167.4207242616,1548
2169.319202224862,1525
2171.2172331491165,1504
2173.1148173097563,1494
2175.0119549822507,1491
2176.90864644215,1524
2178.8048919650823,1566
2180.7006918267534,1541
2182.596046302952,1545
2184.4909556695407,1538
2186.3854202024645,1513
2188.279440177746,1504
2190.173015871487,1519
2192.066147559868,1529
2193.958835519149,1516
2195.851080025667,1516
2197.7428813558417,1528
2199.6342397861667,1542
2201.5251555932186,1568
2203.415629053651,1543
2205.3056604441986,1528
2207.19525004167,1577
2209.084398122958,1586
2210.9731049650327,1577
2212.861370844941,1547
2214.749196039812,1581
2216.636580826851,1622
2218.523525483344,1566
2220.410030286655,1560
2222.296095514226,1648
2224.1817214435805,1593
2226.066908352319,1557
2227.951656518121,1581
2229.835966218746,1614
2231.71983773203,1598
2233.6032713358913,1598
2235.486267308324,1563
2237.3688259274036,1518
2239.2509474712824,1520
2241.132632218193,1593
2243.013880446447,1577
2244.8946924344323,1529
2246.7750684606203,1539
2248.6550088035574,1588
2250.534513741871,1609
2252.413583554265,1629
2254.292218519526,1616
2256.170418916517,1628
2258.0481850241786,1558
2259.925517121534,1608
2261.8024154876825,1571
2263.678880401803,1591
2265.5549121431536,1615
2267.430510991071,1571
2269.305677224971,1575
2271.180411124348,1504
2273.0547129687766,1548
2274.9285830379076,1519
2276.8020216114737,1595
2278.6750289692845,1567
2280.5476053912294,1568
2282.4197511572766,1620
2284.2914665474727,1618
2286.162751841943,1631
2288.0336073208937,1618
2289.904033264608,1612
2291.774029953448,1636
2293.6435976678554,1576
2295.5127366883517,1499
2297.381447295534,1512
2299.2497297700825,1476
2301.1175843927526,1442
2302.9850114443825,1368
2304.852011205885,1380
2306.7185839582553,1328
2308.5847299825664,1283
2310.4504495599676,1348
2312.3157429716925,1348
2314.1806104990483,1319
2316.0450524234247,1290
2317.9090690262888,1288
2319.772660589186,1330
2321.635827393742,1269
2323.498569721661,1290
2325.3608878547248,1279
2327.2227820747967,1227
2329.0842526638157,1293
2330.945299903803,1255
2332.805924076857,1242
2334.6661254651535,1309
2336.525904350951,1302
2338.3852610165827,1320
2340.244195744464,1277
2342.102708817088,1301
2343.9608005170253,1335
2345.8184711269287,1298
2347.675720929526,1323
2349.532550207628,1277
2351.38895924412,1300
2353.24494832197,1349
2355.100517724223,1238
2356.955667734004,1275
2358.810398634514,1258
2360.664710709037,1328
2362.5186042409337,1292
2364.3720795136437,1274
2366.225136810686,1318
2368.0777764156583,1282
2369.929998612237,1282
2371.7818036841777,1265
2373.633191915315,1247
2375.484163589562,1313
2377.3347189909114,1331
2379.184858403434,1348
2381.03458211128,1267
2382.8838903986775,1289
2384.732783549936,1313
2386.5812618494406,1293
2388.4293255816588,1221
2390.2769750311327,1235
2392.1242104824883,1262
2393.971032220427,1259
2395.8174405297295,1297
2397.6634356952563,1265
2399.509018001947,1283
2401.3541877348193,1307
2403.1989451789705,1278
2405.043290619576,1267
2406.8872243418905,1287
2408.730746631247,1291
2410.5738577730594,1323
2412.4165580528183,1316
2414.258847756095,1317
2416.100727168537,1291
2417.9421965758734,1219
2419.783256263912,1273
2421.623906518538,1257
2423.4641476257157,1294
2425.303979871491,1311
2427.143403541984,1298
2428.9824189233977,1290
2430.821026302012,1258
2432.6592259641866,1235
2434.497018196361,1293
2436.33440328505,1245
2438.171381516851,1280
2440.00795317844,1278
2441.844118556569,1228
2443.6798779380724,1306
2445.5152316098606,1307
2447.3501798589255,1266
2449.1847229723357,1290
2451.0188612372403,1302
2452.8525949408663,1307
2454.6859243705203,1262
2456.518849813587,1309
2458.3513715575314,1322
2460.183489889895,1299
2462.015205098301,1251
2463.8465174704493,1291
2465.67742729412,1256
2467.5079348571717,1313
2469.338040447542,1223
2471.1677443532476,1200
2472.9970468623833,1267
2474.825948263123,1270
2476.6544488437207,1276
2478.482548892508,1306
2480.310248697896,1319
2482.137548548374,1290
2483.9644487325118,1266
2485.790949538956,1290
2487.617051256433,1270
2489.44275417375,1276
2491.26805857979,1318
2493.0929647635157,1310
2494.917473013971,1256
2496.741583620276,1298
2498.5652968716304,1243
2500.3886130573137,1285
2502.2115324666834,1229
2504.0340553891765,1277
2505.856182114308,1232
2507.6779129316733,1247
2509.499248130945,1307
2511.3201880018764,1261
2513.140732834298,1221
2514.9608829181198,1242
2516.780638543331,1291
2518.6,1268
2520.418967578273,1254
2522.237541568376,1268
2524.0557222606144,1268
2525.8735099453706,1255
2527.6909049131086,1243
2529.507907454368,1266
2531.32451785977,1259
2533.140736420014,1306
2534.9565634258774,1264
2536.771999168218,1243
2538.5870439379714,1256
2540.4016980261526,1257
2542.2159617238544,1314
2544.02983532225,1296
2545.8433191125914,1237
2547.656413386209,1230
2549.4691184345115,1237
2551.2814345489874,1240
2553.093362021204,1274
2554.904901142808,1267
2556.716052205523,1291
2558.526815501153,1275
2560.3371913215824,1260
2562.147179958771,1250
2563.956781704761,1264
2565.7659968516705,1252
2567.5748256916986,1288
2569.3832685171224,1256
2571.1913256202984,1264
2572.9989972936614,1316
2574.806283829725,1232
2576.613185521084,1237
2578.4197026604074,1270
2580.2258355404483,1213
2582.031584454035,1239
2583.836949694077,1280
2585.6419315535613,1214
2587.4465303255533,1290
2589.2507463032002,1296
2591.0545797797245,1241
2592.8580310484303,1287
2594.6611004026995,1211
2596.463788135992,1293
2598.266094541849,1238
2600.0680199138874,1271
2601.869564545807,1248
2603.670728731383,1326
2605.4715127644704,1304
2607.2719169390048,1259
2609.071941548998,1296
2610.8715868885433,1329
2612.670853251811,1276
2614.469740933052,1298
2616.268250226594,1281
2618.0663814268455,1319
2619.864134828292,1278
2621.6615107255006,1299
2623.458509413115,1284
2625.2551311858597,1355
2627.0513763385347,1319
2628.8472451660223,1269
2630.6427379632833,1302
2632.4378550253564,1273
2634.232596647359,1260
2636.026963124488,1217
2637.8209547520187,1206
2639.6145718253065,1286
2641.407814639785,1247
2643.200683490966,1276
2644.9931786744414,1287
2646.7853004858807,1294
2648.577049221034,1294
2650.3684251757277,1251
2652.1594286458712,1266
2653.9500599274484,1294
2655.740319316525,1266
2657.5302071092437,1294
2659.3197236018286,1299
2661.10886909058,1291
2662.8976438718782,1280
2664.686048242183,1238
2666.4740824980327,1221
2668.2617469360443,1243
2670.0490418529134,1269
2671.8359675454153,1283
2673.622524310403,1303
2675.408712444811,1306
2677.1945322456495,1233
2678.979984010009,1245
2680.76506803506,1261
2682.5497846180497,1275
2684.334134056306,1247
2686.1181166472343,1238
2687.9017326883213,1304
2689.6849824771293,1267
2691.4678663113013,1225
2693.2503844885596,1283
2695.032537306705,1294
2696.8143250636167,1301
2698.5957480572542,1286
2700.3768065856534,1292
2702.1575009469316,1280
2703.937831439283,1295
2705.717798360982,1328
2707.4974020103837,1300
2709.276642685917,1239
2711.055520686095,1264
2712.834036309506,1304
2714.612189854819,1282
2716.389981620782,1289
2718.1674119062204,1294
2719.944481010041,1265
2721.721189231226,1321
2723.4975368688415,1217
2725.273524222027,1228
2727.0491515900053,1231
2728.824419272075,1272
2730.5993275676146,1275
2732.3738767760838,1312
2734.148067197016,1293
2735.921899130031,1300
2737.6953728748194,1298
2739.468488731156,1296
2741.2412469988926,1287
2743.0136479779617,1297
2744.785691968372,1252
2746.5573792702116,1271
2748.3287101836504,1241
2750.099685008934,1238
2751.870304046388,1273
2753.640567596418,1252
2755.4104759595057,1208
2757.1800294362156,1285
2758.949228327187,1278
2760.7180729331412,1242
2762.486563554877,1252
2764.254700493272,1270
2766.022484049284,1256
2767.789914523947,1191
2769.5569922183786,1251
2771.3237174337705,1240
2773.090090471394,1241
2774.8561116326036,1300
2776.6217812188274,1296
2778.3870995315756,1313
2780.1520668724356,1296
2781.9166835430747,1316
2783.6809498452394,1260
2785.444866080754,1350
2787.2084325515225,1276
2788.971649559527,1365
2790.73451740683,1288
2792.4970363955713,1256
2794.2592068279705,1231
2796.0210290063264,1249
2797.7825032330147,1286
2799.543629810493,1323
2801.304409041296,1300
2803.0648412280366,1288
2804.8249266734088,1285
2806.5846656801846,1238
2808.344058551212,1283
2810.1031055894246,1264
2811.8618070978273,1300
2813.6201633795085,1284
2815.378174737636,1277
2817.1358414754536,1252
2818.893163896285,1239
2820.6501423035334,1267
2822.4067770006814,1287
2824.1630682912883,1286
2825.9190164789957,1350
2827.6746218675207,1296
2829.429884760661,1302
2831.184805462294,1347
2832.9393842763743,1316
2834.693621506936,1257
2836.4475174580916,1289
2838.201072434034,1274
2839.954286739034,1283
2841.707160677441,1268
2843.459694553685,1284
2845.2118886722724,1284
2846.96374333779,1298
2848.7152588549034,1341
2850.4664355283567,1304
2852.217273662973,1271
2853.9677735636546,1322
2855.7179355353833,1313
2857.4677598832186,1257
2859.217246912299,1248
2860.9663969278427,1251
2862.715210235146,1283
2864.4636871395846,1275
2866.211827946614,1269
2867.9596329617652,1278
2869.7071024906536,1284
2871.4542368389684,1246
2873.20103631248,1257
2874.947501217038,1275
2876.6936318585695,1247
2878.4394285430812,1297
2880.1848915766604,1377
2881.9300212654707,1277
2883.6748179157553,1313
2885.4192818338374,1262
2887.1634133261173,1305
2888.907212699077,1333
2890.6506802592744,1276
2892.393816313348,1306
2894.1366211680142,1307
2895.8790951300693,1321
2897.621238506388,1268
2899.363051603925,1308
2901.1045347297118,1274
2902.8456881908596,1259
2904.58651229456,1333
2906.327007348081,1318
2908.067173658772,1287
2909.8070115340597,1305
2911.5465212814497,1253
2913.285703208527,1300
2915.0245576229563,1275
2916.7630848324807,1270
2918.5012851449196,1273
2920.2391588681758,1317
2921.976706310227,1295
2923.7139277791334,1361
2925.4508235830313,1339
2927.187394030137,1288
2928.923639428745,1333
2930.6595600872306,1246
2932.395156314046,1320
2934.1304284177218,1230
2935.8653767068713,1270
2937.6000014901815,1318
2939.3343030764227,1263
2941.068281774442,1304
2942.8019378931644,1291
2944.5352717415976,1252
2946.2682836288236,1314
2948.0009738640065,1333
2949.7333427563885,1283
2951.465390615289,1301
2953.1971177501086,1315
2954.9285244703265,1321
2956.6596110855,1280
2958.3903779052657,1262
2960.1208252393385,1256
2961.8509533975125,1277
2963.5807626896617,1291
2965.3102534257378,1268
2967.0394259157715,1308
2968.768280469873,1278
2970.496817398232,1298
2972.2250370111146,1299
2973.952939618869,1255
2975.6805255319196,1353
2977.4077950607707,1320
2979.134748516006,1299
2980.861386208289,1249
2982.587708448359,1358
2984.313715547037,1263
2986.039407815222,1287
2987.764785563891,1250
2989.489849104102,1283
2991.2145987469908,1310
2992.9390348037705,1286
2994.6631575857346,1278
2996.3869674042576,1260
2998.1104645707887,1236
2999.83364939686,1212
3001.5565221940783,1320
3003.2790832741334,1300
3005.0013329487924,1200
3006.7232715298996,1250
3008.4448993293804,1260
3010.166216659239,1248
3011.887223831558,1239
3013.607921158498,1332
3015.3283089522993,1227
3017.0483875252826,1268
3018.7681571898443,1261
3020.4876182584626,1267
3022.2067710436927,1265
3023.9256158581707,1328
3025.644153014609,1272
3027.362382825801,1277
3029.0803056046193,1271
3030.797921664012,1278
3032.5152313170106,1329
3034.2322348767225,1207
3035.9489326563353,1278
3037.665324969115,1295
3039.3814121284063,1302
3041.097194447633,1337
3042.812672240299,1292
3044.5278458199855,1243
3046.2427155003525,1286
3047.9572815951406,1228
3049.671544418167,1231
3051.38550428333,1248
3053.0991615046073,1286
3054.812516396051,1312
3056.5255692717974,1273
3058.2383204460575,1228
3059.9507702331257,1247
3061.662918947372,1263
3063.3747669032446,1278
3065.0863144152736,1252
3066.7975617980674,1266
3068.508509366309,1271
3070.219157434767,1264
3071.9295063182844,1269
3073.639556331785,1258
3075.3493077902704,1257
3077.058761008821,1340
3078.7679163025964,1257
3080.476773986837,1216
3082.1853343768594,1265
3083.89359778806,1273
3085.6015645359153,1257
3087.3092349359786,1277
3089.016609303884,1193
3090.7236879553434,1277
3092.4304712061476,1285
3094.136959372166,1292
3095.843152769349,1315
3097.5490517137237,1229
3099.2546565213966,1252
3100.959967508554,1225
3102.66498499146,1243
3104.3697092864577,1307
3106.0741407099695,1227
3107.778279578498,1282
3109.482126208622,1278
3111.1856809170004,1282
3112.8889440203716,1312
3114.5919158355528,1298
3116.294596679439,1265
3117.996986869006,1272
3119.6990867213062,1256
3121.4008965534726,1270
3123.102416682717,1266
3124.803647426329,1303
3126.5045891016784,1295
3128.205242026213,1287
3129.90560651746,1278
3131.605682893025,1236
3133.3054714705922,1212
3135.0049725679282,1207
3136.7041865028714,1252
3138.4031135933465,1249
3140.101754157353,1221
3141.800108512971,1222
3143.498176978357,1329
3145.1959598717494,1235
3146.8934575114636,1256
3148.5906702158954,1246
3150.2875983035183,1292
3151.9842420928853,1215
3153.680601902627,1267
3155.376678051456,1285
3157.07247085816,1248
3158.767980641609,1213
3160.463207720748,1294
3162.158152414606,1319
3163.8528150422862,1217
3165.5471959229726,1247
3167.2412953759303,1218
3168.9351137204976,1269
3170.628651276098,1268
3172.3219083622307,1279
3174.014885298474,1318
3175.707582404485,1280
3177.4000000000005,1287
3179.092138404835,1202
3180.7839979388846,1251
3182.47557892212,1292
3184.166881674594,1214
3185.8579065164386,1264
3187.5486537678626,1281
3189.2391237491547,1268
3190.9293167806827,1272
3192.6192331828934,1265
3194.3088732763117,1251
3195.998237381542,1211
3197.687325819268,1228
3199.376138910251,1266
3201.064676975334,1209
3202.7529403354347,1226
3204.4409293115523,1224
3206.1286442247647,1262
3207.816085396229,1264
3209.5032531471825,1219
3211.190147798936,1255
3212.8767696728846,1264
3214.5631190905015,1187
3216.2491963733373,1230
3217.9350018430214,1221
3219.6205358212637,1252
3221.305798629851,1272
3222.990790590651,1249
3224.6755120256103,1239
3226.359963256751,1229
3228.0441446061795,1259
3229.7280563960758,1273
3231.411698948703,1256
3233.0950725863995,1289
3234.778177631587,1219
3236.461014406761,1214
3238.1435832345005,1221
3239.8258844374595,1233
3241.507918338374,1269
3243.1896852600576,1242
3244.8711855254023,1264
3246.552419457381,1305
3248.233387379042,1281
3249.914089613516,1321
3251.59452648401,1229
3253.274698313813,1273
3254.95460542629,1223
3256.6342481448855,1258
3258.313626793125,1240
3259.9927416946084,1251
3261.6715931730196,1248
3263.3501815521176,1210
3265.0285071557437,1165
3266.706570307815,1198
3268.3843713323286,1271
3270.0619105533615,1242
3271.739188295068,1273
3273.4162048816834,1260
3275.0929606375184,1229
3276.769455886966,1276
3278.445690954498,1295
3280.1216661646613,1273
3281.797381842087,1278
3283.4728383114807,1233
3285.1480358976296,1228
3286.8229749253996,1285
3288.4976557197333,1282
3290.172078605655,1267
3291.846243908266,1243
3293.5201519527463,1231
3295.193803064357,1230
3296.8671975684374,1264
3298.5403357904024,1289
3300.21321805575,1184
3301.8858446900567,1245
3303.558216018975,1208
3305.23033236824,1237
3306.9021940636603,1235
3308.57380143113,1237
3310.2451547966184,1254
3311.916254486174,1250
3313.5871008259246,1230
3315.2576941420766,1233
3316.9280347609147,1304
3318.5981230088046,1265
3320.2679592121895,1223
3321.9375436975924,1244
3323.606876791612,1243
3325.27595882093,1239
3326.944790112305,1220
3328.6133709925753,1245
3330.2817017886573,1257
3331.949782827547,1234
3333.617614436319,1293
3335.2851969421245,1247
3336.952530672199,1262
3338.619615953853,1240
3340.286453114475,1276
3341.9530424815357,1246
3343.619384382583,1268
3345.2854791452437,1259
3346.951327097224,1236
3348.6169285663073,1197
3350.2822838803577,1203
3351.947393367319,1206
3353.61225735521,1228
3355.2768761721345,1230
3356.9412501462693,1175
3358.605379605873,1244
3360.2692648792827,1261
3361.9329062949146,1235
3363.596304181263,1216
