CollectionTime,9/19/2024 10:45:46 AM
ExposureUsed,3
CalibratedSpectrum
-962.7078968117929,495
-959.9714848408522,493
-957.2358232597828,522
-954.5009119013725,584
-951.7667505983302,587
-949.0333391832855,571
-946.3006774887896,560
-943.5687653473143,563
-940.837602591253,588
-938.1071890529199,571
-935.3775245645503,562
-932.6486089583007,548
-929.9204420662485,561
-927.1930237203925,612
-924.4663537526524,557
-921.7404319948689,612
-919.0152582788041,565
-916.2908324361409,550
-913.5671542984834,532
-910.8442236973568,535
-908.1220404642074,525
-905.4006044304027,551
-902.679915427231,558
-899.959973285902,546
-897.2407778375464,536
-894.5223289132158,525
-891.8046263438832,547
-889.0876699604426,526
-886.3714595937089,508
-883.6559950744183,540
-880.9412762332282,497
-878.2273029007168,531
-875.5140749073835,530
-872.8015920836489,516
-870.0898542598545,529
-867.3788612662631,531
-864.6686129330585,502
-861.9591090903457,509
-859.2503495681506,501
-856.5423341964203,522
-853.8350628050229,514
-851.1285352237478,543
-848.4227512823054,569
-845.7177108103272,525
-843.0134136373656,531
-840.3098595928943,519
-837.6070485063082,526
-834.9049802069229,525
-832.2036545239757,537
-829.5030712866244,524
-826.8032303239481,528
-824.1041314649472,492
-821.4057745385428,504
-818.7081593735775,516
-816.0112857988148,509
-813.3151536429393,535
-810.6197627345566,511
-807.9251129021936,487
-805.2312039742981,539
-802.5380357792392,548
-799.8456081453069,560
-797.1539209007124,588
-794.462973873588,544
-791.772766891987,565
-789.083299783884,567
-786.3945723771743,573
-783.7065844996748,520
-781.0193359791231,530
-778.3328266431781,530
-775.6470563194197,553
-772.9620248353489,511
-770.2777320183878,502
-767.5941776958798,517
-764.9113616950891,528
-762.2292838432011,524
-759.5479439673222,537
-756.8673418944801,550
-754.1874774516235,561
-751.5083504656222,545
-748.8299607632671,557
-746.15230817127,572
-743.475392516264,542
-740.7992136248035,562
-738.1237713233636,546
-735.4490654383407,539
-732.7750957960521,546
-730.1018622227365,601
-727.4293645445534,559
-724.7576025875837,566
-722.0865761778291,531
-719.4162851412126,584
-716.7467293035781,636
-714.0779084906909,574
-711.409822528237,555
-708.7424712418238,572
-706.0758544569796,551
-703.4099719991541,570
-700.7448236937178,559
-698.0804093659622,532
-695.4167288411002,562
-692.7537819442656,561
-690.0915685005134,597
-687.4300883348199,609
-684.7693412720819,606
-682.1093271371178,611
-679.4500457546669,581
-676.7914969493897,573
-674.1336805458676,594
-671.4765963686034,592
-668.8202442420206,598
-666.1646239904642,627
-663.5097354382001,595
-660.8555784094151,579
-658.2021527282176,587
-655.5494582186366,611
-652.8974947046223,586
-650.2462620100463,595
-647.5957599587009,630
-644.9459883742998,639
-642.2969470804776,614
-639.6486359007902,629
-637.0010546587141,620
-634.3542031776476,641
-631.7080812809096,633
-629.0626887917401,604
-626.4180255333008,639
-623.7740913286734,627
-621.1308860008619,640
-618.4884093727904,626
-615.8466612673046,610
-613.2056415071715,621
-610.5653499150785,659
-607.9257863136347,709
-605.28695052537,687
-602.6488423727357,658
-600.0114616781036,672
-597.3748082637674,710
-594.7388819519412,764
-592.1036825647604,703
-589.4692099242818,688
-586.8354638524829,726
-584.2024441712624,691
-581.5701507024403,701
-578.9385832677575,721
-576.3077416888759,690
-573.6776257873787,739
-571.0482353847704,657
-568.4195703024757,666
-565.7916303618415,703
-563.164415384135,702
-560.5379251905453,703
-557.9121596021815,684
-555.2871184400748,702
-552.6628015251767,714
-550.0392086783606,780
-547.4163397204204,797
-544.794194472071,808
-542.1727727539491,809
-539.5520743866118,795
-536.9320991905377,801
-534.3128469861261,819
-531.6943175936979,821
-529.0765108334947,946
-526.4594265256793,1051
-523.8430644903358,1353
-521.2274245474689,1547
-518.612506517005,1635
-515.9983102187913,1705
-513.3848354725959,1948
-510.77208209810846,2107
-508.16004991493924,2294
-505.5487387426199,2405
-502.9381484006032,2258
-500.3282787082628,2117
-497.71912948489364,1866
-495.1107005497117,1636
-492.5029917218539,1352
-489.8960028203786,1150
-487.28973366426493,1108
-484.68418407241325,949
-482.07935386364494,955
-479.47524285670266,935
-476.87185087025,907
-474.2691777228715,932
-471.66722323307334,934
-469.0659872192821,927
-466.4654694998459,939
-463.86566989303384,845
-461.26658821703614,846
-458.66822428996414,885
-456.07057792985,889
-453.4736489546475,881
-450.877437182231,858
-448.28194243039627,852
-445.68716451686,835
-443.09310325926003,860
-440.49975847515555,819
-437.9071299820263,835
-435.31521759727354,853
-432.72402113821954,876
-430.13354042210767,881
-427.5437752661022,866
-424.95472548728867,864
-422.36639090267386,951
-419.7787713291855,918
-417.1918665836721,960
-414.60567648290385,977
-412.0202008435715,962
-409.4354394822874,969
-406.8513922155845,906
-404.26805885991723,945
-401.685439231661,994
-399.103533147112,954
-396.522340422488,952
-393.9418608739278,912
-391.3620943174908,910
-388.7830405691583,894
-386.2046994448317,888
-383.6270707603344,852
-381.05015433141045,886
-378.473949973725,825
-375.8984575028645,765
-373.32367673433623,749
-370.74960748356875,755
-368.1762495659117,744
-365.60360279663576,763
-363.03166699093265,640
-360.4604419639154,585
-357.8899275306178,557
-355.32012350599507,589
-352.7510297049233,547
-350.1826459421999,572
-347.61497203254316,575
-345.04800779059235,595
-342.4817530309082,580
-339.91620756797226,598
-337.35137121618743,571
-334.7872437898774,589
-332.22382510328725,641
-329.66111497058273,606
-327.09911320585127,578
-324.53781962310075,576
-321.9772340362607,522
-319.4173562591816,535
-316.8581861056348,600
-314.2997233893127,626
-311.7419679238294,620
-309.1849195227194,593
-306.62857799943856,612
-304.0729431673641,638
-301.51801483979375,697
-298.963792829947,655
-296.41027695096386,651
-293.85746701590574,694
-291.3053628377552,695
-288.7539642294155,701
-286.2032710037115,740
-283.65328297338897,786
-281.1039999511146,783
-278.5554217494762,772
-276.007548180983,807
-273.4603790580651,714
-270.9139141930734,774
-268.3681533982807,861
-265.8230964858798,881
-263.27874326798565,936
-260.7350935566336,906
-258.1921471637804,1068
-255.6499039013039,1106
-253.10836358100266,924
-250.56752601459698,846
-248.02739101372765,844
-245.48795838995704,939
-242.94922795476816,910
-240.41119951956557,874
-237.8738728956746,921
-235.33724789434166,949
-232.80132432673452,960
-230.2661020039418,920
-227.73158073697357,914
-225.19776033676033,938
-222.66464061415422,1037
-220.1322213799284,981
-217.60050244477725,851
-215.06948361931552,972
-212.53916471408013,1156
-210.00954553952818,1150
-207.48062590603843,952
-204.9524056239104,894
-202.4248845033651,1088
-199.8980623545441,1238
-197.37193898751036,1203
-194.84651421224817,1024
-192.32178783866232,996
-189.79775967657952,1041
-187.27442953574644,1383
-184.7517972258321,1293
-182.2298625564256,1058
-179.7086253370378,969
-177.18808537710026,1213
-174.66824248596583,1492
-172.14909647290835,1605
-169.6306471471229,1530
-167.11289431772548,1221
-164.59583779375328,1296
-162.07947738416453,1560
-159.5638128978386,1693
-157.04884414357605,1778
-154.53457093009854,1745
-152.02099306604828,1466
-149.50811035998936,1503
-146.99592262040665,1658
-144.48442965570587,1931
-141.97363127421409,2095
-139.46352728417958,2212
-136.95411749377126,2173
-134.44540171107985,1836
-131.93737974411636,1418
-129.43005140081357,1564
-126.92341648902493,2243
-124.41747481652521,2886
-121.91222619101006,3320
-119.40767042009657,3578
-116.90380731132257,3564
-114.40063667214702,3937
-111.8981583099503,4552
-109.3963720320337,6526
-106.89527764561933,8598
-104.39487495785067,10107
-101.89516377579241,12317
-99.39614390642998,17964
-96.89781515667039,24954
-94.40017733334128,25067
-91.90323024319173,18618
-89.40697369289148,12916
-86.91140748903172,8531
-84.41653143812482,8497
-81.92234534660395,11882
-79.42884902082358,14879
-76.93604226705907,15346
-74.4439248915071,13773
-71.95249670028534,10854
-69.46175749943245,7778
-66.97170709490854,6132
-64.48234529259423,6254
-61.99367189829195,8239
-59.50568671772464,12073
-57.01838955653636,15261
-54.53178022029283,15220
-52.045858514480074,16076
-49.560624244506016,19505
-47.07607721569923,22791
-44.59221723330904,22642
-42.10904410250669,23851
-39.62655762838392,25741
-37.14475761595372,29290
-34.66364387015028,31078
-32.18321619582866,34872
-29.70347439776515,32446
-27.224418280657005,32298
-24.74604764912317,44690
-22.26836230770266,65030
-19.7913620608565,65030
-17.315046712966478,65030
-14.83941606833514,65030
-12.36446993118659,65030
-9.89020810566592,65030
-7.416630395839093,65030
-4.94373660569363,65030
-2.471526539137585,65030
-6.821210263296962E-13,65030
2.47084320796705,65030
4.941003281093458,65030
7.410480415786196,65030
9.879274808531363,65030
12.347386655893956,65030
14.814816154518212,65030
17.28156350112681,65030
19.74762889252179,65030
22.21301252558385,27235
24.67771459727237,9027
27.141735304626195,9614
29.605074844762612,8022
32.06773341487792,7230
34.52971121224755,7670
36.99100843422559,6793
39.45162527824516,7065
41.91156194181792,7222
44.370818622535126,5312
46.82939551806646,5590
49.287292826160524,7729
51.74451074464503,6926
54.201049471426245,6035
56.65690920448981,3773
59.112090141899785,2879
61.56659248179983,3730
64.02041642241159,3768
66.4735621620365,4170
68.92602989905402,4936
71.37781983192338,4743
73.82893215918205,3598
76.27936707944684,3185
78.72912479141326,3434
81.17820549385567,2802
83.62660938562783,2499
86.07433666566146,2318
88.5213875329681,2581
90.96776218663751,2741
93.41346082583925,2928
95.85848364982041,2876
98.30283085790859,2366
100.7465026495089,2316
103.18949922410604,2168
105.63182078126385,2241
108.07346752062438,1969
110.51443964190923,1690
112.95473734491827,1613
115.39436082953114,1664
117.83331029570547,2059
120.27158594347827,2247
122.7091879729652,2111
125.1461165843615,2096
127.58237197794062,1949
130.01795435405518,2109
132.4528639131364,1902
134.88710085569494,1855
137.32066538231982,1949
139.75355769367923,1737
142.1857779905207,1516
144.61732647366978,1432
147.04820334403132,1489
149.47840880258934,1578
151.90794305040674,1843
154.33680628862487,1807
156.76499871846443,1776
159.19252054122433,1728
161.61937195828352,1661
164.04555317109896,1870
166.47106438120693,2151
168.89590579022217,2130
171.320077599839,2382
173.7435800118302,2307
176.16641322804742,2518
178.58857745042144,2535
181.01007288096173,2523
183.43089972175687,2453
185.85105817497413,2402
188.27054844285988,2431
190.6893707277394,2399
193.10752523201643,2652
195.5250121581745,2678
197.9418317087751,2532
200.3579840864594,2507
202.7734694939469,2725
205.18828813403627,2777
207.6024402096051,2769
210.01592592360964,2703
212.42874547908548,2628
214.84089907914665,2704
217.2523869269868,2671
219.66320922587727,2650
222.0733661791695,2652
224.48285799029293,2719
226.8916848627572,2841
229.29984700014882,2862
231.7073446061355,2656
234.11417788446204,2631
236.520347038953,2731
238.92585227351185,2907
241.33069379212054,2831
243.73487179884035,2819
246.1383864978112,2802
248.541238093252,2810
250.9434267894609,2772
253.34495279081432,2701
255.74581630176783,2720
258.1460175268563,2790
260.54555667069314,2738
262.9444339379703,2682
265.3426495334594,2875
267.7402036620107,2755
270.1370965285529,2741
272.53332833809407,2710
274.9288992957214,2568
277.32380960660055,2640
279.718059475976,2721
282.1116491091717,2630
284.5045787115897,2664
286.89684848871195,2628
289.2884586460981,2692
291.67940938938807,2853
294.0697009242996,2756
296.4593334566299,2759
298.84830719225477,2806
301.23662233712923,2765
303.6242790972866,2713
306.01127767884,2599
308.39761828798066,2628
310.78330113097934,2576
313.16832641418534,2546
315.5526943440269,2489
317.9364051270112,2619
320.3194589697242,2518
322.70185607883093,2419
325.0835966610754,2363
327.4646809232805,2313
329.8451090723478,2334
332.2248813152577,2386
334.6039978590701,2351
336.9824589109231,2329
339.36026467803447,2259
341.7374153677,2271
344.113911187295,2258
346.48975234427337,2239
348.8649390461686,2330
351.2394715005918,2305
353.61334991523415,2208
355.9865744978655,2189
358.35914545633375,2304
360.73106299856715,2171
363.10232733257146,2253
365.47293866643247,2185
367.84289720831396,2187
370.2122031664593,2197
372.5808567491905,2204
374.9488581649083,2137
377.31620762209275,2082
379.6829053293021,2076
382.0489514951745,2051
384.4143463284262,2089
386.7790900378528,1978
389.14318283232853,2040
391.50662492080653,2127
393.86941651231916,2103
396.23155781597745,2044
398.5930490409713,2129
400.9538903965696,2066
403.3140820921202,2041
405.6736243370498,2047
408.03251734086336,1998
410.3907613131465,2005
412.74835646356166,2001
415.10530300185144,2042
417.4616011378372,2071
419.81725108141893,1984
422.1722530425758,2020
424.5266072313656,2013
426.880313857925,2058
429.2333731324701,2029
431.58578526529516,2008
433.9375504667738,2069
436.2886689473588,2023
438.63914091758113,1995
440.9889665880513,1992
443.33814616945835,2005
445.68667987257015,1999
448.03456790823395,1970
450.3818104873759,1909
452.72840782100013,1958
455.07436012019105,1966
457.41966759611057,1933
459.7643304600007,1904
462.10834892318155,1987
464.4517231970525,1928
466.79445349309174,1960
469.1365400228566,1991
471.4779829979826,2060
473.81878263018564,2012
476.15893913125876,2076
478.4984527130747,2159
480.8373235875855,2128
483.17555196682144,2143
485.5131380628919,2329
487.8500820879857,2381
490.1863842543697,2558
492.52204477439034,2751
494.8570638604725,3035
497.1914417251204,3566
499.52517858091653,4115
501.85827464052306,4675
504.19073011668036,5172
506.5225452222086,5505
508.85372017000566,5619
511.18425517304956,5948
513.514150444396,7065
515.8434061971808,8195
518.1720226446176,8823
520.4999999999999,8690
522.8273384766991,8105
525.1540382881666,7468
527.480099647932,6387
529.8055227696037,4727
532.1303078668694,3382
534.454455153496,2773
536.777964843328,2540
539.1008371502907,2253
541.4230722883866,2282
543.744670471698,2276
546.0656319143858,2091
548.3859568306899,2140
550.7056454349294,2206
553.0246979415016,2180
555.3431145648834,2045
557.6608955196306,2011
559.978041020377,2058
562.2945512818363,2177
564.6104265188006,2127
566.9256669461412,2014
569.2402727788082,2117
571.5542442318302,2189
573.8675815203156,2213
576.1802848594508,2201
578.4923544645015,2190
580.8037905508126,2169
583.114593333807,2145
585.4247630289875,2135
587.7342998519354,2139
590.0432040183106,2062
592.3514757438526,2204
594.6591152443794,2162
596.9661227357875,2152
599.2724984340531,2167
601.578242555231,2155
603.8833553154542,2079
606.1878369309362,2063
608.4916876179676,2093
610.7949075929192,2115
613.0974970722403,2069
615.3994562724587,2140
617.7007854101818,2046
620.0014847020951,2113
622.3015543649641,2171
624.6009946156324,2069
626.8998056710224,2124
629.1979877481361,2031
631.4955410640538,2039
633.7924658359349,1989
636.0887622810175,2072
638.3844306166192,2048
640.6794710601358,2080
642.9738838290426,2089
645.2676691408932,2040
647.5608272133207,2072
649.853358264037,2070
652.1452625108324,2104
654.4365401715764,2028
656.7271914642178,2063
659.0172166067838,2056
661.3066158173809,2115
663.5953893141935,2051
665.8835373154867,2034
668.1710600396028,2143
670.4579577049639,2095
672.7442305300709,2141
675.0298787335033,2023
677.3149025339197,2051
679.599302150058,2078
681.8830778007342,1999
684.1662297048437,2103
686.4487580813608,2094
688.7306631493387,2053
691.0119451279091,2005
693.2926042362834,2019
695.5726406937516,1984
697.8520547196814,1984
700.1308465335215,1983
702.4090163547982,2016
704.6865644031171,2063
706.9634908981619,2047
709.2397960596965,2032
711.5154801075631,2030
713.7905432616823,2052
716.0649857420548,2045
718.3388077687592,2018
720.612009561953,2094
722.8845913418733,2026
725.1565533288352,1982
727.427895743234,2042
729.6986188055427,1967
731.9687227363137,2039
734.238207756178,1941
736.5070740858458,2024
738.7753219461066,1990
741.0429515578281,2040
743.3099631419569,2097
745.5763569195191,2035
747.8421331116193,2045
750.1072919394409,1991
752.3718336242467,1941
754.6357583873777,1996
756.8990664502545,2038
759.1617580343765,2016
761.423833361321,2009
763.6852926527457,2065
765.9461361303862,2107
768.206364016058,2016
770.4659765316536,2065
772.7249738991469,2086
774.9833563405886,2069
777.2411240781092,2036
779.4982773339183,2060
781.7548163303044,2018
784.010741289634,2120
786.2660524343538,2130
788.5207499869881,2118
790.7748341701416,2097
793.0283052064964,2136
795.2811633188143,2122
797.5334087299362,2043
799.7850416627813,2077
802.0360623403484,1979
804.2864709857143,2092
806.5362678220353,2049
808.7854530725468,2083
811.0340269605625,2038
813.2819897094754,2131
815.5293415427581,2112
817.77608268396,2101
820.0222133567116,2055
822.2677337847211,2058
824.5126441917765,2133
826.7569448017433,2096
829.0006358385675,2068
831.2437175262731,2144
833.4861900889629,2137
835.7280537508192,2026
837.9693087361026,2069
840.2099552691533,1995
842.4499935743896,2023
844.689423876309,2021
846.9282463994886,2078
849.1664613685833,2113
851.4040690083276,2193
853.6410695435349,2091
855.877463199097,2103
858.1132501999847,2201
860.3484307712487,2113
862.5830051380175,2183
864.8169735254988,2088
867.0503361589791,2070
869.2830932638243,2043
871.5152450654786,2126
873.7467917894654,2157
875.9777336613873,2073
878.2080709069252,2127
880.4378037518389,2183
882.666932421968,2072
884.8954571432301,2116
887.1233781416219,2168
889.3506956432192,2165
891.5774098741766,2172
893.803521060728,2175
896.0290294291852,2104
898.2539352059397,2104
900.4782386174619,2098
902.7019398903011,2112
904.925039251085,2159
907.147536926521,2138
909.3694331433943,2181
911.59072812857,2189
913.8114221089921,2164
916.0315153116827,2212
918.2510079637437,2137
920.4699002923547,2151
922.6881925247761,2119
924.905884888345,2195
927.1229776104793,2111
929.3394709186747,2126
931.555365040506,2205
933.7706602036275,2221
935.9853566357709,2233
938.1994545647489,2300
940.4129542184515,2276
942.6258558248488,2339
944.8381596119883,2257
947.0498658079974,2215
949.2609746410825,2384
951.4714863395287,2251
953.6814011316998,2250
955.8907192460387,2243
958.0994409110671,2221
960.3075663553858,2243
962.5150958076741,2206
964.7220294966913,2178
966.928367651274,2120
969.1341105003388,2141
971.3392582728806,2134
973.5438111979742,2117
975.747769504772,2101
977.9511334225061,2061
980.153903180487,2088
982.3560790081052,2055
984.5576611348289,1944
986.7586497902058,2035
988.9590452038618,2060
991.158847605503,1943
993.3580572249133,1934
995.5566742919558,1807
997.7546990365728,1762
999.952131688785,1768
1002.1489724786926,1799
1004.3452216364743,1810
1006.5408793923874,1777
1008.7359459767691,1760
1010.9304216200343,1709
1013.1243065526781,1756
1015.3176010052733,1635
1017.510305208472,1654
1019.7024193930064,1702
1021.8939437896848,1677
1024.0848786293977,1671
1026.2752241431122,1628
1028.4649805618747,1651
1030.6541481168115,1713
1032.842727039127,1603
1035.0307175601051,1609
1037.2181199111074,1662
1039.4049343235752,1553
1041.591161029029,1568
1043.7768002590683,1663
1045.9618522453698,1515
1048.1463172196918,1561
1050.3301954138697,1595
1052.513487059818,1500
1054.69619238953,1500
1056.8783116350783,1504
1059.0598450286152,1562
1061.2407928023704,1565
1063.4211551886528,1584
1065.6009324198508,1623
1067.780124728432,1513
1069.9587323469414,1579
1072.1367555080046,1522
1074.314194444325,1498
1076.4910493886855,1450
1078.667320573947,1522
1080.843008233051,1461
1083.0181125990161,1462
1085.1926339049414,1485
1087.3665723840027,1520
1089.5399282694575,1482
1091.7127017946405,1505
1093.8848931929647,1505
1096.0565026979243,1568
1098.2275305430899,1512
1100.3979769621128,1478
1102.567842188722,1493
1104.737126456726,1473
1106.9058300000124,1444
1109.0739530525475,1420
1111.2414958483764,1477
1113.4084586216231,1491
1115.5748416064907,1357
1117.7406450372605,1468
1119.9058691482942,1461
1122.0705141740304,1447
1124.2345803489884,1463
1126.3980679077658,1475
1128.5609770850388,1482
1130.7233081155623,1496
1132.8850612341707,1462
1135.0462366757774,1449
1137.2068346753745,1410
1139.3668554680326,1456
1141.526299288901,1453
1143.68516637321,1485
1145.8434569562655,1526
1148.001171273455,1439
1150.158309560244,1424
1152.3148720521767,1426
1154.470858984876,1421
1156.626270594044,1492
1158.7811071154629,1454
1160.9353687849912,1441
1163.089055838569,1417
1165.242168512213,1357
1167.3947070420209,1422
1169.5466716641677,1366
1171.6980626149075,1416
1173.8488801305748,1389
1175.9991244475814,1424
1178.1487958024186,1363
1180.2978944316555,1353
1182.4464205719428,1377
1184.5943744600072,1369
1186.7417563326567,1364
1188.8885664267755,1368
1191.0348049793297,1376
1193.1804722273619,1356
1195.325568407995,1430
1197.4700937584303,1378
1199.614048515948,1380
1201.7574329179074,1313
1203.900247201746,1438
1206.042491604982,1365
1208.1841663652099,1406
1210.3252717201053,1418
1212.465807907422,1453
1214.6057751649923,1405
1216.7451737307279,1401
1218.8840038426192,1392
1221.0222657387353,1409
1223.1599596572241,1409
1225.2970858363137,1406
1227.4336445143094,1421
1229.5696359295966,1401
1231.705060320639,1380
1233.8399179259786,1422
1235.9742089842384,1381
1238.107933734118,1403
1240.2410924143974,1436
1242.373685263935,1374
1244.5057125216676,1415
1246.6371744266116,1391
1248.7680712178621,1359
1250.898403134593,1383
1253.028170416058,1336
1255.1573733015875,1437
1257.2860120305932,1430
1259.4140868425648,1384
1261.54159797707,1410
1263.6685456737569,1401
1265.7949301723515,1386
1267.9207517126597,1447
1270.046010534565,1503
1272.1707068780306,1403
1274.2948409830983,1426
1276.4184130898889,1422
1278.541423438603,1402
1280.6638722695184,1361
1282.785759822993,1445
1284.9070863394636,1364
1287.0278520594447,1382
1289.1480572235314,1395
1291.2677020723963,1379
1293.3867868467923,1404
1295.5053117875495,1357
1297.623277135579,1368
1299.740683131868,1404
1301.8575300174857,1385
1303.973818033578,1409
1306.0895474213703,1440
1308.2047184221678,1394
1310.3193312773528,1416
1312.4333862283888,1395
1314.5468835168163,1415
1316.659823384255,1478
1318.7722060724045,1445
1320.8840318230418,1421
1322.9953008780249,1464
1325.1060134792888,1396
1327.2161698688478,1444
1329.3257702887959,1421
1331.4348149813054,1418
1333.5433041886276,1420
1335.6512381530933,1369
1337.7586171171101,1397
1339.8654413231675,1442
1341.9717110138317,1403
1344.0774264317488,1472
1346.1825878196432,1426
1348.2871954203192,1423
1350.3912494766587,1376
1352.4947502316231,1382
1354.5976979282532,1371
1356.7000928096686,1396
1358.8019351190665,1418
1360.9032250997243,1404
1363.0039629949988,1391
1365.1041490483235,1396
1367.2037835032133,1414
1369.3028666032606,1440
1371.401398592137,1408
1373.4993797135926,1447
1375.5968102114575,1426
1377.6936903296396,1410
1379.7900203121262,1414
1381.8858004029835,1493
1383.9810308463561,1396
1386.075711886469,1403
1388.1698437676241,1427
1390.2634267342032,1472
1392.356461030667,1448
1394.4489469015557,1433
1396.5408845914872,1377
1398.6322743451592,1430
1400.7231164073469,1444
1402.813411022907,1448
1404.903158436773,1440
1406.9923588939578,1415
1409.0810126395531,1482
1411.1691199187303,1453
1413.2566809767386,1449
1415.343696058907,1472
1417.4301654106425,1438
1419.5160892774315,1422
1421.6014679048399,1461
1423.6863015385125,1499
1425.7705904241707,1530
1427.8543348076178,1485
1429.9375349347342,1406
1432.0201910514802,1413
1434.102303403894,1441
1436.1838722380944,1429
1438.2648978002767,1419
1440.3453803367174,1457
1442.4253200937692,1434
1444.5047173178677,1442
1446.5835722555234,1396
1448.6618851533285,1416
1450.739656257952,1443
1452.8168858161434,1499
1454.8935740747306,1449
1456.96972128062,1411
1459.045327680797,1507
1461.120393522327,1440
1463.1949190523528,1458
1465.2689045180973,1502
1467.3423501668608,1405
1469.415256246024,1424
1471.4876230030463,1496
1473.559450685465,1456
1475.6307395408976,1418
1477.7014898170391,1409
1479.771701761665,1424
1481.8413756226287,1426
1483.9105116478618,1390
1485.9791100853772,1404
1488.0471711832643,1436
1490.1146951896926,1508
1492.1816823529098,1408
1494.2481329212433,1377
1496.3140471430984,1404
1498.3794252669609,1446
1500.4442675413939,1456
1502.5085742150404,1481
1504.572345536622,1435
1506.6355817549388,1483
1508.6982831188702,1463
1510.7604498773744,1426
1512.8220822794883,1398
1514.8831805743293,1459
1516.9437450110909,1433
1519.003775839048,1485
1521.0632733075522,1464
1523.1222376660367,1458
1525.1806691640113,1416
1527.2385680510652,1448
1529.2959345768668,1462
1531.3527689911643,1382
1533.4090715437833,1348
1535.4648424846291,1439
1537.5200820636855,1386
1539.5747905310159,1508
1541.6289681367616,1393
1543.6826151311434,1386
1545.7357317644614,1422
1547.7883182870937,1391
1549.8403749494987,1508
1551.8919020022113,1468
1553.9428996958477,1461
1555.9933682811015,1356
1558.0433080087469,1469
1560.0927191296346,1451
1562.1416018946961,1440
1564.1899565549415,1462
1566.2377833614592,1447
1568.2850825654164,1428
1570.3318544180606,1385
1572.3780991707158,1397
1574.423817074788,1470
1576.4690083817595,1443
1578.5136733431923,1465
1580.5578122107272,1379
1582.601425236085,1386
1584.6445126710646,1438
1586.6870747675434,1454
1588.7291117774776,1454
1590.7706239529034,1443
1592.8116115459347,1411
1594.8520748087658,1493
1596.8920139936686,1409
1598.9314293529933,1442
1600.9703211391711,1467
1603.008689604711,1431
1605.0465350022005,1439
1607.0838575843068,1385
1609.1206576037753,1449
1611.1569353134305,1437
1613.1926909661765,1438
1615.2279248149953,1383
1617.2626371129481,1384
1619.2968281131757,1405
1621.3304980688963,1496
1623.3636472334088,1454
1625.39627586009,1421
1627.428384202396,1396
1629.459972513861,1428
1631.4910410480993,1399
1633.5215900588028,1365
1635.551619799744,1381
1637.5811305247717,1459
1639.6101224878166,1457
1641.6385959428862,1445
1643.6665511440683,1423
1645.693988345528,1391
1647.7209078015112,1461
1649.7473097663405,1383
1651.7731944944203,1415
1653.7985622402307,1453
1655.823413258333,1390
1657.847747803366,1494
1659.8715661300494,1450
1661.8948684931793,1437
1663.9176551476316,1451
1665.9399263483624,1408
1667.9616823504057,1379
1669.982923408873,1409
1672.0036497789574,1373
1674.0238617159293,1389
1676.043559475138,1411
1678.0627433120121,1420
1680.081413482059,1386
1682.0995702408654,1374
1684.117213844096,1443
1686.134344547495,1428
1688.1509626068864,1356
1690.1670682781705,1410
1692.182661817329,1374
1694.1977434804217,1402
1696.2123135235875,1390
1698.226372203043,1450
1700.2399197750851,1439
1702.2529564960905,1484
1704.2654826225112,1389
1706.277498410882,1402
1708.2890041178139,1458
1710.2999999999988,1385
1712.3104863142066,1420
1714.3204633172854,1421
1716.329931266163,1405
1718.3388904178469,1430
1720.3473410294214,1434
1722.3552833580516,1363
1724.3627176609807,1452
1726.3696441955308,1468
1728.3760632191033,1447
1730.3819749891782,1489
1732.3873797633146,1428
1734.3922777991502,1416
1736.3966693544012,1435
1738.4005546868639,1462
1740.4039340544127,1476
1742.406807715001,1497
1744.4091759266616,1474
1746.4110389475054,1477
1748.4123970357223,1443
1750.413250449582,1444
1752.4135994474318,1381
1754.4134442876993,1416
1756.4127852288902,1473
1758.4116225295893,1468
1760.4099564484595,1463
1762.407787244244,1437
1764.405115175764,1385
1766.4019405019203,1398
1768.3982634816916,1458
1770.3940843741357,1446
1772.3894034383907,1456
1774.3842209336717,1417
1776.378537119274,1441
1778.372352254571,1402
1780.3656665990156,1423
1782.3584804121397,1446
1784.3507939535534,1429
1786.3426074829463,1450
1788.3339212600863,1426
1790.3247355448211,1503
1792.3150505970766,1419
1794.3048666768573,1449
1796.2941840442477,1378
1798.2830029594106,1487
1800.2713236825884,1405
1802.2591464741004,1496
1804.2464715943465,1442
1806.2332993038058,1462
1808.2196298630352,1501
1810.2054635326708,1431
1812.190800573428,1417
1814.175641246101,1430
1816.1599858115628,1510
1818.1438345307652,1481
1820.127187664738,1498
1822.1100454745924,1475
1824.092408221516,1484
1826.0742761667766,1470
1828.055649571721,1444
1830.0365286977735,1526
1832.0169138064398,1458
1833.9968051593014,1470
1835.9762030180214,1469
1837.9551076443408,1502
1839.9335193000788,1510
1841.9114382471344,1470
1843.888864747485,1470
1845.8657990631878,1467
1847.842241456378,1439
1849.8181921892697,1416
1851.7936515241558,1466
1853.7686197234098,1411
1855.7430970494815,1451
1857.7170837649014,1489
1859.6905801322787,1406
1861.6635864143004,1482
1863.6361028737338,1453
1865.608129773424,1446
1867.5796673762961,1451
1869.5507159453537,1473
1871.521275743678,1470
1873.4913470344313,1460
1875.4609300808534,1459
1877.4300251462632,1430
1879.3986324940588,1511
1881.366752387717,1419
1883.3343850907936,1425
1885.3015308669228,1421
1887.268189979819,1423
1889.2343626932739,1497
1891.2000492711595,1561
1893.1652499774254,1530
1895.1299650761011,1416
1897.0941948312952,1461
1899.0579395071945,1431
1901.0211993680641,1494
1902.98397467825,1506
1904.9462657021745,1467
1906.9080727043415,1479
1908.869395949332,1495
1910.8302357018065,1463
1912.790592226504,1467
1914.7504657882428,1410
1916.7098566519212,1421
1918.6687650825133,1386
1920.6271913450764,1460
1922.5851357047422,1437
1924.5425984267245,1501
1926.499579776314,1486
1928.4560800188833,1444
1930.4120994198802,1433
1932.367638244833,1458
1934.32269675935,1428
1936.2772752291175,1468
1938.231373919899,1503
1940.1849930975404,1443
1942.1381330279637,1484
1944.0907939771696,1430
1946.0429762112412,1445
1947.9946799963363,1484
1949.9459055986945,1430
1951.896653284633,1403
1953.8469233205478,1403
1955.7967159729142,1421
1957.7460315082863,1421
1959.6948701932974,1422
1961.6432322946594,1429
1963.5911180791632,1382
1965.5385278136787,1411
1967.4854617651545,1439
1969.4319202006182,1538
1971.377903387176,1470
1973.3234115920136,1450
1975.268445082395,1543
1977.2130041256642,1452
1979.1570889892423,1436
1981.1006999406304,1450
1983.04383724741,1443
1984.986501177238,1445
1986.928691997853,1486
1988.8704099770712,1404
1990.811655382789,1495
1992.7524284829801,1465
1994.692729545698,1422
1996.6325588390755,1481
1998.5719166313224,1431
2000.5108031907307,1477
2002.4492187856677,1471
2004.387163684583,1430
2006.3246381560011,1514
2008.2616424685298,1426
2010.1981768908527,1460
2012.1342416917332,1492
2014.069837140014,1456
2016.0049635046162,1433
2017.9396210545406,1449
2019.8738100588666,1402
2021.8075307867502,1456
2023.740783507431,1474
2025.6735684902228,1339
2027.6058860045214,1443
2029.5377363198004,1477
2031.4691197056118,1484
2033.4000364315875,1420
2035.3304867674374,1506
2037.260470982952,1449
2039.189989347998,1438
2041.1190421325232,1457
2043.047629606554,1440
2044.9757520401945,1402
2046.9034097036288,1491
2048.8306028671195,1406
2050.7573318010086,1397
2052.683596775716,1404
2054.609398061742,1407
2056.5347359296647,1491
2058.4596106501403,1474
2060.384022493906,1403
2062.3079717317764,1413
2064.231458634646,1397
2066.1544834734873,1412
2068.077046519352,1436
2069.99914804337,1412
2071.9207883167524,1448
2073.8419676107865,1347
2075.7626861968406,1435
2077.6829443463607,1396
2079.6027423308715,1418
2081.522080421977,1468
2083.440958891362,1429
2085.359378010786,1414
2087.2773380520907,1481
2089.194839287196,1468
2091.111881988101,1418
2093.0284664268825,1470
2094.9445928756973,1431
2096.86026160678,1430
2098.775472892446,1422
2100.690227005088,1490
2102.604524217178,1478
2104.5183648012676,1428
2106.431749029985,1437
2108.34467717604,1456
2110.2571495122206,1428
2112.169166311393,1470
2114.080727846503,1461
2115.9918343905747,1502
2117.902486216711,1463
2119.8126835980956,1497
2121.722426807987,1474
2123.6317161197285,1487
2125.5405518067364,1482
2127.448934142509,1481
2129.356863400624,1459
2131.264339854737,1545
2133.1713637785815,1518
2135.077935445972,1559
2136.9840551308002,1540
2138.889723107037,1508
2140.7949396487334,1439
2142.699705030018,1516
2144.6040195250994,1487
2146.507883408264,1520
2148.4112969538774,1509
2150.3142604363848,1476
2152.2167741303097,1500
2154.1188383102535,1533
2156.0204532508997,1517
2157.9216192270064,1527
2159.822336513414,1523
2161.7226053850413,1519
2163.622426116884,1533
2165.5217989840185,1496
2167.4207242616,1529
2169.319202224862,1551
2171.2172331491165,1559
2173.1148173097563,1539
2175.0119549822507,1563
2176.90864644215,1534
2178.8048919650823,1551
2180.7006918267534,1546
2182.596046302952,1584
2184.4909556695407,1645
2186.3854202024645,1596
2188.279440177746,1551
2190.173015871487,1552
2192.066147559868,1622
2193.958835519149,1566
2195.851080025667,1579
2197.7428813558417,1537
2199.6342397861667,1594
2201.5251555932186,1597
2203.415629053651,1647
2205.3056604441986,1502
2207.19525004167,1692
2209.084398122958,1554
2210.9731049650327,1566
2212.861370844941,1609
2214.749196039812,1644
2216.636580826851,1572
2218.523525483344,1620
2220.410030286655,1527
2222.296095514226,1604
2224.1817214435805,1592
2226.066908352319,1543
2227.951656518121,1561
2229.835966218746,1599
2231.71983773203,1591
2233.6032713358913,1514
2235.486267308324,1617
2237.3688259274036,1580
2239.2509474712824,1552
2241.132632218193,1553
2243.013880446447,1613
2244.8946924344323,1558
2246.7750684606203,1594
2248.6550088035574,1575
2250.534513741871,1612
2252.413583554265,1586
2254.292218519526,1549
2256.170418916517,1604
2258.0481850241786,1498
2259.925517121534,1536
2261.8024154876825,1627
2263.678880401803,1621
2265.5549121431536,1563
2267.430510991071,1595
2269.305677224971,1537
2271.180411124348,1528
2273.0547129687766,1585
2274.9285830379076,1546
2276.8020216114737,1503
2278.6750289692845,1475
2280.5476053912294,1517
2282.4197511572766,1587
2284.2914665474727,1577
2286.162751841943,1576
2288.0336073208937,1566
2289.904033264608,1563
2291.774029953448,1557
2293.6435976678554,1536
2295.5127366883517,1584
2297.381447295534,1505
2299.2497297700825,1473
2301.1175843927526,1364
2302.9850114443825,1362
2304.852011205885,1362
2306.7185839582553,1409
2308.5847299825664,1270
2310.4504495599676,1312
2312.3157429716925,1349
2314.1806104990483,1327
2316.0450524234247,1256
2317.9090690262888,1306
2319.772660589186,1302
2321.635827393742,1294
2323.498569721661,1272
2325.3608878547248,1281
2327.2227820747967,1274
2329.0842526638157,1274
2330.945299903803,1280
2332.805924076857,1244
2334.6661254651535,1278
2336.525904350951,1258
2338.3852610165827,1254
2340.244195744464,1271
2342.102708817088,1250
2343.9608005170253,1257
2345.8184711269287,1251
2347.675720929526,1303
2349.532550207628,1285
2351.38895924412,1292
2353.24494832197,1270
2355.100517724223,1289
2356.955667734004,1230
2358.810398634514,1272
2360.664710709037,1278
2362.5186042409337,1249
2364.3720795136437,1246
2366.225136810686,1204
2368.0777764156583,1195
2369.929998612237,1248
2371.7818036841777,1298
2373.633191915315,1248
2375.484163589562,1224
2377.3347189909114,1276
2379.184858403434,1252
2381.03458211128,1298
2382.8838903986775,1337
2384.732783549936,1255
2386.5812618494406,1277
2388.4293255816588,1233
2390.2769750311327,1300
2392.1242104824883,1325
2393.971032220427,1265
2395.8174405297295,1280
2397.6634356952563,1248
2399.509018001947,1279
2401.3541877348193,1287
2403.1989451789705,1252
2405.043290619576,1252
2406.8872243418905,1261
2408.730746631247,1275
2410.5738577730594,1280
2412.4165580528183,1292
2414.258847756095,1271
2416.100727168537,1289
2417.9421965758734,1254
2419.783256263912,1231
2421.623906518538,1261
2423.4641476257157,1331
2425.303979871491,1270
2427.143403541984,1342
2428.9824189233977,1263
2430.821026302012,1300
2432.6592259641866,1311
2434.497018196361,1333
2436.33440328505,1270
2438.171381516851,1233
2440.00795317844,1277
2441.844118556569,1276
2443.6798779380724,1241
2445.5152316098606,1250
2447.3501798589255,1289
2449.1847229723357,1277
2451.0188612372403,1303
2452.8525949408663,1253
2454.6859243705203,1283
2456.518849813587,1268
2458.3513715575314,1295
2460.183489889895,1301
2462.015205098301,1307
2463.8465174704493,1287
2465.67742729412,1316
2467.5079348571717,1242
2469.338040447542,1258
2471.1677443532476,1289
2472.9970468623833,1225
2474.825948263123,1253
2476.6544488437207,1230
2478.482548892508,1259
2480.310248697896,1231
2482.137548548374,1234
2483.9644487325118,1203
2485.790949538956,1249
2487.617051256433,1263
2489.44275417375,1268
2491.26805857979,1265
2493.0929647635157,1302
2494.917473013971,1302
2496.741583620276,1231
2498.5652968716304,1267
2500.3886130573137,1264
2502.2115324666834,1245
2504.0340553891765,1283
2505.856182114308,1288
2507.6779129316733,1278
2509.499248130945,1254
2511.3201880018764,1220
2513.140732834298,1271
2514.9608829181198,1251
2516.780638543331,1266
2518.6,1245
2520.418967578273,1258
2522.237541568376,1275
2524.0557222606144,1273
2525.8735099453706,1229
2527.6909049131086,1328
2529.507907454368,1228
2531.32451785977,1284
2533.140736420014,1247
2534.9565634258774,1254
2536.771999168218,1293
2538.5870439379714,1239
2540.4016980261526,1284
2542.2159617238544,1285
2544.02983532225,1270
2545.8433191125914,1288
2547.656413386209,1241
2549.4691184345115,1312
2551.2814345489874,1224
2553.093362021204,1269
2554.904901142808,1230
2556.716052205523,1237
2558.526815501153,1262
2560.3371913215824,1250
2562.147179958771,1294
2563.956781704761,1295
2565.7659968516705,1239
2567.5748256916986,1298
2569.3832685171224,1230
2571.1913256202984,1267
2572.9989972936614,1300
2574.806283829725,1271
2576.613185521084,1250
2578.4197026604074,1223
2580.2258355404483,1242
2582.031584454035,1243
2583.836949694077,1297
2585.6419315535613,1304
2587.4465303255533,1251
2589.2507463032002,1266
2591.0545797797245,1314
2592.8580310484303,1304
2594.6611004026995,1267
2596.463788135992,1256
2598.266094541849,1253
2600.0680199138874,1250
2601.869564545807,1245
2603.670728731383,1230
2605.4715127644704,1290
2607.2719169390048,1238
2609.071941548998,1300
2610.8715868885433,1266
2612.670853251811,1284
2614.469740933052,1289
2616.268250226594,1236
2618.0663814268455,1217
2619.864134828292,1266
2621.6615107255006,1218
2623.458509413115,1274
2625.2551311858597,1203
2627.0513763385347,1201
2628.8472451660223,1277
2630.6427379632833,1246
2632.4378550253564,1225
2634.232596647359,1215
2636.026963124488,1259
2637.8209547520187,1243
2639.6145718253065,1284
2641.407814639785,1278
2643.200683490966,1313
2644.9931786744414,1319
2646.7853004858807,1295
2648.577049221034,1279
2650.3684251757277,1278
2652.1594286458712,1259
2653.9500599274484,1260
2655.740319316525,1244
2657.5302071092437,1281
2659.3197236018286,1227
2661.10886909058,1246
2662.8976438718782,1348
2664.686048242183,1290
2666.4740824980327,1253
2668.2617469360443,1212
2670.0490418529134,1239
2671.8359675454153,1244
2673.622524310403,1240
2675.408712444811,1285
2677.1945322456495,1246
2678.979984010009,1281
2680.76506803506,1219
2682.5497846180497,1214
2684.334134056306,1253
2686.1181166472343,1258
2687.9017326883213,1265
2689.6849824771293,1331
2691.4678663113013,1306
2693.2503844885596,1288
2695.032537306705,1270
2696.8143250636167,1279
2698.5957480572542,1253
2700.3768065856534,1261
2702.1575009469316,1296
2703.937831439283,1240
2705.717798360982,1226
2707.4974020103837,1262
2709.276642685917,1221
2711.055520686095,1248
2712.834036309506,1206
2714.612189854819,1206
2716.389981620782,1262
2718.1674119062204,1258
2719.944481010041,1238
2721.721189231226,1318
2723.4975368688415,1284
2725.273524222027,1295
2727.0491515900053,1313
2728.824419272075,1352
2730.5993275676146,1320
2732.3738767760838,1242
2734.148067197016,1270
2735.921899130031,1218
2737.6953728748194,1243
2739.468488731156,1261
2741.2412469988926,1259
2743.0136479779617,1287
2744.785691968372,1254
2746.5573792702116,1267
2748.3287101836504,1280
2750.099685008934,1236
2751.870304046388,1303
2753.640567596418,1278
2755.4104759595057,1196
2757.1800294362156,1305
2758.949228327187,1275
2760.7180729331412,1310
2762.486563554877,1241
2764.254700493272,1280
2766.022484049284,1290
2767.789914523947,1293
2769.5569922183786,1252
2771.3237174337705,1291
2773.090090471394,1236
2774.8561116326036,1255
2776.6217812188274,1225
2778.3870995315756,1250
2780.1520668724356,1286
2781.9166835430747,1270
2783.6809498452394,1296
2785.444866080754,1293
2787.2084325515225,1260
2788.971649559527,1281
2790.73451740683,1290
2792.4970363955713,1243
2794.2592068279705,1258
2796.0210290063264,1217
2797.7825032330147,1234
2799.543629810493,1253
2801.304409041296,1276
2803.0648412280366,1240
2804.8249266734088,1298
2806.5846656801846,1333
2808.344058551212,1304
2810.1031055894246,1308
2811.8618070978273,1297
2813.6201633795085,1298
2815.378174737636,1254
2817.1358414754536,1277
2818.893163896285,1297
2820.6501423035334,1302
2822.4067770006814,1287
2824.1630682912883,1276
2825.9190164789957,1326
2827.6746218675207,1269
2829.429884760661,1323
2831.184805462294,1281
2832.9393842763743,1327
2834.693621506936,1301
2836.4475174580916,1325
2838.201072434034,1268
2839.954286739034,1289
2841.707160677441,1296
2843.459694553685,1283
2845.2118886722724,1241
2846.96374333779,1293
2848.7152588549034,1297
2850.4664355283567,1332
2852.217273662973,1327
2853.9677735636546,1292
2855.7179355353833,1311
2857.4677598832186,1301
2859.217246912299,1275
2860.9663969278427,1281
2862.715210235146,1309
2864.4636871395846,1261
2866.211827946614,1278
2867.9596329617652,1282
2869.7071024906536,1289
2871.4542368389684,1282
2873.20103631248,1266
2874.947501217038,1266
2876.6936318585695,1365
2878.4394285430812,1295
2880.1848915766604,1297
2881.9300212654707,1286
2883.6748179157553,1294
2885.4192818338374,1258
2887.1634133261173,1293
2888.907212699077,1325
2890.6506802592744,1314
2892.393816313348,1333
2894.1366211680142,1254
2895.8790951300693,1282
2897.621238506388,1274
2899.363051603925,1314
2901.1045347297118,1253
2902.8456881908596,1247
2904.58651229456,1285
2906.327007348081,1315
2908.067173658772,1231
2909.8070115340597,1222
2911.5465212814497,1262
2913.285703208527,1267
2915.0245576229563,1264
2916.7630848324807,1294
2918.5012851449196,1234
2920.2391588681758,1288
2921.976706310227,1321
2923.7139277791334,1302
2925.4508235830313,1288
2927.187394030137,1244
2928.923639428745,1340
2930.6595600872306,1255
2932.395156314046,1312
2934.1304284177218,1307
2935.8653767068713,1282
2937.6000014901815,1331
2939.3343030764227,1322
2941.068281774442,1318
2942.8019378931644,1312
2944.5352717415976,1285
2946.2682836288236,1289
2948.0009738640065,1248
2949.7333427563885,1312
2951.465390615289,1290
2953.1971177501086,1287
2954.9285244703265,1256
2956.6596110855,1248
2958.3903779052657,1253
2960.1208252393385,1310
2961.8509533975125,1275
2963.5807626896617,1308
2965.3102534257378,1272
2967.0394259157715,1308
2968.768280469873,1253
2970.496817398232,1236
2972.2250370111146,1306
2973.952939618869,1296
2975.6805255319196,1303
2977.4077950607707,1243
2979.134748516006,1249
2980.861386208289,1327
2982.587708448359,1305
2984.313715547037,1302
2986.039407815222,1285
2987.764785563891,1314
2989.489849104102,1282
2991.2145987469908,1262
2992.9390348037705,1294
2994.6631575857346,1249
2996.3869674042576,1285
2998.1104645707887,1267
2999.83364939686,1345
3001.5565221940783,1290
3003.2790832741334,1249
3005.0013329487924,1229
3006.7232715298996,1235
3008.4448993293804,1267
3010.166216659239,1238
3011.887223831558,1253
3013.607921158498,1301
3015.3283089522993,1261
3017.0483875252826,1279
3018.7681571898443,1293
3020.4876182584626,1267
3022.2067710436927,1260
3023.9256158581707,1336
3025.644153014609,1232
3027.362382825801,1231
3029.0803056046193,1229
3030.797921664012,1216
3032.5152313170106,1313
3034.2322348767225,1215
3035.9489326563353,1238
3037.665324969115,1261
3039.3814121284063,1194
3041.097194447633,1232
3042.812672240299,1246
3044.5278458199855,1255
3046.2427155003525,1249
3047.9572815951406,1276
3049.671544418167,1220
3051.38550428333,1280
3053.0991615046073,1275
3054.812516396051,1302
3056.5255692717974,1282
3058.2383204460575,1196
3059.9507702331257,1195
3061.662918947372,1273
3063.3747669032446,1237
3065.0863144152736,1248
3066.7975617980674,1270
3068.508509366309,1256
3070.219157434767,1272
3071.9295063182844,1278
3073.639556331785,1272
3075.3493077902704,1278
3077.058761008821,1275
3078.7679163025964,1260
3080.476773986837,1263
3082.1853343768594,1251
3083.89359778806,1201
3085.6015645359153,1244
3087.3092349359786,1265
3089.016609303884,1257
3090.7236879553434,1242
3092.4304712061476,1215
3094.136959372166,1225
3095.843152769349,1285
3097.5490517137237,1266
3099.2546565213966,1223
3100.959967508554,1275
3102.66498499146,1224
3104.3697092864577,1281
3106.0741407099695,1240
3107.778279578498,1216
3109.482126208622,1253
3111.1856809170004,1234
3112.8889440203716,1273
3114.5919158355528,1222
3116.294596679439,1271
3117.996986869006,1270
3119.6990867213062,1240
3121.4008965534726,1188
3123.102416682717,1229
3124.803647426329,1295
3126.5045891016784,1292
3128.205242026213,1229
3129.90560651746,1209
3131.605682893025,1277
3133.3054714705922,1244
3135.0049725679282,1255
3136.7041865028714,1260
3138.4031135933465,1251
3140.101754157353,1249
3141.800108512971,1229
3143.498176978357,1245
3145.1959598717494,1243
3146.8934575114636,1213
3148.5906702158954,1295
3150.2875983035183,1234
3151.9842420928853,1232
3153.680601902627,1242
3155.376678051456,1255
3157.07247085816,1219
3158.767980641609,1247
3160.463207720748,1243
3162.158152414606,1205
3163.8528150422862,1234
3165.5471959229726,1266
3167.2412953759303,1310
3168.9351137204976,1246
3170.628651276098,1259
3172.3219083622307,1293
3174.014885298474,1300
3175.707582404485,1256
3177.4000000000005,1280
3179.092138404835,1272
3180.7839979388846,1228
3182.47557892212,1291
3184.166881674594,1243
3185.8579065164386,1258
3187.5486537678626,1249
3189.2391237491547,1294
3190.9293167806827,1277
3192.6192331828934,1223
3194.3088732763117,1208
3195.998237381542,1246
3197.687325819268,1247
3199.376138910251,1226
3201.064676975334,1217
3202.7529403354347,1182
3204.4409293115523,1229
3206.1286442247647,1200
3207.816085396229,1222
3209.5032531471825,1253
3211.190147798936,1209
3212.8767696728846,1226
3214.5631190905015,1254
3216.2491963733373,1187
3217.9350018430214,1225
3219.6205358212637,1258
3221.305798629851,1193
3222.990790590651,1247
3224.6755120256103,1216
3226.359963256751,1198
3228.0441446061795,1234
3229.7280563960758,1277
3231.411698948703,1266
3233.0950725863995,1293
3234.778177631587,1249
3236.461014406761,1238
3238.1435832345005,1246
3239.8258844374595,1259
3241.507918338374,1262
3243.1896852600576,1238
3244.8711855254023,1264
3246.552419457381,1276
3248.233387379042,1239
3249.914089613516,1269
3251.59452648401,1234
3253.274698313813,1192
3254.95460542629,1213
3256.6342481448855,1217
3258.313626793125,1259
3259.9927416946084,1252
3261.6715931730196,1228
3263.3501815521176,1224
3265.0285071557437,1228
3266.706570307815,1223
3268.3843713323286,1272
3270.0619105533615,1241
3271.739188295068,1197
3273.4162048816834,1233
3275.0929606375184,1238
3276.769455886966,1253
3278.445690954498,1241
3280.1216661646613,1264
3281.797381842087,1264
3283.4728383114807,1213
3285.1480358976296,1244
3286.8229749253996,1190
3288.4976557197333,1242
3290.172078605655,1247
3291.846243908266,1228
3293.5201519527463,1293
3295.193803064357,1221
3296.8671975684374,1208
3298.5403357904024,1244
3300.21321805575,1222
3301.8858446900567,1233
3303.558216018975,1242
3305.23033236824,1221
3306.9021940636603,1277
3308.57380143113,1221
3310.2451547966184,1247
3311.916254486174,1258
3313.5871008259246,1197
3315.2576941420766,1220
3316.9280347609147,1244
3318.5981230088046,1176
3320.2679592121895,1209
3321.9375436975924,1236
3323.606876791612,1218
3325.27595882093,1268
3326.944790112305,1251
3328.6133709925753,1186
3330.2817017886573,1213
3331.949782827547,1229
3333.617614436319,1227
3335.2851969421245,1202
3336.952530672199,1253
3338.619615953853,1214
3340.286453114475,1251
3341.9530424815357,1223
3343.619384382583,1211
3345.2854791452437,1294
3346.951327097224,1288
3348.6169285663073,1242
3350.2822838803577,1276
3351.947393367319,1221
3353.61225735521,1252
3355.2768761721345,1269
3356.9412501462693,1245
3358.605379605873,1218
3360.2692648792827,1234
3361.9329062949146,1194
3363.596304181263,1225
