CollectionTime,9/19/2024 10:47:05 AM
ExposureUsed,3
CalibratedSpectrum
-962.7078968117929,516
-959.9714848408522,536
-957.2358232597828,549
-954.5009119013725,550
-951.7667505983302,585
-949.0333391832855,589
-946.3006774887896,549
-943.5687653473143,571
-940.837602591253,548
-938.1071890529199,536
-935.3775245645503,554
-932.6486089583007,555
-929.9204420662485,572
-927.1930237203925,567
-924.4663537526524,574
-921.7404319948689,574
-919.0152582788041,582
-916.2908324361409,560
-913.5671542984834,547
-910.8442236973568,511
-908.1220404642074,526
-905.4006044304027,565
-902.679915427231,530
-899.959973285902,533
-897.2407778375464,531
-894.5223289132158,532
-891.8046263438832,527
-889.0876699604426,515
-886.3714595937089,522
-883.6559950744183,540
-880.9412762332282,523
-878.2273029007168,536
-875.5140749073835,542
-872.8015920836489,522
-870.0898542598545,478
-867.3788612662631,494
-864.6686129330585,557
-861.9591090903457,508
-859.2503495681506,490
-856.5423341964203,493
-853.8350628050229,493
-851.1285352237478,507
-848.4227512823054,530
-845.7177108103272,546
-843.0134136373656,533
-840.3098595928943,543
-837.6070485063082,534
-834.9049802069229,541
-832.2036545239757,512
-829.5030712866244,533
-826.8032303239481,495
-824.1041314649472,525
-821.4057745385428,517
-818.7081593735775,518
-816.0112857988148,529
-813.3151536429393,543
-810.6197627345566,554
-807.9251129021936,526
-805.2312039742981,555
-802.5380357792392,533
-799.8456081453069,566
-797.1539209007124,570
-794.462973873588,557
-791.772766891987,549
-789.083299783884,567
-786.3945723771743,559
-783.7065844996748,541
-781.0193359791231,553
-778.3328266431781,546
-775.6470563194197,557
-772.9620248353489,520
-770.2777320183878,522
-767.5941776958798,520
-764.9113616950891,535
-762.2292838432011,513
-759.5479439673222,501
-756.8673418944801,586
-754.1874774516235,532
-751.5083504656222,517
-748.8299607632671,539
-746.15230817127,568
-743.475392516264,530
-740.7992136248035,526
-738.1237713233636,531
-735.4490654383407,546
-732.7750957960521,529
-730.1018622227365,559
-727.4293645445534,539
-724.7576025875837,516
-722.0865761778291,552
-719.4162851412126,566
-716.7467293035781,565
-714.0779084906909,551
-711.409822528237,536
-708.7424712418238,558
-706.0758544569796,558
-703.4099719991541,543
-700.7448236937178,564
-698.0804093659622,560
-695.4167288411002,564
-692.7537819442656,589
-690.0915685005134,586
-687.4300883348199,610
-684.7693412720819,592
-682.1093271371178,602
-679.4500457546669,586
-676.7914969493897,559
-674.1336805458676,595
-671.4765963686034,567
-668.8202442420206,563
-666.1646239904642,544
-663.5097354382001,568
-660.8555784094151,574
-658.2021527282176,563
-655.5494582186366,576
-652.8974947046223,599
-650.2462620100463,576
-647.5957599587009,610
-644.9459883742998,603
-642.2969470804776,601
-639.6486359007902,634
-637.0010546587141,652
-634.3542031776476,630
-631.7080812809096,594
-629.0626887917401,571
-626.4180255333008,652
-623.7740913286734,650
-621.1308860008619,663
-618.4884093727904,620
-615.8466612673046,625
-613.2056415071715,610
-610.5653499150785,661
-607.9257863136347,693
-605.28695052537,688
-602.6488423727357,696
-600.0114616781036,665
-597.3748082637674,719
-594.7388819519412,765
-592.1036825647604,709
-589.4692099242818,700
-586.8354638524829,661
-584.2024441712624,740
-581.5701507024403,730
-578.9385832677575,696
-576.3077416888759,747
-573.6776257873787,707
-571.0482353847704,684
-568.4195703024757,670
-565.7916303618415,718
-563.164415384135,674
-560.5379251905453,640
-557.9121596021815,702
-555.2871184400748,674
-552.6628015251767,692
-550.0392086783606,747
-547.4163397204204,755
-544.794194472071,794
-542.1727727539491,800
-539.5520743866118,790
-536.9320991905377,796
-534.3128469861261,834
-531.6943175936979,904
-529.0765108334947,897
-526.4594265256793,1103
-523.8430644903358,1266
-521.2274245474689,1433
-518.612506517005,1620
-515.9983102187913,1688
-513.3848354725959,1894
-510.77208209810846,2142
-508.16004991493924,2300
-505.5487387426199,2281
-502.9381484006032,2288
-500.3282787082628,2103
-497.71912948489364,1809
-495.1107005497117,1513
-492.5029917218539,1282
-489.8960028203786,1075
-487.28973366426493,1011
-484.68418407241325,955
-482.07935386364494,926
-479.47524285670266,882
-476.87185087025,899
-474.2691777228715,924
-471.66722323307334,857
-469.0659872192821,874
-466.4654694998459,918
-463.86566989303384,876
-461.26658821703614,841
-458.66822428996414,845
-456.07057792985,895
-453.4736489546475,862
-450.877437182231,811
-448.28194243039627,818
-445.68716451686,793
-443.09310325926003,849
-440.49975847515555,854
-437.9071299820263,844
-435.31521759727354,877
-432.72402113821954,876
-430.13354042210767,891
-427.5437752661022,878
-424.95472548728867,860
-422.36639090267386,938
-419.7787713291855,946
-417.1918665836721,992
-414.60567648290385,958
-412.0202008435715,994
-409.4354394822874,960
-406.8513922155845,904
-404.26805885991723,954
-401.685439231661,1004
-399.103533147112,936
-396.522340422488,942
-393.9418608739278,937
-391.3620943174908,926
-388.7830405691583,895
-386.2046994448317,860
-383.6270707603344,859
-381.05015433141045,888
-378.473949973725,801
-375.8984575028645,747
-373.32367673433623,765
-370.74960748356875,756
-368.1762495659117,710
-365.60360279663576,714
-363.03166699093265,611
-360.4604419639154,599
-357.8899275306178,552
-355.32012350599507,574
-352.7510297049233,559
-350.1826459421999,547
-347.61497203254316,558
-345.04800779059235,564
-342.4817530309082,608
-339.91620756797226,636
-337.35137121618743,565
-334.7872437898774,553
-332.22382510328725,607
-329.66111497058273,652
-327.09911320585127,600
-324.53781962310075,560
-321.9772340362607,536
-319.4173562591816,551
-316.8581861056348,602
-314.2997233893127,599
-311.7419679238294,591
-309.1849195227194,597
-306.62857799943856,632
-304.0729431673641,624
-301.51801483979375,649
-298.963792829947,635
-296.41027695096386,634
-293.85746701590574,658
-291.3053628377552,692
-288.7539642294155,757
-286.2032710037115,732
-283.65328297338897,774
-281.1039999511146,779
-278.5554217494762,755
-276.007548180983,731
-273.4603790580651,674
-270.9139141930734,732
-268.3681533982807,758
-265.8230964858798,821
-263.27874326798565,803
-260.7350935566336,785
-258.1921471637804,929
-255.6499039013039,1015
-253.10836358100266,837
-250.56752601459698,830
-248.02739101372765,882
-245.48795838995704,1014
-242.94922795476816,901
-240.41119951956557,804
-237.8738728956746,838
-235.33724789434166,990
-232.80132432673452,959
-230.2661020039418,876
-227.73158073697357,916
-225.19776033676033,1041
-222.66464061415422,1082
-220.1322213799284,950
-217.60050244477725,916
-215.06948361931552,1087
-212.53916471408013,1144
-210.00954553952818,1102
-207.48062590603843,1049
-204.9524056239104,941
-202.4248845033651,1077
-199.8980623545441,1224
-197.37193898751036,1297
-194.84651421224817,1188
-192.32178783866232,1004
-189.79775967657952,1104
-187.27442953574644,1287
-184.7517972258321,1258
-182.2298625564256,1058
-179.7086253370378,958
-177.18808537710026,1185
-174.66824248596583,1487
-172.14909647290835,1501
-169.6306471471229,1229
-167.11289431772548,1147
-164.59583779375328,1181
-162.07947738416453,1508
-159.5638128978386,1706
-157.04884414357605,1711
-154.53457093009854,1786
-152.02099306604828,1385
-149.50811035998936,1383
-146.99592262040665,1808
-144.48442965570587,1982
-141.97363127421409,2162
-139.46352728417958,2043
-136.95411749377126,2132
-134.44540171107985,1802
-131.93737974411636,1381
-129.43005140081357,1677
-126.92341648902493,2321
-124.41747481652521,2934
-121.91222619101006,3135
-119.40767042009657,3252
-116.90380731132257,3347
-114.40063667214702,3845
-111.8981583099503,4528
-109.3963720320337,6691
-106.89527764561933,8485
-104.39487495785067,10371
-101.89516377579241,14017
-99.39614390642998,20607
-96.89781515667039,24587
-94.40017733334128,24290
-91.90323024319173,21028
-89.40697369289148,15745
-86.91140748903172,9327
-84.41653143812482,8395
-81.92234534660395,11146
-79.42884902082358,15153
-76.93604226705907,19601
-74.4439248915071,21139
-71.95249670028534,18634
-69.46175749943245,13362
-66.97170709490854,9977
-64.48234529259423,9646
-61.99367189829195,11903
-59.50568671772464,12380
-57.01838955653636,12287
-54.53178022029283,16461
-52.045858514480074,22156
-49.560624244506016,23115
-47.07607721569923,21765
-44.59221723330904,28957
-42.10904410250669,35864
-39.62655762838392,35200
-37.14475761595372,33557
-34.66364387015028,35520
-32.18321619582866,34361
-29.70347439776515,35778
-27.224418280657005,38056
-24.74604764912317,43345
-22.26836230770266,65030
-19.7913620608565,65030
-17.315046712966478,65030
-14.83941606833514,65030
-12.36446993118659,65030
-9.89020810566592,65030
-7.416630395839093,65030
-4.94373660569363,65030
-2.471526539137585,65030
-6.821210263296962E-13,65030
2.47084320796705,65030
4.941003281093458,65030
7.410480415786196,65030
9.879274808531363,65030
12.347386655893956,65030
14.814816154518212,65030
17.28156350112681,65030
19.74762889252179,65030
22.21301252558385,26672
24.67771459727237,9303
27.141735304626195,8701
29.605074844762612,6857
32.06773341487792,6739
34.52971121224755,7358
36.99100843422559,6734
39.45162527824516,7604
41.91156194181792,7270
44.370818622535126,5429
46.82939551806646,5380
49.287292826160524,7364
51.74451074464503,6403
54.201049471426245,5710
56.65690920448981,3827
59.112090141899785,2781
61.56659248179983,3408
64.02041642241159,3686
66.4735621620365,4286
68.92602989905402,4921
71.37781983192338,4113
73.82893215918205,3375
76.27936707944684,2831
78.72912479141326,3006
81.17820549385567,2778
83.62660938562783,2167
86.07433666566146,2009
88.5213875329681,2101
90.96776218663751,2317
93.41346082583925,2892
95.85848364982041,2836
98.30283085790859,2312
100.7465026495089,2211
103.18949922410604,1880
105.63182078126385,1817
108.07346752062438,1744
110.51443964190923,1474
112.95473734491827,1500
115.39436082953114,1556
117.83331029570547,1864
120.27158594347827,2015
122.7091879729652,2040
125.1461165843615,1920
127.58237197794062,1785
130.01795435405518,1719
132.4528639131364,1673
134.88710085569494,1535
137.32066538231982,1609
139.75355769367923,1518
142.1857779905207,1398
144.61732647366978,1370
147.04820334403132,1485
149.47840880258934,1389
151.90794305040674,1633
154.33680628862487,1559
156.76499871846443,1640
159.19252054122433,1699
161.61937195828352,1664
164.04555317109896,1948
166.47106438120693,2035
168.89590579022217,1945
171.320077599839,2127
173.7435800118302,2223
176.16641322804742,2435
178.58857745042144,2338
181.01007288096173,2349
183.43089972175687,2330
185.85105817497413,2266
188.27054844285988,2373
190.6893707277394,2337
193.10752523201643,2594
195.5250121581745,2615
197.9418317087751,2373
200.3579840864594,2422
202.7734694939469,2692
205.18828813403627,2656
207.6024402096051,2528
210.01592592360964,2588
212.42874547908548,2496
214.84089907914665,2551
217.2523869269868,2457
219.66320922587727,2621
222.0733661791695,2543
224.48285799029293,2476
226.8916848627572,2577
229.29984700014882,2571
231.7073446061355,2599
234.11417788446204,2627
236.520347038953,2546
238.92585227351185,2623
241.33069379212054,2774
243.73487179884035,2704
246.1383864978112,2657
248.541238093252,2658
250.9434267894609,2667
253.34495279081432,2643
255.74581630176783,2606
258.1460175268563,2587
260.54555667069314,2610
262.9444339379703,2625
265.3426495334594,2692
267.7402036620107,2712
270.1370965285529,2735
272.53332833809407,2663
274.9288992957214,2496
277.32380960660055,2504
279.718059475976,2587
282.1116491091717,2625
284.5045787115897,2616
286.89684848871195,2501
289.2884586460981,2730
291.67940938938807,2649
294.0697009242996,2719
296.4593334566299,2678
298.84830719225477,2689
301.23662233712923,2669
303.6242790972866,2628
306.01127767884,2599
308.39761828798066,2585
310.78330113097934,2585
313.16832641418534,2438
315.5526943440269,2447
317.9364051270112,2426
320.3194589697242,2421
322.70185607883093,2376
325.0835966610754,2284
327.4646809232805,2283
329.8451090723478,2283
332.2248813152577,2299
334.6039978590701,2318
336.9824589109231,2319
339.36026467803447,2304
341.7374153677,2249
344.113911187295,2222
346.48975234427337,2249
348.8649390461686,2247
351.2394715005918,2257
353.61334991523415,2133
355.9865744978655,2184
358.35914545633375,2270
360.73106299856715,2219
363.10232733257146,2141
365.47293866643247,2174
367.84289720831396,2175
370.2122031664593,2135
372.5808567491905,2152
374.9488581649083,2128
377.31620762209275,2066
379.6829053293021,2113
382.0489514951745,2050
384.4143463284262,2018
386.7790900378528,2012
389.14318283232853,1988
391.50662492080653,2047
393.86941651231916,1984
396.23155781597745,2018
398.5930490409713,2009
400.9538903965696,2034
403.3140820921202,2042
405.6736243370498,1957
408.03251734086336,2038
410.3907613131465,1928
412.74835646356166,1997
415.10530300185144,2005
417.4616011378372,2013
419.81725108141893,2042
422.1722530425758,2044
424.5266072313656,2065
426.880313857925,2065
429.2333731324701,1940
431.58578526529516,1978
433.9375504667738,1929
436.2886689473588,1949
438.63914091758113,1981
440.9889665880513,1948
443.33814616945835,1926
445.68667987257015,1952
448.03456790823395,1981
450.3818104873759,1901
452.72840782100013,1833
455.07436012019105,1851
457.41966759611057,1957
459.7643304600007,1891
462.10834892318155,1866
464.4517231970525,1858
466.79445349309174,1925
469.1365400228566,1883
471.4779829979826,1923
473.81878263018564,2016
476.15893913125876,1963
478.4984527130747,2046
480.8373235875855,2099
483.17555196682144,2124
485.5131380628919,2240
487.8500820879857,2246
490.1863842543697,2409
492.52204477439034,2599
494.8570638604725,2854
497.1914417251204,3377
499.52517858091653,3964
501.85827464052306,4776
504.19073011668036,5109
506.5225452222086,5546
508.85372017000566,5511
511.18425517304956,5819
513.514150444396,6985
515.8434061971808,8188
518.1720226446176,8689
520.4999999999999,8369
522.8273384766991,7939
525.1540382881666,7334
527.480099647932,6164
529.8055227696037,4499
532.1303078668694,3290
534.454455153496,2665
536.777964843328,2433
539.1008371502907,2411
541.4230722883866,2290
543.744670471698,2141
546.0656319143858,2169
548.3859568306899,2110
550.7056454349294,2010
553.0246979415016,2027
555.3431145648834,2055
557.6608955196306,2027
559.978041020377,2027
562.2945512818363,2023
564.6104265188006,2102
566.9256669461412,2014
569.2402727788082,2023
571.5542442318302,2069
573.8675815203156,2123
576.1802848594508,2042
578.4923544645015,2131
580.8037905508126,2166
583.114593333807,2051
585.4247630289875,2041
587.7342998519354,2087
590.0432040183106,2086
592.3514757438526,2103
594.6591152443794,2073
596.9661227357875,2123
599.2724984340531,2057
601.578242555231,2044
603.8833553154542,1945
606.1878369309362,2016
608.4916876179676,2048
610.7949075929192,2011
613.0974970722403,2035
615.3994562724587,1933
617.7007854101818,2012
620.0014847020951,2039
622.3015543649641,2068
624.6009946156324,1992
626.8998056710224,2002
629.1979877481361,2006
631.4955410640538,2021
633.7924658359349,1945
636.0887622810175,2085
638.3844306166192,1977
640.6794710601358,2010
642.9738838290426,2009
645.2676691408932,2037
647.5608272133207,2018
649.853358264037,2033
652.1452625108324,2092
654.4365401715764,1978
656.7271914642178,1973
659.0172166067838,2006
661.3066158173809,2137
663.5953893141935,2001
665.8835373154867,2059
668.1710600396028,1997
670.4579577049639,1988
672.7442305300709,1976
675.0298787335033,2053
677.3149025339197,1963
679.599302150058,2053
681.8830778007342,1993
684.1662297048437,2025
686.4487580813608,2015
688.7306631493387,1999
691.0119451279091,1950
693.2926042362834,1994
695.5726406937516,1932
697.8520547196814,1925
700.1308465335215,1878
702.4090163547982,2004
704.6865644031171,2010
706.9634908981619,1991
709.2397960596965,2036
711.5154801075631,1996
713.7905432616823,2016
716.0649857420548,1981
718.3388077687592,1986
720.612009561953,1930
722.8845913418733,1931
725.1565533288352,1878
727.427895743234,1909
729.6986188055427,1903
731.9687227363137,1975
734.238207756178,2001
736.5070740858458,1911
738.7753219461066,1938
741.0429515578281,1923
743.3099631419569,2025
745.5763569195191,2064
747.8421331116193,1982
750.1072919394409,1990
752.3718336242467,2021
754.6357583873777,1952
756.8990664502545,1939
759.1617580343765,1906
761.423833361321,1982
763.6852926527457,2004
765.9461361303862,1956
768.206364016058,1991
770.4659765316536,2039
772.7249738991469,1991
774.9833563405886,1950
777.2411240781092,2019
779.4982773339183,1954
781.7548163303044,2025
784.010741289634,2044
786.2660524343538,2078
788.5207499869881,2108
790.7748341701416,2102
793.0283052064964,2043
795.2811633188143,2069
797.5334087299362,2064
799.7850416627813,1993
802.0360623403484,2052
804.2864709857143,2019
806.5362678220353,2076
808.7854530725468,2052
811.0340269605625,2001
813.2819897094754,2047
815.5293415427581,2028
817.77608268396,1983
820.0222133567116,2039
822.2677337847211,2040
824.5126441917765,2009
826.7569448017433,1998
829.0006358385675,2004
831.2437175262731,1999
833.4861900889629,2069
835.7280537508192,2002
837.9693087361026,1964
840.2099552691533,1958
842.4499935743896,1993
844.689423876309,2031
846.9282463994886,2077
849.1664613685833,2028
851.4040690083276,1984
853.6410695435349,1998
855.877463199097,2119
858.1132501999847,2027
860.3484307712487,2078
862.5830051380175,2066
864.8169735254988,2125
867.0503361589791,2083
869.2830932638243,2129
871.5152450654786,2101
873.7467917894654,2024
875.9777336613873,2070
878.2080709069252,2047
880.4378037518389,2045
882.666932421968,2077
884.8954571432301,2139
887.1233781416219,2123
889.3506956432192,2136
891.5774098741766,2090
893.803521060728,2123
896.0290294291852,2034
898.2539352059397,2033
900.4782386174619,2067
902.7019398903011,2010
904.925039251085,2187
907.147536926521,2199
909.3694331433943,2126
911.59072812857,2082
913.8114221089921,2093
916.0315153116827,2077
918.2510079637437,2122
920.4699002923547,2037
922.6881925247761,2103
924.905884888345,2089
927.1229776104793,2061
929.3394709186747,2226
931.555365040506,2054
933.7706602036275,2191
935.9853566357709,2083
938.1994545647489,2161
940.4129542184515,2195
942.6258558248488,2187
944.8381596119883,2242
947.0498658079974,2184
949.2609746410825,2158
951.4714863395287,2179
953.6814011316998,2238
955.8907192460387,2207
958.0994409110671,2187
960.3075663553858,2171
962.5150958076741,2196
964.7220294966913,2206
966.928367651274,2213
969.1341105003388,2030
971.3392582728806,2048
973.5438111979742,2016
975.747769504772,2102
977.9511334225061,1989
980.153903180487,2018
982.3560790081052,1987
984.5576611348289,2003
986.7586497902058,1964
988.9590452038618,1912
991.158847605503,1931
993.3580572249133,1826
995.5566742919558,1731
997.7546990365728,1794
999.952131688785,1724
1002.1489724786926,1676
1004.3452216364743,1666
1006.5408793923874,1648
1008.7359459767691,1659
1010.9304216200343,1724
1013.1243065526781,1616
1015.3176010052733,1679
1017.510305208472,1578
1019.7024193930064,1667
1021.8939437896848,1648
1024.0848786293977,1650
1026.2752241431122,1635
1028.4649805618747,1639
1030.6541481168115,1608
1032.842727039127,1605
1035.0307175601051,1542
1037.2181199111074,1603
1039.4049343235752,1506
1041.591161029029,1483
1043.7768002590683,1521
1045.9618522453698,1588
1048.1463172196918,1556
1050.3301954138697,1558
1052.513487059818,1527
1054.69619238953,1482
1056.8783116350783,1499
1059.0598450286152,1444
1061.2407928023704,1486
1063.4211551886528,1550
1065.6009324198508,1498
1067.780124728432,1566
1069.9587323469414,1527
1072.1367555080046,1464
1074.314194444325,1509
1076.4910493886855,1438
1078.667320573947,1435
1080.843008233051,1480
1083.0181125990161,1486
1085.1926339049414,1463
1087.3665723840027,1480
1089.5399282694575,1515
1091.7127017946405,1461
1093.8848931929647,1477
1096.0565026979243,1501
1098.2275305430899,1407
1100.3979769621128,1448
1102.567842188722,1423
1104.737126456726,1442
1106.9058300000124,1376
1109.0739530525475,1457
1111.2414958483764,1431
1113.4084586216231,1460
1115.5748416064907,1375
1117.7406450372605,1431
1119.9058691482942,1357
1122.0705141740304,1392
1124.2345803489884,1389
1126.3980679077658,1443
1128.5609770850388,1384
1130.7233081155623,1391
1132.8850612341707,1427
1135.0462366757774,1435
1137.2068346753745,1402
1139.3668554680326,1435
1141.526299288901,1414
1143.68516637321,1368
1145.8434569562655,1323
1148.001171273455,1415
1150.158309560244,1376
1152.3148720521767,1349
1154.470858984876,1409
1156.626270594044,1415
1158.7811071154629,1412
1160.9353687849912,1392
1163.089055838569,1398
1165.242168512213,1368
1167.3947070420209,1353
1169.5466716641677,1422
1171.6980626149075,1436
1173.8488801305748,1435
1175.9991244475814,1371
1178.1487958024186,1337
1180.2978944316555,1350
1182.4464205719428,1317
1184.5943744600072,1373
1186.7417563326567,1302
1188.8885664267755,1372
1191.0348049793297,1320
1193.1804722273619,1346
1195.325568407995,1369
1197.4700937584303,1331
1199.614048515948,1388
1201.7574329179074,1311
1203.900247201746,1317
1206.042491604982,1326
1208.1841663652099,1351
1210.3252717201053,1328
1212.465807907422,1421
1214.6057751649923,1356
1216.7451737307279,1367
1218.8840038426192,1389
1221.0222657387353,1387
1223.1599596572241,1440
1225.2970858363137,1338
1227.4336445143094,1379
1229.5696359295966,1402
1231.705060320639,1382
1233.8399179259786,1360
1235.9742089842384,1342
1238.107933734118,1353
1240.2410924143974,1399
1242.373685263935,1429
1244.5057125216676,1398
1246.6371744266116,1343
1248.7680712178621,1367
1250.898403134593,1366
1253.028170416058,1346
1255.1573733015875,1369
1257.2860120305932,1357
1259.4140868425648,1383
1261.54159797707,1391
1263.6685456737569,1402
1265.7949301723515,1415
1267.9207517126597,1379
1270.046010534565,1362
1272.1707068780306,1388
1274.2948409830983,1395
1276.4184130898889,1396
1278.541423438603,1412
1280.6638722695184,1419
1282.785759822993,1397
1284.9070863394636,1347
1287.0278520594447,1394
1289.1480572235314,1346
1291.2677020723963,1320
1293.3867868467923,1353
1295.5053117875495,1348
1297.623277135579,1362
1299.740683131868,1345
1301.8575300174857,1345
1303.973818033578,1442
1306.0895474213703,1397
1308.2047184221678,1332
1310.3193312773528,1366
1312.4333862283888,1402
1314.5468835168163,1390
1316.659823384255,1349
1318.7722060724045,1400
1320.8840318230418,1371
1322.9953008780249,1379
1325.1060134792888,1385
1327.2161698688478,1329
1329.3257702887959,1394
1331.4348149813054,1412
1333.5433041886276,1426
1335.6512381530933,1418
1337.7586171171101,1366
1339.8654413231675,1363
1341.9717110138317,1382
1344.0774264317488,1363
1346.1825878196432,1395
1348.2871954203192,1428
1350.3912494766587,1398
1352.4947502316231,1353
1354.5976979282532,1361
1356.7000928096686,1391
1358.8019351190665,1412
1360.9032250997243,1402
1363.0039629949988,1381
1365.1041490483235,1350
1367.2037835032133,1411
1369.3028666032606,1426
1371.401398592137,1440
1373.4993797135926,1369
1375.5968102114575,1375
1377.6936903296396,1416
1379.7900203121262,1435
1381.8858004029835,1430
1383.9810308463561,1392
1386.075711886469,1363
1388.1698437676241,1417
1390.2634267342032,1385
1392.356461030667,1419
1394.4489469015557,1404
1396.5408845914872,1396
1398.6322743451592,1415
1400.7231164073469,1450
1402.813411022907,1366
1404.903158436773,1443
1406.9923588939578,1413
1409.0810126395531,1397
1411.1691199187303,1383
1413.2566809767386,1395
1415.343696058907,1419
1417.4301654106425,1488
1419.5160892774315,1554
1421.6014679048399,1440
1423.6863015385125,1463
1425.7705904241707,1449
1427.8543348076178,1423
1429.9375349347342,1403
1432.0201910514802,1434
1434.102303403894,1345
1436.1838722380944,1392
1438.2648978002767,1412
1440.3453803367174,1409
1442.4253200937692,1366
1444.5047173178677,1384
1446.5835722555234,1384
1448.6618851533285,1420
1450.739656257952,1376
1452.8168858161434,1416
1454.8935740747306,1341
1456.96972128062,1349
1459.045327680797,1404
1461.120393522327,1340
1463.1949190523528,1349
1465.2689045180973,1416
1467.3423501668608,1429
1469.415256246024,1380
1471.4876230030463,1375
1473.559450685465,1409
1475.6307395408976,1411
1477.7014898170391,1405
1479.771701761665,1398
1481.8413756226287,1344
1483.9105116478618,1362
1485.9791100853772,1363
1488.0471711832643,1415
1490.1146951896926,1345
1492.1816823529098,1366
1494.2481329212433,1340
1496.3140471430984,1345
1498.3794252669609,1335
1500.4442675413939,1360
1502.5085742150404,1424
1504.572345536622,1410
1506.6355817549388,1417
1508.6982831188702,1369
1510.7604498773744,1367
1512.8220822794883,1330
1514.8831805743293,1381
1516.9437450110909,1428
1519.003775839048,1390
1521.0632733075522,1390
1523.1222376660367,1339
1525.1806691640113,1373
1527.2385680510652,1318
1529.2959345768668,1355
1531.3527689911643,1380
1533.4090715437833,1378
1535.4648424846291,1363
1537.5200820636855,1414
1539.5747905310159,1349
1541.6289681367616,1370
1543.6826151311434,1399
1545.7357317644614,1383
1547.7883182870937,1430
1549.8403749494987,1365
1551.8919020022113,1340
1553.9428996958477,1431
1555.9933682811015,1389
1558.0433080087469,1347
1560.0927191296346,1394
1562.1416018946961,1432
1564.1899565549415,1337
1566.2377833614592,1340
1568.2850825654164,1404
1570.3318544180606,1328
1572.3780991707158,1422
1574.423817074788,1386
1576.4690083817595,1371
1578.5136733431923,1427
1580.5578122107272,1430
1582.601425236085,1302
1584.6445126710646,1383
1586.6870747675434,1419
1588.7291117774776,1408
1590.7706239529034,1396
1592.8116115459347,1367
1594.8520748087658,1425
1596.8920139936686,1376
1598.9314293529933,1375
1600.9703211391711,1383
1603.008689604711,1404
1605.0465350022005,1423
1607.0838575843068,1368
1609.1206576037753,1389
1611.1569353134305,1376
1613.1926909661765,1440
1615.2279248149953,1405
1617.2626371129481,1354
1619.2968281131757,1375
1621.3304980688963,1335
1623.3636472334088,1372
1625.39627586009,1343
1627.428384202396,1356
1629.459972513861,1439
1631.4910410480993,1351
1633.5215900588028,1367
1635.551619799744,1333
1637.5811305247717,1372
1639.6101224878166,1344
1641.6385959428862,1401
1643.6665511440683,1371
1645.693988345528,1352
1647.7209078015112,1428
1649.7473097663405,1377
1651.7731944944203,1355
1653.7985622402307,1344
1655.823413258333,1366
1657.847747803366,1384
1659.8715661300494,1368
1661.8948684931793,1353
1663.9176551476316,1392
1665.9399263483624,1344
1667.9616823504057,1318
1669.982923408873,1379
1672.0036497789574,1352
1674.0238617159293,1336
1676.043559475138,1317
1678.0627433120121,1404
1680.081413482059,1388
1682.0995702408654,1393
1684.117213844096,1364
1686.134344547495,1406
1688.1509626068864,1405
1690.1670682781705,1364
1692.182661817329,1364
1694.1977434804217,1353
1696.2123135235875,1383
1698.226372203043,1354
1700.2399197750851,1429
1702.2529564960905,1394
1704.2654826225112,1420
1706.277498410882,1352
1708.2890041178139,1356
1710.2999999999988,1373
1712.3104863142066,1379
1714.3204633172854,1381
1716.329931266163,1398
1718.3388904178469,1401
1720.3473410294214,1350
1722.3552833580516,1400
1724.3627176609807,1474
1726.3696441955308,1437
1728.3760632191033,1375
1730.3819749891782,1370
1732.3873797633146,1352
1734.3922777991502,1308
1736.3966693544012,1362
1738.4005546868639,1397
1740.4039340544127,1381
1742.406807715001,1450
1744.4091759266616,1378
1746.4110389475054,1377
1748.4123970357223,1376
1750.413250449582,1388
1752.4135994474318,1424
1754.4134442876993,1442
1756.4127852288902,1394
1758.4116225295893,1378
1760.4099564484595,1381
1762.407787244244,1455
1764.405115175764,1416
1766.4019405019203,1416
1768.3982634816916,1358
1770.3940843741357,1449
1772.3894034383907,1409
1774.3842209336717,1425
1776.378537119274,1371
1778.372352254571,1358
1780.3656665990156,1414
1782.3584804121397,1403
1784.3507939535534,1435
1786.3426074829463,1383
1788.3339212600863,1412
1790.3247355448211,1427
1792.3150505970766,1479
1794.3048666768573,1460
1796.2941840442477,1496
1798.2830029594106,1436
1800.2713236825884,1442
1802.2591464741004,1391
1804.2464715943465,1385
1806.2332993038058,1400
1808.2196298630352,1457
1810.2054635326708,1403
1812.190800573428,1359
1814.175641246101,1438
1816.1599858115628,1494
1818.1438345307652,1468
1820.127187664738,1471
1822.1100454745924,1348
1824.092408221516,1440
1826.0742761667766,1460
1828.055649571721,1455
1830.0365286977735,1422
1832.0169138064398,1438
1833.9968051593014,1479
1835.9762030180214,1426
1837.9551076443408,1399
1839.9335193000788,1408
1841.9114382471344,1442
1843.888864747485,1439
1845.8657990631878,1404
1847.842241456378,1427
1849.8181921892697,1403
1851.7936515241558,1400
1853.7686197234098,1373
1855.7430970494815,1419
1857.7170837649014,1445
1859.6905801322787,1389
1861.6635864143004,1441
1863.6361028737338,1324
1865.608129773424,1446
1867.5796673762961,1486
1869.5507159453537,1465
1871.521275743678,1440
1873.4913470344313,1443
1875.4609300808534,1448
1877.4300251462632,1437
1879.3986324940588,1430
1881.366752387717,1477
1883.3343850907936,1402
1885.3015308669228,1433
1887.268189979819,1430
1889.2343626932739,1438
1891.2000492711595,1503
1893.1652499774254,1448
1895.1299650761011,1442
1897.0941948312952,1439
1899.0579395071945,1422
1901.0211993680641,1429
1902.98397467825,1428
1904.9462657021745,1488
1906.9080727043415,1426
1908.869395949332,1470
1910.8302357018065,1384
1912.790592226504,1389
1914.7504657882428,1411
1916.7098566519212,1429
1918.6687650825133,1425
1920.6271913450764,1369
1922.5851357047422,1423
1924.5425984267245,1451
1926.499579776314,1444
1928.4560800188833,1441
1930.4120994198802,1458
1932.367638244833,1396
1934.32269675935,1347
1936.2772752291175,1442
1938.231373919899,1423
1940.1849930975404,1433
1942.1381330279637,1409
1944.0907939771696,1426
1946.0429762112412,1389
1947.9946799963363,1423
1949.9459055986945,1416
1951.896653284633,1452
1953.8469233205478,1391
1955.7967159729142,1397
1957.7460315082863,1361
1959.6948701932974,1339
1961.6432322946594,1392
1963.5911180791632,1421
1965.5385278136787,1383
1967.4854617651545,1421
1969.4319202006182,1381
1971.377903387176,1427
1973.3234115920136,1386
1975.268445082395,1443
1977.2130041256642,1408
1979.1570889892423,1363
1981.1006999406304,1442
1983.04383724741,1362
1984.986501177238,1397
1986.928691997853,1409
1988.8704099770712,1399
1990.811655382789,1435
1992.7524284829801,1407
1994.692729545698,1384
1996.6325588390755,1462
1998.5719166313224,1367
2000.5108031907307,1423
2002.4492187856677,1475
2004.387163684583,1453
2006.3246381560011,1419
2008.2616424685298,1434
2010.1981768908527,1558
2012.1342416917332,1395
2014.069837140014,1392
2016.0049635046162,1392
2017.9396210545406,1398
2019.8738100588666,1418
2021.8075307867502,1345
2023.740783507431,1412
2025.6735684902228,1387
2027.6058860045214,1390
2029.5377363198004,1352
2031.4691197056118,1419
2033.4000364315875,1413
2035.3304867674374,1428
2037.260470982952,1425
2039.189989347998,1424
2041.1190421325232,1396
2043.047629606554,1408
2044.9757520401945,1421
2046.9034097036288,1409
2048.8306028671195,1414
2050.7573318010086,1348
2052.683596775716,1356
2054.609398061742,1373
2056.5347359296647,1374
2058.4596106501403,1432
2060.384022493906,1434
2062.3079717317764,1404
2064.231458634646,1429
2066.1544834734873,1378
2068.077046519352,1384
2069.99914804337,1415
2071.9207883167524,1354
2073.8419676107865,1398
2075.7626861968406,1371
2077.6829443463607,1371
2079.6027423308715,1409
2081.522080421977,1403
2083.440958891362,1361
2085.359378010786,1403
2087.2773380520907,1382
2089.194839287196,1415
2091.111881988101,1397
2093.0284664268825,1354
2094.9445928756973,1401
2096.86026160678,1371
2098.775472892446,1389
2100.690227005088,1423
2102.604524217178,1406
2104.5183648012676,1403
2106.431749029985,1342
2108.34467717604,1386
2110.2571495122206,1465
2112.169166311393,1487
2114.080727846503,1507
2115.9918343905747,1415
2117.902486216711,1418
2119.8126835980956,1464
2121.722426807987,1438
2123.6317161197285,1441
2125.5405518067364,1425
2127.448934142509,1456
2129.356863400624,1478
2131.264339854737,1425
2133.1713637785815,1392
2135.077935445972,1527
2136.9840551308002,1514
2138.889723107037,1444
2140.7949396487334,1398
2142.699705030018,1388
2144.6040195250994,1483
2146.507883408264,1484
2148.4112969538774,1444
2150.3142604363848,1431
2152.2167741303097,1429
2154.1188383102535,1466
2156.0204532508997,1454
2157.9216192270064,1396
2159.822336513414,1424
2161.7226053850413,1467
2163.622426116884,1471
2165.5217989840185,1455
2167.4207242616,1516
2169.319202224862,1489
2171.2172331491165,1461
2173.1148173097563,1524
2175.0119549822507,1521
2176.90864644215,1434
2178.8048919650823,1504
2180.7006918267534,1548
2182.596046302952,1493
2184.4909556695407,1427
2186.3854202024645,1492
2188.279440177746,1499
2190.173015871487,1474
2192.066147559868,1527
2193.958835519149,1467
2195.851080025667,1506
2197.7428813558417,1452
2199.6342397861667,1476
2201.5251555932186,1511
2203.415629053651,1554
2205.3056604441986,1581
2207.19525004167,1566
2209.084398122958,1543
2210.9731049650327,1579
2212.861370844941,1540
2214.749196039812,1534
2216.636580826851,1548
2218.523525483344,1571
2220.410030286655,1594
2222.296095514226,1509
2224.1817214435805,1490
2226.066908352319,1514
2227.951656518121,1607
2229.835966218746,1518
2231.71983773203,1564
2233.6032713358913,1506
2235.486267308324,1553
2237.3688259274036,1534
2239.2509474712824,1545
2241.132632218193,1543
2243.013880446447,1486
2244.8946924344323,1555
2246.7750684606203,1524
2248.6550088035574,1485
2250.534513741871,1594
2252.413583554265,1518
2254.292218519526,1490
2256.170418916517,1522
2258.0481850241786,1464
2259.925517121534,1502
2261.8024154876825,1532
2263.678880401803,1492
2265.5549121431536,1520
2267.430510991071,1479
2269.305677224971,1529
2271.180411124348,1541
2273.0547129687766,1472
2274.9285830379076,1471
2276.8020216114737,1540
2278.6750289692845,1524
2280.5476053912294,1481
2282.4197511572766,1477
2284.2914665474727,1555
2286.162751841943,1484
2288.0336073208937,1568
2289.904033264608,1567
2291.774029953448,1530
2293.6435976678554,1480
2295.5127366883517,1455
2297.381447295534,1492
2299.2497297700825,1431
2301.1175843927526,1386
2302.9850114443825,1356
2304.852011205885,1287
2306.7185839582553,1279
2308.5847299825664,1319
2310.4504495599676,1246
2312.3157429716925,1219
2314.1806104990483,1264
2316.0450524234247,1258
2317.9090690262888,1267
2319.772660589186,1296
2321.635827393742,1288
2323.498569721661,1227
2325.3608878547248,1283
2327.2227820747967,1224
2329.0842526638157,1206
2330.945299903803,1250
2332.805924076857,1240
2334.6661254651535,1217
2336.525904350951,1209
2338.3852610165827,1209
2340.244195744464,1205
2342.102708817088,1240
2343.9608005170253,1251
2345.8184711269287,1207
2347.675720929526,1196
2349.532550207628,1212
2351.38895924412,1251
2353.24494832197,1260
2355.100517724223,1219
2356.955667734004,1201
2358.810398634514,1214
2360.664710709037,1268
2362.5186042409337,1247
2364.3720795136437,1290
2366.225136810686,1254
2368.0777764156583,1230
2369.929998612237,1249
2371.7818036841777,1278
2373.633191915315,1211
2375.484163589562,1203
2377.3347189909114,1262
2379.184858403434,1267
2381.03458211128,1191
2382.8838903986775,1239
2384.732783549936,1336
2386.5812618494406,1296
2388.4293255816588,1303
2390.2769750311327,1217
2392.1242104824883,1166
2393.971032220427,1229
2395.8174405297295,1269
2397.6634356952563,1264
2399.509018001947,1217
2401.3541877348193,1259
2403.1989451789705,1243
2405.043290619576,1232
2406.8872243418905,1226
2408.730746631247,1256
2410.5738577730594,1220
2412.4165580528183,1290
2414.258847756095,1245
2416.100727168537,1239
2417.9421965758734,1253
2419.783256263912,1242
2421.623906518538,1238
2423.4641476257157,1232
2425.303979871491,1243
2427.143403541984,1224
2428.9824189233977,1243
2430.821026302012,1249
2432.6592259641866,1227
2434.497018196361,1276
2436.33440328505,1267
2438.171381516851,1245
2440.00795317844,1227
2441.844118556569,1208
2443.6798779380724,1218
2445.5152316098606,1246
2447.3501798589255,1276
2449.1847229723357,1264
2451.0188612372403,1215
2452.8525949408663,1261
2454.6859243705203,1204
2456.518849813587,1237
2458.3513715575314,1247
2460.183489889895,1282
2462.015205098301,1235
2463.8465174704493,1286
2465.67742729412,1240
2467.5079348571717,1206
2469.338040447542,1225
2471.1677443532476,1236
2472.9970468623833,1246
2474.825948263123,1220
2476.6544488437207,1235
2478.482548892508,1210
2480.310248697896,1267
2482.137548548374,1262
2483.9644487325118,1189
2485.790949538956,1232
2487.617051256433,1256
2489.44275417375,1211
2491.26805857979,1185
2493.0929647635157,1273
2494.917473013971,1255
2496.741583620276,1319
2498.5652968716304,1278
2500.3886130573137,1287
2502.2115324666834,1255
2504.0340553891765,1243
2505.856182114308,1238
2507.6779129316733,1284
2509.499248130945,1296
2511.3201880018764,1242
2513.140732834298,1210
2514.9608829181198,1270
2516.780638543331,1218
2518.6,1245
2520.418967578273,1263
2522.237541568376,1285
2524.0557222606144,1261
2525.8735099453706,1210
2527.6909049131086,1249
2529.507907454368,1201
2531.32451785977,1258
2533.140736420014,1257
2534.9565634258774,1251
2536.771999168218,1265
2538.5870439379714,1219
2540.4016980261526,1186
2542.2159617238544,1269
2544.02983532225,1242
2545.8433191125914,1194
2547.656413386209,1258
2549.4691184345115,1218
2551.2814345489874,1219
2553.093362021204,1236
2554.904901142808,1234
2556.716052205523,1225
2558.526815501153,1244
2560.3371913215824,1250
2562.147179958771,1258
2563.956781704761,1226
2565.7659968516705,1189
2567.5748256916986,1216
2569.3832685171224,1225
2571.1913256202984,1200
2572.9989972936614,1242
2574.806283829725,1189
2576.613185521084,1203
2578.4197026604074,1266
2580.2258355404483,1180
2582.031584454035,1208
2583.836949694077,1273
2585.6419315535613,1225
2587.4465303255533,1257
2589.2507463032002,1242
2591.0545797797245,1227
2592.8580310484303,1239
2594.6611004026995,1181
2596.463788135992,1226
2598.266094541849,1183
2600.0680199138874,1233
2601.869564545807,1297
2603.670728731383,1222
2605.4715127644704,1298
2607.2719169390048,1177
2609.071941548998,1237
2610.8715868885433,1256
2612.670853251811,1255
2614.469740933052,1286
2616.268250226594,1246
2618.0663814268455,1228
2619.864134828292,1278
2621.6615107255006,1195
2623.458509413115,1215
2625.2551311858597,1214
2627.0513763385347,1154
2628.8472451660223,1267
2630.6427379632833,1232
2632.4378550253564,1225
2634.232596647359,1226
2636.026963124488,1246
2637.8209547520187,1232
2639.6145718253065,1217
2641.407814639785,1250
2643.200683490966,1251
2644.9931786744414,1220
2646.7853004858807,1251
2648.577049221034,1225
2650.3684251757277,1236
2652.1594286458712,1207
2653.9500599274484,1260
2655.740319316525,1222
2657.5302071092437,1250
2659.3197236018286,1257
2661.10886909058,1287
2662.8976438718782,1228
2664.686048242183,1264
2666.4740824980327,1214
2668.2617469360443,1225
2670.0490418529134,1248
2671.8359675454153,1209
2673.622524310403,1209
2675.408712444811,1209
2677.1945322456495,1199
2678.979984010009,1239
2680.76506803506,1163
2682.5497846180497,1211
2684.334134056306,1228
2686.1181166472343,1229
2687.9017326883213,1234
2689.6849824771293,1283
2691.4678663113013,1272
2693.2503844885596,1214
2695.032537306705,1236
2696.8143250636167,1243
2698.5957480572542,1250
2700.3768065856534,1233
2702.1575009469316,1204
2703.937831439283,1253
2705.717798360982,1255
2707.4974020103837,1214
2709.276642685917,1172
2711.055520686095,1254
2712.834036309506,1244
2714.612189854819,1226
2716.389981620782,1232
2718.1674119062204,1247
2719.944481010041,1254
2721.721189231226,1195
2723.4975368688415,1293
2725.273524222027,1256
2727.0491515900053,1220
2728.824419272075,1232
2730.5993275676146,1202
2732.3738767760838,1262
2734.148067197016,1211
2735.921899130031,1229
2737.6953728748194,1244
2739.468488731156,1198
2741.2412469988926,1187
2743.0136479779617,1227
2744.785691968372,1251
2746.5573792702116,1266
2748.3287101836504,1276
2750.099685008934,1205
2751.870304046388,1267
2753.640567596418,1240
2755.4104759595057,1202
2757.1800294362156,1258
2758.949228327187,1231
2760.7180729331412,1217
2762.486563554877,1241
2764.254700493272,1228
2766.022484049284,1237
2767.789914523947,1252
2769.5569922183786,1275
2771.3237174337705,1270
2773.090090471394,1285
2774.8561116326036,1268
2776.6217812188274,1241
2778.3870995315756,1264
2780.1520668724356,1215
2781.9166835430747,1214
2783.6809498452394,1176
2785.444866080754,1247
2787.2084325515225,1250
2788.971649559527,1239
2790.73451740683,1214
2792.4970363955713,1202
2794.2592068279705,1207
2796.0210290063264,1220
2797.7825032330147,1235
2799.543629810493,1241
2801.304409041296,1226
2803.0648412280366,1187
2804.8249266734088,1247
2806.5846656801846,1306
2808.344058551212,1300
2810.1031055894246,1286
2811.8618070978273,1278
2813.6201633795085,1223
2815.378174737636,1254
2817.1358414754536,1238
2818.893163896285,1197
2820.6501423035334,1239
2822.4067770006814,1225
2824.1630682912883,1217
2825.9190164789957,1279
2827.6746218675207,1273
2829.429884760661,1270
2831.184805462294,1335
2832.9393842763743,1271
2834.693621506936,1291
2836.4475174580916,1280
2838.201072434034,1238
2839.954286739034,1250
2841.707160677441,1218
2843.459694553685,1261
2845.2118886722724,1266
2846.96374333779,1258
2848.7152588549034,1282
2850.4664355283567,1220
2852.217273662973,1283
2853.9677735636546,1255
2855.7179355353833,1296
2857.4677598832186,1276
2859.217246912299,1279
2860.9663969278427,1255
2862.715210235146,1216
2864.4636871395846,1217
2866.211827946614,1230
2867.9596329617652,1207
2869.7071024906536,1229
2871.4542368389684,1273
2873.20103631248,1219
2874.947501217038,1241
2876.6936318585695,1259
2878.4394285430812,1237
2880.1848915766604,1270
2881.9300212654707,1216
2883.6748179157553,1221
2885.4192818338374,1216
2887.1634133261173,1305
2888.907212699077,1271
2890.6506802592744,1280
2892.393816313348,1272
2894.1366211680142,1222
2895.8790951300693,1255
2897.621238506388,1242
2899.363051603925,1244
2901.1045347297118,1303
2902.8456881908596,1244
2904.58651229456,1279
2906.327007348081,1283
2908.067173658772,1220
2909.8070115340597,1258
2911.5465212814497,1261
2913.285703208527,1244
2915.0245576229563,1231
2916.7630848324807,1221
2918.5012851449196,1233
2920.2391588681758,1234
2921.976706310227,1258
2923.7139277791334,1193
2925.4508235830313,1248
2927.187394030137,1237
2928.923639428745,1189
2930.6595600872306,1246
2932.395156314046,1253
2934.1304284177218,1272
2935.8653767068713,1276
2937.6000014901815,1229
2939.3343030764227,1272
2941.068281774442,1270
2942.8019378931644,1297
2944.5352717415976,1240
2946.2682836288236,1240
2948.0009738640065,1261
2949.7333427563885,1264
2951.465390615289,1266
2953.1971177501086,1270
2954.9285244703265,1229
2956.6596110855,1233
2958.3903779052657,1182
2960.1208252393385,1235
2961.8509533975125,1258
2963.5807626896617,1233
2965.3102534257378,1235
2967.0394259157715,1212
2968.768280469873,1238
2970.496817398232,1243
2972.2250370111146,1274
2973.952939618869,1239
2975.6805255319196,1282
2977.4077950607707,1237
2979.134748516006,1305
2980.861386208289,1246
2982.587708448359,1303
2984.313715547037,1245
2986.039407815222,1262
2987.764785563891,1218
2989.489849104102,1288
2991.2145987469908,1247
2992.9390348037705,1242
2994.6631575857346,1201
2996.3869674042576,1287
2998.1104645707887,1201
2999.83364939686,1216
3001.5565221940783,1246
3003.2790832741334,1170
3005.0013329487924,1217
3006.7232715298996,1212
3008.4448993293804,1185
3010.166216659239,1244
3011.887223831558,1203
3013.607921158498,1286
3015.3283089522993,1218
3017.0483875252826,1175
3018.7681571898443,1219
3020.4876182584626,1292
3022.2067710436927,1248
3023.9256158581707,1228
3025.644153014609,1230
3027.362382825801,1218
3029.0803056046193,1225
3030.797921664012,1213
3032.5152313170106,1172
3034.2322348767225,1130
3035.9489326563353,1187
3037.665324969115,1222
3039.3814121284063,1238
3041.097194447633,1207
3042.812672240299,1186
3044.5278458199855,1209
3046.2427155003525,1226
3047.9572815951406,1261
3049.671544418167,1201
3051.38550428333,1230
3053.0991615046073,1208
3054.812516396051,1255
3056.5255692717974,1227
3058.2383204460575,1214
3059.9507702331257,1270
3061.662918947372,1197
3063.3747669032446,1262
3065.0863144152736,1254
3066.7975617980674,1243
3068.508509366309,1197
3070.219157434767,1273
3071.9295063182844,1239
3073.639556331785,1229
3075.3493077902704,1280
3077.058761008821,1251
3078.7679163025964,1261
3080.476773986837,1231
3082.1853343768594,1254
3083.89359778806,1266
3085.6015645359153,1231
3087.3092349359786,1250
3089.016609303884,1246
3090.7236879553434,1220
3092.4304712061476,1194
3094.136959372166,1230
3095.843152769349,1272
3097.5490517137237,1225
3099.2546565213966,1251
3100.959967508554,1263
3102.66498499146,1209
3104.3697092864577,1228
3106.0741407099695,1196
3107.778279578498,1242
3109.482126208622,1226
3111.1856809170004,1235
3112.8889440203716,1197
3114.5919158355528,1196
3116.294596679439,1201
3117.996986869006,1188
3119.6990867213062,1231
3121.4008965534726,1157
3123.102416682717,1277
3124.803647426329,1203
3126.5045891016784,1185
3128.205242026213,1268
3129.90560651746,1244
3131.605682893025,1253
3133.3054714705922,1194
3135.0049725679282,1245
3136.7041865028714,1179
3138.4031135933465,1239
3140.101754157353,1219
3141.800108512971,1181
3143.498176978357,1196
3145.1959598717494,1279
3146.8934575114636,1210
3148.5906702158954,1177
3150.2875983035183,1169
3151.9842420928853,1237
3153.680601902627,1245
3155.376678051456,1197
3157.07247085816,1220
3158.767980641609,1198
3160.463207720748,1188
3162.158152414606,1240
3163.8528150422862,1241
3165.5471959229726,1196
3167.2412953759303,1196
3168.9351137204976,1297
3170.628651276098,1231
3172.3219083622307,1271
3174.014885298474,1261
3175.707582404485,1230
3177.4000000000005,1256
3179.092138404835,1236
3180.7839979388846,1271
3182.47557892212,1243
3184.166881674594,1249
3185.8579065164386,1298
3187.5486537678626,1245
3189.2391237491547,1284
3190.9293167806827,1196
3192.6192331828934,1172
3194.3088732763117,1223
3195.998237381542,1174
3197.687325819268,1193
3199.376138910251,1226
3201.064676975334,1231
3202.7529403354347,1175
3204.4409293115523,1222
3206.1286442247647,1212
3207.816085396229,1152
3209.5032531471825,1219
3211.190147798936,1217
3212.8767696728846,1187
3214.5631190905015,1168
3216.2491963733373,1164
3217.9350018430214,1208
3219.6205358212637,1192
3221.305798629851,1128
3222.990790590651,1170
3224.6755120256103,1218
3226.359963256751,1197
3228.0441446061795,1124
3229.7280563960758,1147
3231.411698948703,1227
3233.0950725863995,1227
3234.778177631587,1225
3236.461014406761,1204
3238.1435832345005,1218
3239.8258844374595,1212
3241.507918338374,1243
3243.1896852600576,1206
3244.8711855254023,1245
3246.552419457381,1212
3248.233387379042,1242
3249.914089613516,1235
3251.59452648401,1238
3253.274698313813,1207
3254.95460542629,1168
3256.6342481448855,1215
3258.313626793125,1190
3259.9927416946084,1129
3261.6715931730196,1195
3263.3501815521176,1196
3265.0285071557437,1206
3266.706570307815,1191
3268.3843713323286,1232
3270.0619105533615,1205
3271.739188295068,1187
3273.4162048816834,1240
3275.0929606375184,1216
3276.769455886966,1229
3278.445690954498,1250
3280.1216661646613,1195
3281.797381842087,1213
3283.4728383114807,1199
3285.1480358976296,1198
3286.8229749253996,1206
3288.4976557197333,1244
3290.172078605655,1162
3291.846243908266,1217
3293.5201519527463,1190
3295.193803064357,1195
3296.8671975684374,1197
3298.5403357904024,1210
3300.21321805575,1197
3301.8858446900567,1206
3303.558216018975,1219
3305.23033236824,1252
3306.9021940636603,1211
3308.57380143113,1207
3310.2451547966184,1254
3311.916254486174,1231
3313.5871008259246,1239
3315.2576941420766,1256
3316.9280347609147,1205
3318.5981230088046,1171
3320.2679592121895,1229
3321.9375436975924,1191
3323.606876791612,1206
3325.27595882093,1185
3326.944790112305,1210
3328.6133709925753,1185
3330.2817017886573,1180
3331.949782827547,1181
3333.617614436319,1275
3335.2851969421245,1273
3336.952530672199,1217
3338.619615953853,1144
3340.286453114475,1200
3341.9530424815357,1169
3343.619384382583,1219
3345.2854791452437,1238
3346.951327097224,1208
3348.6169285663073,1205
3350.2822838803577,1168
3351.947393367319,1202
3353.61225735521,1232
3355.2768761721345,1250
3356.9412501462693,1216
3358.605379605873,1240
3360.2692648792827,1206
3361.9329062949146,1167
3363.596304181263,1136
