CollectionTime,9/19/2024 10:48:21 AM
ExposureUsed,3
CalibratedSpectrum
-962.7078968117929,496
-959.9714848408522,527
-957.2358232597828,558
-954.5009119013725,536
-951.7667505983302,579
-949.0333391832855,548
-946.3006774887896,568
-943.5687653473143,497
-940.837602591253,536
-938.1071890529199,548
-935.3775245645503,541
-932.6486089583007,542
-929.9204420662485,525
-927.1930237203925,538
-924.4663537526524,558
-921.7404319948689,601
-919.0152582788041,558
-916.2908324361409,598
-913.5671542984834,546
-910.8442236973568,508
-908.1220404642074,554
-905.4006044304027,547
-902.679915427231,529
-899.959973285902,533
-897.2407778375464,522
-894.5223289132158,559
-891.8046263438832,538
-889.0876699604426,488
-886.3714595937089,512
-883.6559950744183,500
-880.9412762332282,532
-878.2273029007168,534
-875.5140749073835,535
-872.8015920836489,511
-870.0898542598545,498
-867.3788612662631,513
-864.6686129330585,531
-861.9591090903457,532
-859.2503495681506,510
-856.5423341964203,504
-853.8350628050229,476
-851.1285352237478,498
-848.4227512823054,512
-845.7177108103272,507
-843.0134136373656,538
-840.3098595928943,480
-837.6070485063082,533
-834.9049802069229,578
-832.2036545239757,525
-829.5030712866244,512
-826.8032303239481,514
-824.1041314649472,497
-821.4057745385428,523
-818.7081593735775,512
-816.0112857988148,520
-813.3151536429393,519
-810.6197627345566,558
-807.9251129021936,508
-805.2312039742981,550
-802.5380357792392,528
-799.8456081453069,555
-797.1539209007124,542
-794.462973873588,535
-791.772766891987,570
-789.083299783884,554
-786.3945723771743,540
-783.7065844996748,524
-781.0193359791231,531
-778.3328266431781,525
-775.6470563194197,520
-772.9620248353489,521
-770.2777320183878,513
-767.5941776958798,532
-764.9113616950891,526
-762.2292838432011,520
-759.5479439673222,527
-756.8673418944801,522
-754.1874774516235,557
-751.5083504656222,547
-748.8299607632671,542
-746.15230817127,577
-743.475392516264,532
-740.7992136248035,536
-738.1237713233636,498
-735.4490654383407,530
-732.7750957960521,526
-730.1018622227365,549
-727.4293645445534,551
-724.7576025875837,543
-722.0865761778291,548
-719.4162851412126,555
-716.7467293035781,585
-714.0779084906909,528
-711.409822528237,563
-708.7424712418238,584
-706.0758544569796,562
-703.4099719991541,579
-700.7448236937178,538
-698.0804093659622,521
-695.4167288411002,529
-692.7537819442656,522
-690.0915685005134,542
-687.4300883348199,566
-684.7693412720819,602
-682.1093271371178,588
-679.4500457546669,564
-676.7914969493897,546
-674.1336805458676,573
-671.4765963686034,560
-668.8202442420206,594
-666.1646239904642,566
-663.5097354382001,571
-660.8555784094151,541
-658.2021527282176,576
-655.5494582186366,571
-652.8974947046223,582
-650.2462620100463,594
-647.5957599587009,593
-644.9459883742998,592
-642.2969470804776,623
-639.6486359007902,597
-637.0010546587141,619
-634.3542031776476,660
-631.7080812809096,596
-629.0626887917401,625
-626.4180255333008,599
-623.7740913286734,640
-621.1308860008619,632
-618.4884093727904,660
-615.8466612673046,603
-613.2056415071715,602
-610.5653499150785,672
-607.9257863136347,648
-605.28695052537,651
-602.6488423727357,653
-600.0114616781036,645
-597.3748082637674,734
-594.7388819519412,738
-592.1036825647604,697
-589.4692099242818,698
-586.8354638524829,674
-584.2024441712624,669
-581.5701507024403,708
-578.9385832677575,692
-576.3077416888759,681
-573.6776257873787,721
-571.0482353847704,655
-568.4195703024757,663
-565.7916303618415,658
-563.164415384135,704
-560.5379251905453,658
-557.9121596021815,634
-555.2871184400748,669
-552.6628015251767,715
-550.0392086783606,757
-547.4163397204204,758
-544.794194472071,762
-542.1727727539491,777
-539.5520743866118,761
-536.9320991905377,775
-534.3128469861261,818
-531.6943175936979,811
-529.0765108334947,901
-526.4594265256793,1079
-523.8430644903358,1296
-521.2274245474689,1480
-518.612506517005,1542
-515.9983102187913,1779
-513.3848354725959,1877
-510.77208209810846,2087
-508.16004991493924,2258
-505.5487387426199,2299
-502.9381484006032,2225
-500.3282787082628,1989
-497.71912948489364,1814
-495.1107005497117,1554
-492.5029917218539,1323
-489.8960028203786,1090
-487.28973366426493,1014
-484.68418407241325,958
-482.07935386364494,923
-479.47524285670266,911
-476.87185087025,837
-474.2691777228715,906
-471.66722323307334,832
-469.0659872192821,861
-466.4654694998459,867
-463.86566989303384,849
-461.26658821703614,854
-458.66822428996414,841
-456.07057792985,874
-453.4736489546475,838
-450.877437182231,840
-448.28194243039627,763
-445.68716451686,799
-443.09310325926003,819
-440.49975847515555,796
-437.9071299820263,825
-435.31521759727354,802
-432.72402113821954,862
-430.13354042210767,810
-427.5437752661022,866
-424.95472548728867,850
-422.36639090267386,919
-419.7787713291855,925
-417.1918665836721,964
-414.60567648290385,944
-412.0202008435715,927
-409.4354394822874,976
-406.8513922155845,920
-404.26805885991723,923
-401.685439231661,936
-399.103533147112,973
-396.522340422488,902
-393.9418608739278,906
-391.3620943174908,889
-388.7830405691583,909
-386.2046994448317,818
-383.6270707603344,830
-381.05015433141045,833
-378.473949973725,787
-375.8984575028645,737
-373.32367673433623,757
-370.74960748356875,734
-368.1762495659117,663
-365.60360279663576,673
-363.03166699093265,623
-360.4604419639154,573
-357.8899275306178,539
-355.32012350599507,561
-352.7510297049233,539
-350.1826459421999,533
-347.61497203254316,560
-345.04800779059235,558
-342.4817530309082,562
-339.91620756797226,631
-337.35137121618743,558
-334.7872437898774,569
-332.22382510328725,615
-329.66111497058273,628
-327.09911320585127,563
-324.53781962310075,527
-321.9772340362607,495
-319.4173562591816,532
-316.8581861056348,576
-314.2997233893127,569
-311.7419679238294,590
-309.1849195227194,587
-306.62857799943856,577
-304.0729431673641,613
-301.51801483979375,659
-298.963792829947,591
-296.41027695096386,589
-293.85746701590574,649
-291.3053628377552,709
-288.7539642294155,710
-286.2032710037115,666
-283.65328297338897,698
-281.1039999511146,655
-278.5554217494762,678
-276.007548180983,704
-273.4603790580651,697
-270.9139141930734,657
-268.3681533982807,705
-265.8230964858798,773
-263.27874326798565,786
-260.7350935566336,815
-258.1921471637804,944
-255.6499039013039,1011
-253.10836358100266,831
-250.56752601459698,772
-248.02739101372765,847
-245.48795838995704,851
-242.94922795476816,838
-240.41119951956557,771
-237.8738728956746,813
-235.33724789434166,896
-232.80132432673452,855
-230.2661020039418,790
-227.73158073697357,825
-225.19776033676033,831
-222.66464061415422,924
-220.1322213799284,927
-217.60050244477725,867
-215.06948361931552,984
-212.53916471408013,1099
-210.00954553952818,1056
-207.48062590603843,896
-204.9524056239104,835
-202.4248845033651,1034
-199.8980623545441,1212
-197.37193898751036,1164
-194.84651421224817,1027
-192.32178783866232,938
-189.79775967657952,904
-187.27442953574644,1162
-184.7517972258321,1207
-182.2298625564256,942
-179.7086253370378,932
-177.18808537710026,1101
-174.66824248596583,1335
-172.14909647290835,1432
-169.6306471471229,1301
-167.11289431772548,1102
-164.59583779375328,1236
-162.07947738416453,1424
-159.5638128978386,1499
-157.04884414357605,1539
-154.53457093009854,1617
-152.02099306604828,1228
-149.50811035998936,1184
-146.99592262040665,1544
-144.48442965570587,1765
-141.97363127421409,1876
-139.46352728417958,1918
-136.95411749377126,2088
-134.44540171107985,1707
-131.93737974411636,1311
-129.43005140081357,1663
-126.92341648902493,2171
-124.41747481652521,2517
-121.91222619101006,2944
-119.40767042009657,3204
-116.90380731132257,3178
-114.40063667214702,3448
-111.8981583099503,4250
-109.3963720320337,5628
-106.89527764561933,8192
-104.39487495785067,9683
-101.89516377579241,12475
-99.39614390642998,16839
-96.89781515667039,21545
-94.40017733334128,24400
-91.90323024319173,20393
-89.40697369289148,12920
-86.91140748903172,8298
-84.41653143812482,7190
-81.92234534660395,10748
-79.42884902082358,15961
-76.93604226705907,18102
-74.4439248915071,16748
-71.95249670028534,12703
-69.46175749943245,7867
-66.97170709490854,5765
-64.48234529259423,6655
-61.99367189829195,7880
-59.50568671772464,9179
-57.01838955653636,12880
-54.53178022029283,15350
-52.045858514480074,16242
-49.560624244506016,15605
-47.07607721569923,21012
-44.59221723330904,25377
-42.10904410250669,27552
-39.62655762838392,28984
-37.14475761595372,30701
-34.66364387015028,31290
-32.18321619582866,30915
-29.70347439776515,29271
-27.224418280657005,28643
-24.74604764912317,35492
-22.26836230770266,64829
-19.7913620608565,65031
-17.315046712966478,65031
-14.83941606833514,65031
-12.36446993118659,65031
-9.89020810566592,65031
-7.416630395839093,65031
-4.94373660569363,65031
-2.471526539137585,65031
-6.821210263296962E-13,65031
2.47084320796705,65031
4.941003281093458,65031
7.410480415786196,65031
9.879274808531363,65031
12.347386655893956,65031
14.814816154518212,65031
17.28156350112681,65031
19.74762889252179,65031
22.21301252558385,26589
24.67771459727237,8311
27.141735304626195,7821
29.605074844762612,6428
32.06773341487792,6105
34.52971121224755,6524
36.99100843422559,5713
39.45162527824516,6336
41.91156194181792,6602
44.370818622535126,4566
46.82939551806646,4720
49.287292826160524,6905
51.74451074464503,6364
54.201049471426245,5335
56.65690920448981,3444
59.112090141899785,2488
61.56659248179983,3185
64.02041642241159,3834
66.4735621620365,3765
68.92602989905402,4280
71.37781983192338,4153
73.82893215918205,3232
76.27936707944684,2565
78.72912479141326,2814
81.17820549385567,2571
83.62660938562783,2198
86.07433666566146,2097
88.5213875329681,2131
90.96776218663751,2263
93.41346082583925,2467
95.85848364982041,2702
98.30283085790859,2162
100.7465026495089,2063
103.18949922410604,1963
105.63182078126385,1795
108.07346752062438,1669
110.51443964190923,1388
112.95473734491827,1378
115.39436082953114,1457
117.83331029570547,1700
120.27158594347827,1787
122.7091879729652,1804
125.1461165843615,1658
127.58237197794062,1556
130.01795435405518,1642
132.4528639131364,1584
134.88710085569494,1425
137.32066538231982,1591
139.75355769367923,1488
142.1857779905207,1347
144.61732647366978,1266
147.04820334403132,1357
149.47840880258934,1370
151.90794305040674,1417
154.33680628862487,1478
156.76499871846443,1526
159.19252054122433,1549
161.61937195828352,1562
164.04555317109896,1751
166.47106438120693,1817
168.89590579022217,1937
171.320077599839,2133
173.7435800118302,2135
176.16641322804742,2292
178.58857745042144,2298
181.01007288096173,2268
183.43089972175687,2336
185.85105817497413,2277
188.27054844285988,2375
190.6893707277394,2289
193.10752523201643,2424
195.5250121581745,2463
197.9418317087751,2380
200.3579840864594,2346
202.7734694939469,2622
205.18828813403627,2612
207.6024402096051,2458
210.01592592360964,2604
212.42874547908548,2517
214.84089907914665,2435
217.2523869269868,2514
219.66320922587727,2474
222.0733661791695,2497
224.48285799029293,2419
226.8916848627572,2609
229.29984700014882,2542
231.7073446061355,2538
234.11417788446204,2533
236.520347038953,2546
238.92585227351185,2553
241.33069379212054,2696
243.73487179884035,2688
246.1383864978112,2613
248.541238093252,2580
250.9434267894609,2614
253.34495279081432,2542
255.74581630176783,2555
258.1460175268563,2651
260.54555667069314,2519
262.9444339379703,2547
265.3426495334594,2559
267.7402036620107,2680
270.1370965285529,2703
272.53332833809407,2647
274.9288992957214,2463
277.32380960660055,2471
279.718059475976,2579
282.1116491091717,2529
284.5045787115897,2523
286.89684848871195,2518
289.2884586460981,2621
291.67940938938807,2655
294.0697009242996,2661
296.4593334566299,2597
298.84830719225477,2686
301.23662233712923,2730
303.6242790972866,2587
306.01127767884,2633
308.39761828798066,2560
310.78330113097934,2547
313.16832641418534,2459
315.5526943440269,2405
317.9364051270112,2476
320.3194589697242,2482
322.70185607883093,2384
325.0835966610754,2268
327.4646809232805,2263
329.8451090723478,2271
332.2248813152577,2291
334.6039978590701,2287
336.9824589109231,2219
339.36026467803447,2187
341.7374153677,2217
344.113911187295,2150
346.48975234427337,2228
348.8649390461686,2203
351.2394715005918,2207
353.61334991523415,2192
355.9865744978655,2215
358.35914545633375,2227
360.73106299856715,2177
363.10232733257146,2099
365.47293866643247,2176
367.84289720831396,2183
370.2122031664593,2189
372.5808567491905,2064
374.9488581649083,2046
377.31620762209275,1973
379.6829053293021,2030
382.0489514951745,2007
384.4143463284262,2030
386.7790900378528,1950
389.14318283232853,1995
391.50662492080653,2084
393.86941651231916,2004
396.23155781597745,2073
398.5930490409713,2098
400.9538903965696,1985
403.3140820921202,1953
405.6736243370498,2005
408.03251734086336,1966
410.3907613131465,1973
412.74835646356166,1871
415.10530300185144,2049
417.4616011378372,2042
419.81725108141893,1929
422.1722530425758,1995
424.5266072313656,1988
426.880313857925,1968
429.2333731324701,1946
431.58578526529516,1892
433.9375504667738,1975
436.2886689473588,1996
438.63914091758113,1934
440.9889665880513,1985
443.33814616945835,1931
445.68667987257015,1890
448.03456790823395,1866
450.3818104873759,1886
452.72840782100013,1918
455.07436012019105,1860
457.41966759611057,1837
459.7643304600007,1869
462.10834892318155,1885
464.4517231970525,1879
466.79445349309174,1899
469.1365400228566,1937
471.4779829979826,2010
473.81878263018564,1932
476.15893913125876,1927
478.4984527130747,2107
480.8373235875855,2065
483.17555196682144,2172
485.5131380628919,2250
487.8500820879857,2221
490.1863842543697,2366
492.52204477439034,2516
494.8570638604725,2827
497.1914417251204,3280
499.52517858091653,3937
501.85827464052306,4664
504.19073011668036,5179
506.5225452222086,5376
508.85372017000566,5555
511.18425517304956,5817
513.514150444396,6665
515.8434061971808,8074
518.1720226446176,8776
520.4999999999999,8460
522.8273384766991,7792
525.1540382881666,7278
527.480099647932,6154
529.8055227696037,4600
532.1303078668694,3262
534.454455153496,2742
536.777964843328,2405
539.1008371502907,2282
541.4230722883866,2259
543.744670471698,2140
546.0656319143858,2142
548.3859568306899,2040
550.7056454349294,2035
553.0246979415016,2004
555.3431145648834,2067
557.6608955196306,1991
559.978041020377,2110
562.2945512818363,2105
564.6104265188006,2065
566.9256669461412,2032
569.2402727788082,1935
571.5542442318302,2118
573.8675815203156,2118
576.1802848594508,2095
578.4923544645015,2135
580.8037905508126,2078
583.114593333807,2169
585.4247630289875,2140
587.7342998519354,2024
590.0432040183106,2103
592.3514757438526,2046
594.6591152443794,2079
596.9661227357875,2001
599.2724984340531,2075
601.578242555231,1976
603.8833553154542,2029
606.1878369309362,2001
608.4916876179676,2076
610.7949075929192,2085
613.0974970722403,2028
615.3994562724587,2070
617.7007854101818,2022
620.0014847020951,1975
622.3015543649641,1954
624.6009946156324,1976
626.8998056710224,2017
629.1979877481361,2003
631.4955410640538,1951
633.7924658359349,1984
636.0887622810175,2011
638.3844306166192,1974
640.6794710601358,1976
642.9738838290426,1954
645.2676691408932,1956
647.5608272133207,2098
649.853358264037,2039
652.1452625108324,2036
654.4365401715764,1965
656.7271914642178,2118
659.0172166067838,2071
661.3066158173809,2083
663.5953893141935,2058
665.8835373154867,2012
668.1710600396028,1998
670.4579577049639,2034
672.7442305300709,2007
675.0298787335033,2005
677.3149025339197,1973
679.599302150058,1994
681.8830778007342,2003
684.1662297048437,1930
686.4487580813608,1915
688.7306631493387,1985
691.0119451279091,2036
693.2926042362834,1972
695.5726406937516,2002
697.8520547196814,1926
700.1308465335215,1894
702.4090163547982,1921
704.6865644031171,1925
706.9634908981619,1904
709.2397960596965,2005
711.5154801075631,2031
713.7905432616823,1937
716.0649857420548,2038
718.3388077687592,1963
720.612009561953,1949
722.8845913418733,1891
725.1565533288352,1938
727.427895743234,1927
729.6986188055427,1932
731.9687227363137,1916
734.238207756178,1951
736.5070740858458,1908
738.7753219461066,2003
741.0429515578281,1991
743.3099631419569,1983
745.5763569195191,1952
747.8421331116193,1943
750.1072919394409,1925
752.3718336242467,1862
754.6357583873777,1953
756.8990664502545,1955
759.1617580343765,1947
761.423833361321,1977
763.6852926527457,2070
765.9461361303862,2014
768.206364016058,2001
770.4659765316536,2025
772.7249738991469,2001
774.9833563405886,2029
777.2411240781092,2035
779.4982773339183,1936
781.7548163303044,1972
784.010741289634,1978
786.2660524343538,2102
788.5207499869881,2065
790.7748341701416,1986
793.0283052064964,2012
795.2811633188143,2081
797.5334087299362,2046
799.7850416627813,2046
802.0360623403484,2004
804.2864709857143,2030
806.5362678220353,2053
808.7854530725468,2076
811.0340269605625,2072
813.2819897094754,2082
815.5293415427581,1993
817.77608268396,2099
820.0222133567116,1997
822.2677337847211,1934
824.5126441917765,2002
826.7569448017433,2014
829.0006358385675,1985
831.2437175262731,1958
833.4861900889629,2008
835.7280537508192,2084
837.9693087361026,2083
840.2099552691533,1921
842.4499935743896,1919
844.689423876309,1997
846.9282463994886,2002
849.1664613685833,2026
851.4040690083276,1983
853.6410695435349,1996
855.877463199097,2011
858.1132501999847,2050
860.3484307712487,2093
862.5830051380175,2099
864.8169735254988,2036
867.0503361589791,1988
869.2830932638243,2021
871.5152450654786,2084
873.7467917894654,2014
875.9777336613873,2077
878.2080709069252,2024
880.4378037518389,2062
882.666932421968,2039
884.8954571432301,2076
887.1233781416219,2045
889.3506956432192,2157
891.5774098741766,2016
893.803521060728,2091
896.0290294291852,2108
898.2539352059397,2044
900.4782386174619,2012
902.7019398903011,2031
904.925039251085,2045
907.147536926521,2086
909.3694331433943,2060
911.59072812857,2109
913.8114221089921,2160
916.0315153116827,2105
918.2510079637437,2044
920.4699002923547,2077
922.6881925247761,2061
924.905884888345,2062
927.1229776104793,2082
929.3394709186747,2092
931.555365040506,2098
933.7706602036275,2131
935.9853566357709,2135
938.1994545647489,2162
940.4129542184515,2215
942.6258558248488,2194
944.8381596119883,2169
947.0498658079974,2190
949.2609746410825,2153
951.4714863395287,2220
953.6814011316998,2129
955.8907192460387,2107
958.0994409110671,2139
960.3075663553858,2208
962.5150958076741,2124
964.7220294966913,2158
966.928367651274,2091
969.1341105003388,2127
971.3392582728806,2079
973.5438111979742,2048
975.747769504772,2046
977.9511334225061,2011
980.153903180487,1963
982.3560790081052,1948
984.5576611348289,1963
986.7586497902058,1952
988.9590452038618,1918
991.158847605503,1985
993.3580572249133,1894
995.5566742919558,1774
997.7546990365728,1746
999.952131688785,1741
1002.1489724786926,1779
1004.3452216364743,1710
1006.5408793923874,1696
1008.7359459767691,1652
1010.9304216200343,1631
1013.1243065526781,1621
1015.3176010052733,1584
1017.510305208472,1631
1019.7024193930064,1662
1021.8939437896848,1618
1024.0848786293977,1657
1026.2752241431122,1624
1028.4649805618747,1600
1030.6541481168115,1613
1032.842727039127,1581
1035.0307175601051,1574
1037.2181199111074,1512
1039.4049343235752,1530
1041.591161029029,1510
1043.7768002590683,1537
1045.9618522453698,1494
1048.1463172196918,1542
1050.3301954138697,1576
1052.513487059818,1449
1054.69619238953,1474
1056.8783116350783,1533
1059.0598450286152,1512
1061.2407928023704,1432
1063.4211551886528,1494
1065.6009324198508,1515
1067.780124728432,1529
1069.9587323469414,1484
1072.1367555080046,1503
1074.314194444325,1559
1076.4910493886855,1450
1078.667320573947,1509
1080.843008233051,1437
1083.0181125990161,1423
1085.1926339049414,1485
1087.3665723840027,1456
1089.5399282694575,1517
1091.7127017946405,1415
1093.8848931929647,1513
1096.0565026979243,1502
1098.2275305430899,1443
1100.3979769621128,1436
1102.567842188722,1416
1104.737126456726,1400
1106.9058300000124,1414
1109.0739530525475,1433
1111.2414958483764,1427
1113.4084586216231,1436
1115.5748416064907,1393
1117.7406450372605,1441
1119.9058691482942,1423
1122.0705141740304,1403
1124.2345803489884,1415
1126.3980679077658,1424
1128.5609770850388,1455
1130.7233081155623,1322
1132.8850612341707,1406
1135.0462366757774,1417
1137.2068346753745,1403
1139.3668554680326,1416
1141.526299288901,1368
1143.68516637321,1409
1145.8434569562655,1393
1148.001171273455,1424
1150.158309560244,1389
1152.3148720521767,1395
1154.470858984876,1412
1156.626270594044,1400
1158.7811071154629,1388
1160.9353687849912,1384
1163.089055838569,1358
1165.242168512213,1341
1167.3947070420209,1368
1169.5466716641677,1372
1171.6980626149075,1347
1173.8488801305748,1410
1175.9991244475814,1397
1178.1487958024186,1329
1180.2978944316555,1360
1182.4464205719428,1270
1184.5943744600072,1389
1186.7417563326567,1347
1188.8885664267755,1313
1191.0348049793297,1307
1193.1804722273619,1355
1195.325568407995,1320
1197.4700937584303,1307
1199.614048515948,1316
1201.7574329179074,1311
1203.900247201746,1386
1206.042491604982,1343
1208.1841663652099,1349
1210.3252717201053,1370
1212.465807907422,1395
1214.6057751649923,1361
1216.7451737307279,1339
1218.8840038426192,1360
1221.0222657387353,1333
1223.1599596572241,1389
1225.2970858363137,1349
1227.4336445143094,1308
1229.5696359295966,1389
1231.705060320639,1360
1233.8399179259786,1359
1235.9742089842384,1327
1238.107933734118,1339
1240.2410924143974,1338
1242.373685263935,1335
1244.5057125216676,1337
1246.6371744266116,1323
1248.7680712178621,1349
1250.898403134593,1379
1253.028170416058,1337
1255.1573733015875,1347
1257.2860120305932,1390
1259.4140868425648,1353
1261.54159797707,1347
1263.6685456737569,1377
1265.7949301723515,1318
1267.9207517126597,1347
1270.046010534565,1391
1272.1707068780306,1402
1274.2948409830983,1425
1276.4184130898889,1346
1278.541423438603,1359
1280.6638722695184,1344
1282.785759822993,1324
1284.9070863394636,1317
1287.0278520594447,1406
1289.1480572235314,1332
1291.2677020723963,1387
1293.3867868467923,1353
1295.5053117875495,1325
1297.623277135579,1347
1299.740683131868,1400
1301.8575300174857,1341
1303.973818033578,1324
1306.0895474213703,1376
1308.2047184221678,1369
1310.3193312773528,1404
1312.4333862283888,1366
1314.5468835168163,1396
1316.659823384255,1339
1318.7722060724045,1448
1320.8840318230418,1315
1322.9953008780249,1335
1325.1060134792888,1357
1327.2161698688478,1363
1329.3257702887959,1386
1331.4348149813054,1399
1333.5433041886276,1367
1335.6512381530933,1392
1337.7586171171101,1388
1339.8654413231675,1322
1341.9717110138317,1379
1344.0774264317488,1349
1346.1825878196432,1366
1348.2871954203192,1339
1350.3912494766587,1352
1352.4947502316231,1383
1354.5976979282532,1359
1356.7000928096686,1384
1358.8019351190665,1352
1360.9032250997243,1339
1363.0039629949988,1366
1365.1041490483235,1369
1367.2037835032133,1372
1369.3028666032606,1388
1371.401398592137,1423
1373.4993797135926,1415
1375.5968102114575,1371
1377.6936903296396,1401
1379.7900203121262,1419
1381.8858004029835,1430
1383.9810308463561,1404
1386.075711886469,1390
1388.1698437676241,1384
1390.2634267342032,1332
1392.356461030667,1390
1394.4489469015557,1403
1396.5408845914872,1358
1398.6322743451592,1351
1400.7231164073469,1411
1402.813411022907,1403
1404.903158436773,1399
1406.9923588939578,1359
1409.0810126395531,1452
1411.1691199187303,1418
1413.2566809767386,1465
1415.343696058907,1385
1417.4301654106425,1416
1419.5160892774315,1464
1421.6014679048399,1449
1423.6863015385125,1404
1425.7705904241707,1414
1427.8543348076178,1396
1429.9375349347342,1359
1432.0201910514802,1400
1434.102303403894,1340
1436.1838722380944,1373
1438.2648978002767,1409
1440.3453803367174,1437
1442.4253200937692,1448
1444.5047173178677,1409
1446.5835722555234,1411
1448.6618851533285,1392
1450.739656257952,1397
1452.8168858161434,1358
1454.8935740747306,1405
1456.96972128062,1418
1459.045327680797,1420
1461.120393522327,1389
1463.1949190523528,1385
1465.2689045180973,1425
1467.3423501668608,1357
1469.415256246024,1351
1471.4876230030463,1425
1473.559450685465,1405
1475.6307395408976,1432
1477.7014898170391,1367
1479.771701761665,1353
1481.8413756226287,1359
1483.9105116478618,1375
1485.9791100853772,1379
1488.0471711832643,1371
1490.1146951896926,1363
1492.1816823529098,1321
1494.2481329212433,1377
1496.3140471430984,1410
1498.3794252669609,1404
1500.4442675413939,1368
1502.5085742150404,1349
1504.572345536622,1397
1506.6355817549388,1411
1508.6982831188702,1403
1510.7604498773744,1437
1512.8220822794883,1379
1514.8831805743293,1401
1516.9437450110909,1454
1519.003775839048,1402
1521.0632733075522,1360
1523.1222376660367,1421
1525.1806691640113,1411
1527.2385680510652,1328
1529.2959345768668,1490
1531.3527689911643,1396
1533.4090715437833,1343
1535.4648424846291,1385
1537.5200820636855,1366
1539.5747905310159,1394
1541.6289681367616,1383
1543.6826151311434,1357
1545.7357317644614,1434
1547.7883182870937,1399
1549.8403749494987,1383
1551.8919020022113,1426
1553.9428996958477,1363
1555.9933682811015,1394
1558.0433080087469,1377
1560.0927191296346,1403
1562.1416018946961,1370
1564.1899565549415,1431
1566.2377833614592,1339
1568.2850825654164,1335
1570.3318544180606,1348
1572.3780991707158,1328
1574.423817074788,1398
1576.4690083817595,1360
1578.5136733431923,1365
1580.5578122107272,1351
1582.601425236085,1354
1584.6445126710646,1367
1586.6870747675434,1382
1588.7291117774776,1373
1590.7706239529034,1353
1592.8116115459347,1366
1594.8520748087658,1368
1596.8920139936686,1387
1598.9314293529933,1315
1600.9703211391711,1373
1603.008689604711,1369
1605.0465350022005,1368
1607.0838575843068,1357
1609.1206576037753,1352
1611.1569353134305,1360
1613.1926909661765,1334
1615.2279248149953,1397
1617.2626371129481,1339
1619.2968281131757,1383
1621.3304980688963,1378
1623.3636472334088,1394
1625.39627586009,1424
1627.428384202396,1417
1629.459972513861,1407
1631.4910410480993,1377
1633.5215900588028,1337
1635.551619799744,1377
1637.5811305247717,1311
1639.6101224878166,1358
1641.6385959428862,1349
1643.6665511440683,1384
1645.693988345528,1316
1647.7209078015112,1298
1649.7473097663405,1295
1651.7731944944203,1393
1653.7985622402307,1359
1655.823413258333,1356
1657.847747803366,1366
1659.8715661300494,1343
1661.8948684931793,1420
1663.9176551476316,1393
1665.9399263483624,1375
1667.9616823504057,1377
1669.982923408873,1344
1672.0036497789574,1358
1674.0238617159293,1380
1676.043559475138,1394
1678.0627433120121,1374
1680.081413482059,1342
1682.0995702408654,1382
1684.117213844096,1430
1686.134344547495,1374
1688.1509626068864,1342
1690.1670682781705,1310
1692.182661817329,1349
1694.1977434804217,1373
1696.2123135235875,1370
1698.226372203043,1378
1700.2399197750851,1349
1702.2529564960905,1334
1704.2654826225112,1295
1706.277498410882,1391
1708.2890041178139,1366
1710.2999999999988,1326
1712.3104863142066,1364
1714.3204633172854,1338
1716.329931266163,1344
1718.3388904178469,1348
1720.3473410294214,1374
1722.3552833580516,1382
1724.3627176609807,1310
1726.3696441955308,1388
1728.3760632191033,1373
1730.3819749891782,1355
1732.3873797633146,1349
1734.3922777991502,1385
1736.3966693544012,1341
1738.4005546868639,1357
1740.4039340544127,1398
1742.406807715001,1380
1744.4091759266616,1395
1746.4110389475054,1424
1748.4123970357223,1347
1750.413250449582,1405
1752.4135994474318,1385
1754.4134442876993,1452
1756.4127852288902,1407
1758.4116225295893,1360
1760.4099564484595,1390
1762.407787244244,1392
1764.405115175764,1413
1766.4019405019203,1378
1768.3982634816916,1413
1770.3940843741357,1385
1772.3894034383907,1351
1774.3842209336717,1375
1776.378537119274,1413
1778.372352254571,1393
1780.3656665990156,1401
1782.3584804121397,1423
1784.3507939535534,1418
1786.3426074829463,1458
1788.3339212600863,1369
1790.3247355448211,1385
1792.3150505970766,1406
1794.3048666768573,1389
1796.2941840442477,1481
1798.2830029594106,1404
1800.2713236825884,1399
1802.2591464741004,1357
1804.2464715943465,1379
1806.2332993038058,1444
1808.2196298630352,1411
1810.2054635326708,1402
1812.190800573428,1423
1814.175641246101,1411
1816.1599858115628,1442
1818.1438345307652,1396
1820.127187664738,1449
1822.1100454745924,1507
1824.092408221516,1430
1826.0742761667766,1393
1828.055649571721,1410
1830.0365286977735,1401
1832.0169138064398,1387
1833.9968051593014,1431
1835.9762030180214,1438
1837.9551076443408,1429
1839.9335193000788,1427
1841.9114382471344,1411
1843.888864747485,1458
1845.8657990631878,1418
1847.842241456378,1399
1849.8181921892697,1382
1851.7936515241558,1447
1853.7686197234098,1414
1855.7430970494815,1377
1857.7170837649014,1433
1859.6905801322787,1352
1861.6635864143004,1322
1863.6361028737338,1401
1865.608129773424,1443
1867.5796673762961,1373
1869.5507159453537,1391
1871.521275743678,1460
1873.4913470344313,1446
1875.4609300808534,1492
1877.4300251462632,1439
1879.3986324940588,1396
1881.366752387717,1408
1883.3343850907936,1418
1885.3015308669228,1437
1887.268189979819,1412
1889.2343626932739,1440
1891.2000492711595,1380
1893.1652499774254,1455
1895.1299650761011,1396
1897.0941948312952,1410
1899.0579395071945,1428
1901.0211993680641,1420
1902.98397467825,1422
1904.9462657021745,1496
1906.9080727043415,1397
1908.869395949332,1410
1910.8302357018065,1456
1912.790592226504,1437
1914.7504657882428,1420
1916.7098566519212,1425
1918.6687650825133,1442
1920.6271913450764,1461
1922.5851357047422,1436
1924.5425984267245,1385
1926.499579776314,1472
1928.4560800188833,1501
1930.4120994198802,1445
1932.367638244833,1397
1934.32269675935,1472
1936.2772752291175,1454
1938.231373919899,1475
1940.1849930975404,1402
1942.1381330279637,1414
1944.0907939771696,1431
1946.0429762112412,1381
1947.9946799963363,1426
1949.9459055986945,1424
1951.896653284633,1392
1953.8469233205478,1378
1955.7967159729142,1432
1957.7460315082863,1375
1959.6948701932974,1427
1961.6432322946594,1367
1963.5911180791632,1376
1965.5385278136787,1400
1967.4854617651545,1498
1969.4319202006182,1358
1971.377903387176,1356
1973.3234115920136,1387
1975.268445082395,1368
1977.2130041256642,1409
1979.1570889892423,1387
1981.1006999406304,1393
1983.04383724741,1359
1984.986501177238,1425
1986.928691997853,1416
1988.8704099770712,1369
1990.811655382789,1421
1992.7524284829801,1409
1994.692729545698,1411
1996.6325588390755,1407
1998.5719166313224,1342
2000.5108031907307,1432
2002.4492187856677,1410
2004.387163684583,1406
2006.3246381560011,1465
2008.2616424685298,1443
2010.1981768908527,1427
2012.1342416917332,1415
2014.069837140014,1346
2016.0049635046162,1423
2017.9396210545406,1396
2019.8738100588666,1424
2021.8075307867502,1442
2023.740783507431,1429
2025.6735684902228,1387
2027.6058860045214,1399
2029.5377363198004,1446
2031.4691197056118,1434
2033.4000364315875,1434
2035.3304867674374,1458
2037.260470982952,1401
2039.189989347998,1405
2041.1190421325232,1447
2043.047629606554,1425
2044.9757520401945,1409
2046.9034097036288,1471
2048.8306028671195,1345
2050.7573318010086,1470
2052.683596775716,1398
2054.609398061742,1375
2056.5347359296647,1391
2058.4596106501403,1400
2060.384022493906,1408
2062.3079717317764,1414
2064.231458634646,1406
2066.1544834734873,1406
2068.077046519352,1374
2069.99914804337,1375
2071.9207883167524,1381
2073.8419676107865,1352
2075.7626861968406,1348
2077.6829443463607,1360
2079.6027423308715,1342
2081.522080421977,1370
2083.440958891362,1429
2085.359378010786,1435
2087.2773380520907,1355
2089.194839287196,1391
2091.111881988101,1412
2093.0284664268825,1347
2094.9445928756973,1390
2096.86026160678,1442
2098.775472892446,1394
2100.690227005088,1393
2102.604524217178,1414
2104.5183648012676,1434
2106.431749029985,1405
2108.34467717604,1397
2110.2571495122206,1384
2112.169166311393,1403
2114.080727846503,1443
2115.9918343905747,1384
2117.902486216711,1427
2119.8126835980956,1348
2121.722426807987,1422
2123.6317161197285,1395
2125.5405518067364,1457
2127.448934142509,1482
2129.356863400624,1388
2131.264339854737,1453
2133.1713637785815,1432
2135.077935445972,1461
2136.9840551308002,1437
2138.889723107037,1399
2140.7949396487334,1388
2142.699705030018,1373
2144.6040195250994,1431
2146.507883408264,1490
2148.4112969538774,1442
2150.3142604363848,1459
2152.2167741303097,1465
2154.1188383102535,1494
2156.0204532508997,1443
2157.9216192270064,1477
2159.822336513414,1435
2161.7226053850413,1427
2163.622426116884,1460
2165.5217989840185,1409
2167.4207242616,1434
2169.319202224862,1519
2171.2172331491165,1466
2173.1148173097563,1499
2175.0119549822507,1520
2176.90864644215,1477
2178.8048919650823,1474
2180.7006918267534,1494
2182.596046302952,1499
2184.4909556695407,1585
2186.3854202024645,1492
2188.279440177746,1543
2190.173015871487,1458
2192.066147559868,1531
2193.958835519149,1474
2195.851080025667,1459
2197.7428813558417,1495
2199.6342397861667,1517
2201.5251555932186,1532
2203.415629053651,1540
2205.3056604441986,1576
2207.19525004167,1544
2209.084398122958,1499
2210.9731049650327,1505
2212.861370844941,1523
2214.749196039812,1528
2216.636580826851,1570
2218.523525483344,1567
2220.410030286655,1586
2222.296095514226,1504
2224.1817214435805,1619
2226.066908352319,1507
2227.951656518121,1432
2229.835966218746,1509
2231.71983773203,1478
2233.6032713358913,1504
2235.486267308324,1572
2237.3688259274036,1560
2239.2509474712824,1488
2241.132632218193,1512
2243.013880446447,1545
2244.8946924344323,1553
2246.7750684606203,1467
2248.6550088035574,1550
2250.534513741871,1520
2252.413583554265,1458
2254.292218519526,1551
2256.170418916517,1471
2258.0481850241786,1490
2259.925517121534,1502
2261.8024154876825,1508
2263.678880401803,1515
2265.5549121431536,1610
2267.430510991071,1492
2269.305677224971,1494
2271.180411124348,1486
2273.0547129687766,1468
2274.9285830379076,1460
2276.8020216114737,1474
2278.6750289692845,1465
2280.5476053912294,1493
2282.4197511572766,1549
2284.2914665474727,1536
2286.162751841943,1524
2288.0336073208937,1580
2289.904033264608,1501
2291.774029953448,1542
2293.6435976678554,1504
2295.5127366883517,1458
2297.381447295534,1367
2299.2497297700825,1417
2301.1175843927526,1375
2302.9850114443825,1337
2304.852011205885,1341
2306.7185839582553,1264
2308.5847299825664,1297
2310.4504495599676,1242
2312.3157429716925,1280
2314.1806104990483,1288
2316.0450524234247,1236
2317.9090690262888,1248
2319.772660589186,1216
2321.635827393742,1210
2323.498569721661,1225
2325.3608878547248,1243
2327.2227820747967,1192
2329.0842526638157,1200
2330.945299903803,1223
2332.805924076857,1259
2334.6661254651535,1201
2336.525904350951,1232
2338.3852610165827,1224
2340.244195744464,1223
2342.102708817088,1182
2343.9608005170253,1164
2345.8184711269287,1213
2347.675720929526,1214
2349.532550207628,1235
2351.38895924412,1221
2353.24494832197,1193
2355.100517724223,1190
2356.955667734004,1248
2358.810398634514,1296
2360.664710709037,1199
2362.5186042409337,1208
2364.3720795136437,1256
2366.225136810686,1245
2368.0777764156583,1237
2369.929998612237,1238
2371.7818036841777,1244
2373.633191915315,1250
2375.484163589562,1216
2377.3347189909114,1230
2379.184858403434,1219
2381.03458211128,1238
2382.8838903986775,1218
2384.732783549936,1194
2386.5812618494406,1235
2388.4293255816588,1205
2390.2769750311327,1204
2392.1242104824883,1218
2393.971032220427,1203
2395.8174405297295,1231
2397.6634356952563,1256
2399.509018001947,1269
2401.3541877348193,1229
2403.1989451789705,1270
2405.043290619576,1166
2406.8872243418905,1232
2408.730746631247,1248
2410.5738577730594,1266
2412.4165580528183,1252
2414.258847756095,1246
2416.100727168537,1209
2417.9421965758734,1221
2419.783256263912,1241
2421.623906518538,1253
2423.4641476257157,1283
2425.303979871491,1208
2427.143403541984,1228
2428.9824189233977,1244
2430.821026302012,1227
2432.6592259641866,1212
2434.497018196361,1223
2436.33440328505,1214
2438.171381516851,1247
2440.00795317844,1211
2441.844118556569,1219
2443.6798779380724,1245
2445.5152316098606,1229
2447.3501798589255,1234
2449.1847229723357,1224
2451.0188612372403,1202
2452.8525949408663,1248
2454.6859243705203,1238
2456.518849813587,1219
2458.3513715575314,1217
2460.183489889895,1237
2462.015205098301,1213
2463.8465174704493,1182
2465.67742729412,1183
2467.5079348571717,1240
2469.338040447542,1214
2471.1677443532476,1237
2472.9970468623833,1220
2474.825948263123,1239
2476.6544488437207,1201
2478.482548892508,1227
2480.310248697896,1215
2482.137548548374,1173
2483.9644487325118,1194
2485.790949538956,1215
2487.617051256433,1215
2489.44275417375,1189
2491.26805857979,1219
2493.0929647635157,1235
2494.917473013971,1263
2496.741583620276,1229
2498.5652968716304,1233
2500.3886130573137,1219
2502.2115324666834,1234
2504.0340553891765,1287
2505.856182114308,1270
2507.6779129316733,1241
2509.499248130945,1248
2511.3201880018764,1255
2513.140732834298,1203
2514.9608829181198,1283
2516.780638543331,1177
2518.6,1251
2520.418967578273,1264
2522.237541568376,1245
2524.0557222606144,1221
2525.8735099453706,1224
2527.6909049131086,1207
2529.507907454368,1235
2531.32451785977,1237
2533.140736420014,1279
2534.9565634258774,1226
2536.771999168218,1203
2538.5870439379714,1262
2540.4016980261526,1240
2542.2159617238544,1242
2544.02983532225,1211
2545.8433191125914,1219
2547.656413386209,1225
2549.4691184345115,1238
2551.2814345489874,1224
2553.093362021204,1247
2554.904901142808,1233
2556.716052205523,1197
2558.526815501153,1200
2560.3371913215824,1217
2562.147179958771,1286
2563.956781704761,1245
2565.7659968516705,1217
2567.5748256916986,1185
2569.3832685171224,1233
2571.1913256202984,1180
2572.9989972936614,1227
2574.806283829725,1166
2576.613185521084,1174
2578.4197026604074,1180
2580.2258355404483,1232
2582.031584454035,1234
2583.836949694077,1263
2585.6419315535613,1242
2587.4465303255533,1212
2589.2507463032002,1239
2591.0545797797245,1195
2592.8580310484303,1210
2594.6611004026995,1240
2596.463788135992,1194
2598.266094541849,1251
2600.0680199138874,1213
2601.869564545807,1202
2603.670728731383,1179
2605.4715127644704,1196
2607.2719169390048,1187
2609.071941548998,1183
2610.8715868885433,1206
2612.670853251811,1221
2614.469740933052,1257
2616.268250226594,1259
2618.0663814268455,1236
2619.864134828292,1222
2621.6615107255006,1200
2623.458509413115,1235
2625.2551311858597,1265
2627.0513763385347,1251
2628.8472451660223,1189
2630.6427379632833,1177
2632.4378550253564,1247
2634.232596647359,1250
2636.026963124488,1207
2637.8209547520187,1200
2639.6145718253065,1186
2641.407814639785,1248
2643.200683490966,1199
2644.9931786744414,1230
2646.7853004858807,1214
2648.577049221034,1230
2650.3684251757277,1252
2652.1594286458712,1244
2653.9500599274484,1233
2655.740319316525,1222
2657.5302071092437,1215
2659.3197236018286,1198
2661.10886909058,1241
2662.8976438718782,1254
2664.686048242183,1246
2666.4740824980327,1177
2668.2617469360443,1215
2670.0490418529134,1252
2671.8359675454153,1227
2673.622524310403,1218
2675.408712444811,1261
2677.1945322456495,1194
2678.979984010009,1216
2680.76506803506,1187
2682.5497846180497,1206
2684.334134056306,1187
2686.1181166472343,1228
2687.9017326883213,1274
2689.6849824771293,1214
2691.4678663113013,1229
2693.2503844885596,1217
2695.032537306705,1262
2696.8143250636167,1206
2698.5957480572542,1254
2700.3768065856534,1216
2702.1575009469316,1223
2703.937831439283,1233
2705.717798360982,1185
2707.4974020103837,1182
2709.276642685917,1247
2711.055520686095,1195
2712.834036309506,1244
2714.612189854819,1233
2716.389981620782,1220
2718.1674119062204,1201
2719.944481010041,1230
2721.721189231226,1211
2723.4975368688415,1241
2725.273524222027,1272
2727.0491515900053,1293
2728.824419272075,1281
2730.5993275676146,1323
2732.3738767760838,1260
2734.148067197016,1221
2735.921899130031,1227
2737.6953728748194,1246
2739.468488731156,1231
2741.2412469988926,1150
2743.0136479779617,1242
2744.785691968372,1248
2746.5573792702116,1233
2748.3287101836504,1259
2750.099685008934,1232
2751.870304046388,1208
2753.640567596418,1233
2755.4104759595057,1234
2757.1800294362156,1271
2758.949228327187,1222
2760.7180729331412,1206
2762.486563554877,1203
2764.254700493272,1221
2766.022484049284,1217
2767.789914523947,1267
2769.5569922183786,1234
2771.3237174337705,1289
2773.090090471394,1196
2774.8561116326036,1235
2776.6217812188274,1210
2778.3870995315756,1216
2780.1520668724356,1227
2781.9166835430747,1238
2783.6809498452394,1288
2785.444866080754,1244
2787.2084325515225,1212
2788.971649559527,1175
2790.73451740683,1230
2792.4970363955713,1218
2794.2592068279705,1247
2796.0210290063264,1190
2797.7825032330147,1210
2799.543629810493,1226
2801.304409041296,1204
2803.0648412280366,1241
2804.8249266734088,1244
2806.5846656801846,1278
2808.344058551212,1297
2810.1031055894246,1300
2811.8618070978273,1260
2813.6201633795085,1278
2815.378174737636,1232
2817.1358414754536,1200
2818.893163896285,1237
2820.6501423035334,1222
2822.4067770006814,1224
2824.1630682912883,1284
2825.9190164789957,1215
2827.6746218675207,1237
2829.429884760661,1282
2831.184805462294,1264
2832.9393842763743,1251
2834.693621506936,1313
2836.4475174580916,1246
2838.201072434034,1233
2839.954286739034,1221
2841.707160677441,1272
2843.459694553685,1294
2845.2118886722724,1237
2846.96374333779,1240
2848.7152588549034,1319
2850.4664355283567,1286
2852.217273662973,1235
2853.9677735636546,1245
2855.7179355353833,1223
2857.4677598832186,1202
2859.217246912299,1267
2860.9663969278427,1266
2862.715210235146,1206
2864.4636871395846,1210
2866.211827946614,1252
2867.9596329617652,1237
2869.7071024906536,1218
2871.4542368389684,1235
2873.20103631248,1283
2874.947501217038,1253
2876.6936318585695,1254
2878.4394285430812,1191
2880.1848915766604,1224
2881.9300212654707,1224
2883.6748179157553,1227
2885.4192818338374,1250
2887.1634133261173,1253
2888.907212699077,1254
2890.6506802592744,1243
2892.393816313348,1277
2894.1366211680142,1232
2895.8790951300693,1198
2897.621238506388,1289
2899.363051603925,1217
2901.1045347297118,1245
2902.8456881908596,1229
2904.58651229456,1219
2906.327007348081,1253
2908.067173658772,1253
2909.8070115340597,1245
2911.5465212814497,1187
2913.285703208527,1243
2915.0245576229563,1262
2916.7630848324807,1226
2918.5012851449196,1220
2920.2391588681758,1233
2921.976706310227,1241
2923.7139277791334,1224
2925.4508235830313,1167
2927.187394030137,1265
2928.923639428745,1227
2930.6595600872306,1211
2932.395156314046,1279
2934.1304284177218,1306
2935.8653767068713,1281
2937.6000014901815,1232
2939.3343030764227,1280
2941.068281774442,1247
2942.8019378931644,1262
2944.5352717415976,1231
2946.2682836288236,1235
2948.0009738640065,1291
2949.7333427563885,1222
2951.465390615289,1209
2953.1971177501086,1297
2954.9285244703265,1249
2956.6596110855,1209
2958.3903779052657,1251
2960.1208252393385,1310
2961.8509533975125,1235
2963.5807626896617,1252
2965.3102534257378,1239
2967.0394259157715,1212
2968.768280469873,1215
2970.496817398232,1230
2972.2250370111146,1201
2973.952939618869,1245
2975.6805255319196,1256
2977.4077950607707,1282
2979.134748516006,1247
2980.861386208289,1266
2982.587708448359,1370
2984.313715547037,1262
2986.039407815222,1279
2987.764785563891,1300
2989.489849104102,1278
2991.2145987469908,1339
2992.9390348037705,1269
2994.6631575857346,1186
2996.3869674042576,1225
2998.1104645707887,1229
2999.83364939686,1250
3001.5565221940783,1203
3003.2790832741334,1260
3005.0013329487924,1265
3006.7232715298996,1227
3008.4448993293804,1212
3010.166216659239,1238
3011.887223831558,1238
3013.607921158498,1241
3015.3283089522993,1225
3017.0483875252826,1190
3018.7681571898443,1180
3020.4876182584626,1219
3022.2067710436927,1232
3023.9256158581707,1218
3025.644153014609,1183
3027.362382825801,1222
3029.0803056046193,1250
3030.797921664012,1271
3032.5152313170106,1226
3034.2322348767225,1212
3035.9489326563353,1151
3037.665324969115,1216
3039.3814121284063,1253
3041.097194447633,1197
3042.812672240299,1248
3044.5278458199855,1220
3046.2427155003525,1173
3047.9572815951406,1173
3049.671544418167,1180
3051.38550428333,1262
3053.0991615046073,1283
3054.812516396051,1200
3056.5255692717974,1211
3058.2383204460575,1179
3059.9507702331257,1208
3061.662918947372,1211
3063.3747669032446,1246
3065.0863144152736,1242
3066.7975617980674,1161
3068.508509366309,1260
3070.219157434767,1199
3071.9295063182844,1239
3073.639556331785,1247
3075.3493077902704,1237
3077.058761008821,1218
3078.7679163025964,1249
3080.476773986837,1207
3082.1853343768594,1249
3083.89359778806,1271
3085.6015645359153,1211
3087.3092349359786,1212
3089.016609303884,1168
3090.7236879553434,1192
3092.4304712061476,1227
3094.136959372166,1225
3095.843152769349,1231
3097.5490517137237,1225
3099.2546565213966,1207
3100.959967508554,1237
3102.66498499146,1261
3104.3697092864577,1171
3106.0741407099695,1175
3107.778279578498,1246
3109.482126208622,1156
3111.1856809170004,1211
3112.8889440203716,1210
3114.5919158355528,1213
3116.294596679439,1212
3117.996986869006,1238
3119.6990867213062,1242
3121.4008965534726,1246
3123.102416682717,1223
3124.803647426329,1182
3126.5045891016784,1173
3128.205242026213,1191
3129.90560651746,1235
3131.605682893025,1216
3133.3054714705922,1216
3135.0049725679282,1247
3136.7041865028714,1180
3138.4031135933465,1193
3140.101754157353,1247
3141.800108512971,1222
3143.498176978357,1220
3145.1959598717494,1241
3146.8934575114636,1205
3148.5906702158954,1201
3150.2875983035183,1210
3151.9842420928853,1267
3153.680601902627,1214
3155.376678051456,1171
3157.07247085816,1210
3158.767980641609,1241
3160.463207720748,1199
3162.158152414606,1252
3163.8528150422862,1184
3165.5471959229726,1248
3167.2412953759303,1201
3168.9351137204976,1218
3170.628651276098,1258
3172.3219083622307,1235
3174.014885298474,1233
3175.707582404485,1285
3177.4000000000005,1254
3179.092138404835,1197
3180.7839979388846,1258
3182.47557892212,1263
3184.166881674594,1286
3185.8579065164386,1252
3187.5486537678626,1200
3189.2391237491547,1202
3190.9293167806827,1152
3192.6192331828934,1208
3194.3088732763117,1146
3195.998237381542,1245
3197.687325819268,1246
3199.376138910251,1257
3201.064676975334,1208
3202.7529403354347,1213
3204.4409293115523,1252
3206.1286442247647,1192
3207.816085396229,1223
3209.5032531471825,1195
3211.190147798936,1254
3212.8767696728846,1198
3214.5631190905015,1138
3216.2491963733373,1217
3217.9350018430214,1141
3219.6205358212637,1176
3221.305798629851,1171
3222.990790590651,1157
3224.6755120256103,1148
3226.359963256751,1198
3228.0441446061795,1183
3229.7280563960758,1207
3231.411698948703,1248
3233.0950725863995,1229
3234.778177631587,1204
3236.461014406761,1175
3238.1435832345005,1242
3239.8258844374595,1225
3241.507918338374,1167
3243.1896852600576,1178
3244.8711855254023,1218
3246.552419457381,1236
3248.233387379042,1225
3249.914089613516,1207
3251.59452648401,1211
3253.274698313813,1156
3254.95460542629,1164
3256.6342481448855,1248
3258.313626793125,1189
3259.9927416946084,1193
3261.6715931730196,1153
3263.3501815521176,1211
3265.0285071557437,1236
3266.706570307815,1197
3268.3843713323286,1200
3270.0619105533615,1223
3271.739188295068,1144
3273.4162048816834,1199
3275.0929606375184,1207
3276.769455886966,1239
3278.445690954498,1213
3280.1216661646613,1184
3281.797381842087,1236
3283.4728383114807,1224
3285.1480358976296,1260
3286.8229749253996,1169
3288.4976557197333,1157
3290.172078605655,1204
3291.846243908266,1196
3293.5201519527463,1235
3295.193803064357,1203
3296.8671975684374,1220
3298.5403357904024,1226
3300.21321805575,1184
3301.8858446900567,1197
3303.558216018975,1160
3305.23033236824,1196
3306.9021940636603,1228
3308.57380143113,1180
3310.2451547966184,1163
3311.916254486174,1208
3313.5871008259246,1213
3315.2576941420766,1191
3316.9280347609147,1256
3318.5981230088046,1229
3320.2679592121895,1154
3321.9375436975924,1200
3323.606876791612,1211
3325.27595882093,1196
3326.944790112305,1166
3328.6133709925753,1146
3330.2817017886573,1171
3331.949782827547,1181
3333.617614436319,1206
3335.2851969421245,1200
3336.952530672199,1137
3338.619615953853,1184
3340.286453114475,1201
3341.9530424815357,1174
3343.619384382583,1189
3345.2854791452437,1261
3346.951327097224,1214
3348.6169285663073,1215
3350.2822838803577,1217
3351.947393367319,1226
3353.61225735521,1212
3355.2768761721345,1257
3356.9412501462693,1200
3358.605379605873,1201
3360.2692648792827,1220
3361.9329062949146,1144
3363.596304181263,1209
