CollectionTime,9/19/2024 10:48:18 AM
ExposureUsed,3
CalibratedSpectrum
-962.7078968117929,495
-959.9714848408522,538
-957.2358232597828,511
-954.5009119013725,522
-951.7667505983302,585
-949.0333391832855,552
-946.3006774887896,570
-943.5687653473143,536
-940.837602591253,560
-938.1071890529199,539
-935.3775245645503,560
-932.6486089583007,553
-929.9204420662485,546
-927.1930237203925,604
-924.4663537526524,584
-921.7404319948689,590
-919.0152582788041,560
-916.2908324361409,578
-913.5671542984834,532
-910.8442236973568,527
-908.1220404642074,524
-905.4006044304027,552
-902.679915427231,537
-899.959973285902,510
-897.2407778375464,538
-894.5223289132158,560
-891.8046263438832,537
-889.0876699604426,486
-886.3714595937089,505
-883.6559950744183,502
-880.9412762332282,514
-878.2273029007168,518
-875.5140749073835,534
-872.8015920836489,522
-870.0898542598545,504
-867.3788612662631,536
-864.6686129330585,507
-861.9591090903457,513
-859.2503495681506,487
-856.5423341964203,516
-853.8350628050229,501
-851.1285352237478,503
-848.4227512823054,510
-845.7177108103272,503
-843.0134136373656,530
-840.3098595928943,515
-837.6070485063082,522
-834.9049802069229,541
-832.2036545239757,503
-829.5030712866244,510
-826.8032303239481,519
-824.1041314649472,490
-821.4057745385428,500
-818.7081593735775,513
-816.0112857988148,509
-813.3151536429393,513
-810.6197627345566,539
-807.9251129021936,526
-805.2312039742981,551
-802.5380357792392,539
-799.8456081453069,545
-797.1539209007124,548
-794.462973873588,542
-791.772766891987,570
-789.083299783884,597
-786.3945723771743,549
-783.7065844996748,561
-781.0193359791231,531
-778.3328266431781,533
-775.6470563194197,531
-772.9620248353489,538
-770.2777320183878,518
-767.5941776958798,520
-764.9113616950891,503
-762.2292838432011,523
-759.5479439673222,543
-756.8673418944801,557
-754.1874774516235,554
-751.5083504656222,552
-748.8299607632671,554
-746.15230817127,577
-743.475392516264,528
-740.7992136248035,542
-738.1237713233636,526
-735.4490654383407,534
-732.7750957960521,530
-730.1018622227365,544
-727.4293645445534,537
-724.7576025875837,528
-722.0865761778291,534
-719.4162851412126,558
-716.7467293035781,587
-714.0779084906909,517
-711.409822528237,544
-708.7424712418238,536
-706.0758544569796,562
-703.4099719991541,567
-700.7448236937178,549
-698.0804093659622,519
-695.4167288411002,576
-692.7537819442656,574
-690.0915685005134,574
-687.4300883348199,595
-684.7693412720819,596
-682.1093271371178,564
-679.4500457546669,552
-676.7914969493897,571
-674.1336805458676,569
-671.4765963686034,553
-668.8202442420206,555
-666.1646239904642,559
-663.5097354382001,576
-660.8555784094151,554
-658.2021527282176,581
-655.5494582186366,558
-652.8974947046223,588
-650.2462620100463,561
-647.5957599587009,593
-644.9459883742998,624
-642.2969470804776,622
-639.6486359007902,606
-637.0010546587141,615
-634.3542031776476,673
-631.7080812809096,603
-629.0626887917401,614
-626.4180255333008,627
-623.7740913286734,649
-621.1308860008619,605
-618.4884093727904,635
-615.8466612673046,612
-613.2056415071715,609
-610.5653499150785,627
-607.9257863136347,664
-605.28695052537,676
-602.6488423727357,662
-600.0114616781036,665
-597.3748082637674,738
-594.7388819519412,757
-592.1036825647604,676
-589.4692099242818,645
-586.8354638524829,691
-584.2024441712624,711
-581.5701507024403,717
-578.9385832677575,703
-576.3077416888759,704
-573.6776257873787,670
-571.0482353847704,693
-568.4195703024757,672
-565.7916303618415,684
-563.164415384135,706
-560.5379251905453,679
-557.9121596021815,681
-555.2871184400748,657
-552.6628015251767,730
-550.0392086783606,754
-547.4163397204204,794
-544.794194472071,793
-542.1727727539491,779
-539.5520743866118,787
-536.9320991905377,755
-534.3128469861261,792
-531.6943175936979,843
-529.0765108334947,904
-526.4594265256793,1054
-523.8430644903358,1260
-521.2274245474689,1530
-518.612506517005,1580
-515.9983102187913,1684
-513.3848354725959,1841
-510.77208209810846,2137
-508.16004991493924,2270
-505.5487387426199,2317
-502.9381484006032,2280
-500.3282787082628,2098
-497.71912948489364,1769
-495.1107005497117,1551
-492.5029917218539,1296
-489.8960028203786,1087
-487.28973366426493,1028
-484.68418407241325,958
-482.07935386364494,931
-479.47524285670266,879
-476.87185087025,889
-474.2691777228715,879
-471.66722323307334,880
-469.0659872192821,861
-466.4654694998459,897
-463.86566989303384,840
-461.26658821703614,834
-458.66822428996414,808
-456.07057792985,872
-453.4736489546475,821
-450.877437182231,870
-448.28194243039627,827
-445.68716451686,795
-443.09310325926003,821
-440.49975847515555,810
-437.9071299820263,811
-435.31521759727354,807
-432.72402113821954,816
-430.13354042210767,846
-427.5437752661022,835
-424.95472548728867,917
-422.36639090267386,881
-419.7787713291855,944
-417.1918665836721,929
-414.60567648290385,918
-412.0202008435715,957
-409.4354394822874,951
-406.8513922155845,907
-404.26805885991723,903
-401.685439231661,916
-399.103533147112,934
-396.522340422488,935
-393.9418608739278,932
-391.3620943174908,912
-388.7830405691583,902
-386.2046994448317,865
-383.6270707603344,818
-381.05015433141045,853
-378.473949973725,791
-375.8984575028645,732
-373.32367673433623,744
-370.74960748356875,702
-368.1762495659117,678
-365.60360279663576,724
-363.03166699093265,662
-360.4604419639154,610
-357.8899275306178,583
-355.32012350599507,541
-352.7510297049233,563
-350.1826459421999,560
-347.61497203254316,541
-345.04800779059235,575
-342.4817530309082,605
-339.91620756797226,633
-337.35137121618743,538
-334.7872437898774,526
-332.22382510328725,617
-329.66111497058273,649
-327.09911320585127,615
-324.53781962310075,542
-321.9772340362607,498
-319.4173562591816,555
-316.8581861056348,586
-314.2997233893127,592
-311.7419679238294,585
-309.1849195227194,576
-306.62857799943856,593
-304.0729431673641,611
-301.51801483979375,624
-298.963792829947,616
-296.41027695096386,653
-293.85746701590574,700
-291.3053628377552,692
-288.7539642294155,694
-286.2032710037115,734
-283.65328297338897,773
-281.1039999511146,714
-278.5554217494762,707
-276.007548180983,706
-273.4603790580651,715
-270.9139141930734,680
-268.3681533982807,756
-265.8230964858798,853
-263.27874326798565,835
-260.7350935566336,816
-258.1921471637804,950
-255.6499039013039,1066
-253.10836358100266,876
-250.56752601459698,831
-248.02739101372765,863
-245.48795838995704,835
-242.94922795476816,906
-240.41119951956557,782
-237.8738728956746,842
-235.33724789434166,894
-232.80132432673452,933
-230.2661020039418,775
-227.73158073697357,782
-225.19776033676033,826
-222.66464061415422,970
-220.1322213799284,959
-217.60050244477725,868
-215.06948361931552,1069
-212.53916471408013,1234
-210.00954553952818,1162
-207.48062590603843,994
-204.9524056239104,871
-202.4248845033651,1042
-199.8980623545441,1302
-197.37193898751036,1201
-194.84651421224817,1090
-192.32178783866232,927
-189.79775967657952,985
-187.27442953574644,1236
-184.7517972258321,1270
-182.2298625564256,1064
-179.7086253370378,1027
-177.18808537710026,1189
-174.66824248596583,1499
-172.14909647290835,1496
-169.6306471471229,1365
-167.11289431772548,1147
-164.59583779375328,1256
-162.07947738416453,1481
-159.5638128978386,1637
-157.04884414357605,1800
-154.53457093009854,1651
-152.02099306604828,1376
-149.50811035998936,1282
-146.99592262040665,1707
-144.48442965570587,1821
-141.97363127421409,2032
-139.46352728417958,2115
-136.95411749377126,2235
-134.44540171107985,1848
-131.93737974411636,1408
-129.43005140081357,1698
-126.92341648902493,2397
-124.41747481652521,2732
-121.91222619101006,3300
-119.40767042009657,3356
-116.90380731132257,3290
-114.40063667214702,3515
-111.8981583099503,4096
-109.3963720320337,5982
-106.89527764561933,8797
-104.39487495785067,10765
-101.89516377579241,13649
-99.39614390642998,17906
-96.89781515667039,22704
-94.40017733334128,25870
-91.90323024319173,21587
-89.40697369289148,13682
-86.91140748903172,8893
-84.41653143812482,7617
-81.92234534660395,11889
-79.42884902082358,18104
-76.93604226705907,20620
-74.4439248915071,19215
-71.95249670028534,14284
-69.46175749943245,8803
-66.97170709490854,6216
-64.48234529259423,7467
-61.99367189829195,8883
-59.50568671772464,10254
-57.01838955653636,13839
-54.53178022029283,16001
-52.045858514480074,16758
-49.560624244506016,16374
-47.07607721569923,21985
-44.59221723330904,26917
-42.10904410250669,29398
-39.62655762838392,29645
-37.14475761595372,31859
-34.66364387015028,33012
-32.18321619582866,32482
-29.70347439776515,31040
-27.224418280657005,31467
-24.74604764912317,39723
-22.26836230770266,65030
-19.7913620608565,65030
-17.315046712966478,65030
-14.83941606833514,65030
-12.36446993118659,65030
-9.89020810566592,65030
-7.416630395839093,65030
-4.94373660569363,65030
-2.471526539137585,65030
-6.821210263296962E-13,65030
2.47084320796705,65030
4.941003281093458,65030
7.410480415786196,65030
9.879274808531363,65030
12.347386655893956,65030
14.814816154518212,65030
17.28156350112681,65030
19.74762889252179,65030
22.21301252558385,26735
24.67771459727237,8650
27.141735304626195,8372
29.605074844762612,6833
32.06773341487792,6843
34.52971121224755,6820
36.99100843422559,6038
39.45162527824516,6943
41.91156194181792,7275
44.370818622535126,5182
46.82939551806646,5357
49.287292826160524,7779
51.74451074464503,6743
54.201049471426245,5507
56.65690920448981,3583
59.112090141899785,2516
61.56659248179983,3153
64.02041642241159,3856
66.4735621620365,4059
68.92602989905402,4897
71.37781983192338,4555
73.82893215918205,3542
76.27936707944684,2810
78.72912479141326,3008
81.17820549385567,2873
83.62660938562783,2476
86.07433666566146,2269
88.5213875329681,2328
90.96776218663751,2333
93.41346082583925,2574
95.85848364982041,2903
98.30283085790859,2450
100.7465026495089,2226
103.18949922410604,2016
105.63182078126385,1918
108.07346752062438,1707
110.51443964190923,1433
112.95473734491827,1376
115.39436082953114,1492
117.83331029570547,1835
120.27158594347827,1949
122.7091879729652,1844
125.1461165843615,1702
127.58237197794062,1592
130.01795435405518,1798
132.4528639131364,1635
134.88710085569494,1517
137.32066538231982,1635
139.75355769367923,1600
142.1857779905207,1407
144.61732647366978,1357
147.04820334403132,1477
149.47840880258934,1379
151.90794305040674,1502
154.33680628862487,1558
156.76499871846443,1623
159.19252054122433,1702
161.61937195828352,1620
164.04555317109896,1844
166.47106438120693,1989
168.89590579022217,2024
171.320077599839,2059
173.7435800118302,2194
176.16641322804742,2333
178.58857745042144,2250
181.01007288096173,2356
183.43089972175687,2328
185.85105817497413,2283
188.27054844285988,2234
190.6893707277394,2334
193.10752523201643,2539
195.5250121581745,2580
197.9418317087751,2390
200.3579840864594,2477
202.7734694939469,2534
205.18828813403627,2623
207.6024402096051,2544
210.01592592360964,2524
212.42874547908548,2449
214.84089907914665,2435
217.2523869269868,2476
219.66320922587727,2508
222.0733661791695,2444
224.48285799029293,2509
226.8916848627572,2547
229.29984700014882,2504
231.7073446061355,2488
234.11417788446204,2544
236.520347038953,2534
238.92585227351185,2597
241.33069379212054,2779
243.73487179884035,2620
246.1383864978112,2535
248.541238093252,2692
250.9434267894609,2605
253.34495279081432,2568
255.74581630176783,2617
258.1460175268563,2600
260.54555667069314,2519
262.9444339379703,2620
265.3426495334594,2682
267.7402036620107,2668
270.1370965285529,2649
272.53332833809407,2598
274.9288992957214,2573
277.32380960660055,2548
279.718059475976,2506
282.1116491091717,2466
284.5045787115897,2474
286.89684848871195,2454
289.2884586460981,2565
291.67940938938807,2605
294.0697009242996,2616
296.4593334566299,2594
298.84830719225477,2754
301.23662233712923,2668
303.6242790972866,2567
306.01127767884,2490
308.39761828798066,2495
310.78330113097934,2456
313.16832641418534,2483
315.5526943440269,2452
317.9364051270112,2432
320.3194589697242,2422
322.70185607883093,2357
325.0835966610754,2294
327.4646809232805,2275
329.8451090723478,2288
332.2248813152577,2259
334.6039978590701,2294
336.9824589109231,2357
339.36026467803447,2215
341.7374153677,2168
344.113911187295,2274
346.48975234427337,2176
348.8649390461686,2235
351.2394715005918,2201
353.61334991523415,2205
355.9865744978655,2193
358.35914545633375,2235
360.73106299856715,2243
363.10232733257146,2215
365.47293866643247,2219
367.84289720831396,2098
370.2122031664593,2134
372.5808567491905,2065
374.9488581649083,2047
377.31620762209275,2054
379.6829053293021,2016
382.0489514951745,2119
384.4143463284262,2021
386.7790900378528,2021
389.14318283232853,2007
391.50662492080653,2002
393.86941651231916,2001
396.23155781597745,2070
398.5930490409713,2034
400.9538903965696,1980
403.3140820921202,2018
405.6736243370498,2023
408.03251734086336,1976
410.3907613131465,1925
412.74835646356166,1929
415.10530300185144,1956
417.4616011378372,1973
419.81725108141893,1990
422.1722530425758,1936
424.5266072313656,2035
426.880313857925,2002
429.2333731324701,1965
431.58578526529516,1972
433.9375504667738,1992
436.2886689473588,1949
438.63914091758113,1918
440.9889665880513,1933
443.33814616945835,1858
445.68667987257015,1959
448.03456790823395,1928
450.3818104873759,1850
452.72840782100013,1906
455.07436012019105,1859
457.41966759611057,1900
459.7643304600007,1881
462.10834892318155,1846
464.4517231970525,1816
466.79445349309174,1882
469.1365400228566,1912
471.4779829979826,1932
473.81878263018564,1932
476.15893913125876,1894
478.4984527130747,2035
480.8373235875855,2105
483.17555196682144,2159
485.5131380628919,2236
487.8500820879857,2292
490.1863842543697,2386
492.52204477439034,2498
494.8570638604725,2767
497.1914417251204,3334
499.52517858091653,3997
501.85827464052306,4622
504.19073011668036,5059
506.5225452222086,5496
508.85372017000566,5528
511.18425517304956,5851
513.514150444396,6719
515.8434061971808,8119
518.1720226446176,8580
520.4999999999999,8208
522.8273384766991,7802
525.1540382881666,7045
527.480099647932,6091
529.8055227696037,4476
532.1303078668694,3321
534.454455153496,2746
536.777964843328,2419
539.1008371502907,2344
541.4230722883866,2220
543.744670471698,2223
546.0656319143858,2181
548.3859568306899,2107
550.7056454349294,2066
553.0246979415016,2144
555.3431145648834,2039
557.6608955196306,1929
559.978041020377,1953
562.2945512818363,2105
564.6104265188006,2045
566.9256669461412,2044
569.2402727788082,2024
571.5542442318302,2055
573.8675815203156,2071
576.1802848594508,2135
578.4923544645015,2070
580.8037905508126,2041
583.114593333807,1990
585.4247630289875,2031
587.7342998519354,2019
590.0432040183106,2101
592.3514757438526,2106
594.6591152443794,2097
596.9661227357875,1968
599.2724984340531,2054
601.578242555231,2045
603.8833553154542,2049
606.1878369309362,1991
608.4916876179676,1987
610.7949075929192,2054
613.0974970722403,2044
615.3994562724587,2038
617.7007854101818,2061
620.0014847020951,2049
622.3015543649641,1997
624.6009946156324,1966
626.8998056710224,1978
629.1979877481361,1989
631.4955410640538,1991
633.7924658359349,1960
636.0887622810175,2030
638.3844306166192,2046
640.6794710601358,2021
642.9738838290426,2011
645.2676691408932,2023
647.5608272133207,2010
649.853358264037,1963
652.1452625108324,2009
654.4365401715764,1943
656.7271914642178,1942
659.0172166067838,2098
661.3066158173809,2087
663.5953893141935,2037
665.8835373154867,1942
668.1710600396028,2035
670.4579577049639,2048
672.7442305300709,2030
675.0298787335033,1976
677.3149025339197,2044
679.599302150058,1955
681.8830778007342,2021
684.1662297048437,1944
686.4487580813608,1971
688.7306631493387,1955
691.0119451279091,1945
693.2926042362834,2018
695.5726406937516,1990
697.8520547196814,1946
700.1308465335215,1913
702.4090163547982,1960
704.6865644031171,1934
706.9634908981619,1897
709.2397960596965,1969
711.5154801075631,1961
713.7905432616823,1930
716.0649857420548,2007
718.3388077687592,1964
720.612009561953,1977
722.8845913418733,1956
725.1565533288352,1933
727.427895743234,1889
729.6986188055427,1988
731.9687227363137,1880
734.238207756178,2010
736.5070740858458,1958
738.7753219461066,1994
741.0429515578281,1930
743.3099631419569,1969
745.5763569195191,1986
747.8421331116193,1959
750.1072919394409,1875
752.3718336242467,1853
754.6357583873777,1913
756.8990664502545,1899
759.1617580343765,1900
761.423833361321,2026
763.6852926527457,1963
765.9461361303862,1954
768.206364016058,1962
770.4659765316536,2031
772.7249738991469,2027
774.9833563405886,1970
777.2411240781092,2000
779.4982773339183,1954
781.7548163303044,1903
784.010741289634,1997
786.2660524343538,2045
788.5207499869881,2076
790.7748341701416,2100
793.0283052064964,1979
795.2811633188143,2015
797.5334087299362,1975
799.7850416627813,1964
802.0360623403484,2064
804.2864709857143,2080
806.5362678220353,2002
808.7854530725468,1997
811.0340269605625,1986
813.2819897094754,2017
815.5293415427581,1989
817.77608268396,1997
820.0222133567116,2012
822.2677337847211,2009
824.5126441917765,1993
826.7569448017433,1956
829.0006358385675,2001
831.2437175262731,1981
833.4861900889629,1961
835.7280537508192,2041
837.9693087361026,1930
840.2099552691533,1972
842.4499935743896,2007
844.689423876309,1989
846.9282463994886,2007
849.1664613685833,1988
851.4040690083276,1987
853.6410695435349,1959
855.877463199097,1965
858.1132501999847,2023
860.3484307712487,2026
862.5830051380175,1998
864.8169735254988,1975
867.0503361589791,2049
869.2830932638243,1977
871.5152450654786,2065
873.7467917894654,1961
875.9777336613873,2051
878.2080709069252,2060
880.4378037518389,2043
882.666932421968,2071
884.8954571432301,2105
887.1233781416219,2036
889.3506956432192,2138
891.5774098741766,2058
893.803521060728,2029
896.0290294291852,2023
898.2539352059397,1970
900.4782386174619,2063
902.7019398903011,2083
904.925039251085,2040
907.147536926521,2069
909.3694331433943,2033
911.59072812857,2144
913.8114221089921,2087
916.0315153116827,2094
918.2510079637437,2073
920.4699002923547,2062
922.6881925247761,2093
924.905884888345,2055
927.1229776104793,2126
929.3394709186747,2096
931.555365040506,2104
933.7706602036275,2067
935.9853566357709,2143
938.1994545647489,2120
940.4129542184515,2249
942.6258558248488,2183
944.8381596119883,2167
947.0498658079974,2226
949.2609746410825,2149
951.4714863395287,2231
953.6814011316998,2169
955.8907192460387,2146
958.0994409110671,2132
960.3075663553858,2113
962.5150958076741,2124
964.7220294966913,2110
966.928367651274,2099
969.1341105003388,2074
971.3392582728806,2011
973.5438111979742,1985
975.747769504772,2031
977.9511334225061,2037
980.153903180487,2001
982.3560790081052,2017
984.5576611348289,1986
986.7586497902058,1956
988.9590452038618,1900
991.158847605503,1925
993.3580572249133,1828
995.5566742919558,1751
997.7546990365728,1761
999.952131688785,1746
1002.1489724786926,1660
1004.3452216364743,1692
1006.5408793923874,1737
1008.7359459767691,1632
1010.9304216200343,1618
1013.1243065526781,1639
1015.3176010052733,1647
1017.510305208472,1543
1019.7024193930064,1629
1021.8939437896848,1607
1024.0848786293977,1584
1026.2752241431122,1643
1028.4649805618747,1617
1030.6541481168115,1592
1032.842727039127,1514
1035.0307175601051,1571
1037.2181199111074,1522
1039.4049343235752,1544
1041.591161029029,1580
1043.7768002590683,1571
1045.9618522453698,1495
1048.1463172196918,1508
1050.3301954138697,1537
1052.513487059818,1460
1054.69619238953,1513
1056.8783116350783,1481
1059.0598450286152,1427
1061.2407928023704,1496
1063.4211551886528,1514
1065.6009324198508,1504
1067.780124728432,1517
1069.9587323469414,1460
1072.1367555080046,1473
1074.314194444325,1558
1076.4910493886855,1472
1078.667320573947,1450
1080.843008233051,1500
1083.0181125990161,1419
1085.1926339049414,1468
1087.3665723840027,1500
1089.5399282694575,1489
1091.7127017946405,1447
1093.8848931929647,1472
1096.0565026979243,1483
1098.2275305430899,1402
1100.3979769621128,1411
1102.567842188722,1474
1104.737126456726,1411
1106.9058300000124,1398
1109.0739530525475,1312
1111.2414958483764,1469
1113.4084586216231,1425
1115.5748416064907,1421
1117.7406450372605,1426
1119.9058691482942,1344
1122.0705141740304,1398
1124.2345803489884,1327
1126.3980679077658,1419
1128.5609770850388,1366
1130.7233081155623,1406
1132.8850612341707,1387
1135.0462366757774,1385
1137.2068346753745,1379
1139.3668554680326,1379
1141.526299288901,1370
1143.68516637321,1404
1145.8434569562655,1411
1148.001171273455,1365
1150.158309560244,1366
1152.3148720521767,1362
1154.470858984876,1332
1156.626270594044,1392
1158.7811071154629,1375
1160.9353687849912,1367
1163.089055838569,1343
1165.242168512213,1395
1167.3947070420209,1342
1169.5466716641677,1277
1171.6980626149075,1334
1173.8488801305748,1334
1175.9991244475814,1281
1178.1487958024186,1299
1180.2978944316555,1331
1182.4464205719428,1358
1184.5943744600072,1325
1186.7417563326567,1351
1188.8885664267755,1356
1191.0348049793297,1303
1193.1804722273619,1329
1195.325568407995,1425
1197.4700937584303,1309
1199.614048515948,1342
1201.7574329179074,1373
1203.900247201746,1311
1206.042491604982,1296
1208.1841663652099,1315
1210.3252717201053,1366
1212.465807907422,1360
1214.6057751649923,1302
1216.7451737307279,1341
1218.8840038426192,1323
1221.0222657387353,1308
1223.1599596572241,1333
1225.2970858363137,1363
1227.4336445143094,1360
1229.5696359295966,1353
1231.705060320639,1364
1233.8399179259786,1388
1235.9742089842384,1289
1238.107933734118,1323
1240.2410924143974,1314
1242.373685263935,1346
1244.5057125216676,1352
1246.6371744266116,1344
1248.7680712178621,1359
1250.898403134593,1366
1253.028170416058,1351
1255.1573733015875,1369
1257.2860120305932,1363
1259.4140868425648,1320
1261.54159797707,1350
1263.6685456737569,1358
1265.7949301723515,1420
1267.9207517126597,1360
1270.046010534565,1346
1272.1707068780306,1369
1274.2948409830983,1394
1276.4184130898889,1328
1278.541423438603,1309
1280.6638722695184,1300
1282.785759822993,1330
1284.9070863394636,1324
1287.0278520594447,1338
1289.1480572235314,1297
1291.2677020723963,1299
1293.3867868467923,1330
1295.5053117875495,1362
1297.623277135579,1442
1299.740683131868,1367
1301.8575300174857,1419
1303.973818033578,1380
1306.0895474213703,1381
1308.2047184221678,1380
1310.3193312773528,1304
1312.4333862283888,1375
1314.5468835168163,1357
1316.659823384255,1403
1318.7722060724045,1353
1320.8840318230418,1360
1322.9953008780249,1415
1325.1060134792888,1367
1327.2161698688478,1392
1329.3257702887959,1398
1331.4348149813054,1371
1333.5433041886276,1409
1335.6512381530933,1350
1337.7586171171101,1311
1339.8654413231675,1299
1341.9717110138317,1357
1344.0774264317488,1367
1346.1825878196432,1371
1348.2871954203192,1341
1350.3912494766587,1377
1352.4947502316231,1369
1354.5976979282532,1382
1356.7000928096686,1402
1358.8019351190665,1368
1360.9032250997243,1376
1363.0039629949988,1351
1365.1041490483235,1314
1367.2037835032133,1346
1369.3028666032606,1303
1371.401398592137,1379
1373.4993797135926,1356
1375.5968102114575,1364
1377.6936903296396,1329
1379.7900203121262,1439
1381.8858004029835,1408
1383.9810308463561,1369
1386.075711886469,1370
1388.1698437676241,1337
1390.2634267342032,1376
1392.356461030667,1394
1394.4489469015557,1358
1396.5408845914872,1356
1398.6322743451592,1370
1400.7231164073469,1378
1402.813411022907,1414
1404.903158436773,1372
1406.9923588939578,1396
1409.0810126395531,1358
1411.1691199187303,1409
1413.2566809767386,1398
1415.343696058907,1444
1417.4301654106425,1368
1419.5160892774315,1457
1421.6014679048399,1440
1423.6863015385125,1411
1425.7705904241707,1395
1427.8543348076178,1422
1429.9375349347342,1358
1432.0201910514802,1340
1434.102303403894,1369
1436.1838722380944,1409
1438.2648978002767,1381
1440.3453803367174,1354
1442.4253200937692,1383
1444.5047173178677,1411
1446.5835722555234,1373
1448.6618851533285,1326
1450.739656257952,1363
1452.8168858161434,1390
1454.8935740747306,1388
1456.96972128062,1420
1459.045327680797,1368
1461.120393522327,1347
1463.1949190523528,1428
1465.2689045180973,1445
1467.3423501668608,1375
1469.415256246024,1374
1471.4876230030463,1360
1473.559450685465,1432
1475.6307395408976,1425
1477.7014898170391,1343
1479.771701761665,1413
1481.8413756226287,1368
1483.9105116478618,1383
1485.9791100853772,1378
1488.0471711832643,1323
1490.1146951896926,1341
1492.1816823529098,1338
1494.2481329212433,1358
1496.3140471430984,1356
1498.3794252669609,1338
1500.4442675413939,1353
1502.5085742150404,1372
1504.572345536622,1429
1506.6355817549388,1427
1508.6982831188702,1408
1510.7604498773744,1392
1512.8220822794883,1372
1514.8831805743293,1373
1516.9437450110909,1407
1519.003775839048,1348
1521.0632733075522,1368
1523.1222376660367,1404
1525.1806691640113,1394
1527.2385680510652,1355
1529.2959345768668,1371
1531.3527689911643,1390
1533.4090715437833,1398
1535.4648424846291,1358
1537.5200820636855,1378
1539.5747905310159,1409
1541.6289681367616,1306
1543.6826151311434,1348
1545.7357317644614,1397
1547.7883182870937,1400
1549.8403749494987,1409
1551.8919020022113,1434
1553.9428996958477,1370
1555.9933682811015,1364
1558.0433080087469,1383
1560.0927191296346,1354
1562.1416018946961,1395
1564.1899565549415,1357
1566.2377833614592,1359
1568.2850825654164,1426
1570.3318544180606,1358
1572.3780991707158,1377
1574.423817074788,1386
1576.4690083817595,1349
1578.5136733431923,1347
1580.5578122107272,1322
1582.601425236085,1421
1584.6445126710646,1390
1586.6870747675434,1341
1588.7291117774776,1380
1590.7706239529034,1405
1592.8116115459347,1372
1594.8520748087658,1400
1596.8920139936686,1376
1598.9314293529933,1378
1600.9703211391711,1379
1603.008689604711,1390
1605.0465350022005,1435
1607.0838575843068,1387
1609.1206576037753,1400
1611.1569353134305,1396
1613.1926909661765,1360
1615.2279248149953,1384
1617.2626371129481,1332
1619.2968281131757,1412
1621.3304980688963,1364
1623.3636472334088,1372
1625.39627586009,1387
1627.428384202396,1370
1629.459972513861,1317
1631.4910410480993,1360
1633.5215900588028,1383
1635.551619799744,1355
1637.5811305247717,1322
1639.6101224878166,1346
1641.6385959428862,1349
1643.6665511440683,1345
1645.693988345528,1395
1647.7209078015112,1362
1649.7473097663405,1413
1651.7731944944203,1415
1653.7985622402307,1382
1655.823413258333,1391
1657.847747803366,1331
1659.8715661300494,1354
1661.8948684931793,1376
1663.9176551476316,1365
1665.9399263483624,1322
1667.9616823504057,1336
1669.982923408873,1351
1672.0036497789574,1332
1674.0238617159293,1365
1676.043559475138,1377
1678.0627433120121,1344
1680.081413482059,1382
1682.0995702408654,1382
1684.117213844096,1359
1686.134344547495,1345
1688.1509626068864,1308
1690.1670682781705,1368
1692.182661817329,1363
1694.1977434804217,1339
1696.2123135235875,1324
1698.226372203043,1377
1700.2399197750851,1414
1702.2529564960905,1345
1704.2654826225112,1342
1706.277498410882,1402
1708.2890041178139,1343
1710.2999999999988,1328
1712.3104863142066,1334
1714.3204633172854,1386
1716.329931266163,1358
1718.3388904178469,1331
1720.3473410294214,1319
1722.3552833580516,1371
1724.3627176609807,1401
1726.3696441955308,1410
1728.3760632191033,1339
1730.3819749891782,1372
1732.3873797633146,1361
1734.3922777991502,1323
1736.3966693544012,1376
1738.4005546868639,1410
1740.4039340544127,1350
1742.406807715001,1337
1744.4091759266616,1374
1746.4110389475054,1386
1748.4123970357223,1420
1750.413250449582,1354
1752.4135994474318,1378
1754.4134442876993,1419
1756.4127852288902,1379
1758.4116225295893,1322
1760.4099564484595,1387
1762.407787244244,1358
1764.405115175764,1357
1766.4019405019203,1376
1768.3982634816916,1372
1770.3940843741357,1368
1772.3894034383907,1370
1774.3842209336717,1383
1776.378537119274,1345
1778.372352254571,1367
1780.3656665990156,1383
1782.3584804121397,1367
1784.3507939535534,1374
1786.3426074829463,1423
1788.3339212600863,1366
1790.3247355448211,1438
1792.3150505970766,1388
1794.3048666768573,1388
1796.2941840442477,1381
1798.2830029594106,1419
1800.2713236825884,1407
1802.2591464741004,1387
1804.2464715943465,1401
1806.2332993038058,1396
1808.2196298630352,1381
1810.2054635326708,1443
1812.190800573428,1428
1814.175641246101,1405
1816.1599858115628,1416
1818.1438345307652,1477
1820.127187664738,1427
1822.1100454745924,1414
1824.092408221516,1400
1826.0742761667766,1392
1828.055649571721,1450
1830.0365286977735,1461
1832.0169138064398,1424
1833.9968051593014,1390
1835.9762030180214,1407
1837.9551076443408,1378
1839.9335193000788,1433
1841.9114382471344,1426
1843.888864747485,1440
1845.8657990631878,1421
1847.842241456378,1388
1849.8181921892697,1347
1851.7936515241558,1367
1853.7686197234098,1342
1855.7430970494815,1362
1857.7170837649014,1395
1859.6905801322787,1448
1861.6635864143004,1324
1863.6361028737338,1389
1865.608129773424,1413
1867.5796673762961,1387
1869.5507159453537,1451
1871.521275743678,1410
1873.4913470344313,1382
1875.4609300808534,1470
1877.4300251462632,1403
1879.3986324940588,1450
1881.366752387717,1451
1883.3343850907936,1380
1885.3015308669228,1408
1887.268189979819,1370
1889.2343626932739,1421
1891.2000492711595,1412
1893.1652499774254,1457
1895.1299650761011,1387
1897.0941948312952,1472
1899.0579395071945,1370
1901.0211993680641,1458
1902.98397467825,1410
1904.9462657021745,1386
1906.9080727043415,1402
1908.869395949332,1440
1910.8302357018065,1364
1912.790592226504,1399
1914.7504657882428,1406
1916.7098566519212,1385
1918.6687650825133,1360
1920.6271913450764,1417
1922.5851357047422,1386
1924.5425984267245,1387
1926.499579776314,1444
1928.4560800188833,1375
1930.4120994198802,1390
1932.367638244833,1435
1934.32269675935,1455
1936.2772752291175,1382
1938.231373919899,1434
1940.1849930975404,1366
1942.1381330279637,1326
1944.0907939771696,1432
1946.0429762112412,1384
1947.9946799963363,1365
1949.9459055986945,1360
1951.896653284633,1363
1953.8469233205478,1354
1955.7967159729142,1395
1957.7460315082863,1380
1959.6948701932974,1400
1961.6432322946594,1365
1963.5911180791632,1378
1965.5385278136787,1360
1967.4854617651545,1369
1969.4319202006182,1396
1971.377903387176,1358
1973.3234115920136,1417
1975.268445082395,1459
1977.2130041256642,1361
1979.1570889892423,1389
1981.1006999406304,1394
1983.04383724741,1408
1984.986501177238,1389
1986.928691997853,1358
1988.8704099770712,1407
1990.811655382789,1398
1992.7524284829801,1395
1994.692729545698,1390
1996.6325588390755,1397
1998.5719166313224,1340
2000.5108031907307,1357
2002.4492187856677,1345
2004.387163684583,1378
2006.3246381560011,1440
2008.2616424685298,1401
2010.1981768908527,1385
2012.1342416917332,1388
2014.069837140014,1419
2016.0049635046162,1419
2017.9396210545406,1442
2019.8738100588666,1431
2021.8075307867502,1388
2023.740783507431,1342
2025.6735684902228,1433
2027.6058860045214,1403
2029.5377363198004,1427
2031.4691197056118,1355
2033.4000364315875,1411
2035.3304867674374,1398
2037.260470982952,1384
2039.189989347998,1360
2041.1190421325232,1364
2043.047629606554,1402
2044.9757520401945,1314
2046.9034097036288,1372
2048.8306028671195,1381
2050.7573318010086,1454
2052.683596775716,1391
2054.609398061742,1368
2056.5347359296647,1349
2058.4596106501403,1385
2060.384022493906,1354
2062.3079717317764,1353
2064.231458634646,1382
2066.1544834734873,1400
2068.077046519352,1414
2069.99914804337,1358
2071.9207883167524,1378
2073.8419676107865,1373
2075.7626861968406,1318
2077.6829443463607,1347
2079.6027423308715,1424
2081.522080421977,1441
2083.440958891362,1352
2085.359378010786,1411
2087.2773380520907,1428
2089.194839287196,1396
2091.111881988101,1447
2093.0284664268825,1430
2094.9445928756973,1360
2096.86026160678,1342
2098.775472892446,1368
2100.690227005088,1388
2102.604524217178,1371
2104.5183648012676,1352
2106.431749029985,1392
2108.34467717604,1357
2110.2571495122206,1403
2112.169166311393,1450
2114.080727846503,1443
2115.9918343905747,1446
2117.902486216711,1447
2119.8126835980956,1397
2121.722426807987,1427
2123.6317161197285,1393
2125.5405518067364,1436
2127.448934142509,1461
2129.356863400624,1455
2131.264339854737,1407
2133.1713637785815,1392
2135.077935445972,1447
2136.9840551308002,1467
2138.889723107037,1419
2140.7949396487334,1431
2142.699705030018,1433
2144.6040195250994,1442
2146.507883408264,1464
2148.4112969538774,1479
2150.3142604363848,1477
2152.2167741303097,1456
2154.1188383102535,1397
2156.0204532508997,1423
2157.9216192270064,1470
2159.822336513414,1419
2161.7226053850413,1457
2163.622426116884,1433
2165.5217989840185,1441
2167.4207242616,1450
2169.319202224862,1424
2171.2172331491165,1434
2173.1148173097563,1462
2175.0119549822507,1554
2176.90864644215,1461
2178.8048919650823,1452
2180.7006918267534,1476
2182.596046302952,1494
2184.4909556695407,1474
2186.3854202024645,1463
2188.279440177746,1462
2190.173015871487,1439
2192.066147559868,1457
2193.958835519149,1470
2195.851080025667,1490
2197.7428813558417,1495
2199.6342397861667,1546
2201.5251555932186,1480
2203.415629053651,1481
2205.3056604441986,1541
2207.19525004167,1573
2209.084398122958,1508
2210.9731049650327,1544
2212.861370844941,1519
2214.749196039812,1522
2216.636580826851,1506
2218.523525483344,1507
2220.410030286655,1513
2222.296095514226,1506
2224.1817214435805,1522
2226.066908352319,1450
2227.951656518121,1481
2229.835966218746,1445
2231.71983773203,1516
2233.6032713358913,1579
2235.486267308324,1512
2237.3688259274036,1507
2239.2509474712824,1445
2241.132632218193,1494
2243.013880446447,1519
2244.8946924344323,1517
2246.7750684606203,1471
2248.6550088035574,1592
2250.534513741871,1555
2252.413583554265,1419
2254.292218519526,1524
2256.170418916517,1507
2258.0481850241786,1529
2259.925517121534,1492
2261.8024154876825,1452
2263.678880401803,1524
2265.5549121431536,1520
2267.430510991071,1467
2269.305677224971,1466
2271.180411124348,1461
2273.0547129687766,1427
2274.9285830379076,1418
2276.8020216114737,1439
2278.6750289692845,1413
2280.5476053912294,1418
2282.4197511572766,1486
2284.2914665474727,1535
2286.162751841943,1491
2288.0336073208937,1564
2289.904033264608,1501
2291.774029953448,1483
2293.6435976678554,1458
2295.5127366883517,1464
2297.381447295534,1420
2299.2497297700825,1471
2301.1175843927526,1345
2302.9850114443825,1300
2304.852011205885,1310
2306.7185839582553,1291
2308.5847299825664,1261
2310.4504495599676,1287
2312.3157429716925,1313
2314.1806104990483,1252
2316.0450524234247,1210
2317.9090690262888,1250
2319.772660589186,1262
2321.635827393742,1239
2323.498569721661,1212
2325.3608878547248,1193
2327.2227820747967,1187
2329.0842526638157,1231
2330.945299903803,1214
2332.805924076857,1190
2334.6661254651535,1248
2336.525904350951,1240
2338.3852610165827,1205
2340.244195744464,1160
2342.102708817088,1244
2343.9608005170253,1213
2345.8184711269287,1143
2347.675720929526,1204
2349.532550207628,1209
2351.38895924412,1237
2353.24494832197,1247
2355.100517724223,1241
2356.955667734004,1238
2358.810398634514,1244
2360.664710709037,1252
2362.5186042409337,1197
2364.3720795136437,1250
2366.225136810686,1197
2368.0777764156583,1192
2369.929998612237,1215
2371.7818036841777,1272
2373.633191915315,1186
2375.484163589562,1224
2377.3347189909114,1246
2379.184858403434,1243
2381.03458211128,1273
2382.8838903986775,1171
2384.732783549936,1162
2386.5812618494406,1222
2388.4293255816588,1209
2390.2769750311327,1292
2392.1242104824883,1242
2393.971032220427,1151
2395.8174405297295,1175
2397.6634356952563,1226
2399.509018001947,1236
2401.3541877348193,1247
2403.1989451789705,1270
2405.043290619576,1218
2406.8872243418905,1233
2408.730746631247,1211
2410.5738577730594,1243
2412.4165580528183,1229
2414.258847756095,1285
2416.100727168537,1234
2417.9421965758734,1185
2419.783256263912,1215
2421.623906518538,1186
2423.4641476257157,1243
2425.303979871491,1250
2427.143403541984,1243
2428.9824189233977,1229
2430.821026302012,1179
2432.6592259641866,1234
2434.497018196361,1310
2436.33440328505,1192
2438.171381516851,1221
2440.00795317844,1279
2441.844118556569,1186
2443.6798779380724,1223
2445.5152316098606,1236
2447.3501798589255,1275
2449.1847229723357,1229
2451.0188612372403,1221
2452.8525949408663,1251
2454.6859243705203,1251
2456.518849813587,1268
2458.3513715575314,1242
2460.183489889895,1196
2462.015205098301,1200
2463.8465174704493,1223
2465.67742729412,1255
2467.5079348571717,1240
2469.338040447542,1239
2471.1677443532476,1182
2472.9970468623833,1219
2474.825948263123,1185
2476.6544488437207,1226
2478.482548892508,1190
2480.310248697896,1199
2482.137548548374,1256
2483.9644487325118,1197
2485.790949538956,1179
2487.617051256433,1209
2489.44275417375,1186
2491.26805857979,1236
2493.0929647635157,1211
2494.917473013971,1229
2496.741583620276,1237
2498.5652968716304,1211
2500.3886130573137,1223
2502.2115324666834,1177
2504.0340553891765,1166
2505.856182114308,1193
2507.6779129316733,1208
2509.499248130945,1212
2511.3201880018764,1231
2513.140732834298,1159
2514.9608829181198,1219
2516.780638543331,1194
2518.6,1206
2520.418967578273,1216
2522.237541568376,1238
2524.0557222606144,1219
2525.8735099453706,1187
2527.6909049131086,1188
2529.507907454368,1201
2531.32451785977,1257
2533.140736420014,1244
2534.9565634258774,1185
2536.771999168218,1187
2538.5870439379714,1252
2540.4016980261526,1224
2542.2159617238544,1243
2544.02983532225,1188
2545.8433191125914,1233
2547.656413386209,1209
2549.4691184345115,1221
2551.2814345489874,1198
2553.093362021204,1194
2554.904901142808,1169
2556.716052205523,1253
2558.526815501153,1230
2560.3371913215824,1181
2562.147179958771,1198
2563.956781704761,1207
2565.7659968516705,1227
2567.5748256916986,1277
2569.3832685171224,1262
2571.1913256202984,1180
2572.9989972936614,1242
2574.806283829725,1184
2576.613185521084,1230
2578.4197026604074,1206
2580.2258355404483,1185
2582.031584454035,1205
2583.836949694077,1269
2585.6419315535613,1262
2587.4465303255533,1221
2589.2507463032002,1202
2591.0545797797245,1227
2592.8580310484303,1174
2594.6611004026995,1221
2596.463788135992,1246
2598.266094541849,1229
2600.0680199138874,1238
2601.869564545807,1256
2603.670728731383,1246
2605.4715127644704,1185
2607.2719169390048,1210
2609.071941548998,1207
2610.8715868885433,1230
2612.670853251811,1211
2614.469740933052,1239
2616.268250226594,1257
2618.0663814268455,1241
2619.864134828292,1224
2621.6615107255006,1245
2623.458509413115,1186
2625.2551311858597,1274
2627.0513763385347,1200
2628.8472451660223,1222
2630.6427379632833,1228
2632.4378550253564,1198
2634.232596647359,1214
2636.026963124488,1204
2637.8209547520187,1208
2639.6145718253065,1235
2641.407814639785,1154
2643.200683490966,1225
2644.9931786744414,1293
2646.7853004858807,1262
2648.577049221034,1250
2650.3684251757277,1250
2652.1594286458712,1210
2653.9500599274484,1223
2655.740319316525,1204
2657.5302071092437,1200
2659.3197236018286,1207
2661.10886909058,1166
2662.8976438718782,1242
2664.686048242183,1272
2666.4740824980327,1213
2668.2617469360443,1232
2670.0490418529134,1262
2671.8359675454153,1206
2673.622524310403,1205
2675.408712444811,1227
2677.1945322456495,1213
2678.979984010009,1222
2680.76506803506,1244
2682.5497846180497,1202
2684.334134056306,1239
2686.1181166472343,1235
2687.9017326883213,1272
2689.6849824771293,1241
2691.4678663113013,1253
2693.2503844885596,1231
2695.032537306705,1177
2696.8143250636167,1240
2698.5957480572542,1255
2700.3768065856534,1210
2702.1575009469316,1256
2703.937831439283,1245
2705.717798360982,1221
2707.4974020103837,1193
2709.276642685917,1250
2711.055520686095,1190
2712.834036309506,1229
2714.612189854819,1202
2716.389981620782,1210
2718.1674119062204,1171
2719.944481010041,1254
2721.721189231226,1257
2723.4975368688415,1207
2725.273524222027,1234
2727.0491515900053,1234
2728.824419272075,1234
2730.5993275676146,1270
2732.3738767760838,1211
2734.148067197016,1199
2735.921899130031,1168
2737.6953728748194,1219
2739.468488731156,1214
2741.2412469988926,1182
2743.0136479779617,1224
2744.785691968372,1202
2746.5573792702116,1201
2748.3287101836504,1238
2750.099685008934,1236
2751.870304046388,1280
2753.640567596418,1189
2755.4104759595057,1231
2757.1800294362156,1206
2758.949228327187,1215
2760.7180729331412,1202
2762.486563554877,1170
2764.254700493272,1234
2766.022484049284,1185
2767.789914523947,1255
2769.5569922183786,1219
2771.3237174337705,1250
2773.090090471394,1214
2774.8561116326036,1175
2776.6217812188274,1186
2778.3870995315756,1198
2780.1520668724356,1216
2781.9166835430747,1202
2783.6809498452394,1210
2785.444866080754,1237
2787.2084325515225,1255
2788.971649559527,1250
2790.73451740683,1234
2792.4970363955713,1151
2794.2592068279705,1172
2796.0210290063264,1177
2797.7825032330147,1224
2799.543629810493,1199
2801.304409041296,1166
2803.0648412280366,1260
2804.8249266734088,1246
2806.5846656801846,1238
2808.344058551212,1240
2810.1031055894246,1234
2811.8618070978273,1254
2813.6201633795085,1226
2815.378174737636,1245
2817.1358414754536,1179
2818.893163896285,1221
2820.6501423035334,1249
2822.4067770006814,1235
2824.1630682912883,1228
2825.9190164789957,1284
2827.6746218675207,1198
2829.429884760661,1220
2831.184805462294,1273
2832.9393842763743,1225
2834.693621506936,1267
2836.4475174580916,1206
2838.201072434034,1225
2839.954286739034,1214
2841.707160677441,1236
2843.459694553685,1209
2845.2118886722724,1232
2846.96374333779,1202
2848.7152588549034,1279
2850.4664355283567,1275
2852.217273662973,1248
2853.9677735636546,1259
2855.7179355353833,1287
2857.4677598832186,1217
2859.217246912299,1273
2860.9663969278427,1195
2862.715210235146,1224
2864.4636871395846,1200
2866.211827946614,1246
2867.9596329617652,1260
2869.7071024906536,1264
2871.4542368389684,1223
2873.20103631248,1293
2874.947501217038,1198
2876.6936318585695,1215
2878.4394285430812,1224
2880.1848915766604,1247
2881.9300212654707,1192
2883.6748179157553,1198
2885.4192818338374,1179
2887.1634133261173,1249
2888.907212699077,1245
2890.6506802592744,1256
2892.393816313348,1244
2894.1366211680142,1229
2895.8790951300693,1270
2897.621238506388,1202
2899.363051603925,1202
2901.1045347297118,1242
2902.8456881908596,1262
2904.58651229456,1253
2906.327007348081,1248
2908.067173658772,1206
2909.8070115340597,1232
2911.5465212814497,1174
2913.285703208527,1254
2915.0245576229563,1224
2916.7630848324807,1246
2918.5012851449196,1237
2920.2391588681758,1227
2921.976706310227,1244
2923.7139277791334,1198
2925.4508235830313,1171
2927.187394030137,1250
2928.923639428745,1313
2930.6595600872306,1286
2932.395156314046,1254
2934.1304284177218,1244
2935.8653767068713,1261
2937.6000014901815,1220
2939.3343030764227,1226
2941.068281774442,1249
2942.8019378931644,1193
2944.5352717415976,1205
2946.2682836288236,1318
2948.0009738640065,1254
2949.7333427563885,1182
2951.465390615289,1239
2953.1971177501086,1225
2954.9285244703265,1248
2956.6596110855,1220
2958.3903779052657,1230
2960.1208252393385,1285
2961.8509533975125,1212
2963.5807626896617,1270
2965.3102534257378,1223
2967.0394259157715,1231
2968.768280469873,1217
2970.496817398232,1192
2972.2250370111146,1188
2973.952939618869,1246
2975.6805255319196,1265
2977.4077950607707,1287
2979.134748516006,1246
2980.861386208289,1168
2982.587708448359,1208
2984.313715547037,1214
2986.039407815222,1188
2987.764785563891,1211
2989.489849104102,1249
2991.2145987469908,1244
2992.9390348037705,1237
2994.6631575857346,1236
2996.3869674042576,1180
2998.1104645707887,1193
2999.83364939686,1224
3001.5565221940783,1209
3003.2790832741334,1217
3005.0013329487924,1245
3006.7232715298996,1146
3008.4448993293804,1177
3010.166216659239,1194
3011.887223831558,1229
3013.607921158498,1264
3015.3283089522993,1218
3017.0483875252826,1221
3018.7681571898443,1233
3020.4876182584626,1259
3022.2067710436927,1255
3023.9256158581707,1251
3025.644153014609,1229
3027.362382825801,1222
3029.0803056046193,1221
3030.797921664012,1240
3032.5152313170106,1221
3034.2322348767225,1199
3035.9489326563353,1150
3037.665324969115,1218
3039.3814121284063,1231
3041.097194447633,1224
3042.812672240299,1212
3044.5278458199855,1194
3046.2427155003525,1176
3047.9572815951406,1237
3049.671544418167,1234
3051.38550428333,1233
3053.0991615046073,1196
3054.812516396051,1228
3056.5255692717974,1205
3058.2383204460575,1143
3059.9507702331257,1209
3061.662918947372,1232
3063.3747669032446,1178
3065.0863144152736,1256
3066.7975617980674,1195
3068.508509366309,1187
3070.219157434767,1191
3071.9295063182844,1205
3073.639556331785,1200
3075.3493077902704,1237
3077.058761008821,1235
3078.7679163025964,1188
3080.476773986837,1216
3082.1853343768594,1244
3083.89359778806,1163
3085.6015645359153,1227
3087.3092349359786,1187
3089.016609303884,1242
3090.7236879553434,1236
3092.4304712061476,1201
3094.136959372166,1206
3095.843152769349,1195
3097.5490517137237,1196
3099.2546565213966,1185
3100.959967508554,1232
3102.66498499146,1137
3104.3697092864577,1205
3106.0741407099695,1206
3107.778279578498,1209
3109.482126208622,1168
3111.1856809170004,1147
3112.8889440203716,1158
3114.5919158355528,1227
3116.294596679439,1185
3117.996986869006,1239
3119.6990867213062,1216
3121.4008965534726,1238
3123.102416682717,1233
3124.803647426329,1232
3126.5045891016784,1199
3128.205242026213,1192
3129.90560651746,1232
3131.605682893025,1165
3133.3054714705922,1200
3135.0049725679282,1210
3136.7041865028714,1233
3138.4031135933465,1221
3140.101754157353,1199
3141.800108512971,1260
3143.498176978357,1240
3145.1959598717494,1169
3146.8934575114636,1208
3148.5906702158954,1161
3150.2875983035183,1174
3151.9842420928853,1199
3153.680601902627,1242
3155.376678051456,1203
3157.07247085816,1170
3158.767980641609,1153
3160.463207720748,1167
3162.158152414606,1241
3163.8528150422862,1218
3165.5471959229726,1256
3167.2412953759303,1239
3168.9351137204976,1194
3170.628651276098,1254
3172.3219083622307,1253
3174.014885298474,1225
3175.707582404485,1233
3177.4000000000005,1233
3179.092138404835,1234
3180.7839979388846,1233
3182.47557892212,1263
3184.166881674594,1263
3185.8579065164386,1180
3187.5486537678626,1230
3189.2391237491547,1236
3190.9293167806827,1170
3192.6192331828934,1200
3194.3088732763117,1187
3195.998237381542,1191
3197.687325819268,1138
3199.376138910251,1192
3201.064676975334,1123
3202.7529403354347,1200
3204.4409293115523,1182
3206.1286442247647,1202
3207.816085396229,1166
3209.5032531471825,1188
3211.190147798936,1224
3212.8767696728846,1205
3214.5631190905015,1186
3216.2491963733373,1205
3217.9350018430214,1170
3219.6205358212637,1128
3221.305798629851,1182
3222.990790590651,1218
3224.6755120256103,1198
3226.359963256751,1168
3228.0441446061795,1127
3229.7280563960758,1177
3231.411698948703,1229
3233.0950725863995,1160
3234.778177631587,1183
3236.461014406761,1216
3238.1435832345005,1265
3239.8258844374595,1253
3241.507918338374,1213
3243.1896852600576,1193
3244.8711855254023,1181
3246.552419457381,1176
3248.233387379042,1200
3249.914089613516,1219
3251.59452648401,1181
3253.274698313813,1209
3254.95460542629,1214
3256.6342481448855,1148
3258.313626793125,1165
3259.9927416946084,1168
3261.6715931730196,1184
3263.3501815521176,1148
3265.0285071557437,1201
3266.706570307815,1172
3268.3843713323286,1218
3270.0619105533615,1233
3271.739188295068,1216
3273.4162048816834,1214
3275.0929606375184,1187
3276.769455886966,1207
3278.445690954498,1200
3280.1216661646613,1157
3281.797381842087,1238
3283.4728383114807,1188
3285.1480358976296,1196
3286.8229749253996,1203
3288.4976557197333,1209
3290.172078605655,1198
3291.846243908266,1195
3293.5201519527463,1205
3295.193803064357,1139
3296.8671975684374,1173
3298.5403357904024,1169
3300.21321805575,1245
3301.8858446900567,1220
3303.558216018975,1196
3305.23033236824,1204
3306.9021940636603,1218
3308.57380143113,1193
3310.2451547966184,1202
3311.916254486174,1203
3313.5871008259246,1145
3315.2576941420766,1217
3316.9280347609147,1212
3318.5981230088046,1185
3320.2679592121895,1155
3321.9375436975924,1152
3323.606876791612,1172
3325.27595882093,1168
3326.944790112305,1172
3328.6133709925753,1148
3330.2817017886573,1202
3331.949782827547,1145
3333.617614436319,1207
3335.2851969421245,1174
3336.952530672199,1174
3338.619615953853,1174
3340.286453114475,1213
3341.9530424815357,1196
3343.619384382583,1175
3345.2854791452437,1186
3346.951327097224,1236
3348.6169285663073,1230
3350.2822838803577,1236
3351.947393367319,1218
3353.61225735521,1223
3355.2768761721345,1209
3356.9412501462693,1132
3358.605379605873,1211
3360.2692648792827,1227
3361.9329062949146,1219
3363.596304181263,1161
