CollectionTime,7/10/2024 4:05:00 PM
ExposureUsed,3
CalibratedSpectrum
-962.7078968117929,530
-959.9714848408522,552
-957.2358232597828,592
-954.5009119013725,593
-951.7667505983302,584
-949.0333391832855,571
-946.3006774887896,600
-943.5687653473143,602
-940.837602591253,586
-938.1071890529199,564
-935.3775245645503,566
-932.6486089583007,581
-929.9204420662485,608
-927.1930237203925,595
-924.4663537526524,585
-921.7404319948689,600
-919.0152582788041,608
-916.2908324361409,610
-913.5671542984834,624
-910.8442236973568,590
-908.1220404642074,601
-905.4006044304027,591
-902.679915427231,595
-899.959973285902,582
-897.2407778375464,573
-894.5223289132158,573
-891.8046263438832,597
-889.0876699604426,589
-886.3714595937089,570
-883.6559950744183,541
-880.9412762332282,561
-878.2273029007168,592
-875.5140749073835,564
-872.8015920836489,535
-870.0898542598545,585
-867.3788612662631,577
-864.6686129330585,593
-861.9591090903457,543
-859.2503495681506,559
-856.5423341964203,564
-853.8350628050229,597
-851.1285352237478,632
-848.4227512823054,588
-845.7177108103272,613
-843.0134136373656,594
-840.3098595928943,571
-837.6070485063082,624
-834.9049802069229,607
-832.2036545239757,638
-829.5030712866244,605
-826.8032303239481,619
-824.1041314649472,608
-821.4057745385428,589
-818.7081593735775,587
-816.0112857988148,570
-813.3151536429393,573
-810.6197627345566,611
-807.9251129021936,566
-805.2312039742981,603
-802.5380357792392,574
-799.8456081453069,595
-797.1539209007124,581
-794.462973873588,614
-791.772766891987,615
-789.083299783884,588
-786.3945723771743,600
-783.7065844996748,597
-781.0193359791231,589
-778.3328266431781,620
-775.6470563194197,636
-772.9620248353489,625
-770.2777320183878,560
-767.5941776958798,564
-764.9113616950891,624
-762.2292838432011,613
-759.5479439673222,612
-756.8673418944801,593
-754.1874774516235,619
-751.5083504656222,593
-748.8299607632671,626
-746.15230817127,596
-743.475392516264,624
-740.7992136248035,660
-738.1237713233636,585
-735.4490654383407,598
-732.7750957960521,665
-730.1018622227365,670
-727.4293645445534,662
-724.7576025875837,588
-722.0865761778291,653
-719.4162851412126,655
-716.7467293035781,638
-714.0779084906909,619
-711.409822528237,632
-708.7424712418238,656
-706.0758544569796,609
-703.4099719991541,619
-700.7448236937178,682
-698.0804093659622,674
-695.4167288411002,642
-692.7537819442656,684
-690.0915685005134,650
-687.4300883348199,655
-684.7693412720819,645
-682.1093271371178,668
-679.4500457546669,626
-676.7914969493897,639
-674.1336805458676,687
-671.4765963686034,669
-668.8202442420206,675
-666.1646239904642,664
-663.5097354382001,694
-660.8555784094151,669
-658.2021527282176,683
-655.5494582186366,663
-652.8974947046223,679
-650.2462620100463,714
-647.5957599587009,671
-644.9459883742998,700
-642.2969470804776,682
-639.6486359007902,697
-637.0010546587141,746
-634.3542031776476,730
-631.7080812809096,696
-629.0626887917401,695
-626.4180255333008,702
-623.7740913286734,715
-621.1308860008619,743
-618.4884093727904,727
-615.8466612673046,709
-613.2056415071715,704
-610.5653499150785,667
-607.9257863136347,699
-605.28695052537,731
-602.6488423727357,670
-600.0114616781036,725
-597.3748082637674,724
-594.7388819519412,700
-592.1036825647604,721
-589.4692099242818,789
-586.8354638524829,764
-584.2024441712624,696
-581.5701507024403,722
-578.9385832677575,742
-576.3077416888759,712
-573.6776257873787,712
-571.0482353847704,742
-568.4195703024757,710
-565.7916303618415,740
-563.164415384135,736
-560.5379251905453,726
-557.9121596021815,722
-555.2871184400748,754
-552.6628015251767,772
-550.0392086783606,729
-547.4163397204204,761
-544.794194472071,696
-542.1727727539491,771
-539.5520743866118,775
-536.9320991905377,798
-534.3128469861261,884
-531.6943175936979,852
-529.0765108334947,825
-526.4594265256793,855
-523.8430644903358,994
-521.2274245474689,1141
-518.612506517005,1199
-515.9983102187913,1157
-513.3848354725959,1202
-510.77208209810846,1193
-508.16004991493924,1298
-505.5487387426199,1464
-502.9381484006032,1610
-500.3282787082628,1656
-497.71912948489364,1648
-495.1107005497117,1534
-492.5029917218539,1396
-489.8960028203786,1298
-487.28973366426493,1153
-484.68418407241325,1106
-482.07935386364494,1033
-479.47524285670266,947
-476.87185087025,986
-474.2691777228715,964
-471.66722323307334,1007
-469.0659872192821,981
-466.4654694998459,934
-463.86566989303384,924
-461.26658821703614,1012
-458.66822428996414,951
-456.07057792985,941
-453.4736489546475,969
-450.877437182231,947
-448.28194243039627,921
-445.68716451686,885
-443.09310325926003,925
-440.49975847515555,894
-437.9071299820263,902
-435.31521759727354,921
-432.72402113821954,925
-430.13354042210767,913
-427.5437752661022,940
-424.95472548728867,927
-422.36639090267386,961
-419.7787713291855,1009
-417.1918665836721,1024
-414.60567648290385,998
-412.0202008435715,968
-409.4354394822874,967
-406.8513922155845,976
-404.26805885991723,1000
-401.685439231661,986
-399.103533147112,1032
-396.522340422488,999
-393.9418608739278,995
-391.3620943174908,1020
-388.7830405691583,1005
-386.2046994448317,963
-383.6270707603344,943
-381.05015433141045,880
-378.473949973725,783
-375.8984575028645,785
-373.32367673433623,735
-370.74960748356875,712
-368.1762495659117,688
-365.60360279663576,646
-363.03166699093265,556
-360.4604419639154,548
-357.8899275306178,521
-355.32012350599507,501
-352.7510297049233,531
-350.1826459421999,495
-347.61497203254316,476
-345.04800779059235,499
-342.4817530309082,482
-339.91620756797226,486
-337.35137121618743,487
-334.7872437898774,497
-332.22382510328725,503
-329.66111497058273,556
-327.09911320585127,496
-324.53781962310075,501
-321.9772340362607,501
-319.4173562591816,492
-316.8581861056348,459
-314.2997233893127,452
-311.7419679238294,451
-309.1849195227194,512
-306.62857799943856,523
-304.0729431673641,517
-301.51801483979375,523
-298.963792829947,539
-296.41027695096386,548
-293.85746701590574,599
-291.3053628377552,631
-288.7539642294155,600
-286.2032710037115,549
-283.65328297338897,572
-281.1039999511146,668
-278.5554217494762,703
-276.007548180983,577
-273.4603790580651,589
-270.9139141930734,601
-268.3681533982807,612
-265.8230964858798,650
-263.27874326798565,657
-260.7350935566336,644
-258.1921471637804,696
-255.6499039013039,683
-253.10836358100266,658
-250.56752601459698,627
-248.02739101372765,618
-245.48795838995704,646
-242.94922795476816,632
-240.41119951956557,631
-237.8738728956746,693
-235.33724789434166,716
-232.80132432673452,711
-230.2661020039418,643
-227.73158073697357,649
-225.19776033676033,660
-222.66464061415422,695
-220.1322213799284,716
-217.60050244477725,708
-215.06948361931552,672
-212.53916471408013,709
-210.00954553952818,761
-207.48062590603843,742
-204.9524056239104,742
-202.4248845033651,795
-199.8980623545441,740
-197.37193898751036,800
-194.84651421224817,817
-192.32178783866232,765
-189.79775967657952,858
-187.27442953574644,858
-184.7517972258321,924
-182.2298625564256,879
-179.7086253370378,845
-177.18808537710026,792
-174.66824248596583,818
-172.14909647290835,839
-169.6306471471229,832
-167.11289431772548,865
-164.59583779375328,922
-162.07947738416453,1016
-159.5638128978386,880
-157.04884414357605,919
-154.53457093009854,941
-152.02099306604828,893
-149.50811035998936,852
-146.99592262040665,889
-144.48442965570587,932
-141.97363127421409,916
-139.46352728417958,1055
-136.95411749377126,948
-134.44540171107985,959
-131.93737974411636,966
-129.43005140081357,894
-126.92341648902493,1133
-124.41747481652521,1298
-121.91222619101006,1577
-119.40767042009657,1920
-116.90380731132257,2197
-114.40063667214702,2461
-111.8981583099503,2779
-109.3963720320337,2640
-106.89527764561933,2006
-104.39487495785067,1596
-101.89516377579241,1720
-99.39614390642998,3317
-96.89781515667039,4487
-94.40017733334128,4449
-91.90323024319173,3405
-89.40697369289148,2924
-86.91140748903172,3974
-84.41653143812482,4860
-81.92234534660395,5134
-79.42884902082358,5674
-76.93604226705907,8896
-74.4439248915071,15611
-71.95249670028534,23379
-69.46175749943245,27575
-66.97170709490854,27452
-64.48234529259423,22535
-61.99367189829195,18499
-59.50568671772464,13802
-57.01838955653636,9692
-54.53178022029283,11122
-52.045858514480074,14289
-49.560624244506016,15292
-47.07607721569923,15619
-44.59221723330904,14908
-42.10904410250669,15198
-39.62655762838392,14411
-37.14475761595372,15929
-34.66364387015028,17853
-32.18321619582866,17111
-29.70347439776515,14973
-27.224418280657005,14174
-24.74604764912317,12924
-22.26836230770266,15354
-19.7913620608565,25832
-17.315046712966478,45767
-14.83941606833514,62331
-12.36446993118659,65038
-9.89020810566592,65038
-7.416630395839093,65038
-4.94373660569363,65038
-2.471526539137585,65038
-6.821210263296962E-13,65038
2.47084320796705,65038
4.941003281093458,65038
7.410480415786196,65038
9.879274808531363,65038
12.347386655893956,65038
14.814816154518212,65038
17.28156350112681,65038
19.74762889252179,65038
22.21301252558385,65038
24.67771459727237,21235
27.141735304626195,4488
29.605074844762612,2697
32.06773341487792,2995
34.52971121224755,2946
36.99100843422559,3170
39.45162527824516,2622
41.91156194181792,2111
44.370818622535126,1751
46.82939551806646,1625
49.287292826160524,1601
51.74451074464503,1992
54.201049471426245,2251
56.65690920448981,1849
59.112090141899785,1554
61.56659248179983,1601
64.02041642241159,1394
66.4735621620365,1219
68.92602989905402,1237
71.37781983192338,1129
73.82893215918205,1374
76.27936707944684,1477
78.72912479141326,1371
81.17820549385567,1339
83.62660938562783,1218
86.07433666566146,1247
88.5213875329681,1126
90.96776218663751,1021
93.41346082583925,1061
95.85848364982041,1236
98.30283085790859,1414
100.7465026495089,1205
103.18949922410604,1118
105.63182078126385,1052
108.07346752062438,1142
110.51443964190923,1206
112.95473734491827,1092
115.39436082953114,928
117.83331029570547,993
120.27158594347827,1214
122.7091879729652,1527
125.1461165843615,1398
127.58237197794062,1129
130.01795435405518,1033
132.4528639131364,1012
134.88710085569494,1030
137.32066538231982,956
139.75355769367923,918
142.1857779905207,887
144.61732647366978,887
147.04820334403132,877
149.47840880258934,883
151.90794305040674,949
154.33680628862487,1162
156.76499871846443,1360
159.19252054122433,1552
161.61937195828352,1626
164.04555317109896,1643
166.47106438120693,1804
168.89590579022217,2035
171.320077599839,2072
173.7435800118302,2231
176.16641322804742,2414
178.58857745042144,2514
181.01007288096173,2720
183.43089972175687,2614
185.85105817497413,2619
188.27054844285988,2678
190.6893707277394,2545
193.10752523201643,2728
195.5250121581745,2679
197.9418317087751,2666
200.3579840864594,2691
202.7734694939469,2641
205.18828813403627,2826
207.6024402096051,2874
210.01592592360964,2913
212.42874547908548,2892
214.84089907914665,2847
217.2523869269868,2815
219.66320922587727,2798
222.0733661791695,2777
224.48285799029293,2791
226.8916848627572,2782
229.29984700014882,2815
231.7073446061355,2769
234.11417788446204,2674
236.520347038953,2732
238.92585227351185,2828
241.33069379212054,2933
243.73487179884035,2913
246.1383864978112,3116
248.541238093252,2913
250.9434267894609,2851
253.34495279081432,2931
255.74581630176783,2908
258.1460175268563,2932
260.54555667069314,2950
262.9444339379703,2881
265.3426495334594,2943
267.7402036620107,2821
270.1370965285529,2851
272.53332833809407,2806
274.9288992957214,2707
277.32380960660055,2731
279.718059475976,2793
282.1116491091717,2651
284.5045787115897,2619
286.89684848871195,2624
289.2884586460981,2667
291.67940938938807,2738
294.0697009242996,2696
296.4593334566299,2676
298.84830719225477,2654
301.23662233712923,2575
303.6242790972866,2618
306.01127767884,2559
308.39761828798066,2597
310.78330113097934,2562
313.16832641418534,2427
315.5526943440269,2409
317.9364051270112,2466
320.3194589697242,2323
322.70185607883093,2392
325.0835966610754,2447
327.4646809232805,2340
329.8451090723478,2359
332.2248813152577,2344
334.6039978590701,2280
336.9824589109231,2296
339.36026467803447,2309
341.7374153677,2192
344.113911187295,2331
346.48975234427337,2355
348.8649390461686,2317
351.2394715005918,2225
353.61334991523415,2170
355.9865744978655,2196
358.35914545633375,2194
360.73106299856715,2207
363.10232733257146,2259
365.47293866643247,2247
367.84289720831396,2149
370.2122031664593,2179
372.5808567491905,2282
374.9488581649083,2201
377.31620762209275,2133
379.6829053293021,2129
382.0489514951745,2104
384.4143463284262,2046
386.7790900378528,2143
389.14318283232853,2089
391.50662492080653,2047
393.86941651231916,2063
396.23155781597745,2132
398.5930490409713,2128
400.9538903965696,2004
403.3140820921202,2160
405.6736243370498,2144
408.03251734086336,2031
410.3907613131465,2138
412.74835646356166,2062
415.10530300185144,2065
417.4616011378372,2140
419.81725108141893,2079
422.1722530425758,1982
424.5266072313656,2063
426.880313857925,2042
429.2333731324701,2007
431.58578526529516,2069
433.9375504667738,2064
436.2886689473588,2125
438.63914091758113,2044
440.9889665880513,2027
443.33814616945835,2086
445.68667987257015,1980
448.03456790823395,1982
450.3818104873759,2052
452.72840782100013,1914
455.07436012019105,2064
457.41966759611057,2049
459.7643304600007,2024
462.10834892318155,1942
464.4517231970525,2030
466.79445349309174,1939
469.1365400228566,1987
471.4779829979826,2020
473.81878263018564,1972
476.15893913125876,2072
478.4984527130747,2047
480.8373235875855,2071
483.17555196682144,2213
485.5131380628919,2183
487.8500820879857,2271
490.1863842543697,2430
492.52204477439034,2506
494.8570638604725,2714
497.1914417251204,2999
499.52517858091653,3282
501.85827464052306,3572
504.19073011668036,3654
506.5225452222086,3622
508.85372017000566,3640
511.18425517304956,3458
513.514150444396,3514
515.8434061971808,4056
518.1720226446176,4860
520.4999999999999,5043
522.8273384766991,4873
525.1540382881666,4547
527.480099647932,4050
529.8055227696037,3452
532.1303078668694,2786
534.454455153496,2416
536.777964843328,2287
539.1008371502907,2214
541.4230722883866,2174
543.744670471698,2161
546.0656319143858,2178
548.3859568306899,2214
550.7056454349294,2131
553.0246979415016,2091
555.3431145648834,1987
557.6608955196306,2096
559.978041020377,2042
562.2945512818363,2120
564.6104265188006,2105
566.9256669461412,2162
569.2402727788082,2145
571.5542442318302,2157
573.8675815203156,2115
576.1802848594508,2150
578.4923544645015,2193
580.8037905508126,2189
583.114593333807,2144
585.4247630289875,2116
587.7342998519354,2108
590.0432040183106,2138
592.3514757438526,2213
594.6591152443794,2133
596.9661227357875,2142
599.2724984340531,2203
601.578242555231,2103
603.8833553154542,2102
606.1878369309362,2149
608.4916876179676,2090
610.7949075929192,2092
613.0974970722403,2138
615.3994562724587,2141
617.7007854101818,2149
620.0014847020951,2028
622.3015543649641,2135
624.6009946156324,2031
626.8998056710224,2172
629.1979877481361,2107
631.4955410640538,2134
633.7924658359349,2112
636.0887622810175,2084
638.3844306166192,2090
640.6794710601358,2084
642.9738838290426,2108
645.2676691408932,2097
647.5608272133207,2065
649.853358264037,2070
652.1452625108324,2129
654.4365401715764,2179
656.7271914642178,2097
659.0172166067838,2139
661.3066158173809,2087
663.5953893141935,2112
665.8835373154867,2138
668.1710600396028,2119
670.4579577049639,2147
672.7442305300709,2144
675.0298787335033,2148
677.3149025339197,2101
679.599302150058,2196
681.8830778007342,2064
684.1662297048437,2083
686.4487580813608,2131
688.7306631493387,2178
691.0119451279091,2112
693.2926042362834,2149
695.5726406937516,2170
697.8520547196814,2207
700.1308465335215,2127
702.4090163547982,2113
704.6865644031171,2089
706.9634908981619,2125
709.2397960596965,2121
711.5154801075631,2045
713.7905432616823,2149
716.0649857420548,2104
718.3388077687592,2082
720.612009561953,2048
722.8845913418733,2112
725.1565533288352,2117
727.427895743234,2089
729.6986188055427,2158
731.9687227363137,2141
734.238207756178,2213
736.5070740858458,2196
738.7753219461066,2140
741.0429515578281,2069
743.3099631419569,2150
745.5763569195191,2124
747.8421331116193,2045
750.1072919394409,2087
752.3718336242467,2103
754.6357583873777,2102
756.8990664502545,2128
759.1617580343765,2104
761.423833361321,2132
763.6852926527457,2122
765.9461361303862,2146
768.206364016058,2169
770.4659765316536,2116
772.7249738991469,2140
774.9833563405886,2100
777.2411240781092,2153
779.4982773339183,2175
781.7548163303044,2127
784.010741289634,2166
786.2660524343538,2221
788.5207499869881,2184
790.7748341701416,2125
793.0283052064964,2175
795.2811633188143,2142
797.5334087299362,2175
799.7850416627813,2152
802.0360623403484,2120
804.2864709857143,2085
806.5362678220353,2116
808.7854530725468,2145
811.0340269605625,2163
813.2819897094754,2152
815.5293415427581,2174
817.77608268396,2152
820.0222133567116,2116
822.2677337847211,2141
824.5126441917765,2084
826.7569448017433,2115
829.0006358385675,2119
831.2437175262731,2216
833.4861900889629,2208
835.7280537508192,2085
837.9693087361026,2162
840.2099552691533,2173
842.4499935743896,2164
844.689423876309,2133
846.9282463994886,2107
849.1664613685833,2172
851.4040690083276,2267
853.6410695435349,2174
855.877463199097,2187
858.1132501999847,2220
860.3484307712487,2204
862.5830051380175,2179
864.8169735254988,2231
867.0503361589791,2212
869.2830932638243,2151
871.5152450654786,2179
873.7467917894654,2162
875.9777336613873,2242
878.2080709069252,2271
880.4378037518389,2243
882.666932421968,2204
884.8954571432301,2206
887.1233781416219,2266
889.3506956432192,2297
891.5774098741766,2275
893.803521060728,2299
896.0290294291852,2264
898.2539352059397,2292
900.4782386174619,2195
902.7019398903011,2227
904.925039251085,2224
907.147536926521,2191
909.3694331433943,2175
911.59072812857,2237
913.8114221089921,2156
916.0315153116827,2245
918.2510079637437,2226
920.4699002923547,2218
922.6881925247761,2195
924.905884888345,2151
927.1229776104793,2118
929.3394709186747,2107
931.555365040506,2162
933.7706602036275,2138
935.9853566357709,2176
938.1994545647489,2134
940.4129542184515,2208
942.6258558248488,2200
944.8381596119883,2050
947.0498658079974,2134
949.2609746410825,2159
951.4714863395287,2140
953.6814011316998,2146
955.8907192460387,2089
958.0994409110671,2146
960.3075663553858,2153
962.5150958076741,2065
964.7220294966913,2138
966.928367651274,2016
969.1341105003388,2020
971.3392582728806,2020
973.5438111979742,2036
975.747769504772,2097
977.9511334225061,2045
980.153903180487,2061
982.3560790081052,1985
984.5576611348289,1964
986.7586497902058,2047
988.9590452038618,2010
991.158847605503,2010
993.3580572249133,1866
995.5566742919558,2041
997.7546990365728,2050
999.952131688785,1936
1002.1489724786926,1892
1004.3452216364743,1892
1006.5408793923874,1812
1008.7359459767691,1908
1010.9304216200343,1874
1013.1243065526781,1950
1015.3176010052733,1845
1017.510305208472,1835
1019.7024193930064,1835
1021.8939437896848,1779
1024.0848786293977,1843
1026.2752241431122,1794
1028.4649805618747,1768
1030.6541481168115,1807
1032.842727039127,1801
1035.0307175601051,1874
1037.2181199111074,1792
1039.4049343235752,1732
1041.591161029029,1743
1043.7768002590683,1795
1045.9618522453698,1722
1048.1463172196918,1710
1050.3301954138697,1793
1052.513487059818,1812
1054.69619238953,1739
1056.8783116350783,1692
1059.0598450286152,1626
1061.2407928023704,1765
1063.4211551886528,1784
1065.6009324198508,1806
1067.780124728432,1730
1069.9587323469414,1766
1072.1367555080046,1766
1074.314194444325,1775
1076.4910493886855,1805
1078.667320573947,1761
1080.843008233051,1722
1083.0181125990161,1763
1085.1926339049414,1731
1087.3665723840027,1667
1089.5399282694575,1696
1091.7127017946405,1783
1093.8848931929647,1718
1096.0565026979243,1691
1098.2275305430899,1630
1100.3979769621128,1703
1102.567842188722,1673
1104.737126456726,1670
1106.9058300000124,1658
1109.0739530525475,1689
1111.2414958483764,1679
1113.4084586216231,1729
1115.5748416064907,1717
1117.7406450372605,1706
1119.9058691482942,1645
1122.0705141740304,1662
1124.2345803489884,1746
1126.3980679077658,1677
1128.5609770850388,1717
1130.7233081155623,1696
1132.8850612341707,1620
1135.0462366757774,1630
1137.2068346753745,1647
1139.3668554680326,1632
1141.526299288901,1677
1143.68516637321,1629
1145.8434569562655,1632
1148.001171273455,1642
1150.158309560244,1599
1152.3148720521767,1628
1154.470858984876,1607
1156.626270594044,1549
1158.7811071154629,1608
1160.9353687849912,1617
1163.089055838569,1649
1165.242168512213,1612
1167.3947070420209,1718
1169.5466716641677,1607
1171.6980626149075,1599
1173.8488801305748,1593
1175.9991244475814,1559
1178.1487958024186,1645
1180.2978944316555,1667
1182.4464205719428,1654
1184.5943744600072,1604
1186.7417563326567,1605
1188.8885664267755,1633
1191.0348049793297,1663
1193.1804722273619,1634
1195.325568407995,1538
1197.4700937584303,1641
1199.614048515948,1640
1201.7574329179074,1695
1203.900247201746,1613
1206.042491604982,1551
1208.1841663652099,1598
1210.3252717201053,1583
1212.465807907422,1649
1214.6057751649923,1608
1216.7451737307279,1643
1218.8840038426192,1628
1221.0222657387353,1692
1223.1599596572241,1574
1225.2970858363137,1675
1227.4336445143094,1625
1229.5696359295966,1604
1231.705060320639,1649
1233.8399179259786,1692
1235.9742089842384,1638
1238.107933734118,1670
1240.2410924143974,1692
1242.373685263935,1666
1244.5057125216676,1663
1246.6371744266116,1650
1248.7680712178621,1724
1250.898403134593,1660
1253.028170416058,1648
1255.1573733015875,1677
1257.2860120305932,1650
1259.4140868425648,1652
1261.54159797707,1687
1263.6685456737569,1671
1265.7949301723515,1731
1267.9207517126597,1621
1270.046010534565,1649
1272.1707068780306,1664
1274.2948409830983,1716
1276.4184130898889,1679
1278.541423438603,1725
1280.6638722695184,1705
1282.785759822993,1751
1284.9070863394636,1778
1287.0278520594447,1770
1289.1480572235314,1739
1291.2677020723963,1818
1293.3867868467923,1803
1295.5053117875495,1807
1297.623277135579,1768
1299.740683131868,1711
1301.8575300174857,1784
1303.973818033578,1765
1306.0895474213703,1825
1308.2047184221678,1804
1310.3193312773528,1854
1312.4333862283888,1807
1314.5468835168163,1767
1316.659823384255,1713
1318.7722060724045,1694
1320.8840318230418,1816
1322.9953008780249,1763
1325.1060134792888,1757
1327.2161698688478,1794
1329.3257702887959,1730
1331.4348149813054,1783
1333.5433041886276,1737
1335.6512381530933,1788
1337.7586171171101,1786
1339.8654413231675,1769
1341.9717110138317,1757
1344.0774264317488,1812
1346.1825878196432,1809
1348.2871954203192,1766
1350.3912494766587,1756
1352.4947502316231,1738
1354.5976979282532,1747
1356.7000928096686,1699
1358.8019351190665,1814
1360.9032250997243,1762
1363.0039629949988,1788
1365.1041490483235,1716
1367.2037835032133,1748
1369.3028666032606,1747
1371.401398592137,1789
1373.4993797135926,1748
1375.5968102114575,1780
1377.6936903296396,1843
1379.7900203121262,1814
1381.8858004029835,1804
1383.9810308463561,1798
1386.075711886469,1785
1388.1698437676241,1810
1390.2634267342032,1815
1392.356461030667,1827
1394.4489469015557,1817
1396.5408845914872,1796
1398.6322743451592,1850
1400.7231164073469,1798
1402.813411022907,1847
1404.903158436773,1814
1406.9923588939578,1866
1409.0810126395531,1839
1411.1691199187303,1813
1413.2566809767386,1827
1415.343696058907,1881
1417.4301654106425,1829
1419.5160892774315,1827
1421.6014679048399,1873
1423.6863015385125,1878
1425.7705904241707,1876
1427.8543348076178,1945
1429.9375349347342,1831
1432.0201910514802,1863
1434.102303403894,1861
1436.1838722380944,1912
1438.2648978002767,1920
1440.3453803367174,1964
1442.4253200937692,1983
1444.5047173178677,1992
1446.5835722555234,1937
1448.6618851533285,2038
1450.739656257952,2029
1452.8168858161434,2067
1454.8935740747306,2029
1456.96972128062,2074
1459.045327680797,2048
1461.120393522327,2084
1463.1949190523528,2175
1465.2689045180973,2109
1467.3423501668608,2151
1469.415256246024,2190
1471.4876230030463,2278
1473.559450685465,2248
1475.6307395408976,2291
1477.7014898170391,2273
1479.771701761665,2276
1481.8413756226287,2345
1483.9105116478618,2373
1485.9791100853772,2339
1488.0471711832643,2437
1490.1146951896926,2472
1492.1816823529098,2335
1494.2481329212433,2471
1496.3140471430984,2463
1498.3794252669609,2544
1500.4442675413939,2431
1502.5085742150404,2497
1504.572345536622,2433
1506.6355817549388,2595
1508.6982831188702,2560
1510.7604498773744,2632
1512.8220822794883,2555
1514.8831805743293,2602
1516.9437450110909,2736
1519.003775839048,2674
1521.0632733075522,2668
1523.1222376660367,2705
1525.1806691640113,2799
1527.2385680510652,2781
1529.2959345768668,2869
1531.3527689911643,2852
1533.4090715437833,2946
1535.4648424846291,2936
1537.5200820636855,2827
1539.5747905310159,2953
1541.6289681367616,2937
1543.6826151311434,2977
1545.7357317644614,2970
1547.7883182870937,3160
1549.8403749494987,3203
1551.8919020022113,3234
1553.9428996958477,3178
1555.9933682811015,3277
1558.0433080087469,3423
1560.0927191296346,3379
1562.1416018946961,3439
1564.1899565549415,3370
1566.2377833614592,3422
1568.2850825654164,3487
1570.3318544180606,3393
1572.3780991707158,3330
1574.423817074788,3180
1576.4690083817595,3168
1578.5136733431923,3009
1580.5578122107272,2945
1582.601425236085,2795
1584.6445126710646,2666
1586.6870747675434,2552
1588.7291117774776,2609
1590.7706239529034,2404
1592.8116115459347,2426
1594.8520748087658,2298
1596.8920139936686,2253
1598.9314293529933,2252
1600.9703211391711,2203
1603.008689604711,2121
1605.0465350022005,2062
1607.0838575843068,2031
1609.1206576037753,2109
1611.1569353134305,1947
1613.1926909661765,1913
1615.2279248149953,1935
1617.2626371129481,1903
1619.2968281131757,1927
1621.3304980688963,1941
1623.3636472334088,1915
1625.39627586009,1901
1627.428384202396,1897
1629.459972513861,1855
1631.4910410480993,1865
1633.5215900588028,1846
1635.551619799744,1886
1637.5811305247717,1817
1639.6101224878166,1808
1641.6385959428862,1792
1643.6665511440683,1765
1645.693988345528,1760
1647.7209078015112,1794
1649.7473097663405,1759
1651.7731944944203,1843
1653.7985622402307,1784
1655.823413258333,1768
1657.847747803366,1784
1659.8715661300494,1732
1661.8948684931793,1799
1663.9176551476316,1721
1665.9399263483624,1705
1667.9616823504057,1754
1669.982923408873,1773
1672.0036497789574,1720
1674.0238617159293,1774
1676.043559475138,1808
1678.0627433120121,1725
1680.081413482059,1723
1682.0995702408654,1740
1684.117213844096,1783
1686.134344547495,1763
1688.1509626068864,1753
1690.1670682781705,1662
1692.182661817329,1685
1694.1977434804217,1761
1696.2123135235875,1700
1698.226372203043,1738
1700.2399197750851,1727
1702.2529564960905,1769
1704.2654826225112,1719
1706.277498410882,1689
1708.2890041178139,1715
1710.2999999999988,1759
1712.3104863142066,1732
1714.3204633172854,1769
1716.329931266163,1738
1718.3388904178469,1752
1720.3473410294214,1718
1722.3552833580516,1680
1724.3627176609807,1697
1726.3696441955308,1718
1728.3760632191033,1712
1730.3819749891782,1718
1732.3873797633146,1699
1734.3922777991502,1687
1736.3966693544012,1696
1738.4005546868639,1641
1740.4039340544127,1626
1742.406807715001,1705
1744.4091759266616,1732
1746.4110389475054,1729
1748.4123970357223,1694
1750.413250449582,1721
1752.4135994474318,1631
1754.4134442876993,1630
1756.4127852288902,1688
1758.4116225295893,1637
1760.4099564484595,1686
1762.407787244244,1646
1764.405115175764,1682
1766.4019405019203,1704
1768.3982634816916,1644
1770.3940843741357,1649
1772.3894034383907,1628
1774.3842209336717,1593
1776.378537119274,1671
1778.372352254571,1678
1780.3656665990156,1686
1782.3584804121397,1618
1784.3507939535534,1608
1786.3426074829463,1672
1788.3339212600863,1580
1790.3247355448211,1602
1792.3150505970766,1642
1794.3048666768573,1670
1796.2941840442477,1665
1798.2830029594106,1669
1800.2713236825884,1684
1802.2591464741004,1686
1804.2464715943465,1652
1806.2332993038058,1630
1808.2196298630352,1636
1810.2054635326708,1686
1812.190800573428,1680
1814.175641246101,1639
1816.1599858115628,1756
1818.1438345307652,1652
1820.127187664738,1701
1822.1100454745924,1677
1824.092408221516,1703
1826.0742761667766,1657
1828.055649571721,1637
1830.0365286977735,1669
1832.0169138064398,1659
1833.9968051593014,1624
1835.9762030180214,1701
1837.9551076443408,1697
1839.9335193000788,1696
1841.9114382471344,1647
1843.888864747485,1670
1845.8657990631878,1649
1847.842241456378,1605
1849.8181921892697,1683
1851.7936515241558,1585
1853.7686197234098,1611
1855.7430970494815,1663
1857.7170837649014,1609
1859.6905801322787,1608
1861.6635864143004,1667
1863.6361028737338,1607
1865.608129773424,1729
1867.5796673762961,1647
1869.5507159453537,1665
1871.521275743678,1662
1873.4913470344313,1615
1875.4609300808534,1662
1877.4300251462632,1662
1879.3986324940588,1635
1881.366752387717,1708
1883.3343850907936,1676
1885.3015308669228,1634
1887.268189979819,1627
1889.2343626932739,1635
1891.2000492711595,1651
1893.1652499774254,1677
1895.1299650761011,1698
1897.0941948312952,1608
1899.0579395071945,1651
1901.0211993680641,1594
1902.98397467825,1688
1904.9462657021745,1636
1906.9080727043415,1727
1908.869395949332,1638
1910.8302357018065,1734
1912.790592226504,1669
1914.7504657882428,1608
1916.7098566519212,1684
1918.6687650825133,1693
1920.6271913450764,1661
1922.5851357047422,1732
1924.5425984267245,1690
1926.499579776314,1693
1928.4560800188833,1649
1930.4120994198802,1647
1932.367638244833,1638
1934.32269675935,1607
1936.2772752291175,1673
1938.231373919899,1636
1940.1849930975404,1659
1942.1381330279637,1704
1944.0907939771696,1691
1946.0429762112412,1644
1947.9946799963363,1615
1949.9459055986945,1660
1951.896653284633,1665
1953.8469233205478,1664
1955.7967159729142,1605
1957.7460315082863,1602
1959.6948701932974,1654
1961.6432322946594,1669
1963.5911180791632,1623
1965.5385278136787,1555
1967.4854617651545,1602
1969.4319202006182,1651
1971.377903387176,1651
1973.3234115920136,1694
1975.268445082395,1674
1977.2130041256642,1636
1979.1570889892423,1606
1981.1006999406304,1622
1983.04383724741,1604
1984.986501177238,1620
1986.928691997853,1666
1988.8704099770712,1588
1990.811655382789,1585
1992.7524284829801,1661
1994.692729545698,1618
1996.6325588390755,1680
1998.5719166313224,1584
2000.5108031907307,1623
2002.4492187856677,1584
2004.387163684583,1598
2006.3246381560011,1621
2008.2616424685298,1594
2010.1981768908527,1565
2012.1342416917332,1506
2014.069837140014,1654
2016.0049635046162,1577
2017.9396210545406,1625
2019.8738100588666,1573
2021.8075307867502,1521
2023.740783507431,1522
2025.6735684902228,1610
2027.6058860045214,1681
2029.5377363198004,1671
2031.4691197056118,1653
2033.4000364315875,1612
2035.3304867674374,1524
2037.260470982952,1567
2039.189989347998,1576
2041.1190421325232,1569
2043.047629606554,1509
2044.9757520401945,1611
2046.9034097036288,1594
2048.8306028671195,1562
2050.7573318010086,1604
2052.683596775716,1569
2054.609398061742,1558
2056.5347359296647,1610
2058.4596106501403,1600
2060.384022493906,1590
2062.3079717317764,1571
2064.231458634646,1539
2066.1544834734873,1556
2068.077046519352,1630
2069.99914804337,1590
2071.9207883167524,1559
2073.8419676107865,1555
2075.7626861968406,1629
2077.6829443463607,1575
2079.6027423308715,1549
2081.522080421977,1553
2083.440958891362,1576
2085.359378010786,1571
2087.2773380520907,1578
2089.194839287196,1606
2091.111881988101,1542
2093.0284664268825,1585
2094.9445928756973,1617
2096.86026160678,1538
2098.775472892446,1618
2100.690227005088,1594
2102.604524217178,1560
2104.5183648012676,1599
2106.431749029985,1620
2108.34467717604,1619
2110.2571495122206,1561
2112.169166311393,1568
2114.080727846503,1573
2115.9918343905747,1559
2117.902486216711,1571
2119.8126835980956,1576
2121.722426807987,1623
2123.6317161197285,1589
2125.5405518067364,1639
2127.448934142509,1566
2129.356863400624,1626
2131.264339854737,1561
2133.1713637785815,1618
2135.077935445972,1658
2136.9840551308002,1587
2138.889723107037,1656
2140.7949396487334,1606
2142.699705030018,1583
2144.6040195250994,1591
2146.507883408264,1675
2148.4112969538774,1601
2150.3142604363848,1598
2152.2167741303097,1640
2154.1188383102535,1630
2156.0204532508997,1599
2157.9216192270064,1610
2159.822336513414,1669
2161.7226053850413,1686
2163.622426116884,1572
2165.5217989840185,1633
2167.4207242616,1627
2169.319202224862,1657
2171.2172331491165,1662
2173.1148173097563,1690
2175.0119549822507,1672
2176.90864644215,1682
2178.8048919650823,1689
2180.7006918267534,1726
2182.596046302952,1682
2184.4909556695407,1651
2186.3854202024645,1695
2188.279440177746,1660
2190.173015871487,1695
2192.066147559868,1645
2193.958835519149,1633
2195.851080025667,1647
2197.7428813558417,1669
2199.6342397861667,1672
2201.5251555932186,1690
2203.415629053651,1691
2205.3056604441986,1712
2207.19525004167,1718
2209.084398122958,1650
2210.9731049650327,1675
2212.861370844941,1727
2214.749196039812,1628
2216.636580826851,1714
2218.523525483344,1624
2220.410030286655,1701
2222.296095514226,1746
2224.1817214435805,1693
2226.066908352319,1684
2227.951656518121,1680
2229.835966218746,1633
2231.71983773203,1636
2233.6032713358913,1701
2235.486267308324,1702
2237.3688259274036,1677
2239.2509474712824,1704
2241.132632218193,1703
2243.013880446447,1728
2244.8946924344323,1706
2246.7750684606203,1695
2248.6550088035574,1667
2250.534513741871,1732
2252.413583554265,1628
2254.292218519526,1657
2256.170418916517,1680
2258.0481850241786,1694
2259.925517121534,1702
2261.8024154876825,1660
2263.678880401803,1689
2265.5549121431536,1724
2267.430510991071,1725
2269.305677224971,1669
2271.180411124348,1709
2273.0547129687766,1663
2274.9285830379076,1575
2276.8020216114737,1695
2278.6750289692845,1667
2280.5476053912294,1614
2282.4197511572766,1714
2284.2914665474727,1781
2286.162751841943,1685
2288.0336073208937,1773
2289.904033264608,1729
2291.774029953448,1810
2293.6435976678554,1740
2295.5127366883517,1682
2297.381447295534,1598
2299.2497297700825,1624
2301.1175843927526,1671
2302.9850114443825,1551
2304.852011205885,1532
2306.7185839582553,1546
2308.5847299825664,1498
2310.4504495599676,1475
2312.3157429716925,1551
2314.1806104990483,1502
2316.0450524234247,1430
2317.9090690262888,1459
2319.772660589186,1464
2321.635827393742,1515
2323.498569721661,1475
2325.3608878547248,1474
2327.2227820747967,1453
2329.0842526638157,1527
2330.945299903803,1498
2332.805924076857,1455
2334.6661254651535,1384
2336.525904350951,1429
2338.3852610165827,1435
2340.244195744464,1433
2342.102708817088,1392
2343.9608005170253,1381
2345.8184711269287,1469
2347.675720929526,1453
2349.532550207628,1511
2351.38895924412,1450
2353.24494832197,1445
2355.100517724223,1470
2356.955667734004,1522
2358.810398634514,1498
2360.664710709037,1480
2362.5186042409337,1467
2364.3720795136437,1476
2366.225136810686,1463
2368.0777764156583,1411
2369.929998612237,1437
2371.7818036841777,1423
2373.633191915315,1464
2375.484163589562,1455
2377.3347189909114,1440
2379.184858403434,1456
2381.03458211128,1465
2382.8838903986775,1424
2384.732783549936,1492
2386.5812618494406,1456
2388.4293255816588,1477
2390.2769750311327,1433
2392.1242104824883,1459
2393.971032220427,1451
2395.8174405297295,1471
2397.6634356952563,1490
2399.509018001947,1493
2401.3541877348193,1443
2403.1989451789705,1434
2405.043290619576,1418
2406.8872243418905,1459
2408.730746631247,1533
2410.5738577730594,1486
2412.4165580528183,1531
2414.258847756095,1526
2416.100727168537,1438
2417.9421965758734,1480
2419.783256263912,1460
2421.623906518538,1471
2423.4641476257157,1448
2425.303979871491,1462
2427.143403541984,1461
2428.9824189233977,1465
2430.821026302012,1485
2432.6592259641866,1450
2434.497018196361,1423
2436.33440328505,1434
2438.171381516851,1506
2440.00795317844,1488
2441.844118556569,1451
2443.6798779380724,1503
2445.5152316098606,1484
2447.3501798589255,1496
2449.1847229723357,1470
2451.0188612372403,1454
2452.8525949408663,1498
2454.6859243705203,1529
2456.518849813587,1475
2458.3513715575314,1521
2460.183489889895,1491
2462.015205098301,1475
2463.8465174704493,1412
2465.67742729412,1491
2467.5079348571717,1504
2469.338040447542,1510
2471.1677443532476,1445
2472.9970468623833,1485
2474.825948263123,1477
2476.6544488437207,1459
2478.482548892508,1535
2480.310248697896,1470
2482.137548548374,1469
2483.9644487325118,1535
2485.790949538956,1493
2487.617051256433,1535
2489.44275417375,1558
2491.26805857979,1465
2493.0929647635157,1522
2494.917473013971,1581
2496.741583620276,1504
2498.5652968716304,1525
2500.3886130573137,1531
2502.2115324666834,1523
2504.0340553891765,1533
2505.856182114308,1511
2507.6779129316733,1523
2509.499248130945,1525
2511.3201880018764,1500
2513.140732834298,1503
2514.9608829181198,1534
2516.780638543331,1520
2518.6,1518
2520.418967578273,1512
2522.237541568376,1511
2524.0557222606144,1597
2525.8735099453706,1552
2527.6909049131086,1591
2529.507907454368,1529
2531.32451785977,1602
2533.140736420014,1603
2534.9565634258774,1610
2536.771999168218,1608
2538.5870439379714,1550
2540.4016980261526,1557
2542.2159617238544,1578
2544.02983532225,1573
2545.8433191125914,1613
2547.656413386209,1595
2549.4691184345115,1588
2551.2814345489874,1633
2553.093362021204,1619
2554.904901142808,1595
2556.716052205523,1609
2558.526815501153,1653
2560.3371913215824,1680
2562.147179958771,1699
2563.956781704761,1704
2565.7659968516705,1599
2567.5748256916986,1680
2569.3832685171224,1676
2571.1913256202984,1632
2572.9989972936614,1673
2574.806283829725,1683
2576.613185521084,1691
2578.4197026604074,1720
2580.2258355404483,1704
2582.031584454035,1731
2583.836949694077,1706
2585.6419315535613,1728
2587.4465303255533,1720
2589.2507463032002,1724
2591.0545797797245,1787
2592.8580310484303,1712
2594.6611004026995,1740
2596.463788135992,1782
2598.266094541849,1759
2600.0680199138874,1725
2601.869564545807,1755
2603.670728731383,1818
2605.4715127644704,1749
2607.2719169390048,1757
2609.071941548998,1713
2610.8715868885433,1766
2612.670853251811,1786
2614.469740933052,1760
2616.268250226594,1756
2618.0663814268455,1751
2619.864134828292,1766
2621.6615107255006,1841
2623.458509413115,1763
2625.2551311858597,1771
2627.0513763385347,1724
2628.8472451660223,1714
2630.6427379632833,1713
2632.4378550253564,1699
2634.232596647359,1680
2636.026963124488,1662
2637.8209547520187,1744
2639.6145718253065,1686
2641.407814639785,1615
2643.200683490966,1600
2644.9931786744414,1651
2646.7853004858807,1677
2648.577049221034,1630
2650.3684251757277,1677
2652.1594286458712,1623
2653.9500599274484,1596
2655.740319316525,1621
2657.5302071092437,1603
2659.3197236018286,1618
2661.10886909058,1622
2662.8976438718782,1656
2664.686048242183,1578
2666.4740824980327,1580
2668.2617469360443,1581
2670.0490418529134,1590
2671.8359675454153,1566
2673.622524310403,1560
2675.408712444811,1567
2677.1945322456495,1607
2678.979984010009,1559
2680.76506803506,1565
2682.5497846180497,1549
2684.334134056306,1502
2686.1181166472343,1502
2687.9017326883213,1546
2689.6849824771293,1520
2691.4678663113013,1551
2693.2503844885596,1489
2695.032537306705,1475
2696.8143250636167,1515
2698.5957480572542,1472
2700.3768065856534,1516
2702.1575009469316,1474
2703.937831439283,1521
2705.717798360982,1530
2707.4974020103837,1483
2709.276642685917,1529
2711.055520686095,1435
2712.834036309506,1445
2714.612189854819,1464
2716.389981620782,1500
2718.1674119062204,1433
2719.944481010041,1445
2721.721189231226,1459
2723.4975368688415,1472
2725.273524222027,1497
2727.0491515900053,1495
2728.824419272075,1440
2730.5993275676146,1443
2732.3738767760838,1431
2734.148067197016,1435
2735.921899130031,1422
2737.6953728748194,1474
2739.468488731156,1426
2741.2412469988926,1435
2743.0136479779617,1465
2744.785691968372,1413
2746.5573792702116,1488
2748.3287101836504,1403
2750.099685008934,1425
2751.870304046388,1449
2753.640567596418,1522
2755.4104759595057,1443
2757.1800294362156,1452
2758.949228327187,1374
2760.7180729331412,1412
2762.486563554877,1386
2764.254700493272,1458
2766.022484049284,1413
2767.789914523947,1440
2769.5569922183786,1423
2771.3237174337705,1442
2773.090090471394,1458
2774.8561116326036,1470
2776.6217812188274,1450
2778.3870995315756,1444
2780.1520668724356,1459
2781.9166835430747,1459
2783.6809498452394,1386
2785.444866080754,1423
2787.2084325515225,1422
2788.971649559527,1414
2790.73451740683,1477
2792.4970363955713,1394
2794.2592068279705,1340
2796.0210290063264,1415
2797.7825032330147,1402
2799.543629810493,1438
2801.304409041296,1426
2803.0648412280366,1438
2804.8249266734088,1439
2806.5846656801846,1460
2808.344058551212,1449
2810.1031055894246,1446
2811.8618070978273,1420
2813.6201633795085,1452
2815.378174737636,1452
2817.1358414754536,1448
2818.893163896285,1448
2820.6501423035334,1436
2822.4067770006814,1414
2824.1630682912883,1403
2825.9190164789957,1454
2827.6746218675207,1401
2829.429884760661,1472
2831.184805462294,1417
2832.9393842763743,1419
2834.693621506936,1486
2836.4475174580916,1487
2838.201072434034,1398
2839.954286739034,1413
2841.707160677441,1472
2843.459694553685,1439
2845.2118886722724,1419
2846.96374333779,1489
2848.7152588549034,1456
2850.4664355283567,1456
2852.217273662973,1455
2853.9677735636546,1455
2855.7179355353833,1445
2857.4677598832186,1387
2859.217246912299,1373
2860.9663969278427,1343
2862.715210235146,1434
2864.4636871395846,1436
2866.211827946614,1390
2867.9596329617652,1424
2869.7071024906536,1468
2871.4542368389684,1367
2873.20103631248,1448
2874.947501217038,1426
2876.6936318585695,1368
2878.4394285430812,1419
2880.1848915766604,1406
2881.9300212654707,1345
2883.6748179157553,1463
2885.4192818338374,1398
2887.1634133261173,1408
2888.907212699077,1396
2890.6506802592744,1391
2892.393816313348,1414
2894.1366211680142,1405
2895.8790951300693,1421
2897.621238506388,1435
2899.363051603925,1397
2901.1045347297118,1361
2902.8456881908596,1422
2904.58651229456,1430
2906.327007348081,1424
2908.067173658772,1414
2909.8070115340597,1420
2911.5465212814497,1423
2913.285703208527,1444
2915.0245576229563,1475
2916.7630848324807,1389
2918.5012851449196,1334
2920.2391588681758,1413
2921.976706310227,1408
2923.7139277791334,1434
2925.4508235830313,1409
2927.187394030137,1477
2928.923639428745,1414
2930.6595600872306,1428
2932.395156314046,1466
2934.1304284177218,1436
2935.8653767068713,1418
2937.6000014901815,1373
2939.3343030764227,1420
2941.068281774442,1391
2942.8019378931644,1384
2944.5352717415976,1462
2946.2682836288236,1462
2948.0009738640065,1397
2949.7333427563885,1383
2951.465390615289,1414
2953.1971177501086,1467
2954.9285244703265,1417
2956.6596110855,1405
2958.3903779052657,1410
2960.1208252393385,1401
2961.8509533975125,1357
2963.5807626896617,1426
2965.3102534257378,1432
2967.0394259157715,1422
2968.768280469873,1435
2970.496817398232,1443
2972.2250370111146,1419
2973.952939618869,1380
2975.6805255319196,1413
2977.4077950607707,1407
2979.134748516006,1468
2980.861386208289,1481
2982.587708448359,1436
2984.313715547037,1462
2986.039407815222,1383
2987.764785563891,1424
2989.489849104102,1451
2991.2145987469908,1457
2992.9390348037705,1397
2994.6631575857346,1382
2996.3869674042576,1418
2998.1104645707887,1397
2999.83364939686,1367
3001.5565221940783,1370
3003.2790832741334,1445
3005.0013329487924,1376
3006.7232715298996,1397
3008.4448993293804,1378
3010.166216659239,1334
3011.887223831558,1377
3013.607921158498,1396
3015.3283089522993,1394
3017.0483875252826,1376
3018.7681571898443,1442
3020.4876182584626,1374
3022.2067710436927,1407
3023.9256158581707,1398
3025.644153014609,1388
3027.362382825801,1330
3029.0803056046193,1379
3030.797921664012,1408
3032.5152313170106,1452
3034.2322348767225,1400
3035.9489326563353,1384
3037.665324969115,1359
3039.3814121284063,1378
3041.097194447633,1359
3042.812672240299,1376
3044.5278458199855,1393
3046.2427155003525,1396
3047.9572815951406,1421
3049.671544418167,1419
3051.38550428333,1385
3053.0991615046073,1401
3054.812516396051,1404
3056.5255692717974,1443
3058.2383204460575,1391
3059.9507702331257,1406
3061.662918947372,1372
3063.3747669032446,1344
3065.0863144152736,1359
3066.7975617980674,1357
3068.508509366309,1320
3070.219157434767,1402
3071.9295063182844,1409
3073.639556331785,1342
3075.3493077902704,1413
3077.058761008821,1458
3078.7679163025964,1387
3080.476773986837,1451
3082.1853343768594,1414
3083.89359778806,1381
3085.6015645359153,1421
3087.3092349359786,1394
3089.016609303884,1348
3090.7236879553434,1439
3092.4304712061476,1424
3094.136959372166,1410
3095.843152769349,1411
3097.5490517137237,1393
3099.2546565213966,1468
3100.959967508554,1405
3102.66498499146,1436
3104.3697092864577,1442
3106.0741407099695,1449
3107.778279578498,1351
3109.482126208622,1409
3111.1856809170004,1425
3112.8889440203716,1429
3114.5919158355528,1414
3116.294596679439,1449
3117.996986869006,1421
3119.6990867213062,1416
3121.4008965534726,1430
3123.102416682717,1438
3124.803647426329,1445
3126.5045891016784,1402
3128.205242026213,1435
3129.90560651746,1426
3131.605682893025,1433
3133.3054714705922,1419
3135.0049725679282,1421
3136.7041865028714,1455
3138.4031135933465,1401
3140.101754157353,1431
3141.800108512971,1427
3143.498176978357,1410
3145.1959598717494,1427
3146.8934575114636,1399
3148.5906702158954,1415
3150.2875983035183,1376
3151.9842420928853,1417
3153.680601902627,1396
3155.376678051456,1393
3157.07247085816,1330
3158.767980641609,1385
3160.463207720748,1432
3162.158152414606,1387
3163.8528150422862,1378
3165.5471959229726,1412
3167.2412953759303,1394
3168.9351137204976,1434
3170.628651276098,1443
3172.3219083622307,1401
3174.014885298474,1386
3175.707582404485,1406
3177.4000000000005,1363
3179.092138404835,1418
3180.7839979388846,1416
3182.47557892212,1353
3184.166881674594,1395
3185.8579065164386,1371
3187.5486537678626,1379
3189.2391237491547,1380
3190.9293167806827,1353
3192.6192331828934,1405
3194.3088732763117,1324
3195.998237381542,1349
3197.687325819268,1399
3199.376138910251,1383
3201.064676975334,1388
3202.7529403354347,1394
3204.4409293115523,1353
3206.1286442247647,1396
3207.816085396229,1361
3209.5032531471825,1370
3211.190147798936,1322
3212.8767696728846,1330
3214.5631190905015,1352
3216.2491963733373,1432
3217.9350018430214,1373
3219.6205358212637,1373
3221.305798629851,1342
3222.990790590651,1335
3224.6755120256103,1373
3226.359963256751,1319
3228.0441446061795,1319
3229.7280563960758,1312
3231.411698948703,1320
3233.0950725863995,1300
3234.778177631587,1404
3236.461014406761,1437
3238.1435832345005,1368
3239.8258844374595,1450
3241.507918338374,1419
3243.1896852600576,1389
3244.8711855254023,1420
3246.552419457381,1382
3248.233387379042,1337
3249.914089613516,1354
3251.59452648401,1406
3253.274698313813,1349
3254.95460542629,1392
3256.6342481448855,1350
3258.313626793125,1265
3259.9927416946084,1338
3261.6715931730196,1375
3263.3501815521176,1352
3265.0285071557437,1315
3266.706570307815,1372
3268.3843713323286,1350
3270.0619105533615,1310
3271.739188295068,1375
3273.4162048816834,1316
3275.0929606375184,1342
3276.769455886966,1386
3278.445690954498,1393
3280.1216661646613,1390
3281.797381842087,1353
3283.4728383114807,1403
3285.1480358976296,1390
3286.8229749253996,1357
3288.4976557197333,1386
3290.172078605655,1378
3291.846243908266,1352
3293.5201519527463,1313
3295.193803064357,1352
3296.8671975684374,1266
3298.5403357904024,1348
3300.21321805575,1377
3301.8858446900567,1350
3303.558216018975,1351
3305.23033236824,1346
3306.9021940636603,1327
3308.57380143113,1300
3310.2451547966184,1342
3311.916254486174,1342
3313.5871008259246,1367
3315.2576941420766,1447
3316.9280347609147,1386
3318.5981230088046,1360
3320.2679592121895,1341
3321.9375436975924,1343
3323.606876791612,1322
3325.27595882093,1398
3326.944790112305,1336
3328.6133709925753,1312
3330.2817017886573,1335
3331.949782827547,1366
3333.617614436319,1360
3335.2851969421245,1349
3336.952530672199,1347
3338.619615953853,1372
3340.286453114475,1370
3341.9530424815357,1369
3343.619384382583,1364
3345.2854791452437,1342
3346.951327097224,1348
3348.6169285663073,1362
3350.2822838803577,1413
3351.947393367319,1391
3353.61225735521,1342
3355.2768761721345,1305
3356.9412501462693,1301
3358.605379605873,1371
3360.2692648792827,1378
3361.9329062949146,1356
3363.596304181263,1322
