CollectionTime,7/10/2024 4:06:32 PM
ExposureUsed,3
CalibratedSpectrum
-962.7078968117929,509
-959.9714848408522,548
-957.2358232597828,572
-954.5009119013725,545
-951.7667505983302,541
-949.0333391832855,556
-946.3006774887896,587
-943.5687653473143,588
-940.837602591253,571
-938.1071890529199,596
-935.3775245645503,577
-932.6486089583007,586
-929.9204420662485,609
-927.1930237203925,605
-924.4663537526524,573
-921.7404319948689,585
-919.0152582788041,590
-916.2908324361409,620
-913.5671542984834,597
-910.8442236973568,600
-908.1220404642074,560
-905.4006044304027,587
-902.679915427231,572
-899.959973285902,589
-897.2407778375464,578
-894.5223289132158,562
-891.8046263438832,582
-889.0876699604426,541
-886.3714595937089,547
-883.6559950744183,531
-880.9412762332282,550
-878.2273029007168,565
-875.5140749073835,583
-872.8015920836489,551
-870.0898542598545,547
-867.3788612662631,573
-864.6686129330585,574
-861.9591090903457,567
-859.2503495681506,585
-856.5423341964203,550
-853.8350628050229,595
-851.1285352237478,595
-848.4227512823054,574
-845.7177108103272,571
-843.0134136373656,559
-840.3098595928943,567
-837.6070485063082,572
-834.9049802069229,577
-832.2036545239757,604
-829.5030712866244,595
-826.8032303239481,606
-824.1041314649472,618
-821.4057745385428,580
-818.7081593735775,580
-816.0112857988148,570
-813.3151536429393,564
-810.6197627345566,603
-807.9251129021936,583
-805.2312039742981,599
-802.5380357792392,587
-799.8456081453069,560
-797.1539209007124,566
-794.462973873588,603
-791.772766891987,583
-789.083299783884,613
-786.3945723771743,595
-783.7065844996748,584
-781.0193359791231,595
-778.3328266431781,578
-775.6470563194197,568
-772.9620248353489,571
-770.2777320183878,566
-767.5941776958798,592
-764.9113616950891,602
-762.2292838432011,582
-759.5479439673222,614
-756.8673418944801,624
-754.1874774516235,630
-751.5083504656222,591
-748.8299607632671,602
-746.15230817127,619
-743.475392516264,605
-740.7992136248035,611
-738.1237713233636,587
-735.4490654383407,608
-732.7750957960521,622
-730.1018622227365,629
-727.4293645445534,624
-724.7576025875837,609
-722.0865761778291,597
-719.4162851412126,611
-716.7467293035781,637
-714.0779084906909,640
-711.409822528237,669
-708.7424712418238,643
-706.0758544569796,628
-703.4099719991541,641
-700.7448236937178,655
-698.0804093659622,666
-695.4167288411002,628
-692.7537819442656,669
-690.0915685005134,706
-687.4300883348199,647
-684.7693412720819,649
-682.1093271371178,632
-679.4500457546669,632
-676.7914969493897,650
-674.1336805458676,636
-671.4765963686034,680
-668.8202442420206,660
-666.1646239904642,629
-663.5097354382001,660
-660.8555784094151,661
-658.2021527282176,690
-655.5494582186366,662
-652.8974947046223,658
-650.2462620100463,703
-647.5957599587009,697
-644.9459883742998,678
-642.2969470804776,685
-639.6486359007902,657
-637.0010546587141,718
-634.3542031776476,686
-631.7080812809096,656
-629.0626887917401,646
-626.4180255333008,684
-623.7740913286734,703
-621.1308860008619,739
-618.4884093727904,706
-615.8466612673046,708
-613.2056415071715,689
-610.5653499150785,703
-607.9257863136347,682
-605.28695052537,703
-602.6488423727357,699
-600.0114616781036,693
-597.3748082637674,682
-594.7388819519412,716
-592.1036825647604,707
-589.4692099242818,717
-586.8354638524829,733
-584.2024441712624,679
-581.5701507024403,712
-578.9385832677575,703
-576.3077416888759,716
-573.6776257873787,728
-571.0482353847704,714
-568.4195703024757,707
-565.7916303618415,693
-563.164415384135,719
-560.5379251905453,702
-557.9121596021815,716
-555.2871184400748,755
-552.6628015251767,747
-550.0392086783606,717
-547.4163397204204,726
-544.794194472071,753
-542.1727727539491,745
-539.5520743866118,778
-536.9320991905377,791
-534.3128469861261,808
-531.6943175936979,891
-529.0765108334947,855
-526.4594265256793,866
-523.8430644903358,977
-521.2274245474689,1124
-518.612506517005,1121
-515.9983102187913,1189
-513.3848354725959,1146
-510.77208209810846,1212
-508.16004991493924,1225
-505.5487387426199,1353
-502.9381484006032,1527
-500.3282787082628,1581
-497.71912948489364,1555
-495.1107005497117,1518
-492.5029917218539,1408
-489.8960028203786,1227
-487.28973366426493,1139
-484.68418407241325,1066
-482.07935386364494,941
-479.47524285670266,922
-476.87185087025,913
-474.2691777228715,909
-471.66722323307334,928
-469.0659872192821,958
-466.4654694998459,972
-463.86566989303384,956
-461.26658821703614,928
-458.66822428996414,914
-456.07057792985,930
-453.4736489546475,986
-450.877437182231,909
-448.28194243039627,892
-445.68716451686,878
-443.09310325926003,903
-440.49975847515555,914
-437.9071299820263,869
-435.31521759727354,865
-432.72402113821954,906
-430.13354042210767,931
-427.5437752661022,944
-424.95472548728867,925
-422.36639090267386,903
-419.7787713291855,954
-417.1918665836721,950
-414.60567648290385,1010
-412.0202008435715,980
-409.4354394822874,1004
-406.8513922155845,979
-404.26805885991723,965
-401.685439231661,1012
-399.103533147112,1036
-396.522340422488,969
-393.9418608739278,1016
-391.3620943174908,954
-388.7830405691583,968
-386.2046994448317,942
-383.6270707603344,915
-381.05015433141045,842
-378.473949973725,775
-375.8984575028645,766
-373.32367673433623,705
-370.74960748356875,698
-368.1762495659117,640
-365.60360279663576,609
-363.03166699093265,577
-360.4604419639154,534
-357.8899275306178,519
-355.32012350599507,527
-352.7510297049233,505
-350.1826459421999,480
-347.61497203254316,461
-345.04800779059235,485
-342.4817530309082,494
-339.91620756797226,467
-337.35137121618743,460
-334.7872437898774,473
-332.22382510328725,491
-329.66111497058273,511
-327.09911320585127,497
-324.53781962310075,513
-321.9772340362607,493
-319.4173562591816,469
-316.8581861056348,462
-314.2997233893127,454
-311.7419679238294,461
-309.1849195227194,476
-306.62857799943856,505
-304.0729431673641,507
-301.51801483979375,492
-298.963792829947,549
-296.41027695096386,519
-293.85746701590574,518
-291.3053628377552,570
-288.7539642294155,546
-286.2032710037115,529
-283.65328297338897,569
-281.1039999511146,587
-278.5554217494762,619
-276.007548180983,589
-273.4603790580651,530
-270.9139141930734,572
-268.3681533982807,625
-265.8230964858798,660
-263.27874326798565,633
-260.7350935566336,627
-258.1921471637804,640
-255.6499039013039,624
-253.10836358100266,625
-250.56752601459698,608
-248.02739101372765,599
-245.48795838995704,636
-242.94922795476816,650
-240.41119951956557,604
-237.8738728956746,610
-235.33724789434166,654
-232.80132432673452,676
-230.2661020039418,679
-227.73158073697357,602
-225.19776033676033,689
-222.66464061415422,679
-220.1322213799284,702
-217.60050244477725,671
-215.06948361931552,678
-212.53916471408013,692
-210.00954553952818,727
-207.48062590603843,750
-204.9524056239104,716
-202.4248845033651,711
-199.8980623545441,707
-197.37193898751036,783
-194.84651421224817,796
-192.32178783866232,760
-189.79775967657952,798
-187.27442953574644,797
-184.7517972258321,847
-182.2298625564256,801
-179.7086253370378,774
-177.18808537710026,787
-174.66824248596583,818
-172.14909647290835,790
-169.6306471471229,745
-167.11289431772548,790
-164.59583779375328,835
-162.07947738416453,893
-159.5638128978386,904
-157.04884414357605,900
-154.53457093009854,899
-152.02099306604828,894
-149.50811035998936,819
-146.99592262040665,809
-144.48442965570587,886
-141.97363127421409,923
-139.46352728417958,999
-136.95411749377126,919
-134.44540171107985,858
-131.93737974411636,895
-129.43005140081357,836
-126.92341648902493,1090
-124.41747481652521,1372
-121.91222619101006,1567
-119.40767042009657,1765
-116.90380731132257,1980
-114.40063667214702,2175
-111.8981583099503,2401
-109.3963720320337,2215
-106.89527764561933,1699
-104.39487495785067,1582
-101.89516377579241,1692
-99.39614390642998,2763
-96.89781515667039,3668
-94.40017733334128,3418
-91.90323024319173,2787
-89.40697369289148,2321
-86.91140748903172,3158
-84.41653143812482,3828
-81.92234534660395,4334
-79.42884902082358,5085
-76.93604226705907,7147
-74.4439248915071,12072
-71.95249670028534,18235
-69.46175749943245,22491
-66.97170709490854,23420
-64.48234529259423,19859
-61.99367189829195,16414
-59.50568671772464,11859
-57.01838955653636,8379
-54.53178022029283,9445
-52.045858514480074,11617
-49.560624244506016,11779
-47.07607721569923,11740
-44.59221723330904,11128
-42.10904410250669,11313
-39.62655762838392,11404
-37.14475761595372,13238
-34.66364387015028,16439
-32.18321619582866,15755
-29.70347439776515,13704
-27.224418280657005,13311
-24.74604764912317,12396
-22.26836230770266,14011
-19.7913620608565,24094
-17.315046712966478,43021
-14.83941606833514,59355
-12.36446993118659,65039
-9.89020810566592,65039
-7.416630395839093,65039
-4.94373660569363,65039
-2.471526539137585,65039
-6.821210263296962E-13,65039
2.47084320796705,65039
4.941003281093458,65039
7.410480415786196,65039
9.879274808531363,65039
12.347386655893956,65039
14.814816154518212,65039
17.28156350112681,65039
19.74762889252179,65039
22.21301252558385,65039
24.67771459727237,21533
27.141735304626195,4626
29.605074844762612,2941
32.06773341487792,3044
34.52971121224755,2714
36.99100843422559,2892
39.45162527824516,2575
41.91156194181792,2185
44.370818622535126,1877
46.82939551806646,1574
49.287292826160524,1544
51.74451074464503,1832
54.201049471426245,1970
56.65690920448981,1683
59.112090141899785,1445
61.56659248179983,1404
64.02041642241159,1299
66.4735621620365,1218
68.92602989905402,1190
71.37781983192338,1132
73.82893215918205,1342
76.27936707944684,1484
78.72912479141326,1452
81.17820549385567,1444
83.62660938562783,1243
86.07433666566146,1191
88.5213875329681,1045
90.96776218663751,1020
93.41346082583925,1026
95.85848364982041,1258
98.30283085790859,1380
100.7465026495089,1064
103.18949922410604,1081
105.63182078126385,1052
108.07346752062438,1137
110.51443964190923,1169
112.95473734491827,1152
115.39436082953114,933
117.83331029570547,921
120.27158594347827,1179
122.7091879729652,1420
125.1461165843615,1253
127.58237197794062,1132
130.01795435405518,1025
132.4528639131364,971
134.88710085569494,1005
137.32066538231982,902
139.75355769367923,841
142.1857779905207,854
144.61732647366978,847
147.04820334403132,812
149.47840880258934,840
151.90794305040674,914
154.33680628862487,1047
156.76499871846443,1291
159.19252054122433,1500
161.61937195828352,1527
164.04555317109896,1571
166.47106438120693,1760
168.89590579022217,2004
171.320077599839,2064
173.7435800118302,2226
176.16641322804742,2346
178.58857745042144,2715
181.01007288096173,2787
183.43089972175687,2694
185.85105817497413,2681
188.27054844285988,2617
190.6893707277394,2626
193.10752523201643,2682
195.5250121581745,2602
197.9418317087751,2647
200.3579840864594,2776
202.7734694939469,2725
205.18828813403627,2742
207.6024402096051,2958
210.01592592360964,2935
212.42874547908548,2959
214.84089907914665,2835
217.2523869269868,2841
219.66320922587727,2756
222.0733661791695,2791
224.48285799029293,2792
226.8916848627572,2687
229.29984700014882,2753
231.7073446061355,2856
234.11417788446204,2891
236.520347038953,2873
238.92585227351185,2796
241.33069379212054,2809
243.73487179884035,2892
246.1383864978112,2957
248.541238093252,2995
250.9434267894609,2948
253.34495279081432,2905
255.74581630176783,2921
258.1460175268563,2954
260.54555667069314,2883
262.9444339379703,3011
265.3426495334594,2879
267.7402036620107,2893
270.1370965285529,2775
272.53332833809407,2755
274.9288992957214,2676
277.32380960660055,2649
279.718059475976,2647
282.1116491091717,2704
284.5045787115897,2532
286.89684848871195,2626
289.2884586460981,2643
291.67940938938807,2638
294.0697009242996,2620
296.4593334566299,2589
298.84830719225477,2584
301.23662233712923,2588
303.6242790972866,2508
306.01127767884,2477
308.39761828798066,2456
310.78330113097934,2380
313.16832641418534,2445
315.5526943440269,2411
317.9364051270112,2414
320.3194589697242,2397
322.70185607883093,2390
325.0835966610754,2407
327.4646809232805,2304
329.8451090723478,2303
332.2248813152577,2332
334.6039978590701,2264
336.9824589109231,2221
339.36026467803447,2264
341.7374153677,2231
344.113911187295,2225
346.48975234427337,2282
348.8649390461686,2184
351.2394715005918,2245
353.61334991523415,2193
355.9865744978655,2129
358.35914545633375,2159
360.73106299856715,2196
363.10232733257146,2223
365.47293866643247,2122
367.84289720831396,2159
370.2122031664593,2165
372.5808567491905,2107
374.9488581649083,2100
377.31620762209275,2104
379.6829053293021,2107
382.0489514951745,2067
384.4143463284262,2022
386.7790900378528,2096
389.14318283232853,2132
391.50662492080653,2082
393.86941651231916,2083
396.23155781597745,1997
398.5930490409713,2030
400.9538903965696,1964
403.3140820921202,1991
405.6736243370498,2062
408.03251734086336,1989
410.3907613131465,1995
412.74835646356166,2041
415.10530300185144,2007
417.4616011378372,2015
419.81725108141893,1971
422.1722530425758,1987
424.5266072313656,2041
426.880313857925,1968
429.2333731324701,2010
431.58578526529516,2002
433.9375504667738,2006
436.2886689473588,2030
438.63914091758113,1957
440.9889665880513,1955
443.33814616945835,1995
445.68667987257015,1929
448.03456790823395,1892
450.3818104873759,1979
452.72840782100013,1925
455.07436012019105,1958
457.41966759611057,1957
459.7643304600007,1966
462.10834892318155,1967
464.4517231970525,1996
466.79445349309174,1915
469.1365400228566,1883
471.4779829979826,1955
473.81878263018564,1968
476.15893913125876,1904
478.4984527130747,2040
480.8373235875855,2131
483.17555196682144,2162
485.5131380628919,2118
487.8500820879857,2233
490.1863842543697,2278
492.52204477439034,2394
494.8570638604725,2706
497.1914417251204,2862
499.52517858091653,3235
501.85827464052306,3416
504.19073011668036,3573
506.5225452222086,3545
508.85372017000566,3367
511.18425517304956,3297
513.514150444396,3393
515.8434061971808,3893
518.1720226446176,4747
520.4999999999999,5020
522.8273384766991,4799
525.1540382881666,4384
527.480099647932,3996
529.8055227696037,3387
532.1303078668694,2814
534.454455153496,2455
536.777964843328,2237
539.1008371502907,2215
541.4230722883866,2065
543.744670471698,2092
546.0656319143858,2111
548.3859568306899,2226
550.7056454349294,2105
553.0246979415016,2089
555.3431145648834,2074
557.6608955196306,2082
559.978041020377,2085
562.2945512818363,2067
564.6104265188006,2061
566.9256669461412,2066
569.2402727788082,2030
571.5542442318302,2034
573.8675815203156,2046
576.1802848594508,2028
578.4923544645015,2001
580.8037905508126,2082
583.114593333807,2099
585.4247630289875,2029
587.7342998519354,2068
590.0432040183106,2055
592.3514757438526,2106
594.6591152443794,2146
596.9661227357875,2084
599.2724984340531,2081
601.578242555231,2152
603.8833553154542,2103
606.1878369309362,2079
608.4916876179676,2097
610.7949075929192,2082
613.0974970722403,2055
615.3994562724587,2061
617.7007854101818,1988
620.0014847020951,2009
622.3015543649641,2066
624.6009946156324,2118
626.8998056710224,2060
629.1979877481361,2042
631.4955410640538,2085
633.7924658359349,2078
636.0887622810175,2086
638.3844306166192,2052
640.6794710601358,2033
642.9738838290426,2076
645.2676691408932,2025
647.5608272133207,2113
649.853358264037,2107
652.1452625108324,2085
654.4365401715764,2091
656.7271914642178,2136
659.0172166067838,2101
661.3066158173809,2103
663.5953893141935,2125
665.8835373154867,2097
668.1710600396028,2125
670.4579577049639,2098
672.7442305300709,2075
675.0298787335033,2138
677.3149025339197,2070
679.599302150058,2166
681.8830778007342,2044
684.1662297048437,2074
686.4487580813608,2128
688.7306631493387,2132
691.0119451279091,2119
693.2926042362834,2109
695.5726406937516,2042
697.8520547196814,2123
700.1308465335215,2133
702.4090163547982,2130
704.6865644031171,2032
706.9634908981619,2121
709.2397960596965,2097
711.5154801075631,2011
713.7905432616823,2059
716.0649857420548,2069
718.3388077687592,2055
720.612009561953,2133
722.8845913418733,2076
725.1565533288352,2086
727.427895743234,2076
729.6986188055427,2083
731.9687227363137,2070
734.238207756178,2067
736.5070740858458,2083
738.7753219461066,2116
741.0429515578281,2059
743.3099631419569,2107
745.5763569195191,2047
747.8421331116193,2030
750.1072919394409,2046
752.3718336242467,2091
754.6357583873777,2087
756.8990664502545,2011
759.1617580343765,2078
761.423833361321,1995
763.6852926527457,2045
765.9461361303862,2139
768.206364016058,2079
770.4659765316536,2055
772.7249738991469,2107
774.9833563405886,2173
777.2411240781092,2110
779.4982773339183,2068
781.7548163303044,2084
784.010741289634,2085
786.2660524343538,2253
788.5207499869881,2151
790.7748341701416,2125
793.0283052064964,2045
795.2811633188143,2111
797.5334087299362,2078
799.7850416627813,2061
802.0360623403484,2154
804.2864709857143,2178
806.5362678220353,2153
808.7854530725468,2192
811.0340269605625,2182
813.2819897094754,2122
815.5293415427581,2086
817.77608268396,2119
820.0222133567116,2061
822.2677337847211,2096
824.5126441917765,2065
826.7569448017433,2149
829.0006358385675,2143
831.2437175262731,2124
833.4861900889629,2168
835.7280537508192,2102
837.9693087361026,2103
840.2099552691533,2163
842.4499935743896,2082
844.689423876309,2073
846.9282463994886,2095
849.1664613685833,2215
851.4040690083276,2158
853.6410695435349,2128
855.877463199097,2087
858.1132501999847,2187
860.3484307712487,2165
862.5830051380175,2142
864.8169735254988,2201
867.0503361589791,2139
869.2830932638243,2185
871.5152450654786,2218
873.7467917894654,2139
875.9777336613873,2175
878.2080709069252,2191
880.4378037518389,2209
882.666932421968,2192
884.8954571432301,2181
887.1233781416219,2162
889.3506956432192,2241
891.5774098741766,2175
893.803521060728,2134
896.0290294291852,2329
898.2539352059397,2208
900.4782386174619,2202
902.7019398903011,2190
904.925039251085,2241
907.147536926521,2163
909.3694331433943,2195
911.59072812857,2218
913.8114221089921,2239
916.0315153116827,2179
918.2510079637437,2107
920.4699002923547,2146
922.6881925247761,2281
924.905884888345,2163
927.1229776104793,2114
929.3394709186747,2091
931.555365040506,2161
933.7706602036275,2102
935.9853566357709,2158
938.1994545647489,2066
940.4129542184515,2185
942.6258558248488,2126
944.8381596119883,2135
947.0498658079974,2130
949.2609746410825,2060
951.4714863395287,2052
953.6814011316998,2023
955.8907192460387,2044
958.0994409110671,2056
960.3075663553858,2014
962.5150958076741,2055
964.7220294966913,2058
966.928367651274,2090
969.1341105003388,2025
971.3392582728806,2018
973.5438111979742,2116
975.747769504772,2043
977.9511334225061,2018
980.153903180487,1949
982.3560790081052,2016
984.5576611348289,2009
986.7586497902058,2002
988.9590452038618,1971
991.158847605503,1976
993.3580572249133,1926
995.5566742919558,1993
997.7546990365728,1932
999.952131688785,1937
1002.1489724786926,1883
1004.3452216364743,1885
1006.5408793923874,1823
1008.7359459767691,1826
1010.9304216200343,1833
1013.1243065526781,1825
1015.3176010052733,1815
1017.510305208472,1763
1019.7024193930064,1845
1021.8939437896848,1797
1024.0848786293977,1801
1026.2752241431122,1781
1028.4649805618747,1825
1030.6541481168115,1722
1032.842727039127,1726
1035.0307175601051,1767
1037.2181199111074,1776
1039.4049343235752,1729
1041.591161029029,1758
1043.7768002590683,1742
1045.9618522453698,1729
1048.1463172196918,1776
1050.3301954138697,1718
1052.513487059818,1729
1054.69619238953,1844
1056.8783116350783,1744
1059.0598450286152,1711
1061.2407928023704,1743
1063.4211551886528,1662
1065.6009324198508,1707
1067.780124728432,1749
1069.9587323469414,1758
1072.1367555080046,1723
1074.314194444325,1694
1076.4910493886855,1700
1078.667320573947,1681
1080.843008233051,1686
1083.0181125990161,1700
1085.1926339049414,1655
1087.3665723840027,1673
1089.5399282694575,1677
1091.7127017946405,1687
1093.8848931929647,1661
1096.0565026979243,1677
1098.2275305430899,1667
1100.3979769621128,1729
1102.567842188722,1555
1104.737126456726,1631
1106.9058300000124,1640
1109.0739530525475,1638
1111.2414958483764,1636
1113.4084586216231,1631
1115.5748416064907,1634
1117.7406450372605,1734
1119.9058691482942,1698
1122.0705141740304,1610
1124.2345803489884,1698
1126.3980679077658,1680
1128.5609770850388,1563
1130.7233081155623,1673
1132.8850612341707,1620
1135.0462366757774,1636
1137.2068346753745,1608
1139.3668554680326,1570
1141.526299288901,1603
1143.68516637321,1591
1145.8434569562655,1663
1148.001171273455,1634
1150.158309560244,1616
1152.3148720521767,1666
1154.470858984876,1622
1156.626270594044,1578
1158.7811071154629,1589
1160.9353687849912,1571
1163.089055838569,1563
1165.242168512213,1567
1167.3947070420209,1620
1169.5466716641677,1544
1171.6980626149075,1585
1173.8488801305748,1576
1175.9991244475814,1521
1178.1487958024186,1579
1180.2978944316555,1559
1182.4464205719428,1548
1184.5943744600072,1643
1186.7417563326567,1605
1188.8885664267755,1582
1191.0348049793297,1624
1193.1804722273619,1579
1195.325568407995,1603
1197.4700937584303,1553
1199.614048515948,1559
1201.7574329179074,1595
1203.900247201746,1644
1206.042491604982,1555
1208.1841663652099,1622
1210.3252717201053,1628
1212.465807907422,1511
1214.6057751649923,1543
1216.7451737307279,1587
1218.8840038426192,1629
1221.0222657387353,1585
1223.1599596572241,1619
1225.2970858363137,1674
1227.4336445143094,1653
1229.5696359295966,1662
1231.705060320639,1622
1233.8399179259786,1690
1235.9742089842384,1652
1238.107933734118,1596
1240.2410924143974,1736
1242.373685263935,1649
1244.5057125216676,1638
1246.6371744266116,1636
1248.7680712178621,1677
1250.898403134593,1685
1253.028170416058,1711
1255.1573733015875,1572
1257.2860120305932,1639
1259.4140868425648,1645
1261.54159797707,1590
1263.6685456737569,1666
1265.7949301723515,1665
1267.9207517126597,1703
1270.046010534565,1673
1272.1707068780306,1672
1274.2948409830983,1705
1276.4184130898889,1664
1278.541423438603,1671
1280.6638722695184,1710
1282.785759822993,1724
1284.9070863394636,1717
1287.0278520594447,1725
1289.1480572235314,1697
1291.2677020723963,1586
1293.3867868467923,1680
1295.5053117875495,1730
1297.623277135579,1741
1299.740683131868,1767
1301.8575300174857,1695
1303.973818033578,1779
1306.0895474213703,1769
1308.2047184221678,1797
1310.3193312773528,1770
1312.4333862283888,1764
1314.5468835168163,1747
1316.659823384255,1759
1318.7722060724045,1774
1320.8840318230418,1768
1322.9953008780249,1708
1325.1060134792888,1723
1327.2161698688478,1761
1329.3257702887959,1711
1331.4348149813054,1733
1333.5433041886276,1765
1335.6512381530933,1767
1337.7586171171101,1785
1339.8654413231675,1779
1341.9717110138317,1748
1344.0774264317488,1708
1346.1825878196432,1743
1348.2871954203192,1748
1350.3912494766587,1747
1352.4947502316231,1832
1354.5976979282532,1724
1356.7000928096686,1792
1358.8019351190665,1769
1360.9032250997243,1784
1363.0039629949988,1714
1365.1041490483235,1733
1367.2037835032133,1772
1369.3028666032606,1765
1371.401398592137,1720
1373.4993797135926,1736
1375.5968102114575,1751
1377.6936903296396,1785
1379.7900203121262,1687
1381.8858004029835,1811
1383.9810308463561,1842
1386.075711886469,1764
1388.1698437676241,1817
1390.2634267342032,1811
1392.356461030667,1744
1394.4489469015557,1855
1396.5408845914872,1852
1398.6322743451592,1850
1400.7231164073469,1812
1402.813411022907,1860
1404.903158436773,1899
1406.9923588939578,1866
1409.0810126395531,1818
1411.1691199187303,1806
1413.2566809767386,1793
1415.343696058907,1899
1417.4301654106425,1831
1419.5160892774315,1879
1421.6014679048399,1867
1423.6863015385125,1850
1425.7705904241707,1872
1427.8543348076178,1932
1429.9375349347342,1887
1432.0201910514802,1982
1434.102303403894,1963
1436.1838722380944,1897
1438.2648978002767,1914
1440.3453803367174,1887
1442.4253200937692,1947
1444.5047173178677,2009
1446.5835722555234,2047
1448.6618851533285,2070
1450.739656257952,2041
1452.8168858161434,2126
1454.8935740747306,2098
1456.96972128062,2051
1459.045327680797,2155
1461.120393522327,2144
1463.1949190523528,2144
1465.2689045180973,2190
1467.3423501668608,2295
1469.415256246024,2243
1471.4876230030463,2234
1473.559450685465,2301
1475.6307395408976,2384
1477.7014898170391,2411
1479.771701761665,2354
1481.8413756226287,2403
1483.9105116478618,2421
1485.9791100853772,2499
1488.0471711832643,2554
1490.1146951896926,2530
1492.1816823529098,2520
1494.2481329212433,2509
1496.3140471430984,2606
1498.3794252669609,2530
1500.4442675413939,2660
1502.5085742150404,2651
1504.572345536622,2680
1506.6355817549388,2686
1508.6982831188702,2679
1510.7604498773744,2699
1512.8220822794883,2754
1514.8831805743293,2712
1516.9437450110909,2840
1519.003775839048,2870
1521.0632733075522,2789
1523.1222376660367,2909
1525.1806691640113,2950
1527.2385680510652,2934
1529.2959345768668,2940
1531.3527689911643,2963
1533.4090715437833,3044
1535.4648424846291,3167
1537.5200820636855,3143
1539.5747905310159,3256
1541.6289681367616,3211
1543.6826151311434,3127
1545.7357317644614,3265
1547.7883182870937,3288
1549.8403749494987,3271
1551.8919020022113,3383
1553.9428996958477,3414
1555.9933682811015,3403
1558.0433080087469,3473
1560.0927191296346,3595
1562.1416018946961,3570
1564.1899565549415,3622
1566.2377833614592,3610
1568.2850825654164,3670
1570.3318544180606,3518
1572.3780991707158,3477
1574.423817074788,3360
1576.4690083817595,3277
1578.5136733431923,3161
1580.5578122107272,3025
1582.601425236085,2889
1584.6445126710646,2835
1586.6870747675434,2688
1588.7291117774776,2573
1590.7706239529034,2556
1592.8116115459347,2407
1594.8520748087658,2358
1596.8920139936686,2268
1598.9314293529933,2266
1600.9703211391711,2250
1603.008689604711,2141
1605.0465350022005,2164
1607.0838575843068,2076
1609.1206576037753,2068
1611.1569353134305,1987
1613.1926909661765,1923
1615.2279248149953,1895
1617.2626371129481,1914
1619.2968281131757,1935
1621.3304980688963,1875
1623.3636472334088,1816
1625.39627586009,1890
1627.428384202396,1914
1629.459972513861,1893
1631.4910410480993,1814
1633.5215900588028,1796
1635.551619799744,1823
1637.5811305247717,1788
1639.6101224878166,1813
1641.6385959428862,1837
1643.6665511440683,1829
1645.693988345528,1780
1647.7209078015112,1801
1649.7473097663405,1740
1651.7731944944203,1748
1653.7985622402307,1675
1655.823413258333,1770
1657.847747803366,1744
1659.8715661300494,1742
1661.8948684931793,1752
1663.9176551476316,1719
1665.9399263483624,1730
1667.9616823504057,1728
1669.982923408873,1690
1672.0036497789574,1744
1674.0238617159293,1789
1676.043559475138,1779
1678.0627433120121,1790
1680.081413482059,1696
1682.0995702408654,1760
1684.117213844096,1771
1686.134344547495,1709
1688.1509626068864,1654
1690.1670682781705,1746
1692.182661817329,1655
1694.1977434804217,1770
1696.2123135235875,1723
1698.226372203043,1770
1700.2399197750851,1768
1702.2529564960905,1695
1704.2654826225112,1722
1706.277498410882,1649
1708.2890041178139,1668
1710.2999999999988,1672
1712.3104863142066,1702
1714.3204633172854,1707
1716.329931266163,1765
1718.3388904178469,1705
1720.3473410294214,1745
1722.3552833580516,1665
1724.3627176609807,1677
1726.3696441955308,1683
1728.3760632191033,1630
1730.3819749891782,1722
1732.3873797633146,1649
1734.3922777991502,1632
1736.3966693544012,1665
1738.4005546868639,1655
1740.4039340544127,1720
1742.406807715001,1627
1744.4091759266616,1629
1746.4110389475054,1658
1748.4123970357223,1659
1750.413250449582,1605
1752.4135994474318,1696
1754.4134442876993,1652
1756.4127852288902,1664
1758.4116225295893,1613
1760.4099564484595,1580
1762.407787244244,1685
1764.405115175764,1602
1766.4019405019203,1585
1768.3982634816916,1651
1770.3940843741357,1622
1772.3894034383907,1626
1774.3842209336717,1619
1776.378537119274,1658
1778.372352254571,1613
1780.3656665990156,1669
1782.3584804121397,1621
1784.3507939535534,1636
1786.3426074829463,1533
1788.3339212600863,1601
1790.3247355448211,1648
1792.3150505970766,1580
1794.3048666768573,1650
1796.2941840442477,1674
1798.2830029594106,1605
1800.2713236825884,1665
1802.2591464741004,1608
1804.2464715943465,1588
1806.2332993038058,1665
1808.2196298630352,1648
1810.2054635326708,1599
1812.190800573428,1638
1814.175641246101,1687
1816.1599858115628,1638
1818.1438345307652,1593
1820.127187664738,1620
1822.1100454745924,1637
1824.092408221516,1612
1826.0742761667766,1607
1828.055649571721,1611
1830.0365286977735,1578
1832.0169138064398,1621
1833.9968051593014,1624
1835.9762030180214,1623
1837.9551076443408,1592
1839.9335193000788,1609
1841.9114382471344,1580
1843.888864747485,1591
1845.8657990631878,1610
1847.842241456378,1573
1849.8181921892697,1539
1851.7936515241558,1592
1853.7686197234098,1623
1855.7430970494815,1599
1857.7170837649014,1616
1859.6905801322787,1603
1861.6635864143004,1595
1863.6361028737338,1626
1865.608129773424,1632
1867.5796673762961,1606
1869.5507159453537,1677
1871.521275743678,1582
1873.4913470344313,1563
1875.4609300808534,1627
1877.4300251462632,1618
1879.3986324940588,1621
1881.366752387717,1564
1883.3343850907936,1658
1885.3015308669228,1622
1887.268189979819,1606
1889.2343626932739,1626
1891.2000492711595,1635
1893.1652499774254,1643
1895.1299650761011,1634
1897.0941948312952,1600
1899.0579395071945,1602
1901.0211993680641,1616
1902.98397467825,1663
1904.9462657021745,1632
1906.9080727043415,1691
1908.869395949332,1665
1910.8302357018065,1692
1912.790592226504,1635
1914.7504657882428,1632
1916.7098566519212,1576
1918.6687650825133,1603
1920.6271913450764,1535
1922.5851357047422,1567
1924.5425984267245,1678
1926.499579776314,1608
1928.4560800188833,1504
1930.4120994198802,1553
1932.367638244833,1553
1934.32269675935,1602
1936.2772752291175,1634
1938.231373919899,1626
1940.1849930975404,1664
1942.1381330279637,1635
1944.0907939771696,1589
1946.0429762112412,1556
1947.9946799963363,1646
1949.9459055986945,1601
1951.896653284633,1626
1953.8469233205478,1534
1955.7967159729142,1578
1957.7460315082863,1533
1959.6948701932974,1616
1961.6432322946594,1605
1963.5911180791632,1576
1965.5385278136787,1604
1967.4854617651545,1590
1969.4319202006182,1565
1971.377903387176,1555
1973.3234115920136,1566
1975.268445082395,1596
1977.2130041256642,1510
1979.1570889892423,1539
1981.1006999406304,1567
1983.04383724741,1568
1984.986501177238,1554
1986.928691997853,1590
1988.8704099770712,1559
1990.811655382789,1546
1992.7524284829801,1573
1994.692729545698,1575
1996.6325588390755,1555
1998.5719166313224,1535
2000.5108031907307,1562
2002.4492187856677,1575
2004.387163684583,1612
2006.3246381560011,1520
2008.2616424685298,1551
2010.1981768908527,1556
2012.1342416917332,1557
2014.069837140014,1598
2016.0049635046162,1552
2017.9396210545406,1550
2019.8738100588666,1567
2021.8075307867502,1563
2023.740783507431,1552
2025.6735684902228,1501
2027.6058860045214,1534
2029.5377363198004,1554
2031.4691197056118,1470
2033.4000364315875,1514
2035.3304867674374,1531
2037.260470982952,1555
2039.189989347998,1561
2041.1190421325232,1560
2043.047629606554,1592
2044.9757520401945,1568
2046.9034097036288,1563
2048.8306028671195,1562
2050.7573318010086,1522
2052.683596775716,1552
2054.609398061742,1601
2056.5347359296647,1565
2058.4596106501403,1599
2060.384022493906,1552
2062.3079717317764,1532
2064.231458634646,1477
2066.1544834734873,1545
2068.077046519352,1549
2069.99914804337,1559
2071.9207883167524,1510
2073.8419676107865,1500
2075.7626861968406,1515
2077.6829443463607,1521
2079.6027423308715,1464
2081.522080421977,1476
2083.440958891362,1482
2085.359378010786,1546
2087.2773380520907,1560
2089.194839287196,1608
2091.111881988101,1550
2093.0284664268825,1482
2094.9445928756973,1485
2096.86026160678,1576
2098.775472892446,1523
2100.690227005088,1469
2102.604524217178,1614
2104.5183648012676,1527
2106.431749029985,1557
2108.34467717604,1465
2110.2571495122206,1480
2112.169166311393,1527
2114.080727846503,1591
2115.9918343905747,1531
2117.902486216711,1518
2119.8126835980956,1493
2121.722426807987,1519
2123.6317161197285,1585
2125.5405518067364,1533
2127.448934142509,1523
2129.356863400624,1552
2131.264339854737,1576
2133.1713637785815,1574
2135.077935445972,1579
2136.9840551308002,1575
2138.889723107037,1546
2140.7949396487334,1569
2142.699705030018,1572
2144.6040195250994,1482
2146.507883408264,1618
2148.4112969538774,1598
2150.3142604363848,1564
2152.2167741303097,1627
2154.1188383102535,1598
2156.0204532508997,1603
2157.9216192270064,1575
2159.822336513414,1648
2161.7226053850413,1624
2163.622426116884,1563
2165.5217989840185,1515
2167.4207242616,1561
2169.319202224862,1636
2171.2172331491165,1568
2173.1148173097563,1557
2175.0119549822507,1580
2176.90864644215,1558
2178.8048919650823,1601
2180.7006918267534,1608
2182.596046302952,1507
2184.4909556695407,1605
2186.3854202024645,1680
2188.279440177746,1586
2190.173015871487,1635
2192.066147559868,1612
2193.958835519149,1543
2195.851080025667,1579
2197.7428813558417,1580
2199.6342397861667,1604
2201.5251555932186,1616
2203.415629053651,1565
2205.3056604441986,1546
2207.19525004167,1578
2209.084398122958,1622
2210.9731049650327,1672
2212.861370844941,1667
2214.749196039812,1663
2216.636580826851,1567
2218.523525483344,1586
2220.410030286655,1671
2222.296095514226,1641
2224.1817214435805,1619
2226.066908352319,1582
2227.951656518121,1657
2229.835966218746,1650
2231.71983773203,1599
2233.6032713358913,1632
2235.486267308324,1593
2237.3688259274036,1587
2239.2509474712824,1626
2241.132632218193,1609
2243.013880446447,1516
2244.8946924344323,1638
2246.7750684606203,1616
2248.6550088035574,1609
2250.534513741871,1610
2252.413583554265,1578
2254.292218519526,1683
2256.170418916517,1657
2258.0481850241786,1595
2259.925517121534,1593
2261.8024154876825,1594
2263.678880401803,1606
2265.5549121431536,1624
2267.430510991071,1647
2269.305677224971,1658
2271.180411124348,1622
2273.0547129687766,1622
2274.9285830379076,1591
2276.8020216114737,1615
2278.6750289692845,1603
2280.5476053912294,1604
2282.4197511572766,1634
2284.2914665474727,1707
2286.162751841943,1625
2288.0336073208937,1649
2289.904033264608,1675
2291.774029953448,1640
2293.6435976678554,1609
2295.5127366883517,1598
2297.381447295534,1667
2299.2497297700825,1566
2301.1175843927526,1520
2302.9850114443825,1488
2304.852011205885,1444
2306.7185839582553,1485
2308.5847299825664,1507
2310.4504495599676,1457
2312.3157429716925,1438
2314.1806104990483,1461
2316.0450524234247,1446
2317.9090690262888,1449
2319.772660589186,1493
2321.635827393742,1369
2323.498569721661,1400
2325.3608878547248,1406
2327.2227820747967,1407
2329.0842526638157,1405
2330.945299903803,1407
2332.805924076857,1406
2334.6661254651535,1361
2336.525904350951,1467
2338.3852610165827,1431
2340.244195744464,1382
2342.102708817088,1464
2343.9608005170253,1418
2345.8184711269287,1408
2347.675720929526,1472
2349.532550207628,1401
2351.38895924412,1424
2353.24494832197,1431
2355.100517724223,1348
2356.955667734004,1431
2358.810398634514,1420
2360.664710709037,1431
2362.5186042409337,1389
2364.3720795136437,1496
2366.225136810686,1456
2368.0777764156583,1430
2369.929998612237,1469
2371.7818036841777,1461
2373.633191915315,1433
2375.484163589562,1420
2377.3347189909114,1443
2379.184858403434,1421
2381.03458211128,1400
2382.8838903986775,1394
2384.732783549936,1413
2386.5812618494406,1462
2388.4293255816588,1354
2390.2769750311327,1443
2392.1242104824883,1479
2393.971032220427,1437
2395.8174405297295,1403
2397.6634356952563,1347
2399.509018001947,1484
2401.3541877348193,1428
2403.1989451789705,1370
2405.043290619576,1468
2406.8872243418905,1513
2408.730746631247,1425
2410.5738577730594,1479
2412.4165580528183,1434
2414.258847756095,1443
2416.100727168537,1375
2417.9421965758734,1432
2419.783256263912,1425
2421.623906518538,1412
2423.4641476257157,1403
2425.303979871491,1455
2427.143403541984,1451
2428.9824189233977,1410
2430.821026302012,1433
2432.6592259641866,1499
2434.497018196361,1474
2436.33440328505,1476
2438.171381516851,1441
2440.00795317844,1427
2441.844118556569,1456
2443.6798779380724,1386
2445.5152316098606,1414
2447.3501798589255,1388
2449.1847229723357,1449
2451.0188612372403,1410
2452.8525949408663,1448
2454.6859243705203,1495
2456.518849813587,1426
2458.3513715575314,1473
2460.183489889895,1441
2462.015205098301,1473
2463.8465174704493,1449
2465.67742729412,1442
2467.5079348571717,1432
2469.338040447542,1410
2471.1677443532476,1459
2472.9970468623833,1479
2474.825948263123,1431
2476.6544488437207,1450
2478.482548892508,1454
2480.310248697896,1441
2482.137548548374,1495
2483.9644487325118,1446
2485.790949538956,1469
2487.617051256433,1415
2489.44275417375,1514
2491.26805857979,1428
2493.0929647635157,1518
2494.917473013971,1505
2496.741583620276,1488
2498.5652968716304,1507
2500.3886130573137,1495
2502.2115324666834,1453
2504.0340553891765,1504
2505.856182114308,1507
2507.6779129316733,1484
2509.499248130945,1498
2511.3201880018764,1552
2513.140732834298,1471
2514.9608829181198,1486
2516.780638543331,1483
2518.6,1436
2520.418967578273,1511
2522.237541568376,1477
2524.0557222606144,1533
2525.8735099453706,1500
2527.6909049131086,1465
2529.507907454368,1478
2531.32451785977,1517
2533.140736420014,1466
2534.9565634258774,1613
2536.771999168218,1568
2538.5870439379714,1550
2540.4016980261526,1542
2542.2159617238544,1520
2544.02983532225,1589
2545.8433191125914,1627
2547.656413386209,1618
2549.4691184345115,1590
2551.2814345489874,1574
2553.093362021204,1594
2554.904901142808,1604
2556.716052205523,1655
2558.526815501153,1654
2560.3371913215824,1607
2562.147179958771,1636
2563.956781704761,1624
2565.7659968516705,1616
2567.5748256916986,1646
2569.3832685171224,1601
2571.1913256202984,1686
2572.9989972936614,1672
2574.806283829725,1749
2576.613185521084,1693
2578.4197026604074,1766
2580.2258355404483,1678
2582.031584454035,1706
2583.836949694077,1736
2585.6419315535613,1667
2587.4465303255533,1738
2589.2507463032002,1711
2591.0545797797245,1749
2592.8580310484303,1707
2594.6611004026995,1743
2596.463788135992,1760
2598.266094541849,1732
2600.0680199138874,1735
2601.869564545807,1762
2603.670728731383,1755
2605.4715127644704,1822
2607.2719169390048,1795
2609.071941548998,1778
2610.8715868885433,1717
2612.670853251811,1713
2614.469740933052,1847
2616.268250226594,1741
2618.0663814268455,1799
2619.864134828292,1722
2621.6615107255006,1787
2623.458509413115,1727
2625.2551311858597,1719
2627.0513763385347,1696
2628.8472451660223,1699
2630.6427379632833,1663
2632.4378550253564,1734
2634.232596647359,1681
2636.026963124488,1663
2637.8209547520187,1693
2639.6145718253065,1687
2641.407814639785,1690
2643.200683490966,1600
2644.9931786744414,1643
2646.7853004858807,1619
2648.577049221034,1604
2650.3684251757277,1612
2652.1594286458712,1661
2653.9500599274484,1618
2655.740319316525,1579
2657.5302071092437,1614
2659.3197236018286,1611
2661.10886909058,1571
2662.8976438718782,1600
2664.686048242183,1579
2666.4740824980327,1566
2668.2617469360443,1574
2670.0490418529134,1485
2671.8359675454153,1555
2673.622524310403,1541
2675.408712444811,1554
2677.1945322456495,1559
2678.979984010009,1478
2680.76506803506,1527
2682.5497846180497,1519
2684.334134056306,1525
2686.1181166472343,1556
2687.9017326883213,1501
2689.6849824771293,1503
2691.4678663113013,1530
2693.2503844885596,1426
2695.032537306705,1501
2696.8143250636167,1500
2698.5957480572542,1467
2700.3768065856534,1493
2702.1575009469316,1418
2703.937831439283,1453
2705.717798360982,1498
2707.4974020103837,1433
2709.276642685917,1466
2711.055520686095,1491
2712.834036309506,1469
2714.612189854819,1393
2716.389981620782,1438
2718.1674119062204,1402
2719.944481010041,1455
2721.721189231226,1407
2723.4975368688415,1395
2725.273524222027,1390
2727.0491515900053,1369
2728.824419272075,1393
2730.5993275676146,1374
2732.3738767760838,1420
2734.148067197016,1445
2735.921899130031,1379
2737.6953728748194,1470
2739.468488731156,1399
2741.2412469988926,1415
2743.0136479779617,1394
2744.785691968372,1411
2746.5573792702116,1387
2748.3287101836504,1415
2750.099685008934,1342
2751.870304046388,1375
2753.640567596418,1345
2755.4104759595057,1376
2757.1800294362156,1366
2758.949228327187,1407
2760.7180729331412,1395
2762.486563554877,1360
2764.254700493272,1385
2766.022484049284,1420
2767.789914523947,1414
2769.5569922183786,1424
2771.3237174337705,1324
2773.090090471394,1451
2774.8561116326036,1451
2776.6217812188274,1439
2778.3870995315756,1397
2780.1520668724356,1409
2781.9166835430747,1400
2783.6809498452394,1332
2785.444866080754,1393
2787.2084325515225,1385
2788.971649559527,1405
2790.73451740683,1373
2792.4970363955713,1378
2794.2592068279705,1349
2796.0210290063264,1411
2797.7825032330147,1408
2799.543629810493,1392
2801.304409041296,1401
2803.0648412280366,1410
2804.8249266734088,1354
2806.5846656801846,1401
2808.344058551212,1384
2810.1031055894246,1399
2811.8618070978273,1371
2813.6201633795085,1361
2815.378174737636,1390
2817.1358414754536,1388
2818.893163896285,1396
2820.6501423035334,1404
2822.4067770006814,1377
2824.1630682912883,1371
2825.9190164789957,1385
2827.6746218675207,1440
2829.429884760661,1395
2831.184805462294,1379
2832.9393842763743,1403
2834.693621506936,1364
2836.4475174580916,1389
2838.201072434034,1398
2839.954286739034,1393
2841.707160677441,1406
2843.459694553685,1351
2845.2118886722724,1438
2846.96374333779,1375
2848.7152588549034,1375
2850.4664355283567,1334
2852.217273662973,1394
2853.9677735636546,1373
2855.7179355353833,1426
2857.4677598832186,1375
2859.217246912299,1447
2860.9663969278427,1364
2862.715210235146,1415
2864.4636871395846,1378
2866.211827946614,1370
2867.9596329617652,1384
2869.7071024906536,1408
2871.4542368389684,1426
2873.20103631248,1363
2874.947501217038,1405
2876.6936318585695,1392
2878.4394285430812,1360
2880.1848915766604,1373
2881.9300212654707,1385
2883.6748179157553,1379
2885.4192818338374,1448
2887.1634133261173,1358
2888.907212699077,1441
2890.6506802592744,1399
2892.393816313348,1438
2894.1366211680142,1353
2895.8790951300693,1361
2897.621238506388,1406
2899.363051603925,1357
2901.1045347297118,1390
2902.8456881908596,1374
2904.58651229456,1384
2906.327007348081,1412
2908.067173658772,1421
2909.8070115340597,1406
2911.5465212814497,1443
2913.285703208527,1418
2915.0245576229563,1410
2916.7630848324807,1374
2918.5012851449196,1373
2920.2391588681758,1428
2921.976706310227,1393
2923.7139277791334,1411
2925.4508235830313,1402
2927.187394030137,1365
2928.923639428745,1394
2930.6595600872306,1379
2932.395156314046,1353
2934.1304284177218,1422
2935.8653767068713,1434
2937.6000014901815,1388
2939.3343030764227,1441
2941.068281774442,1387
2942.8019378931644,1376
2944.5352717415976,1345
2946.2682836288236,1415
2948.0009738640065,1366
2949.7333427563885,1361
2951.465390615289,1408
2953.1971177501086,1395
2954.9285244703265,1330
2956.6596110855,1379
2958.3903779052657,1432
2960.1208252393385,1396
2961.8509533975125,1375
2963.5807626896617,1393
2965.3102534257378,1356
2967.0394259157715,1322
2968.768280469873,1330
2970.496817398232,1419
2972.2250370111146,1333
2973.952939618869,1429
2975.6805255319196,1442
2977.4077950607707,1414
2979.134748516006,1442
2980.861386208289,1377
2982.587708448359,1356
2984.313715547037,1348
2986.039407815222,1421
2987.764785563891,1375
2989.489849104102,1382
2991.2145987469908,1384
2992.9390348037705,1368
2994.6631575857346,1439
2996.3869674042576,1387
2998.1104645707887,1389
2999.83364939686,1359
3001.5565221940783,1416
3003.2790832741334,1387
3005.0013329487924,1376
3006.7232715298996,1408
3008.4448993293804,1347
3010.166216659239,1351
3011.887223831558,1289
3013.607921158498,1359
3015.3283089522993,1328
3017.0483875252826,1318
3018.7681571898443,1363
3020.4876182584626,1317
3022.2067710436927,1312
3023.9256158581707,1346
3025.644153014609,1344
3027.362382825801,1382
3029.0803056046193,1335
3030.797921664012,1364
3032.5152313170106,1360
3034.2322348767225,1353
3035.9489326563353,1366
3037.665324969115,1384
3039.3814121284063,1337
3041.097194447633,1404
3042.812672240299,1345
3044.5278458199855,1427
3046.2427155003525,1333
3047.9572815951406,1320
3049.671544418167,1381
3051.38550428333,1383
3053.0991615046073,1366
3054.812516396051,1335
3056.5255692717974,1381
3058.2383204460575,1386
3059.9507702331257,1314
3061.662918947372,1301
3063.3747669032446,1340
3065.0863144152736,1303
3066.7975617980674,1431
3068.508509366309,1357
3070.219157434767,1353
3071.9295063182844,1405
3073.639556331785,1355
3075.3493077902704,1384
3077.058761008821,1349
3078.7679163025964,1358
3080.476773986837,1350
3082.1853343768594,1395
3083.89359778806,1351
3085.6015645359153,1343
3087.3092349359786,1359
3089.016609303884,1382
3090.7236879553434,1362
3092.4304712061476,1377
3094.136959372166,1404
3095.843152769349,1343
3097.5490517137237,1365
3099.2546565213966,1307
3100.959967508554,1346
3102.66498499146,1396
3104.3697092864577,1311
3106.0741407099695,1397
3107.778279578498,1360
3109.482126208622,1416
3111.1856809170004,1353
3112.8889440203716,1347
3114.5919158355528,1410
3116.294596679439,1394
3117.996986869006,1377
3119.6990867213062,1400
3121.4008965534726,1369
3123.102416682717,1407
3124.803647426329,1402
3126.5045891016784,1353
3128.205242026213,1332
3129.90560651746,1427
3131.605682893025,1345
3133.3054714705922,1340
3135.0049725679282,1415
3136.7041865028714,1383
3138.4031135933465,1395
3140.101754157353,1387
3141.800108512971,1365
3143.498176978357,1392
3145.1959598717494,1389
3146.8934575114636,1318
3148.5906702158954,1364
3150.2875983035183,1344
3151.9842420928853,1368
3153.680601902627,1372
3155.376678051456,1348
3157.07247085816,1323
3158.767980641609,1384
3160.463207720748,1428
3162.158152414606,1357
3163.8528150422862,1380
3165.5471959229726,1400
3167.2412953759303,1370
3168.9351137204976,1374
3170.628651276098,1319
3172.3219083622307,1364
3174.014885298474,1356
3175.707582404485,1321
3177.4000000000005,1377
3179.092138404835,1354
3180.7839979388846,1343
3182.47557892212,1386
3184.166881674594,1330
3185.8579065164386,1303
3187.5486537678626,1399
3189.2391237491547,1412
3190.9293167806827,1360
3192.6192331828934,1345
3194.3088732763117,1321
3195.998237381542,1305
3197.687325819268,1353
3199.376138910251,1327
3201.064676975334,1333
3202.7529403354347,1343
3204.4409293115523,1362
3206.1286442247647,1332
3207.816085396229,1343
3209.5032531471825,1300
3211.190147798936,1290
3212.8767696728846,1314
3214.5631190905015,1292
3216.2491963733373,1308
3217.9350018430214,1322
3219.6205358212637,1335
3221.305798629851,1345
3222.990790590651,1313
3224.6755120256103,1297
3226.359963256751,1258
3228.0441446061795,1295
3229.7280563960758,1299
3231.411698948703,1256
3233.0950725863995,1344
3234.778177631587,1314
3236.461014406761,1331
3238.1435832345005,1385
3239.8258844374595,1289
3241.507918338374,1338
3243.1896852600576,1405
3244.8711855254023,1426
3246.552419457381,1326
3248.233387379042,1359
3249.914089613516,1364
3251.59452648401,1360
3253.274698313813,1370
3254.95460542629,1326
3256.6342481448855,1309
3258.313626793125,1308
3259.9927416946084,1298
3261.6715931730196,1315
3263.3501815521176,1368
3265.0285071557437,1326
3266.706570307815,1300
3268.3843713323286,1296
3270.0619105533615,1286
3271.739188295068,1318
3273.4162048816834,1302
3275.0929606375184,1305
3276.769455886966,1392
3278.445690954498,1368
3280.1216661646613,1320
3281.797381842087,1345
3283.4728383114807,1372
3285.1480358976296,1315
3286.8229749253996,1328
3288.4976557197333,1285
3290.172078605655,1226
3291.846243908266,1304
3293.5201519527463,1289
3295.193803064357,1280
3296.8671975684374,1305
3298.5403357904024,1301
3300.21321805575,1356
3301.8858446900567,1317
3303.558216018975,1314
3305.23033236824,1314
3306.9021940636603,1365
3308.57380143113,1392
3310.2451547966184,1319
3311.916254486174,1350
3313.5871008259246,1356
3315.2576941420766,1313
3316.9280347609147,1328
3318.5981230088046,1345
3320.2679592121895,1310
3321.9375436975924,1322
3323.606876791612,1287
3325.27595882093,1341
3326.944790112305,1333
3328.6133709925753,1298
3330.2817017886573,1291
3331.949782827547,1298
3333.617614436319,1313
3335.2851969421245,1311
3336.952530672199,1298
3338.619615953853,1326
3340.286453114475,1315
3341.9530424815357,1301
3343.619384382583,1316
3345.2854791452437,1406
3346.951327097224,1339
3348.6169285663073,1315
3350.2822838803577,1308
3351.947393367319,1332
3353.61225735521,1317
3355.2768761721345,1304
3356.9412501462693,1334
3358.605379605873,1336
3360.2692648792827,1299
3361.9329062949146,1245
3363.596304181263,1291
