CollectionTime,7/10/2024 4:04:37 PM
ExposureUsed,3
CalibratedSpectrum
-962.7078968117929,501
-959.9714848408522,557
-957.2358232597828,575
-954.5009119013725,540
-951.7667505983302,545
-949.0333391832855,566
-946.3006774887896,548
-943.5687653473143,589
-940.837602591253,559
-938.1071890529199,592
-935.3775245645503,543
-932.6486089583007,575
-929.9204420662485,606
-927.1930237203925,566
-924.4663537526524,588
-921.7404319948689,611
-919.0152582788041,616
-916.2908324361409,613
-913.5671542984834,601
-910.8442236973568,566
-908.1220404642074,588
-905.4006044304027,591
-902.679915427231,626
-899.959973285902,570
-897.2407778375464,573
-894.5223289132158,551
-891.8046263438832,578
-889.0876699604426,592
-886.3714595937089,592
-883.6559950744183,556
-880.9412762332282,542
-878.2273029007168,555
-875.5140749073835,568
-872.8015920836489,544
-870.0898542598545,551
-867.3788612662631,556
-864.6686129330585,548
-861.9591090903457,541
-859.2503495681506,566
-856.5423341964203,548
-853.8350628050229,584
-851.1285352237478,553
-848.4227512823054,565
-845.7177108103272,571
-843.0134136373656,552
-840.3098595928943,556
-837.6070485063082,617
-834.9049802069229,618
-832.2036545239757,618
-829.5030712866244,583
-826.8032303239481,594
-824.1041314649472,572
-821.4057745385428,570
-818.7081593735775,567
-816.0112857988148,598
-813.3151536429393,577
-810.6197627345566,590
-807.9251129021936,595
-805.2312039742981,613
-802.5380357792392,578
-799.8456081453069,595
-797.1539209007124,580
-794.462973873588,562
-791.772766891987,612
-789.083299783884,565
-786.3945723771743,581
-783.7065844996748,569
-781.0193359791231,588
-778.3328266431781,588
-775.6470563194197,596
-772.9620248353489,571
-770.2777320183878,605
-767.5941776958798,599
-764.9113616950891,612
-762.2292838432011,634
-759.5479439673222,595
-756.8673418944801,571
-754.1874774516235,572
-751.5083504656222,602
-748.8299607632671,610
-746.15230817127,597
-743.475392516264,631
-740.7992136248035,648
-738.1237713233636,605
-735.4490654383407,597
-732.7750957960521,649
-730.1018622227365,684
-727.4293645445534,646
-724.7576025875837,594
-722.0865761778291,596
-719.4162851412126,612
-716.7467293035781,605
-714.0779084906909,625
-711.409822528237,606
-708.7424712418238,594
-706.0758544569796,620
-703.4099719991541,639
-700.7448236937178,661
-698.0804093659622,641
-695.4167288411002,621
-692.7537819442656,647
-690.0915685005134,679
-687.4300883348199,662
-684.7693412720819,632
-682.1093271371178,651
-679.4500457546669,644
-676.7914969493897,638
-674.1336805458676,607
-671.4765963686034,647
-668.8202442420206,660
-666.1646239904642,637
-663.5097354382001,636
-660.8555784094151,635
-658.2021527282176,664
-655.5494582186366,644
-652.8974947046223,676
-650.2462620100463,630
-647.5957599587009,647
-644.9459883742998,672
-642.2969470804776,698
-639.6486359007902,703
-637.0010546587141,698
-634.3542031776476,707
-631.7080812809096,698
-629.0626887917401,698
-626.4180255333008,714
-623.7740913286734,702
-621.1308860008619,720
-618.4884093727904,701
-615.8466612673046,683
-613.2056415071715,712
-610.5653499150785,704
-607.9257863136347,687
-605.28695052537,713
-602.6488423727357,736
-600.0114616781036,705
-597.3748082637674,677
-594.7388819519412,737
-592.1036825647604,736
-589.4692099242818,767
-586.8354638524829,709
-584.2024441712624,712
-581.5701507024403,737
-578.9385832677575,705
-576.3077416888759,771
-573.6776257873787,751
-571.0482353847704,716
-568.4195703024757,722
-565.7916303618415,741
-563.164415384135,697
-560.5379251905453,731
-557.9121596021815,720
-555.2871184400748,766
-552.6628015251767,818
-550.0392086783606,759
-547.4163397204204,725
-544.794194472071,752
-542.1727727539491,769
-539.5520743866118,758
-536.9320991905377,799
-534.3128469861261,875
-531.6943175936979,907
-529.0765108334947,841
-526.4594265256793,852
-523.8430644903358,961
-521.2274245474689,1077
-518.612506517005,1158
-515.9983102187913,1136
-513.3848354725959,1145
-510.77208209810846,1189
-508.16004991493924,1290
-505.5487387426199,1350
-502.9381484006032,1614
-500.3282787082628,1654
-497.71912948489364,1682
-495.1107005497117,1626
-492.5029917218539,1469
-489.8960028203786,1288
-487.28973366426493,1201
-484.68418407241325,1117
-482.07935386364494,978
-479.47524285670266,936
-476.87185087025,949
-474.2691777228715,980
-471.66722323307334,949
-469.0659872192821,943
-466.4654694998459,968
-463.86566989303384,926
-461.26658821703614,940
-458.66822428996414,901
-456.07057792985,921
-453.4736489546475,946
-450.877437182231,875
-448.28194243039627,900
-445.68716451686,900
-443.09310325926003,884
-440.49975847515555,906
-437.9071299820263,884
-435.31521759727354,905
-432.72402113821954,1018
-430.13354042210767,920
-427.5437752661022,944
-424.95472548728867,951
-422.36639090267386,990
-419.7787713291855,990
-417.1918665836721,999
-414.60567648290385,1049
-412.0202008435715,950
-409.4354394822874,988
-406.8513922155845,1001
-404.26805885991723,1040
-401.685439231661,1014
-399.103533147112,1052
-396.522340422488,1052
-393.9418608739278,986
-391.3620943174908,990
-388.7830405691583,1002
-386.2046994448317,938
-383.6270707603344,934
-381.05015433141045,874
-378.473949973725,815
-375.8984575028645,795
-373.32367673433623,787
-370.74960748356875,749
-368.1762495659117,665
-365.60360279663576,642
-363.03166699093265,583
-360.4604419639154,559
-357.8899275306178,533
-355.32012350599507,548
-352.7510297049233,543
-350.1826459421999,500
-347.61497203254316,521
-345.04800779059235,476
-342.4817530309082,509
-339.91620756797226,523
-337.35137121618743,510
-334.7872437898774,522
-332.22382510328725,540
-329.66111497058273,519
-327.09911320585127,505
-324.53781962310075,506
-321.9772340362607,528
-319.4173562591816,496
-316.8581861056348,481
-314.2997233893127,478
-311.7419679238294,497
-309.1849195227194,485
-306.62857799943856,556
-304.0729431673641,566
-301.51801483979375,579
-298.963792829947,527
-296.41027695096386,608
-293.85746701590574,590
-291.3053628377552,570
-288.7539642294155,588
-286.2032710037115,555
-283.65328297338897,575
-281.1039999511146,671
-278.5554217494762,672
-276.007548180983,589
-273.4603790580651,561
-270.9139141930734,554
-268.3681533982807,609
-265.8230964858798,599
-263.27874326798565,612
-260.7350935566336,602
-258.1921471637804,648
-255.6499039013039,661
-253.10836358100266,685
-250.56752601459698,629
-248.02739101372765,638
-245.48795838995704,645
-242.94922795476816,687
-240.41119951956557,678
-237.8738728956746,694
-235.33724789434166,727
-232.80132432673452,696
-230.2661020039418,628
-227.73158073697357,651
-225.19776033676033,698
-222.66464061415422,754
-220.1322213799284,733
-217.60050244477725,753
-215.06948361931552,676
-212.53916471408013,690
-210.00954553952818,746
-207.48062590603843,816
-204.9524056239104,737
-202.4248845033651,773
-199.8980623545441,720
-197.37193898751036,792
-194.84651421224817,816
-192.32178783866232,809
-189.79775967657952,906
-187.27442953574644,896
-184.7517972258321,905
-182.2298625564256,942
-179.7086253370378,887
-177.18808537710026,856
-174.66824248596583,865
-172.14909647290835,825
-169.6306471471229,877
-167.11289431772548,969
-164.59583779375328,969
-162.07947738416453,932
-159.5638128978386,915
-157.04884414357605,915
-154.53457093009854,965
-152.02099306604828,954
-149.50811035998936,852
-146.99592262040665,800
-144.48442965570587,967
-141.97363127421409,1019
-139.46352728417958,984
-136.95411749377126,966
-134.44540171107985,948
-131.93737974411636,928
-129.43005140081357,954
-126.92341648902493,1185
-124.41747481652521,1375
-121.91222619101006,1690
-119.40767042009657,1902
-116.90380731132257,2307
-114.40063667214702,2575
-111.8981583099503,2686
-109.3963720320337,2610
-106.89527764561933,2192
-104.39487495785067,1876
-101.89516377579241,2118
-99.39614390642998,3907
-96.89781515667039,5215
-94.40017733334128,5101
-91.90323024319173,3966
-89.40697369289148,3103
-86.91140748903172,3968
-84.41653143812482,4936
-81.92234534660395,5562
-79.42884902082358,6330
-76.93604226705907,9278
-74.4439248915071,15181
-71.95249670028534,23613
-69.46175749943245,28244
-66.97170709490854,27796
-64.48234529259423,22829
-61.99367189829195,18818
-59.50568671772464,12676
-57.01838955653636,8802
-54.53178022029283,10122
-52.045858514480074,11936
-49.560624244506016,11627
-47.07607721569923,12190
-44.59221723330904,12579
-42.10904410250669,12526
-39.62655762838392,12230
-37.14475761595372,14450
-34.66364387015028,18259
-32.18321619582866,18311
-29.70347439776515,15901
-27.224418280657005,14777
-24.74604764912317,13968
-22.26836230770266,15592
-19.7913620608565,23841
-17.315046712966478,39677
-14.83941606833514,53970
-12.36446993118659,65038
-9.89020810566592,65038
-7.416630395839093,65038
-4.94373660569363,65038
-2.471526539137585,65038
-6.821210263296962E-13,65038
2.47084320796705,65038
4.941003281093458,65038
7.410480415786196,65038
9.879274808531363,65038
12.347386655893956,65038
14.814816154518212,65038
17.28156350112681,65038
19.74762889252179,65038
22.21301252558385,65038
24.67771459727237,21249
27.141735304626195,4579
29.605074844762612,2782
32.06773341487792,2486
34.52971121224755,2409
36.99100843422559,2862
39.45162527824516,2724
41.91156194181792,2180
44.370818622535126,1912
46.82939551806646,1745
49.287292826160524,1784
51.74451074464503,2455
54.201049471426245,2306
56.65690920448981,1854
59.112090141899785,1608
61.56659248179983,1472
64.02041642241159,1267
66.4735621620365,1177
68.92602989905402,1258
71.37781983192338,1222
73.82893215918205,1407
76.27936707944684,1481
78.72912479141326,1477
81.17820549385567,1479
83.62660938562783,1522
86.07433666566146,1457
88.5213875329681,1181
90.96776218663751,1081
93.41346082583925,1075
95.85848364982041,1261
98.30283085790859,1505
100.7465026495089,1297
103.18949922410604,1180
105.63182078126385,1112
108.07346752062438,1174
110.51443964190923,1241
112.95473734491827,1206
115.39436082953114,1139
117.83331029570547,1175
120.27158594347827,1271
122.7091879729652,1386
125.1461165843615,1334
127.58237197794062,1274
130.01795435405518,1067
132.4528639131364,1038
134.88710085569494,1114
137.32066538231982,979
139.75355769367923,932
142.1857779905207,915
144.61732647366978,899
147.04820334403132,874
149.47840880258934,919
151.90794305040674,1045
154.33680628862487,1126
156.76499871846443,1385
159.19252054122433,1578
161.61937195828352,1587
164.04555317109896,1730
166.47106438120693,1969
168.89590579022217,2109
171.320077599839,2150
173.7435800118302,2210
176.16641322804742,2403
178.58857745042144,2523
181.01007288096173,2602
183.43089972175687,2618
185.85105817497413,2603
188.27054844285988,2569
190.6893707277394,2620
193.10752523201643,2639
195.5250121581745,2528
197.9418317087751,2627
200.3579840864594,2751
202.7734694939469,2676
205.18828813403627,2821
207.6024402096051,2895
210.01592592360964,2954
212.42874547908548,2830
214.84089907914665,2855
217.2523869269868,2815
219.66320922587727,2838
222.0733661791695,2829
224.48285799029293,2750
226.8916848627572,2769
229.29984700014882,2839
231.7073446061355,2891
234.11417788446204,2875
236.520347038953,2858
238.92585227351185,2872
241.33069379212054,2952
243.73487179884035,2968
246.1383864978112,3005
248.541238093252,2952
250.9434267894609,2928
253.34495279081432,2863
255.74581630176783,2931
258.1460175268563,2940
260.54555667069314,2824
262.9444339379703,2938
265.3426495334594,2869
267.7402036620107,2831
270.1370965285529,2835
272.53332833809407,2792
274.9288992957214,2773
277.32380960660055,2730
279.718059475976,2679
282.1116491091717,2742
284.5045787115897,2571
286.89684848871195,2595
289.2884586460981,2586
291.67940938938807,2720
294.0697009242996,2683
296.4593334566299,2725
298.84830719225477,2614
301.23662233712923,2629
303.6242790972866,2616
306.01127767884,2541
308.39761828798066,2590
310.78330113097934,2653
313.16832641418534,2614
315.5526943440269,2511
317.9364051270112,2372
320.3194589697242,2414
322.70185607883093,2543
325.0835966610754,2458
327.4646809232805,2354
329.8451090723478,2287
332.2248813152577,2302
334.6039978590701,2379
336.9824589109231,2349
339.36026467803447,2274
341.7374153677,2256
344.113911187295,2315
346.48975234427337,2289
348.8649390461686,2300
351.2394715005918,2266
353.61334991523415,2224
355.9865744978655,2236
358.35914545633375,2187
360.73106299856715,2198
363.10232733257146,2158
365.47293866643247,2234
367.84289720831396,2213
370.2122031664593,2203
372.5808567491905,2243
374.9488581649083,2152
377.31620762209275,2136
379.6829053293021,2225
382.0489514951745,2158
384.4143463284262,2143
386.7790900378528,2175
389.14318283232853,2194
391.50662492080653,2137
393.86941651231916,2174
396.23155781597745,2094
398.5930490409713,2127
400.9538903965696,2189
403.3140820921202,2203
405.6736243370498,2144
408.03251734086336,2103
410.3907613131465,2165
412.74835646356166,2047
415.10530300185144,2075
417.4616011378372,2084
419.81725108141893,2084
422.1722530425758,2081
424.5266072313656,2047
426.880313857925,2160
429.2333731324701,2059
431.58578526529516,2096
433.9375504667738,2002
436.2886689473588,2076
438.63914091758113,2067
440.9889665880513,2055
443.33814616945835,2078
445.68667987257015,1973
448.03456790823395,1999
450.3818104873759,2049
452.72840782100013,2040
455.07436012019105,2041
457.41966759611057,2008
459.7643304600007,2003
462.10834892318155,1967
464.4517231970525,2007
466.79445349309174,1956
469.1365400228566,1982
471.4779829979826,2118
473.81878263018564,2097
476.15893913125876,2046
478.4984527130747,2130
480.8373235875855,2147
483.17555196682144,2170
485.5131380628919,2129
487.8500820879857,2299
490.1863842543697,2455
492.52204477439034,2666
494.8570638604725,2842
497.1914417251204,3208
499.52517858091653,3478
501.85827464052306,3579
504.19073011668036,3733
506.5225452222086,3728
508.85372017000566,3604
511.18425517304956,3529
513.514150444396,3515
515.8434061971808,4069
518.1720226446176,4855
520.4999999999999,5119
522.8273384766991,4906
525.1540382881666,4614
527.480099647932,4119
529.8055227696037,3480
532.1303078668694,2831
534.454455153496,2520
536.777964843328,2366
539.1008371502907,2234
541.4230722883866,2254
543.744670471698,2226
546.0656319143858,2196
548.3859568306899,2148
550.7056454349294,2117
553.0246979415016,2140
555.3431145648834,2046
557.6608955196306,2103
559.978041020377,2039
562.2945512818363,2100
564.6104265188006,2170
566.9256669461412,2169
569.2402727788082,2100
571.5542442318302,2070
573.8675815203156,2166
576.1802848594508,2209
578.4923544645015,2141
580.8037905508126,2174
583.114593333807,2204
585.4247630289875,2235
587.7342998519354,2193
590.0432040183106,2262
592.3514757438526,2211
594.6591152443794,2213
596.9661227357875,2159
599.2724984340531,2276
601.578242555231,2215
603.8833553154542,2160
606.1878369309362,2230
608.4916876179676,2125
610.7949075929192,2156
613.0974970722403,2138
615.3994562724587,2101
617.7007854101818,2150
620.0014847020951,2092
622.3015543649641,2196
624.6009946156324,2141
626.8998056710224,2115
629.1979877481361,2095
631.4955410640538,2111
633.7924658359349,2130
636.0887622810175,2131
638.3844306166192,2164
640.6794710601358,2128
642.9738838290426,2178
645.2676691408932,2159
647.5608272133207,2207
649.853358264037,2203
652.1452625108324,2140
654.4365401715764,2161
656.7271914642178,2241
659.0172166067838,2211
661.3066158173809,2188
663.5953893141935,2149
665.8835373154867,2155
668.1710600396028,2157
670.4579577049639,2129
672.7442305300709,2215
675.0298787335033,2142
677.3149025339197,2132
679.599302150058,2089
681.8830778007342,2160
684.1662297048437,2086
686.4487580813608,2175
688.7306631493387,2121
691.0119451279091,2199
693.2926042362834,2233
695.5726406937516,2106
697.8520547196814,2252
700.1308465335215,2198
702.4090163547982,2129
704.6865644031171,2187
706.9634908981619,2119
709.2397960596965,2065
711.5154801075631,2113
713.7905432616823,2055
716.0649857420548,2177
718.3388077687592,2123
720.612009561953,2139
722.8845913418733,2090
725.1565533288352,2124
727.427895743234,2149
729.6986188055427,2153
731.9687227363137,2175
734.238207756178,2172
736.5070740858458,2150
738.7753219461066,2003
741.0429515578281,2152
743.3099631419569,2067
745.5763569195191,2100
747.8421331116193,2100
750.1072919394409,2134
752.3718336242467,2116
754.6357583873777,2145
756.8990664502545,2150
759.1617580343765,2102
761.423833361321,2120
763.6852926527457,2131
765.9461361303862,2167
768.206364016058,2287
770.4659765316536,2194
772.7249738991469,2164
774.9833563405886,2192
777.2411240781092,2213
779.4982773339183,2110
781.7548163303044,2167
784.010741289634,2181
786.2660524343538,2234
788.5207499869881,2218
790.7748341701416,2206
793.0283052064964,2208
795.2811633188143,2198
797.5334087299362,2227
799.7850416627813,2212
802.0360623403484,2274
804.2864709857143,2181
806.5362678220353,2248
808.7854530725468,2243
811.0340269605625,2218
813.2819897094754,2140
815.5293415427581,2203
817.77608268396,2240
820.0222133567116,2171
822.2677337847211,2246
824.5126441917765,2257
826.7569448017433,2242
829.0006358385675,2136
831.2437175262731,2133
833.4861900889629,2200
835.7280537508192,2190
837.9693087361026,2243
840.2099552691533,2241
842.4499935743896,2128
844.689423876309,2197
846.9282463994886,2261
849.1664613685833,2280
851.4040690083276,2291
853.6410695435349,2220
855.877463199097,2221
858.1132501999847,2236
860.3484307712487,2232
862.5830051380175,2243
864.8169735254988,2240
867.0503361589791,2274
869.2830932638243,2147
871.5152450654786,2259
873.7467917894654,2265
875.9777336613873,2270
878.2080709069252,2259
880.4378037518389,2320
882.666932421968,2225
884.8954571432301,2356
887.1233781416219,2326
889.3506956432192,2386
891.5774098741766,2377
893.803521060728,2289
896.0290294291852,2321
898.2539352059397,2319
900.4782386174619,2366
902.7019398903011,2280
904.925039251085,2243
907.147536926521,2285
909.3694331433943,2266
911.59072812857,2246
913.8114221089921,2297
916.0315153116827,2187
918.2510079637437,2214
920.4699002923547,2246
922.6881925247761,2151
924.905884888345,2212
927.1229776104793,2208
929.3394709186747,2269
931.555365040506,2182
933.7706602036275,2226
935.9853566357709,2230
938.1994545647489,2239
940.4129542184515,2206
942.6258558248488,2240
944.8381596119883,2150
947.0498658079974,2183
949.2609746410825,2165
951.4714863395287,2220
953.6814011316998,2201
955.8907192460387,2134
958.0994409110671,2183
960.3075663553858,2197
962.5150958076741,2120
964.7220294966913,2146
966.928367651274,2157
969.1341105003388,2122
971.3392582728806,2098
973.5438111979742,2120
975.747769504772,2087
977.9511334225061,2169
980.153903180487,2089
982.3560790081052,2021
984.5576611348289,2078
986.7586497902058,2187
988.9590452038618,2090
991.158847605503,2048
993.3580572249133,2021
995.5566742919558,2022
997.7546990365728,2038
999.952131688785,1946
1002.1489724786926,2026
1004.3452216364743,1939
1006.5408793923874,1919
1008.7359459767691,1888
1010.9304216200343,1896
1013.1243065526781,1945
1015.3176010052733,1854
1017.510305208472,1841
1019.7024193930064,1825
1021.8939437896848,1887
1024.0848786293977,1878
1026.2752241431122,1861
1028.4649805618747,1835
1030.6541481168115,1746
1032.842727039127,1835
1035.0307175601051,1808
1037.2181199111074,1817
1039.4049343235752,1800
1041.591161029029,1848
1043.7768002590683,1790
1045.9618522453698,1809
1048.1463172196918,1837
1050.3301954138697,1787
1052.513487059818,1779
1054.69619238953,1772
1056.8783116350783,1846
1059.0598450286152,1819
1061.2407928023704,1755
1063.4211551886528,1788
1065.6009324198508,1800
1067.780124728432,1815
1069.9587323469414,1843
1072.1367555080046,1774
1074.314194444325,1785
1076.4910493886855,1843
1078.667320573947,1822
1080.843008233051,1779
1083.0181125990161,1824
1085.1926339049414,1741
1087.3665723840027,1731
1089.5399282694575,1813
1091.7127017946405,1777
1093.8848931929647,1778
1096.0565026979243,1799
1098.2275305430899,1737
1100.3979769621128,1718
1102.567842188722,1768
1104.737126456726,1694
1106.9058300000124,1747
1109.0739530525475,1752
1111.2414958483764,1758
1113.4084586216231,1724
1115.5748416064907,1682
1117.7406450372605,1705
1119.9058691482942,1725
1122.0705141740304,1717
1124.2345803489884,1670
1126.3980679077658,1666
1128.5609770850388,1714
1130.7233081155623,1747
1132.8850612341707,1703
1135.0462366757774,1686
1137.2068346753745,1697
1139.3668554680326,1698
1141.526299288901,1654
1143.68516637321,1731
1145.8434569562655,1640
1148.001171273455,1720
1150.158309560244,1684
1152.3148720521767,1726
1154.470858984876,1635
1156.626270594044,1638
1158.7811071154629,1717
1160.9353687849912,1660
1163.089055838569,1723
1165.242168512213,1619
1167.3947070420209,1637
1169.5466716641677,1624
1171.6980626149075,1657
1173.8488801305748,1640
1175.9991244475814,1657
1178.1487958024186,1710
1180.2978944316555,1657
1182.4464205719428,1590
1184.5943744600072,1641
1186.7417563326567,1666
1188.8885664267755,1703
1191.0348049793297,1662
1193.1804722273619,1687
1195.325568407995,1695
1197.4700937584303,1674
1199.614048515948,1673
1201.7574329179074,1615
1203.900247201746,1681
1206.042491604982,1626
1208.1841663652099,1611
1210.3252717201053,1623
1212.465807907422,1610
1214.6057751649923,1673
1216.7451737307279,1674
1218.8840038426192,1680
1221.0222657387353,1698
1223.1599596572241,1593
1225.2970858363137,1725
1227.4336445143094,1714
1229.5696359295966,1670
1231.705060320639,1654
1233.8399179259786,1675
1235.9742089842384,1692
1238.107933734118,1657
1240.2410924143974,1706
1242.373685263935,1708
1244.5057125216676,1693
1246.6371744266116,1682
1248.7680712178621,1706
1250.898403134593,1730
1253.028170416058,1675
1255.1573733015875,1742
1257.2860120305932,1669
1259.4140868425648,1700
1261.54159797707,1713
1263.6685456737569,1696
1265.7949301723515,1722
1267.9207517126597,1774
1270.046010534565,1747
1272.1707068780306,1788
1274.2948409830983,1748
1276.4184130898889,1780
1278.541423438603,1699
1280.6638722695184,1739
1282.785759822993,1747
1284.9070863394636,1709
1287.0278520594447,1803
1289.1480572235314,1765
1291.2677020723963,1803
1293.3867868467923,1727
1295.5053117875495,1770
1297.623277135579,1740
1299.740683131868,1758
1301.8575300174857,1804
1303.973818033578,1826
1306.0895474213703,1769
1308.2047184221678,1798
1310.3193312773528,1783
1312.4333862283888,1836
1314.5468835168163,1779
1316.659823384255,1841
1318.7722060724045,1854
1320.8840318230418,1845
1322.9953008780249,1770
1325.1060134792888,1821
1327.2161698688478,1859
1329.3257702887959,1717
1331.4348149813054,1839
1333.5433041886276,1817
1335.6512381530933,1754
1337.7586171171101,1794
1339.8654413231675,1841
1341.9717110138317,1754
1344.0774264317488,1797
1346.1825878196432,1734
1348.2871954203192,1807
1350.3912494766587,1801
1352.4947502316231,1706
1354.5976979282532,1771
1356.7000928096686,1763
1358.8019351190665,1769
1360.9032250997243,1835
1363.0039629949988,1751
1365.1041490483235,1716
1367.2037835032133,1820
1369.3028666032606,1782
1371.401398592137,1798
1373.4993797135926,1848
1375.5968102114575,1727
1377.6936903296396,1788
1379.7900203121262,1818
1381.8858004029835,1858
1383.9810308463561,1808
1386.075711886469,1806
1388.1698437676241,1822
1390.2634267342032,1764
1392.356461030667,1762
1394.4489469015557,1778
1396.5408845914872,1850
1398.6322743451592,1832
1400.7231164073469,1778
1402.813411022907,1814
1404.903158436773,1895
1406.9923588939578,1824
1409.0810126395531,1793
1411.1691199187303,1858
1413.2566809767386,1857
1415.343696058907,1917
1417.4301654106425,1829
1419.5160892774315,1858
1421.6014679048399,1846
1423.6863015385125,1864
1425.7705904241707,1870
1427.8543348076178,1907
1429.9375349347342,1953
1432.0201910514802,1909
1434.102303403894,1914
1436.1838722380944,1913
1438.2648978002767,1969
1440.3453803367174,1921
1442.4253200937692,1940
1444.5047173178677,1969
1446.5835722555234,1952
1448.6618851533285,1992
1450.739656257952,2066
1452.8168858161434,2042
1454.8935740747306,1971
1456.96972128062,2069
1459.045327680797,2096
1461.120393522327,2078
1463.1949190523528,2120
1465.2689045180973,2133
1467.3423501668608,2168
1469.415256246024,2135
1471.4876230030463,2211
1473.559450685465,2262
1475.6307395408976,2317
1477.7014898170391,2240
1479.771701761665,2189
1481.8413756226287,2318
1483.9105116478618,2271
1485.9791100853772,2329
1488.0471711832643,2279
1490.1146951896926,2261
1492.1816823529098,2372
1494.2481329212433,2403
1496.3140471430984,2506
1498.3794252669609,2435
1500.4442675413939,2335
1502.5085742150404,2479
1504.572345536622,2535
1506.6355817549388,2451
1508.6982831188702,2434
1510.7604498773744,2575
1512.8220822794883,2525
1514.8831805743293,2634
1516.9437450110909,2553
1519.003775839048,2662
1521.0632733075522,2604
1523.1222376660367,2698
1525.1806691640113,2611
1527.2385680510652,2642
1529.2959345768668,2777
1531.3527689911643,2704
1533.4090715437833,2775
1535.4648424846291,2866
1537.5200820636855,2826
1539.5747905310159,2797
1541.6289681367616,2808
1543.6826151311434,2930
1545.7357317644614,3033
1547.7883182870937,2932
1549.8403749494987,3012
1551.8919020022113,3045
1553.9428996958477,3079
1555.9933682811015,3138
1558.0433080087469,3204
1560.0927191296346,3271
1562.1416018946961,3305
1564.1899565549415,3253
1566.2377833614592,3378
1568.2850825654164,3228
1570.3318544180606,3152
1572.3780991707158,3099
1574.423817074788,3104
1576.4690083817595,2982
1578.5136733431923,2802
1580.5578122107272,2901
1582.601425236085,2680
1584.6445126710646,2645
1586.6870747675434,2559
1588.7291117774776,2411
1590.7706239529034,2327
1592.8116115459347,2348
1594.8520748087658,2258
1596.8920139936686,2258
1598.9314293529933,2192
1600.9703211391711,2235
1603.008689604711,2125
1605.0465350022005,2026
1607.0838575843068,2103
1609.1206576037753,2060
1611.1569353134305,2003
1613.1926909661765,1989
1615.2279248149953,1979
1617.2626371129481,1972
1619.2968281131757,1985
1621.3304980688963,1984
1623.3636472334088,1854
1625.39627586009,1852
1627.428384202396,1901
1629.459972513861,1895
1631.4910410480993,1859
1633.5215900588028,1817
1635.551619799744,1811
1637.5811305247717,1798
1639.6101224878166,1874
1641.6385959428862,1820
1643.6665511440683,1800
1645.693988345528,1789
1647.7209078015112,1786
1649.7473097663405,1801
1651.7731944944203,1825
1653.7985622402307,1838
1655.823413258333,1792
1657.847747803366,1792
1659.8715661300494,1746
1661.8948684931793,1782
1663.9176551476316,1738
1665.9399263483624,1718
1667.9616823504057,1783
1669.982923408873,1854
1672.0036497789574,1812
1674.0238617159293,1799
1676.043559475138,1809
1678.0627433120121,1810
1680.081413482059,1734
1682.0995702408654,1806
1684.117213844096,1830
1686.134344547495,1859
1688.1509626068864,1836
1690.1670682781705,1748
1692.182661817329,1814
1694.1977434804217,1806
1696.2123135235875,1818
1698.226372203043,1772
1700.2399197750851,1820
1702.2529564960905,1789
1704.2654826225112,1791
1706.277498410882,1789
1708.2890041178139,1757
1710.2999999999988,1703
1712.3104863142066,1781
1714.3204633172854,1741
1716.329931266163,1746
1718.3388904178469,1789
1720.3473410294214,1767
1722.3552833580516,1796
1724.3627176609807,1711
1726.3696441955308,1742
1728.3760632191033,1792
1730.3819749891782,1701
1732.3873797633146,1626
1734.3922777991502,1713
1736.3966693544012,1795
1738.4005546868639,1759
1740.4039340544127,1788
1742.406807715001,1746
1744.4091759266616,1803
1746.4110389475054,1818
1748.4123970357223,1710
1750.413250449582,1719
1752.4135994474318,1703
1754.4134442876993,1785
1756.4127852288902,1688
1758.4116225295893,1735
1760.4099564484595,1670
1762.407787244244,1656
1764.405115175764,1710
1766.4019405019203,1723
1768.3982634816916,1701
1770.3940843741357,1706
1772.3894034383907,1662
1774.3842209336717,1738
1776.378537119274,1682
1778.372352254571,1639
1780.3656665990156,1645
1782.3584804121397,1681
1784.3507939535534,1661
1786.3426074829463,1646
1788.3339212600863,1679
1790.3247355448211,1710
1792.3150505970766,1739
1794.3048666768573,1702
1796.2941840442477,1732
1798.2830029594106,1724
1800.2713236825884,1683
1802.2591464741004,1706
1804.2464715943465,1725
1806.2332993038058,1691
1808.2196298630352,1696
1810.2054635326708,1695
1812.190800573428,1678
1814.175641246101,1656
1816.1599858115628,1662
1818.1438345307652,1610
1820.127187664738,1719
1822.1100454745924,1661
1824.092408221516,1738
1826.0742761667766,1701
1828.055649571721,1717
1830.0365286977735,1701
1832.0169138064398,1694
1833.9968051593014,1587
1835.9762030180214,1704
1837.9551076443408,1703
1839.9335193000788,1707
1841.9114382471344,1679
1843.888864747485,1655
1845.8657990631878,1680
1847.842241456378,1711
1849.8181921892697,1654
1851.7936515241558,1611
1853.7686197234098,1699
1855.7430970494815,1671
1857.7170837649014,1658
1859.6905801322787,1630
1861.6635864143004,1726
1863.6361028737338,1657
1865.608129773424,1610
1867.5796673762961,1682
1869.5507159453537,1696
1871.521275743678,1724
1873.4913470344313,1649
1875.4609300808534,1681
1877.4300251462632,1744
1879.3986324940588,1750
1881.366752387717,1742
1883.3343850907936,1739
1885.3015308669228,1723
1887.268189979819,1687
1889.2343626932739,1620
1891.2000492711595,1690
1893.1652499774254,1737
1895.1299650761011,1690
1897.0941948312952,1706
1899.0579395071945,1747
1901.0211993680641,1734
1902.98397467825,1763
1904.9462657021745,1670
1906.9080727043415,1686
1908.869395949332,1667
1910.8302357018065,1656
1912.790592226504,1687
1914.7504657882428,1741
1916.7098566519212,1741
1918.6687650825133,1644
1920.6271913450764,1767
1922.5851357047422,1707
1924.5425984267245,1661
1926.499579776314,1672
1928.4560800188833,1752
1930.4120994198802,1688
1932.367638244833,1711
1934.32269675935,1708
1936.2772752291175,1735
1938.231373919899,1705
1940.1849930975404,1749
1942.1381330279637,1653
1944.0907939771696,1725
1946.0429762112412,1682
1947.9946799963363,1679
1949.9459055986945,1654
1951.896653284633,1704
1953.8469233205478,1655
1955.7967159729142,1733
1957.7460315082863,1701
1959.6948701932974,1693
1961.6432322946594,1676
1963.5911180791632,1680
1965.5385278136787,1600
1967.4854617651545,1659
1969.4319202006182,1693
1971.377903387176,1727
1973.3234115920136,1650
1975.268445082395,1739
1977.2130041256642,1677
1979.1570889892423,1675
1981.1006999406304,1651
1983.04383724741,1671
1984.986501177238,1672
1986.928691997853,1685
1988.8704099770712,1679
1990.811655382789,1642
1992.7524284829801,1629
1994.692729545698,1750
1996.6325588390755,1624
1998.5719166313224,1714
2000.5108031907307,1672
2002.4492187856677,1686
2004.387163684583,1666
2006.3246381560011,1667
2008.2616424685298,1707
2010.1981768908527,1641
2012.1342416917332,1650
2014.069837140014,1595
2016.0049635046162,1593
2017.9396210545406,1629
2019.8738100588666,1638
2021.8075307867502,1636
2023.740783507431,1669
2025.6735684902228,1647
2027.6058860045214,1627
2029.5377363198004,1641
2031.4691197056118,1628
2033.4000364315875,1661
2035.3304867674374,1594
2037.260470982952,1644
2039.189989347998,1651
2041.1190421325232,1567
2043.047629606554,1631
2044.9757520401945,1603
2046.9034097036288,1583
2048.8306028671195,1630
2050.7573318010086,1642
2052.683596775716,1635
2054.609398061742,1619
2056.5347359296647,1518
2058.4596106501403,1621
2060.384022493906,1634
2062.3079717317764,1586
2064.231458634646,1583
2066.1544834734873,1639
2068.077046519352,1615
2069.99914804337,1598
2071.9207883167524,1590
2073.8419676107865,1611
2075.7626861968406,1620
2077.6829443463607,1596
2079.6027423308715,1585
2081.522080421977,1628
2083.440958891362,1694
2085.359378010786,1621
2087.2773380520907,1627
2089.194839287196,1568
2091.111881988101,1654
2093.0284664268825,1613
2094.9445928756973,1650
2096.86026160678,1655
2098.775472892446,1623
2100.690227005088,1650
2102.604524217178,1568
2104.5183648012676,1638
2106.431749029985,1599
2108.34467717604,1547
2110.2571495122206,1534
2112.169166311393,1618
2114.080727846503,1637
2115.9918343905747,1679
2117.902486216711,1629
2119.8126835980956,1680
2121.722426807987,1638
2123.6317161197285,1571
2125.5405518067364,1618
2127.448934142509,1662
2129.356863400624,1614
2131.264339854737,1632
2133.1713637785815,1662
2135.077935445972,1637
2136.9840551308002,1667
2138.889723107037,1649
2140.7949396487334,1674
2142.699705030018,1690
2144.6040195250994,1672
2146.507883408264,1631
2148.4112969538774,1684
2150.3142604363848,1664
2152.2167741303097,1655
2154.1188383102535,1698
2156.0204532508997,1686
2157.9216192270064,1671
2159.822336513414,1647
2161.7226053850413,1708
2163.622426116884,1731
2165.5217989840185,1694
2167.4207242616,1694
2169.319202224862,1767
2171.2172331491165,1711
2173.1148173097563,1691
2175.0119549822507,1697
2176.90864644215,1736
2178.8048919650823,1690
2180.7006918267534,1679
2182.596046302952,1706
2184.4909556695407,1757
2186.3854202024645,1693
2188.279440177746,1735
2190.173015871487,1688
2192.066147559868,1717
2193.958835519149,1667
2195.851080025667,1693
2197.7428813558417,1698
2199.6342397861667,1684
2201.5251555932186,1661
2203.415629053651,1761
2205.3056604441986,1721
2207.19525004167,1730
2209.084398122958,1725
2210.9731049650327,1662
2212.861370844941,1717
2214.749196039812,1776
2216.636580826851,1745
2218.523525483344,1751
2220.410030286655,1728
2222.296095514226,1791
2224.1817214435805,1747
2226.066908352319,1714
2227.951656518121,1740
2229.835966218746,1803
2231.71983773203,1738
2233.6032713358913,1699
2235.486267308324,1738
2237.3688259274036,1766
2239.2509474712824,1688
2241.132632218193,1681
2243.013880446447,1660
2244.8946924344323,1769
2246.7750684606203,1707
2248.6550088035574,1707
2250.534513741871,1762
2252.413583554265,1690
2254.292218519526,1706
2256.170418916517,1771
2258.0481850241786,1755
2259.925517121534,1745
2261.8024154876825,1750
2263.678880401803,1739
2265.5549121431536,1739
2267.430510991071,1758
2269.305677224971,1696
2271.180411124348,1734
2273.0547129687766,1789
2274.9285830379076,1773
2276.8020216114737,1691
2278.6750289692845,1665
2280.5476053912294,1732
2282.4197511572766,1680
2284.2914665474727,1782
2286.162751841943,1760
2288.0336073208937,1844
2289.904033264608,1815
2291.774029953448,1849
2293.6435976678554,1739
2295.5127366883517,1682
2297.381447295534,1716
2299.2497297700825,1639
2301.1175843927526,1642
2302.9850114443825,1708
2304.852011205885,1605
2306.7185839582553,1586
2308.5847299825664,1547
2310.4504495599676,1493
2312.3157429716925,1546
2314.1806104990483,1493
2316.0450524234247,1520
2317.9090690262888,1424
2319.772660589186,1517
2321.635827393742,1528
2323.498569721661,1514
2325.3608878547248,1511
2327.2227820747967,1497
2329.0842526638157,1497
2330.945299903803,1543
2332.805924076857,1478
2334.6661254651535,1504
2336.525904350951,1533
2338.3852610165827,1495
2340.244195744464,1481
2342.102708817088,1449
2343.9608005170253,1512
2345.8184711269287,1479
2347.675720929526,1490
2349.532550207628,1483
2351.38895924412,1519
2353.24494832197,1534
2355.100517724223,1461
2356.955667734004,1524
2358.810398634514,1480
2360.664710709037,1494
2362.5186042409337,1475
2364.3720795136437,1450
2366.225136810686,1562
2368.0777764156583,1482
2369.929998612237,1490
2371.7818036841777,1533
2373.633191915315,1487
2375.484163589562,1477
2377.3347189909114,1485
2379.184858403434,1479
2381.03458211128,1517
2382.8838903986775,1449
2384.732783549936,1434
2386.5812618494406,1458
2388.4293255816588,1498
2390.2769750311327,1485
2392.1242104824883,1517
2393.971032220427,1519
2395.8174405297295,1457
2397.6634356952563,1533
2399.509018001947,1514
2401.3541877348193,1520
2403.1989451789705,1519
2405.043290619576,1470
2406.8872243418905,1518
2408.730746631247,1469
2410.5738577730594,1518
2412.4165580528183,1469
2414.258847756095,1470
2416.100727168537,1463
2417.9421965758734,1515
2419.783256263912,1510
2421.623906518538,1452
2423.4641476257157,1522
2425.303979871491,1432
2427.143403541984,1503
2428.9824189233977,1489
2430.821026302012,1489
2432.6592259641866,1492
2434.497018196361,1504
2436.33440328505,1538
2438.171381516851,1474
2440.00795317844,1512
2441.844118556569,1520
2443.6798779380724,1519
2445.5152316098606,1511
2447.3501798589255,1530
2449.1847229723357,1501
2451.0188612372403,1468
2452.8525949408663,1493
2454.6859243705203,1454
2456.518849813587,1508
2458.3513715575314,1517
2460.183489889895,1462
2462.015205098301,1446
2463.8465174704493,1547
2465.67742729412,1536
2467.5079348571717,1481
2469.338040447542,1475
2471.1677443532476,1497
2472.9970468623833,1512
2474.825948263123,1518
2476.6544488437207,1519
2478.482548892508,1528
2480.310248697896,1506
2482.137548548374,1532
2483.9644487325118,1482
2485.790949538956,1494
2487.617051256433,1513
2489.44275417375,1516
2491.26805857979,1493
2493.0929647635157,1508
2494.917473013971,1549
2496.741583620276,1520
2498.5652968716304,1520
2500.3886130573137,1535
2502.2115324666834,1531
2504.0340553891765,1547
2505.856182114308,1495
2507.6779129316733,1524
2509.499248130945,1547
2511.3201880018764,1545
2513.140732834298,1552
2514.9608829181198,1551
2516.780638543331,1565
2518.6,1552
2520.418967578273,1529
2522.237541568376,1553
2524.0557222606144,1553
2525.8735099453706,1594
2527.6909049131086,1549
2529.507907454368,1513
2531.32451785977,1617
2533.140736420014,1624
2534.9565634258774,1586
2536.771999168218,1592
2538.5870439379714,1622
2540.4016980261526,1610
2542.2159617238544,1594
2544.02983532225,1628
2545.8433191125914,1557
2547.656413386209,1587
2549.4691184345115,1582
2551.2814345489874,1625
2553.093362021204,1648
2554.904901142808,1651
2556.716052205523,1689
2558.526815501153,1699
2560.3371913215824,1656
2562.147179958771,1659
2563.956781704761,1662
2565.7659968516705,1701
2567.5748256916986,1647
2569.3832685171224,1589
2571.1913256202984,1721
2572.9989972936614,1690
2574.806283829725,1755
2576.613185521084,1728
2578.4197026604074,1688
2580.2258355404483,1727
2582.031584454035,1712
2583.836949694077,1723
2585.6419315535613,1682
2587.4465303255533,1718
2589.2507463032002,1751
2591.0545797797245,1744
2592.8580310484303,1753
2594.6611004026995,1759
2596.463788135992,1732
2598.266094541849,1760
2600.0680199138874,1802
2601.869564545807,1807
2603.670728731383,1759
2605.4715127644704,1764
2607.2719169390048,1750
2609.071941548998,1752
2610.8715868885433,1772
2612.670853251811,1798
2614.469740933052,1843
2616.268250226594,1745
2618.0663814268455,1721
2619.864134828292,1742
2621.6615107255006,1755
2623.458509413115,1752
2625.2551311858597,1743
2627.0513763385347,1711
2628.8472451660223,1723
2630.6427379632833,1744
2632.4378550253564,1778
2634.232596647359,1743
2636.026963124488,1729
2637.8209547520187,1711
2639.6145718253065,1643
2641.407814639785,1650
2643.200683490966,1662
2644.9931786744414,1648
2646.7853004858807,1677
2648.577049221034,1650
2650.3684251757277,1695
2652.1594286458712,1592
2653.9500599274484,1641
2655.740319316525,1566
2657.5302071092437,1610
2659.3197236018286,1606
2661.10886909058,1639
2662.8976438718782,1558
2664.686048242183,1526
2666.4740824980327,1591
2668.2617469360443,1596
2670.0490418529134,1562
2671.8359675454153,1586
2673.622524310403,1637
2675.408712444811,1621
2677.1945322456495,1561
2678.979984010009,1566
2680.76506803506,1551
2682.5497846180497,1551
2684.334134056306,1581
2686.1181166472343,1577
2687.9017326883213,1527
2689.6849824771293,1581
2691.4678663113013,1527
2693.2503844885596,1521
2695.032537306705,1531
2696.8143250636167,1521
2698.5957480572542,1551
2700.3768065856534,1506
2702.1575009469316,1535
2703.937831439283,1511
2705.717798360982,1528
2707.4974020103837,1497
2709.276642685917,1525
2711.055520686095,1420
2712.834036309506,1495
2714.612189854819,1457
2716.389981620782,1508
2718.1674119062204,1463
2719.944481010041,1462
2721.721189231226,1497
2723.4975368688415,1461
2725.273524222027,1455
2727.0491515900053,1475
2728.824419272075,1460
2730.5993275676146,1482
2732.3738767760838,1426
2734.148067197016,1439
2735.921899130031,1469
2737.6953728748194,1443
2739.468488731156,1483
2741.2412469988926,1488
2743.0136479779617,1487
2744.785691968372,1455
2746.5573792702116,1524
2748.3287101836504,1456
2750.099685008934,1407
2751.870304046388,1454
2753.640567596418,1450
2755.4104759595057,1459
2757.1800294362156,1494
2758.949228327187,1487
2760.7180729331412,1458
2762.486563554877,1507
2764.254700493272,1462
2766.022484049284,1442
2767.789914523947,1478
2769.5569922183786,1468
2771.3237174337705,1476
2773.090090471394,1476
2774.8561116326036,1499
2776.6217812188274,1422
2778.3870995315756,1438
2780.1520668724356,1464
2781.9166835430747,1391
2783.6809498452394,1416
2785.444866080754,1461
2787.2084325515225,1500
2788.971649559527,1447
2790.73451740683,1464
2792.4970363955713,1403
2794.2592068279705,1427
2796.0210290063264,1421
2797.7825032330147,1488
2799.543629810493,1475
2801.304409041296,1471
2803.0648412280366,1434
2804.8249266734088,1465
2806.5846656801846,1488
2808.344058551212,1447
2810.1031055894246,1502
2811.8618070978273,1460
2813.6201633795085,1437
2815.378174737636,1511
2817.1358414754536,1480
2818.893163896285,1474
2820.6501423035334,1473
2822.4067770006814,1478
2824.1630682912883,1473
2825.9190164789957,1487
2827.6746218675207,1449
2829.429884760661,1500
2831.184805462294,1494
2832.9393842763743,1479
2834.693621506936,1434
2836.4475174580916,1452
2838.201072434034,1524
2839.954286739034,1453
2841.707160677441,1453
2843.459694553685,1459
2845.2118886722724,1498
2846.96374333779,1485
2848.7152588549034,1419
2850.4664355283567,1524
2852.217273662973,1420
2853.9677735636546,1473
2855.7179355353833,1419
2857.4677598832186,1416
2859.217246912299,1438
2860.9663969278427,1402
2862.715210235146,1423
2864.4636871395846,1405
2866.211827946614,1426
2867.9596329617652,1403
2869.7071024906536,1431
2871.4542368389684,1468
2873.20103631248,1498
2874.947501217038,1445
2876.6936318585695,1502
2878.4394285430812,1406
2880.1848915766604,1395
2881.9300212654707,1472
2883.6748179157553,1465
2885.4192818338374,1476
2887.1634133261173,1469
2888.907212699077,1385
2890.6506802592744,1418
2892.393816313348,1456
2894.1366211680142,1455
2895.8790951300693,1460
2897.621238506388,1433
2899.363051603925,1440
2901.1045347297118,1424
2902.8456881908596,1436
2904.58651229456,1467
2906.327007348081,1497
2908.067173658772,1428
2909.8070115340597,1480
2911.5465212814497,1431
2913.285703208527,1438
2915.0245576229563,1458
2916.7630848324807,1390
2918.5012851449196,1415
2920.2391588681758,1370
2921.976706310227,1418
2923.7139277791334,1428
2925.4508235830313,1357
2927.187394030137,1500
2928.923639428745,1436
2930.6595600872306,1482
2932.395156314046,1372
2934.1304284177218,1464
2935.8653767068713,1438
2937.6000014901815,1447
2939.3343030764227,1516
2941.068281774442,1475
2942.8019378931644,1477
2944.5352717415976,1400
2946.2682836288236,1478
2948.0009738640065,1431
2949.7333427563885,1527
2951.465390615289,1478
2953.1971177501086,1461
2954.9285244703265,1459
2956.6596110855,1419
2958.3903779052657,1454
2960.1208252393385,1451
2961.8509533975125,1495
2963.5807626896617,1460
2965.3102534257378,1462
2967.0394259157715,1425
2968.768280469873,1426
2970.496817398232,1382
2972.2250370111146,1508
2973.952939618869,1440
2975.6805255319196,1484
2977.4077950607707,1445
2979.134748516006,1470
2980.861386208289,1455
2982.587708448359,1496
2984.313715547037,1450
2986.039407815222,1407
2987.764785563891,1480
2989.489849104102,1458
2991.2145987469908,1468
2992.9390348037705,1459
2994.6631575857346,1478
2996.3869674042576,1482
2998.1104645707887,1432
2999.83364939686,1428
3001.5565221940783,1425
3003.2790832741334,1488
3005.0013329487924,1428
3006.7232715298996,1409
3008.4448993293804,1414
3010.166216659239,1409
3011.887223831558,1407
3013.607921158498,1458
3015.3283089522993,1423
3017.0483875252826,1403
3018.7681571898443,1443
3020.4876182584626,1373
3022.2067710436927,1463
3023.9256158581707,1422
3025.644153014609,1423
3027.362382825801,1383
3029.0803056046193,1425
3030.797921664012,1442
3032.5152313170106,1426
3034.2322348767225,1431
3035.9489326563353,1463
3037.665324969115,1399
3039.3814121284063,1400
3041.097194447633,1452
3042.812672240299,1470
3044.5278458199855,1451
3046.2427155003525,1421
3047.9572815951406,1434
3049.671544418167,1443
3051.38550428333,1413
3053.0991615046073,1442
3054.812516396051,1358
3056.5255692717974,1406
3058.2383204460575,1435
3059.9507702331257,1427
3061.662918947372,1422
3063.3747669032446,1378
3065.0863144152736,1442
3066.7975617980674,1451
3068.508509366309,1424
3070.219157434767,1414
3071.9295063182844,1407
3073.639556331785,1414
3075.3493077902704,1391
3077.058761008821,1437
3078.7679163025964,1433
3080.476773986837,1421
3082.1853343768594,1434
3083.89359778806,1400
3085.6015645359153,1366
3087.3092349359786,1394
3089.016609303884,1452
3090.7236879553434,1424
3092.4304712061476,1383
3094.136959372166,1358
3095.843152769349,1410
3097.5490517137237,1461
3099.2546565213966,1449
3100.959967508554,1475
3102.66498499146,1458
3104.3697092864577,1482
3106.0741407099695,1405
3107.778279578498,1432
3109.482126208622,1459
3111.1856809170004,1487
3112.8889440203716,1537
3114.5919158355528,1446
3116.294596679439,1445
3117.996986869006,1540
3119.6990867213062,1450
3121.4008965534726,1446
3123.102416682717,1394
3124.803647426329,1410
3126.5045891016784,1427
3128.205242026213,1392
3129.90560651746,1411
3131.605682893025,1450
3133.3054714705922,1411
3135.0049725679282,1431
3136.7041865028714,1431
3138.4031135933465,1401
3140.101754157353,1432
3141.800108512971,1451
3143.498176978357,1367
3145.1959598717494,1429
3146.8934575114636,1445
3148.5906702158954,1411
3150.2875983035183,1410
3151.9842420928853,1372
3153.680601902627,1383
3155.376678051456,1391
3157.07247085816,1427
3158.767980641609,1409
3160.463207720748,1411
3162.158152414606,1425
3163.8528150422862,1432
3165.5471959229726,1468
3167.2412953759303,1451
3168.9351137204976,1470
3170.628651276098,1406
3172.3219083622307,1421
3174.014885298474,1435
3175.707582404485,1455
3177.4000000000005,1405
3179.092138404835,1402
3180.7839979388846,1404
3182.47557892212,1394
3184.166881674594,1444
3185.8579065164386,1382
3187.5486537678626,1418
3189.2391237491547,1391
3190.9293167806827,1382
3192.6192331828934,1352
3194.3088732763117,1335
3195.998237381542,1442
3197.687325819268,1444
3199.376138910251,1389
3201.064676975334,1424
3202.7529403354347,1376
3204.4409293115523,1355
3206.1286442247647,1398
3207.816085396229,1414
3209.5032531471825,1396
3211.190147798936,1339
3212.8767696728846,1423
3214.5631190905015,1425
3216.2491963733373,1351
3217.9350018430214,1362
3219.6205358212637,1390
3221.305798629851,1375
3222.990790590651,1387
3224.6755120256103,1409
3226.359963256751,1381
3228.0441446061795,1376
3229.7280563960758,1369
3231.411698948703,1349
3233.0950725863995,1391
3234.778177631587,1384
3236.461014406761,1375
3238.1435832345005,1384
3239.8258844374595,1412
3241.507918338374,1354
3243.1896852600576,1416
3244.8711855254023,1442
3246.552419457381,1430
3248.233387379042,1441
3249.914089613516,1408
3251.59452648401,1413
3253.274698313813,1389
3254.95460542629,1418
3256.6342481448855,1416
3258.313626793125,1406
3259.9927416946084,1383
3261.6715931730196,1365
3263.3501815521176,1354
3265.0285071557437,1336
3266.706570307815,1381
3268.3843713323286,1428
3270.0619105533615,1355
3271.739188295068,1375
3273.4162048816834,1390
3275.0929606375184,1397
3276.769455886966,1387
3278.445690954498,1398
3280.1216661646613,1430
3281.797381842087,1392
3283.4728383114807,1439
3285.1480358976296,1438
3286.8229749253996,1377
3288.4976557197333,1346
3290.172078605655,1372
3291.846243908266,1381
3293.5201519527463,1369
3295.193803064357,1337
3296.8671975684374,1355
3298.5403357904024,1386
3300.21321805575,1331
3301.8858446900567,1413
3303.558216018975,1338
3305.23033236824,1425
3306.9021940636603,1351
3308.57380143113,1394
3310.2451547966184,1410
3311.916254486174,1378
3313.5871008259246,1376
3315.2576941420766,1433
3316.9280347609147,1389
3318.5981230088046,1352
3320.2679592121895,1409
3321.9375436975924,1375
3323.606876791612,1398
3325.27595882093,1345
3326.944790112305,1374
3328.6133709925753,1365
3330.2817017886573,1341
3331.949782827547,1345
3333.617614436319,1392
3335.2851969421245,1430
3336.952530672199,1464
3338.619615953853,1366
3340.286453114475,1401
3341.9530424815357,1406
3343.619384382583,1405
3345.2854791452437,1385
3346.951327097224,1428
3348.6169285663073,1377
3350.2822838803577,1413
3351.947393367319,1456
3353.61225735521,1355
3355.2768761721345,1340
3356.9412501462693,1402
3358.605379605873,1386
3360.2692648792827,1377
3361.9329062949146,1447
3363.596304181263,1364
