CollectionTime,7/10/2024 4:04:27 PM
ExposureUsed,3
CalibratedSpectrum
-962.7078968117929,502
-959.9714848408522,543
-957.2358232597828,541
-954.5009119013725,529
-951.7667505983302,578
-949.0333391832855,563
-946.3006774887896,575
-943.5687653473143,575
-940.837602591253,592
-938.1071890529199,585
-935.3775245645503,564
-932.6486089583007,569
-929.9204420662485,576
-927.1930237203925,570
-924.4663537526524,551
-921.7404319948689,562
-919.0152582788041,572
-916.2908324361409,601
-913.5671542984834,600
-910.8442236973568,563
-908.1220404642074,554
-905.4006044304027,619
-902.679915427231,605
-899.959973285902,576
-897.2407778375464,539
-894.5223289132158,562
-891.8046263438832,556
-889.0876699604426,572
-886.3714595937089,569
-883.6559950744183,577
-880.9412762332282,556
-878.2273029007168,569
-875.5140749073835,569
-872.8015920836489,561
-870.0898542598545,546
-867.3788612662631,580
-864.6686129330585,572
-861.9591090903457,556
-859.2503495681506,578
-856.5423341964203,549
-853.8350628050229,574
-851.1285352237478,535
-848.4227512823054,565
-845.7177108103272,570
-843.0134136373656,567
-840.3098595928943,563
-837.6070485063082,591
-834.9049802069229,562
-832.2036545239757,622
-829.5030712866244,581
-826.8032303239481,626
-824.1041314649472,596
-821.4057745385428,572
-818.7081593735775,609
-816.0112857988148,545
-813.3151536429393,576
-810.6197627345566,580
-807.9251129021936,565
-805.2312039742981,586
-802.5380357792392,578
-799.8456081453069,577
-797.1539209007124,586
-794.462973873588,574
-791.772766891987,605
-789.083299783884,579
-786.3945723771743,578
-783.7065844996748,552
-781.0193359791231,562
-778.3328266431781,600
-775.6470563194197,583
-772.9620248353489,550
-770.2777320183878,571
-767.5941776958798,572
-764.9113616950891,574
-762.2292838432011,600
-759.5479439673222,566
-756.8673418944801,552
-754.1874774516235,604
-751.5083504656222,586
-748.8299607632671,586
-746.15230817127,612
-743.475392516264,627
-740.7992136248035,616
-738.1237713233636,642
-735.4490654383407,564
-732.7750957960521,631
-730.1018622227365,649
-727.4293645445534,620
-724.7576025875837,621
-722.0865761778291,593
-719.4162851412126,613
-716.7467293035781,655
-714.0779084906909,636
-711.409822528237,680
-708.7424712418238,629
-706.0758544569796,628
-703.4099719991541,632
-700.7448236937178,635
-698.0804093659622,638
-695.4167288411002,616
-692.7537819442656,659
-690.0915685005134,638
-687.4300883348199,626
-684.7693412720819,652
-682.1093271371178,601
-679.4500457546669,629
-676.7914969493897,654
-674.1336805458676,658
-671.4765963686034,679
-668.8202442420206,677
-666.1646239904642,657
-663.5097354382001,632
-660.8555784094151,655
-658.2021527282176,652
-655.5494582186366,661
-652.8974947046223,654
-650.2462620100463,666
-647.5957599587009,676
-644.9459883742998,650
-642.2969470804776,675
-639.6486359007902,651
-637.0010546587141,685
-634.3542031776476,688
-631.7080812809096,691
-629.0626887917401,687
-626.4180255333008,704
-623.7740913286734,707
-621.1308860008619,713
-618.4884093727904,692
-615.8466612673046,674
-613.2056415071715,687
-610.5653499150785,685
-607.9257863136347,677
-605.28695052537,680
-602.6488423727357,661
-600.0114616781036,697
-597.3748082637674,685
-594.7388819519412,714
-592.1036825647604,744
-589.4692099242818,763
-586.8354638524829,715
-584.2024441712624,704
-581.5701507024403,708
-578.9385832677575,746
-576.3077416888759,749
-573.6776257873787,722
-571.0482353847704,711
-568.4195703024757,749
-565.7916303618415,700
-563.164415384135,753
-560.5379251905453,724
-557.9121596021815,734
-555.2871184400748,755
-552.6628015251767,727
-550.0392086783606,734
-547.4163397204204,706
-544.794194472071,730
-542.1727727539491,759
-539.5520743866118,769
-536.9320991905377,809
-534.3128469861261,829
-531.6943175936979,835
-529.0765108334947,862
-526.4594265256793,900
-523.8430644903358,992
-521.2274245474689,1188
-518.612506517005,1162
-515.9983102187913,1154
-513.3848354725959,1185
-510.77208209810846,1210
-508.16004991493924,1299
-505.5487387426199,1467
-502.9381484006032,1643
-500.3282787082628,1720
-497.71912948489364,1747
-495.1107005497117,1622
-492.5029917218539,1373
-489.8960028203786,1337
-487.28973366426493,1227
-484.68418407241325,1064
-482.07935386364494,1025
-479.47524285670266,984
-476.87185087025,968
-474.2691777228715,969
-471.66722323307334,968
-469.0659872192821,991
-466.4654694998459,931
-463.86566989303384,887
-461.26658821703614,912
-458.66822428996414,914
-456.07057792985,911
-453.4736489546475,943
-450.877437182231,894
-448.28194243039627,912
-445.68716451686,903
-443.09310325926003,887
-440.49975847515555,893
-437.9071299820263,881
-435.31521759727354,902
-432.72402113821954,912
-430.13354042210767,894
-427.5437752661022,909
-424.95472548728867,930
-422.36639090267386,907
-419.7787713291855,1000
-417.1918665836721,1006
-414.60567648290385,1001
-412.0202008435715,961
-409.4354394822874,1003
-406.8513922155845,981
-404.26805885991723,994
-401.685439231661,1011
-399.103533147112,1029
-396.522340422488,1016
-393.9418608739278,968
-391.3620943174908,1018
-388.7830405691583,972
-386.2046994448317,952
-383.6270707603344,920
-381.05015433141045,862
-378.473949973725,763
-375.8984575028645,779
-373.32367673433623,748
-370.74960748356875,712
-368.1762495659117,672
-365.60360279663576,619
-363.03166699093265,579
-360.4604419639154,508
-357.8899275306178,554
-355.32012350599507,533
-352.7510297049233,518
-350.1826459421999,475
-347.61497203254316,523
-345.04800779059235,487
-342.4817530309082,485
-339.91620756797226,504
-337.35137121618743,527
-334.7872437898774,524
-332.22382510328725,558
-329.66111497058273,537
-327.09911320585127,561
-324.53781962310075,543
-321.9772340362607,546
-319.4173562591816,488
-316.8581861056348,487
-314.2997233893127,475
-311.7419679238294,490
-309.1849195227194,508
-306.62857799943856,555
-304.0729431673641,570
-301.51801483979375,542
-298.963792829947,544
-296.41027695096386,557
-293.85746701590574,599
-291.3053628377552,692
-288.7539642294155,628
-286.2032710037115,570
-283.65328297338897,593
-281.1039999511146,649
-278.5554217494762,754
-276.007548180983,651
-273.4603790580651,604
-270.9139141930734,606
-268.3681533982807,671
-265.8230964858798,687
-263.27874326798565,719
-260.7350935566336,640
-258.1921471637804,669
-255.6499039013039,706
-253.10836358100266,681
-250.56752601459698,658
-248.02739101372765,645
-245.48795838995704,698
-242.94922795476816,691
-240.41119951956557,685
-237.8738728956746,748
-235.33724789434166,719
-232.80132432673452,743
-230.2661020039418,714
-227.73158073697357,686
-225.19776033676033,750
-222.66464061415422,740
-220.1322213799284,755
-217.60050244477725,739
-215.06948361931552,743
-212.53916471408013,748
-210.00954553952818,794
-207.48062590603843,759
-204.9524056239104,761
-202.4248845033651,775
-199.8980623545441,796
-197.37193898751036,837
-194.84651421224817,845
-192.32178783866232,787
-189.79775967657952,913
-187.27442953574644,928
-184.7517972258321,1004
-182.2298625564256,954
-179.7086253370378,886
-177.18808537710026,831
-174.66824248596583,923
-172.14909647290835,872
-169.6306471471229,847
-167.11289431772548,869
-164.59583779375328,975
-162.07947738416453,1107
-159.5638128978386,936
-157.04884414357605,971
-154.53457093009854,989
-152.02099306604828,913
-149.50811035998936,898
-146.99592262040665,970
-144.48442965570587,1062
-141.97363127421409,1024
-139.46352728417958,1103
-136.95411749377126,989
-134.44540171107985,1052
-131.93737974411636,1052
-129.43005140081357,997
-126.92341648902493,1273
-124.41747481652521,1471
-121.91222619101006,1777
-119.40767042009657,2086
-116.90380731132257,2401
-114.40063667214702,2685
-111.8981583099503,3119
-109.3963720320337,2985
-106.89527764561933,2354
-104.39487495785067,1863
-101.89516377579241,2027
-99.39614390642998,3848
-96.89781515667039,5260
-94.40017733334128,5264
-91.90323024319173,4000
-89.40697369289148,3202
-86.91140748903172,4355
-84.41653143812482,5496
-81.92234534660395,6192
-79.42884902082358,6771
-76.93604226705907,9920
-74.4439248915071,16553
-71.95249670028534,25315
-69.46175749943245,30458
-66.97170709490854,31221
-64.48234529259423,25882
-61.99367189829195,21371
-59.50568671772464,15457
-57.01838955653636,10767
-54.53178022029283,12267
-52.045858514480074,15190
-49.560624244506016,15929
-47.07607721569923,16374
-44.59221723330904,16405
-42.10904410250669,17121
-39.62655762838392,16577
-37.14475761595372,17583
-34.66364387015028,20356
-32.18321619582866,19135
-29.70347439776515,16598
-27.224418280657005,15866
-24.74604764912317,14230
-22.26836230770266,15310
-19.7913620608565,24673
-17.315046712966478,42953
-14.83941606833514,60197
-12.36446993118659,65038
-9.89020810566592,65038
-7.416630395839093,65038
-4.94373660569363,65038
-2.471526539137585,65038
-6.821210263296962E-13,65038
2.47084320796705,65038
4.941003281093458,65038
7.410480415786196,65038
9.879274808531363,65038
12.347386655893956,65038
14.814816154518212,65038
17.28156350112681,65038
19.74762889252179,65038
22.21301252558385,65038
24.67771459727237,21555
27.141735304626195,4744
29.605074844762612,3040
32.06773341487792,3069
34.52971121224755,3225
36.99100843422559,3577
39.45162527824516,3052
41.91156194181792,2523
44.370818622535126,2024
46.82939551806646,1874
49.287292826160524,1751
51.74451074464503,2034
54.201049471426245,2274
56.65690920448981,2163
59.112090141899785,1705
61.56659248179983,1675
64.02041642241159,1420
66.4735621620365,1304
68.92602989905402,1309
71.37781983192338,1224
73.82893215918205,1438
76.27936707944684,1575
78.72912479141326,1514
81.17820549385567,1500
83.62660938562783,1393
86.07433666566146,1359
88.5213875329681,1204
90.96776218663751,1128
93.41346082583925,1116
95.85848364982041,1416
98.30283085790859,1642
100.7465026495089,1397
103.18949922410604,1309
105.63182078126385,1214
108.07346752062438,1300
110.51443964190923,1377
112.95473734491827,1397
115.39436082953114,1066
117.83331029570547,1029
120.27158594347827,1270
122.7091879729652,1696
125.1461165843615,1624
127.58237197794062,1238
130.01795435405518,1201
132.4528639131364,1150
134.88710085569494,1184
137.32066538231982,1016
139.75355769367923,942
142.1857779905207,895
144.61732647366978,952
147.04820334403132,944
149.47840880258934,906
151.90794305040674,978
154.33680628862487,1152
156.76499871846443,1552
159.19252054122433,1663
161.61937195828352,1668
164.04555317109896,1738
166.47106438120693,1843
168.89590579022217,2152
171.320077599839,2171
173.7435800118302,2167
176.16641322804742,2471
178.58857745042144,2529
181.01007288096173,2615
183.43089972175687,2643
185.85105817497413,2607
188.27054844285988,2615
190.6893707277394,2604
193.10752523201643,2573
195.5250121581745,2654
197.9418317087751,2771
200.3579840864594,2713
202.7734694939469,2712
205.18828813403627,2804
207.6024402096051,2937
210.01592592360964,2969
212.42874547908548,2918
214.84089907914665,2904
217.2523869269868,2771
219.66320922587727,2718
222.0733661791695,2814
224.48285799029293,2820
226.8916848627572,2721
229.29984700014882,2733
231.7073446061355,2719
234.11417788446204,2814
236.520347038953,2762
238.92585227351185,2788
241.33069379212054,2847
243.73487179884035,2817
246.1383864978112,2983
248.541238093252,2930
250.9434267894609,2839
253.34495279081432,2844
255.74581630176783,2826
258.1460175268563,2808
260.54555667069314,2858
262.9444339379703,2887
265.3426495334594,2899
267.7402036620107,2880
270.1370965285529,2871
272.53332833809407,2713
274.9288992957214,2657
277.32380960660055,2671
279.718059475976,2734
282.1116491091717,2660
284.5045787115897,2656
286.89684848871195,2651
289.2884586460981,2659
291.67940938938807,2764
294.0697009242996,2708
296.4593334566299,2687
298.84830719225477,2563
301.23662233712923,2542
303.6242790972866,2545
306.01127767884,2611
308.39761828798066,2480
310.78330113097934,2541
313.16832641418534,2517
315.5526943440269,2514
317.9364051270112,2435
320.3194589697242,2372
322.70185607883093,2367
325.0835966610754,2420
327.4646809232805,2413
329.8451090723478,2421
332.2248813152577,2448
334.6039978590701,2374
336.9824589109231,2342
339.36026467803447,2354
341.7374153677,2332
344.113911187295,2341
346.48975234427337,2289
348.8649390461686,2354
351.2394715005918,2213
353.61334991523415,2225
355.9865744978655,2230
358.35914545633375,2193
360.73106299856715,2230
363.10232733257146,2227
365.47293866643247,2244
367.84289720831396,2154
370.2122031664593,2180
372.5808567491905,2349
374.9488581649083,2260
377.31620762209275,2159
379.6829053293021,2071
382.0489514951745,2129
384.4143463284262,2132
386.7790900378528,2181
389.14318283232853,2249
391.50662492080653,2123
393.86941651231916,2151
396.23155781597745,2079
398.5930490409713,2053
400.9538903965696,2137
403.3140820921202,2103
405.6736243370498,2163
408.03251734086336,2117
410.3907613131465,2194
412.74835646356166,2069
415.10530300185144,2043
417.4616011378372,2018
419.81725108141893,2064
422.1722530425758,2017
424.5266072313656,2137
426.880313857925,2154
429.2333731324701,2163
431.58578526529516,2048
433.9375504667738,2047
436.2886689473588,2093
438.63914091758113,2028
440.9889665880513,2053
443.33814616945835,2040
445.68667987257015,1972
448.03456790823395,1986
450.3818104873759,2014
452.72840782100013,1984
455.07436012019105,2046
457.41966759611057,2006
459.7643304600007,2039
462.10834892318155,2059
464.4517231970525,2035
466.79445349309174,2034
469.1365400228566,2006
471.4779829979826,2018
473.81878263018564,2032
476.15893913125876,2096
478.4984527130747,2132
480.8373235875855,2143
483.17555196682144,2208
485.5131380628919,2191
487.8500820879857,2326
490.1863842543697,2430
492.52204477439034,2534
494.8570638604725,2812
497.1914417251204,3098
499.52517858091653,3489
501.85827464052306,3784
504.19073011668036,3758
506.5225452222086,3888
508.85372017000566,3705
511.18425517304956,3616
513.514150444396,3668
515.8434061971808,4138
518.1720226446176,5007
520.4999999999999,5254
522.8273384766991,5072
525.1540382881666,4715
527.480099647932,4201
529.8055227696037,3540
532.1303078668694,2818
534.454455153496,2437
536.777964843328,2356
539.1008371502907,2241
541.4230722883866,2198
543.744670471698,2208
546.0656319143858,2191
548.3859568306899,2241
550.7056454349294,2199
553.0246979415016,2165
555.3431145648834,2148
557.6608955196306,2060
559.978041020377,2008
562.2945512818363,2078
564.6104265188006,2181
566.9256669461412,2163
569.2402727788082,2188
571.5542442318302,2175
573.8675815203156,2169
576.1802848594508,2108
578.4923544645015,2101
580.8037905508126,2085
583.114593333807,2143
585.4247630289875,2144
587.7342998519354,2068
590.0432040183106,2154
592.3514757438526,2229
594.6591152443794,2164
596.9661227357875,2171
599.2724984340531,2174
601.578242555231,2139
603.8833553154542,2176
606.1878369309362,2209
608.4916876179676,2153
610.7949075929192,2084
613.0974970722403,2174
615.3994562724587,2131
617.7007854101818,2210
620.0014847020951,2218
622.3015543649641,2158
624.6009946156324,2147
626.8998056710224,2114
629.1979877481361,2120
631.4955410640538,2203
633.7924658359349,2118
636.0887622810175,2108
638.3844306166192,2139
640.6794710601358,2135
642.9738838290426,2068
645.2676691408932,2103
647.5608272133207,2174
649.853358264037,2132
652.1452625108324,2099
654.4365401715764,2143
656.7271914642178,2194
659.0172166067838,2197
661.3066158173809,2087
663.5953893141935,2148
665.8835373154867,2090
668.1710600396028,2117
670.4579577049639,2180
672.7442305300709,2115
675.0298787335033,2084
677.3149025339197,2080
679.599302150058,2169
681.8830778007342,2131
684.1662297048437,2084
686.4487580813608,2168
688.7306631493387,2169
691.0119451279091,2110
693.2926042362834,2159
695.5726406937516,2127
697.8520547196814,2136
700.1308465335215,2125
702.4090163547982,2102
704.6865644031171,2167
706.9634908981619,2097
709.2397960596965,2132
711.5154801075631,2092
713.7905432616823,2146
716.0649857420548,2118
718.3388077687592,2103
720.612009561953,2120
722.8845913418733,2148
725.1565533288352,2128
727.427895743234,2063
729.6986188055427,2135
731.9687227363137,2223
734.238207756178,2163
736.5070740858458,2204
738.7753219461066,2178
741.0429515578281,2210
743.3099631419569,2124
745.5763569195191,2111
747.8421331116193,2161
750.1072919394409,2124
752.3718336242467,2092
754.6357583873777,2152
756.8990664502545,2209
759.1617580343765,2059
761.423833361321,2113
763.6852926527457,2172
765.9461361303862,2147
768.206364016058,2163
770.4659765316536,2143
772.7249738991469,2142
774.9833563405886,2172
777.2411240781092,2107
779.4982773339183,2208
781.7548163303044,2243
784.010741289634,2195
786.2660524343538,2255
788.5207499869881,2227
790.7748341701416,2223
793.0283052064964,2179
795.2811633188143,2183
797.5334087299362,2202
799.7850416627813,2160
802.0360623403484,2201
804.2864709857143,2177
806.5362678220353,2171
808.7854530725468,2199
811.0340269605625,2172
813.2819897094754,2104
815.5293415427581,2194
817.77608268396,2272
820.0222133567116,2182
822.2677337847211,2165
824.5126441917765,2158
826.7569448017433,2144
829.0006358385675,2149
831.2437175262731,2164
833.4861900889629,2141
835.7280537508192,2179
837.9693087361026,2160
840.2099552691533,2153
842.4499935743896,2100
844.689423876309,2144
846.9282463994886,2175
849.1664613685833,2209
851.4040690083276,2156
853.6410695435349,2200
855.877463199097,2144
858.1132501999847,2201
860.3484307712487,2274
862.5830051380175,2173
864.8169735254988,2170
867.0503361589791,2246
869.2830932638243,2187
871.5152450654786,2207
873.7467917894654,2278
875.9777336613873,2231
878.2080709069252,2233
880.4378037518389,2267
882.666932421968,2209
884.8954571432301,2181
887.1233781416219,2218
889.3506956432192,2307
891.5774098741766,2292
893.803521060728,2277
896.0290294291852,2245
898.2539352059397,2332
900.4782386174619,2281
902.7019398903011,2178
904.925039251085,2277
907.147536926521,2263
909.3694331433943,2221
911.59072812857,2249
913.8114221089921,2123
916.0315153116827,2216
918.2510079637437,2142
920.4699002923547,2172
922.6881925247761,2170
924.905884888345,2236
927.1229776104793,2232
929.3394709186747,2101
931.555365040506,2176
933.7706602036275,2162
935.9853566357709,2164
938.1994545647489,2165
940.4129542184515,2199
942.6258558248488,2195
944.8381596119883,2083
947.0498658079974,2114
949.2609746410825,2203
951.4714863395287,2141
953.6814011316998,2142
955.8907192460387,2144
958.0994409110671,2130
960.3075663553858,2116
962.5150958076741,2139
964.7220294966913,2103
966.928367651274,2098
969.1341105003388,2086
971.3392582728806,2158
973.5438111979742,2138
975.747769504772,2135
977.9511334225061,2083
980.153903180487,2138
982.3560790081052,2082
984.5576611348289,2054
986.7586497902058,2069
988.9590452038618,2008
991.158847605503,1999
993.3580572249133,1993
995.5566742919558,1942
997.7546990365728,1988
999.952131688785,1898
1002.1489724786926,1895
1004.3452216364743,1897
1006.5408793923874,1984
1008.7359459767691,1899
1010.9304216200343,1818
1013.1243065526781,1841
1015.3176010052733,1803
1017.510305208472,1809
1019.7024193930064,1793
1021.8939437896848,1771
1024.0848786293977,1863
1026.2752241431122,1816
1028.4649805618747,1807
1030.6541481168115,1773
1032.842727039127,1807
1035.0307175601051,1789
1037.2181199111074,1722
1039.4049343235752,1732
1041.591161029029,1733
1043.7768002590683,1718
1045.9618522453698,1765
1048.1463172196918,1728
1050.3301954138697,1759
1052.513487059818,1770
1054.69619238953,1785
1056.8783116350783,1772
1059.0598450286152,1694
1061.2407928023704,1797
1063.4211551886528,1786
1065.6009324198508,1812
1067.780124728432,1824
1069.9587323469414,1790
1072.1367555080046,1790
1074.314194444325,1735
1076.4910493886855,1786
1078.667320573947,1716
1080.843008233051,1761
1083.0181125990161,1706
1085.1926339049414,1701
1087.3665723840027,1743
1089.5399282694575,1689
1091.7127017946405,1777
1093.8848931929647,1721
1096.0565026979243,1709
1098.2275305430899,1666
1100.3979769621128,1705
1102.567842188722,1708
1104.737126456726,1735
1106.9058300000124,1702
1109.0739530525475,1670
1111.2414958483764,1662
1113.4084586216231,1705
1115.5748416064907,1731
1117.7406450372605,1718
1119.9058691482942,1682
1122.0705141740304,1676
1124.2345803489884,1640
1126.3980679077658,1666
1128.5609770850388,1707
1130.7233081155623,1680
1132.8850612341707,1657
1135.0462366757774,1705
1137.2068346753745,1665
1139.3668554680326,1686
1141.526299288901,1711
1143.68516637321,1607
1145.8434569562655,1604
1148.001171273455,1649
1150.158309560244,1667
1152.3148720521767,1594
1154.470858984876,1600
1156.626270594044,1606
1158.7811071154629,1668
1160.9353687849912,1646
1163.089055838569,1677
1165.242168512213,1617
1167.3947070420209,1691
1169.5466716641677,1624
1171.6980626149075,1634
1173.8488801305748,1613
1175.9991244475814,1600
1178.1487958024186,1618
1180.2978944316555,1597
1182.4464205719428,1615
1184.5943744600072,1569
1186.7417563326567,1668
1188.8885664267755,1647
1191.0348049793297,1603
1193.1804722273619,1565
1195.325568407995,1587
1197.4700937584303,1620
1199.614048515948,1593
1201.7574329179074,1664
1203.900247201746,1604
1206.042491604982,1604
1208.1841663652099,1630
1210.3252717201053,1666
1212.465807907422,1639
1214.6057751649923,1634
1216.7451737307279,1651
1218.8840038426192,1576
1221.0222657387353,1577
1223.1599596572241,1630
1225.2970858363137,1674
1227.4336445143094,1648
1229.5696359295966,1612
1231.705060320639,1680
1233.8399179259786,1690
1235.9742089842384,1695
1238.107933734118,1640
1240.2410924143974,1668
1242.373685263935,1655
1244.5057125216676,1700
1246.6371744266116,1689
1248.7680712178621,1687
1250.898403134593,1635
1253.028170416058,1723
1255.1573733015875,1679
1257.2860120305932,1699
1259.4140868425648,1693
1261.54159797707,1708
1263.6685456737569,1687
1265.7949301723515,1685
1267.9207517126597,1715
1270.046010534565,1688
1272.1707068780306,1683
1274.2948409830983,1736
1276.4184130898889,1692
1278.541423438603,1673
1280.6638722695184,1701
1282.785759822993,1722
1284.9070863394636,1666
1287.0278520594447,1687
1289.1480572235314,1758
1291.2677020723963,1675
1293.3867868467923,1743
1295.5053117875495,1749
1297.623277135579,1704
1299.740683131868,1727
1301.8575300174857,1707
1303.973818033578,1747
1306.0895474213703,1751
1308.2047184221678,1778
1310.3193312773528,1766
1312.4333862283888,1803
1314.5468835168163,1773
1316.659823384255,1763
1318.7722060724045,1772
1320.8840318230418,1713
1322.9953008780249,1765
1325.1060134792888,1787
1327.2161698688478,1690
1329.3257702887959,1712
1331.4348149813054,1716
1333.5433041886276,1743
1335.6512381530933,1741
1337.7586171171101,1789
1339.8654413231675,1744
1341.9717110138317,1719
1344.0774264317488,1781
1346.1825878196432,1851
1348.2871954203192,1805
1350.3912494766587,1727
1352.4947502316231,1789
1354.5976979282532,1812
1356.7000928096686,1833
1358.8019351190665,1738
1360.9032250997243,1796
1363.0039629949988,1751
1365.1041490483235,1758
1367.2037835032133,1734
1369.3028666032606,1790
1371.401398592137,1729
1373.4993797135926,1763
1375.5968102114575,1801
1377.6936903296396,1826
1379.7900203121262,1696
1381.8858004029835,1829
1383.9810308463561,1762
1386.075711886469,1755
1388.1698437676241,1783
1390.2634267342032,1804
1392.356461030667,1784
1394.4489469015557,1792
1396.5408845914872,1777
1398.6322743451592,1850
1400.7231164073469,1761
1402.813411022907,1820
1404.903158436773,1874
1406.9923588939578,1843
1409.0810126395531,1859
1411.1691199187303,1778
1413.2566809767386,1800
1415.343696058907,1833
1417.4301654106425,1810
1419.5160892774315,1846
1421.6014679048399,1888
1423.6863015385125,1872
1425.7705904241707,1886
1427.8543348076178,1889
1429.9375349347342,1921
1432.0201910514802,1914
1434.102303403894,1870
1436.1838722380944,1875
1438.2648978002767,1938
1440.3453803367174,1952
1442.4253200937692,1908
1444.5047173178677,1938
1446.5835722555234,2023
1448.6618851533285,1907
1450.739656257952,2025
1452.8168858161434,1953
1454.8935740747306,1956
1456.96972128062,2032
1459.045327680797,2037
1461.120393522327,2030
1463.1949190523528,2002
1465.2689045180973,2104
1467.3423501668608,2087
1469.415256246024,2128
1471.4876230030463,2088
1473.559450685465,2108
1475.6307395408976,2084
1477.7014898170391,2195
1479.771701761665,2269
1481.8413756226287,2175
1483.9105116478618,2267
1485.9791100853772,2279
1488.0471711832643,2310
1490.1146951896926,2303
1492.1816823529098,2316
1494.2481329212433,2380
1496.3140471430984,2327
1498.3794252669609,2339
1500.4442675413939,2303
1502.5085742150404,2409
1504.572345536622,2388
1506.6355817549388,2460
1508.6982831188702,2465
1510.7604498773744,2423
1512.8220822794883,2590
1514.8831805743293,2505
1516.9437450110909,2549
1519.003775839048,2466
1521.0632733075522,2573
1523.1222376660367,2466
1525.1806691640113,2601
1527.2385680510652,2549
1529.2959345768668,2680
1531.3527689911643,2645
1533.4090715437833,2743
1535.4648424846291,2694
1537.5200820636855,2699
1539.5747905310159,2782
1541.6289681367616,2866
1543.6826151311434,2785
1545.7357317644614,2798
1547.7883182870937,2904
1549.8403749494987,2888
1551.8919020022113,2995
1553.9428996958477,2909
1555.9933682811015,3086
1558.0433080087469,3163
1560.0927191296346,3074
1562.1416018946961,3180
1564.1899565549415,3158
1566.2377833614592,3187
1568.2850825654164,3158
1570.3318544180606,3105
1572.3780991707158,3011
1574.423817074788,3096
1576.4690083817595,2910
1578.5136733431923,2813
1580.5578122107272,2783
1582.601425236085,2641
1584.6445126710646,2529
1586.6870747675434,2489
1588.7291117774776,2548
1590.7706239529034,2419
1592.8116115459347,2251
1594.8520748087658,2266
1596.8920139936686,2211
1598.9314293529933,2116
1600.9703211391711,2059
1603.008689604711,1962
1605.0465350022005,2057
1607.0838575843068,2065
1609.1206576037753,2042
1611.1569353134305,1942
1613.1926909661765,1914
1615.2279248149953,1896
1617.2626371129481,1930
1619.2968281131757,1866
1621.3304980688963,1887
1623.3636472334088,1932
1625.39627586009,1793
1627.428384202396,1841
1629.459972513861,1786
1631.4910410480993,1807
1633.5215900588028,1841
1635.551619799744,1782
1637.5811305247717,1839
1639.6101224878166,1809
1641.6385959428862,1776
1643.6665511440683,1825
1645.693988345528,1829
1647.7209078015112,1775
1649.7473097663405,1784
1651.7731944944203,1811
1653.7985622402307,1721
1655.823413258333,1779
1657.847747803366,1749
1659.8715661300494,1742
1661.8948684931793,1761
1663.9176551476316,1802
1665.9399263483624,1723
1667.9616823504057,1752
1669.982923408873,1798
1672.0036497789574,1749
1674.0238617159293,1732
1676.043559475138,1743
1678.0627433120121,1707
1680.081413482059,1757
1682.0995702408654,1755
1684.117213844096,1744
1686.134344547495,1719
1688.1509626068864,1712
1690.1670682781705,1708
1692.182661817329,1718
1694.1977434804217,1764
1696.2123135235875,1821
1698.226372203043,1794
1700.2399197750851,1725
1702.2529564960905,1734
1704.2654826225112,1734
1706.277498410882,1773
1708.2890041178139,1747
1710.2999999999988,1738
1712.3104863142066,1730
1714.3204633172854,1786
1716.329931266163,1673
1718.3388904178469,1719
1720.3473410294214,1735
1722.3552833580516,1707
1724.3627176609807,1709
1726.3696441955308,1686
1728.3760632191033,1736
1730.3819749891782,1717
1732.3873797633146,1676
1734.3922777991502,1768
1736.3966693544012,1757
1738.4005546868639,1738
1740.4039340544127,1707
1742.406807715001,1684
1744.4091759266616,1709
1746.4110389475054,1724
1748.4123970357223,1685
1750.413250449582,1757
1752.4135994474318,1671
1754.4134442876993,1726
1756.4127852288902,1653
1758.4116225295893,1675
1760.4099564484595,1632
1762.407787244244,1665
1764.405115175764,1743
1766.4019405019203,1626
1768.3982634816916,1722
1770.3940843741357,1711
1772.3894034383907,1669
1774.3842209336717,1694
1776.378537119274,1699
1778.372352254571,1626
1780.3656665990156,1640
1782.3584804121397,1714
1784.3507939535534,1591
1786.3426074829463,1717
1788.3339212600863,1656
1790.3247355448211,1657
1792.3150505970766,1685
1794.3048666768573,1641
1796.2941840442477,1736
1798.2830029594106,1691
1800.2713236825884,1718
1802.2591464741004,1700
1804.2464715943465,1674
1806.2332993038058,1726
1808.2196298630352,1690
1810.2054635326708,1635
1812.190800573428,1740
1814.175641246101,1686
1816.1599858115628,1682
1818.1438345307652,1700
1820.127187664738,1690
1822.1100454745924,1680
1824.092408221516,1647
1826.0742761667766,1617
1828.055649571721,1675
1830.0365286977735,1704
1832.0169138064398,1685
1833.9968051593014,1621
1835.9762030180214,1732
1837.9551076443408,1671
1839.9335193000788,1668
1841.9114382471344,1628
1843.888864747485,1672
1845.8657990631878,1718
1847.842241456378,1627
1849.8181921892697,1659
1851.7936515241558,1704
1853.7686197234098,1659
1855.7430970494815,1679
1857.7170837649014,1720
1859.6905801322787,1636
1861.6635864143004,1702
1863.6361028737338,1698
1865.608129773424,1674
1867.5796673762961,1641
1869.5507159453537,1672
1871.521275743678,1680
1873.4913470344313,1688
1875.4609300808534,1729
1877.4300251462632,1701
1879.3986324940588,1714
1881.366752387717,1715
1883.3343850907936,1681
1885.3015308669228,1706
1887.268189979819,1644
1889.2343626932739,1706
1891.2000492711595,1691
1893.1652499774254,1744
1895.1299650761011,1692
1897.0941948312952,1705
1899.0579395071945,1695
1901.0211993680641,1699
1902.98397467825,1673
1904.9462657021745,1688
1906.9080727043415,1705
1908.869395949332,1736
1910.8302357018065,1722
1912.790592226504,1665
1914.7504657882428,1716
1916.7098566519212,1770
1918.6687650825133,1641
1920.6271913450764,1705
1922.5851357047422,1743
1924.5425984267245,1653
1926.499579776314,1653
1928.4560800188833,1735
1930.4120994198802,1758
1932.367638244833,1674
1934.32269675935,1654
1936.2772752291175,1691
1938.231373919899,1665
1940.1849930975404,1664
1942.1381330279637,1756
1944.0907939771696,1695
1946.0429762112412,1615
1947.9946799963363,1684
1949.9459055986945,1656
1951.896653284633,1664
1953.8469233205478,1661
1955.7967159729142,1681
1957.7460315082863,1685
1959.6948701932974,1662
1961.6432322946594,1598
1963.5911180791632,1656
1965.5385278136787,1650
1967.4854617651545,1608
1969.4319202006182,1605
1971.377903387176,1618
1973.3234115920136,1741
1975.268445082395,1651
1977.2130041256642,1625
1979.1570889892423,1682
1981.1006999406304,1699
1983.04383724741,1675
1984.986501177238,1654
1986.928691997853,1691
1988.8704099770712,1679
1990.811655382789,1692
1992.7524284829801,1653
1994.692729545698,1673
1996.6325588390755,1690
1998.5719166313224,1605
2000.5108031907307,1618
2002.4492187856677,1644
2004.387163684583,1662
2006.3246381560011,1632
2008.2616424685298,1685
2010.1981768908527,1628
2012.1342416917332,1636
2014.069837140014,1652
2016.0049635046162,1618
2017.9396210545406,1621
2019.8738100588666,1680
2021.8075307867502,1633
2023.740783507431,1598
2025.6735684902228,1598
2027.6058860045214,1560
2029.5377363198004,1613
2031.4691197056118,1611
2033.4000364315875,1583
2035.3304867674374,1545
2037.260470982952,1614
2039.189989347998,1630
2041.1190421325232,1610
2043.047629606554,1562
2044.9757520401945,1641
2046.9034097036288,1603
2048.8306028671195,1619
2050.7573318010086,1674
2052.683596775716,1609
2054.609398061742,1648
2056.5347359296647,1665
2058.4596106501403,1687
2060.384022493906,1692
2062.3079717317764,1601
2064.231458634646,1653
2066.1544834734873,1624
2068.077046519352,1569
2069.99914804337,1505
2071.9207883167524,1576
2073.8419676107865,1630
2075.7626861968406,1660
2077.6829443463607,1588
2079.6027423308715,1582
2081.522080421977,1613
2083.440958891362,1614
2085.359378010786,1644
2087.2773380520907,1672
2089.194839287196,1583
2091.111881988101,1684
2093.0284664268825,1643
2094.9445928756973,1708
2096.86026160678,1636
2098.775472892446,1631
2100.690227005088,1654
2102.604524217178,1685
2104.5183648012676,1631
2106.431749029985,1568
2108.34467717604,1615
2110.2571495122206,1591
2112.169166311393,1554
2114.080727846503,1617
2115.9918343905747,1683
2117.902486216711,1643
2119.8126835980956,1663
2121.722426807987,1606
2123.6317161197285,1597
2125.5405518067364,1575
2127.448934142509,1593
2129.356863400624,1619
2131.264339854737,1577
2133.1713637785815,1669
2135.077935445972,1679
2136.9840551308002,1613
2138.889723107037,1654
2140.7949396487334,1608
2142.699705030018,1665
2144.6040195250994,1643
2146.507883408264,1711
2148.4112969538774,1665
2150.3142604363848,1665
2152.2167741303097,1701
2154.1188383102535,1672
2156.0204532508997,1584
2157.9216192270064,1673
2159.822336513414,1629
2161.7226053850413,1659
2163.622426116884,1692
2165.5217989840185,1704
2167.4207242616,1674
2169.319202224862,1654
2171.2172331491165,1685
2173.1148173097563,1719
2175.0119549822507,1680
2176.90864644215,1650
2178.8048919650823,1663
2180.7006918267534,1686
2182.596046302952,1652
2184.4909556695407,1663
2186.3854202024645,1695
2188.279440177746,1648
2190.173015871487,1681
2192.066147559868,1653
2193.958835519149,1711
2195.851080025667,1714
2197.7428813558417,1672
2199.6342397861667,1715
2201.5251555932186,1720
2203.415629053651,1685
2205.3056604441986,1718
2207.19525004167,1755
2209.084398122958,1740
2210.9731049650327,1763
2212.861370844941,1714
2214.749196039812,1708
2216.636580826851,1714
2218.523525483344,1670
2220.410030286655,1721
2222.296095514226,1699
2224.1817214435805,1742
2226.066908352319,1669
2227.951656518121,1692
2229.835966218746,1694
2231.71983773203,1750
2233.6032713358913,1720
2235.486267308324,1716
2237.3688259274036,1775
2239.2509474712824,1725
2241.132632218193,1757
2243.013880446447,1678
2244.8946924344323,1792
2246.7750684606203,1695
2248.6550088035574,1777
2250.534513741871,1687
2252.413583554265,1699
2254.292218519526,1709
2256.170418916517,1647
2258.0481850241786,1738
2259.925517121534,1662
2261.8024154876825,1710
2263.678880401803,1676
2265.5549121431536,1767
2267.430510991071,1718
2269.305677224971,1660
2271.180411124348,1697
2273.0547129687766,1683
2274.9285830379076,1720
2276.8020216114737,1670
2278.6750289692845,1691
2280.5476053912294,1752
2282.4197511572766,1726
2284.2914665474727,1756
2286.162751841943,1746
2288.0336073208937,1758
2289.904033264608,1673
2291.774029953448,1753
2293.6435976678554,1689
2295.5127366883517,1662
2297.381447295534,1675
2299.2497297700825,1606
2301.1175843927526,1547
2302.9850114443825,1599
2304.852011205885,1629
2306.7185839582553,1504
2308.5847299825664,1566
2310.4504495599676,1502
2312.3157429716925,1526
2314.1806104990483,1478
2316.0450524234247,1534
2317.9090690262888,1484
2319.772660589186,1419
2321.635827393742,1414
2323.498569721661,1430
2325.3608878547248,1510
2327.2227820747967,1437
2329.0842526638157,1490
2330.945299903803,1517
2332.805924076857,1480
2334.6661254651535,1507
2336.525904350951,1523
2338.3852610165827,1465
2340.244195744464,1435
2342.102708817088,1478
2343.9608005170253,1464
2345.8184711269287,1481
2347.675720929526,1458
2349.532550207628,1471
2351.38895924412,1457
2353.24494832197,1508
2355.100517724223,1441
2356.955667734004,1441
2358.810398634514,1478
2360.664710709037,1467
2362.5186042409337,1483
2364.3720795136437,1508
2366.225136810686,1539
2368.0777764156583,1514
2369.929998612237,1511
2371.7818036841777,1481
2373.633191915315,1471
2375.484163589562,1505
2377.3347189909114,1432
2379.184858403434,1500
2381.03458211128,1516
2382.8838903986775,1496
2384.732783549936,1463
2386.5812618494406,1437
2388.4293255816588,1489
2390.2769750311327,1518
2392.1242104824883,1488
2393.971032220427,1447
2395.8174405297295,1523
2397.6634356952563,1517
2399.509018001947,1502
2401.3541877348193,1499
2403.1989451789705,1503
2405.043290619576,1542
2406.8872243418905,1522
2408.730746631247,1516
2410.5738577730594,1525
2412.4165580528183,1465
2414.258847756095,1453
2416.100727168537,1485
2417.9421965758734,1493
2419.783256263912,1402
2421.623906518538,1455
2423.4641476257157,1514
2425.303979871491,1524
2427.143403541984,1476
2428.9824189233977,1566
2430.821026302012,1527
2432.6592259641866,1505
2434.497018196361,1489
2436.33440328505,1453
2438.171381516851,1529
2440.00795317844,1491
2441.844118556569,1485
2443.6798779380724,1442
2445.5152316098606,1490
2447.3501798589255,1481
2449.1847229723357,1470
2451.0188612372403,1570
2452.8525949408663,1474
2454.6859243705203,1456
2456.518849813587,1441
2458.3513715575314,1555
2460.183489889895,1514
2462.015205098301,1476
2463.8465174704493,1502
2465.67742729412,1506
2467.5079348571717,1464
2469.338040447542,1520
2471.1677443532476,1482
2472.9970468623833,1462
2474.825948263123,1516
2476.6544488437207,1486
2478.482548892508,1427
2480.310248697896,1533
2482.137548548374,1493
2483.9644487325118,1523
2485.790949538956,1489
2487.617051256433,1460
2489.44275417375,1509
2491.26805857979,1586
2493.0929647635157,1579
2494.917473013971,1499
2496.741583620276,1463
2498.5652968716304,1538
2500.3886130573137,1459
2502.2115324666834,1526
2504.0340553891765,1562
2505.856182114308,1548
2507.6779129316733,1571
2509.499248130945,1560
2511.3201880018764,1550
2513.140732834298,1506
2514.9608829181198,1552
2516.780638543331,1539
2518.6,1506
2520.418967578273,1651
2522.237541568376,1555
2524.0557222606144,1557
2525.8735099453706,1547
2527.6909049131086,1537
2529.507907454368,1525
2531.32451785977,1603
2533.140736420014,1611
2534.9565634258774,1540
2536.771999168218,1572
2538.5870439379714,1546
2540.4016980261526,1563
2542.2159617238544,1617
2544.02983532225,1631
2545.8433191125914,1601
2547.656413386209,1640
2549.4691184345115,1561
2551.2814345489874,1607
2553.093362021204,1583
2554.904901142808,1615
2556.716052205523,1609
2558.526815501153,1629
2560.3371913215824,1662
2562.147179958771,1691
2563.956781704761,1649
2565.7659968516705,1659
2567.5748256916986,1615
2569.3832685171224,1718
2571.1913256202984,1664
2572.9989972936614,1725
2574.806283829725,1650
2576.613185521084,1675
2578.4197026604074,1692
2580.2258355404483,1738
2582.031584454035,1719
2583.836949694077,1678
2585.6419315535613,1734
2587.4465303255533,1720
2589.2507463032002,1717
2591.0545797797245,1682
2592.8580310484303,1780
2594.6611004026995,1777
2596.463788135992,1726
2598.266094541849,1715
2600.0680199138874,1746
2601.869564545807,1765
2603.670728731383,1740
2605.4715127644704,1752
2607.2719169390048,1725
2609.071941548998,1755
2610.8715868885433,1742
2612.670853251811,1725
2614.469740933052,1766
2616.268250226594,1764
2618.0663814268455,1734
2619.864134828292,1742
2621.6615107255006,1712
2623.458509413115,1744
2625.2551311858597,1800
2627.0513763385347,1719
2628.8472451660223,1794
2630.6427379632833,1720
2632.4378550253564,1699
2634.232596647359,1676
2636.026963124488,1686
2637.8209547520187,1635
2639.6145718253065,1670
2641.407814639785,1697
2643.200683490966,1691
2644.9931786744414,1669
2646.7853004858807,1689
2648.577049221034,1620
2650.3684251757277,1649
2652.1594286458712,1630
2653.9500599274484,1598
2655.740319316525,1612
2657.5302071092437,1576
2659.3197236018286,1580
2661.10886909058,1650
2662.8976438718782,1636
2664.686048242183,1588
2666.4740824980327,1552
2668.2617469360443,1586
2670.0490418529134,1522
2671.8359675454153,1567
2673.622524310403,1579
2675.408712444811,1563
2677.1945322456495,1520
2678.979984010009,1515
2680.76506803506,1607
2682.5497846180497,1555
2684.334134056306,1595
2686.1181166472343,1546
2687.9017326883213,1544
2689.6849824771293,1578
2691.4678663113013,1500
2693.2503844885596,1527
2695.032537306705,1523
2696.8143250636167,1483
2698.5957480572542,1500
2700.3768065856534,1466
2702.1575009469316,1435
2703.937831439283,1520
2705.717798360982,1463
2707.4974020103837,1523
2709.276642685917,1511
2711.055520686095,1470
2712.834036309506,1508
2714.612189854819,1497
2716.389981620782,1485
2718.1674119062204,1459
2719.944481010041,1455
2721.721189231226,1422
2723.4975368688415,1410
2725.273524222027,1479
2727.0491515900053,1435
2728.824419272075,1436
2730.5993275676146,1492
2732.3738767760838,1504
2734.148067197016,1488
2735.921899130031,1469
2737.6953728748194,1478
2739.468488731156,1504
2741.2412469988926,1481
2743.0136479779617,1448
2744.785691968372,1456
2746.5573792702116,1439
2748.3287101836504,1440
2750.099685008934,1486
2751.870304046388,1412
2753.640567596418,1462
2755.4104759595057,1489
2757.1800294362156,1449
2758.949228327187,1425
2760.7180729331412,1442
2762.486563554877,1446
2764.254700493272,1465
2766.022484049284,1427
2767.789914523947,1495
2769.5569922183786,1446
2771.3237174337705,1493
2773.090090471394,1419
2774.8561116326036,1476
2776.6217812188274,1451
2778.3870995315756,1448
2780.1520668724356,1467
2781.9166835430747,1465
2783.6809498452394,1454
2785.444866080754,1448
2787.2084325515225,1452
2788.971649559527,1443
2790.73451740683,1357
2792.4970363955713,1448
2794.2592068279705,1425
2796.0210290063264,1405
2797.7825032330147,1457
2799.543629810493,1494
2801.304409041296,1442
2803.0648412280366,1439
2804.8249266734088,1485
2806.5846656801846,1488
2808.344058551212,1429
2810.1031055894246,1406
2811.8618070978273,1477
2813.6201633795085,1426
2815.378174737636,1412
2817.1358414754536,1424
2818.893163896285,1411
2820.6501423035334,1456
2822.4067770006814,1454
2824.1630682912883,1468
2825.9190164789957,1434
2827.6746218675207,1430
2829.429884760661,1393
2831.184805462294,1383
2832.9393842763743,1441
2834.693621506936,1496
2836.4475174580916,1414
2838.201072434034,1459
2839.954286739034,1432
2841.707160677441,1487
2843.459694553685,1452
2845.2118886722724,1522
2846.96374333779,1481
2848.7152588549034,1427
2850.4664355283567,1478
2852.217273662973,1486
2853.9677735636546,1471
2855.7179355353833,1464
2857.4677598832186,1461
2859.217246912299,1446
2860.9663969278427,1433
2862.715210235146,1396
2864.4636871395846,1440
2866.211827946614,1442
2867.9596329617652,1451
2869.7071024906536,1451
2871.4542368389684,1450
2873.20103631248,1454
2874.947501217038,1459
2876.6936318585695,1441
2878.4394285430812,1451
2880.1848915766604,1430
2881.9300212654707,1428
2883.6748179157553,1414
2885.4192818338374,1415
2887.1634133261173,1437
2888.907212699077,1482
2890.6506802592744,1472
2892.393816313348,1437
2894.1366211680142,1408
2895.8790951300693,1466
2897.621238506388,1456
2899.363051603925,1468
2901.1045347297118,1426
2902.8456881908596,1396
2904.58651229456,1465
2906.327007348081,1429
2908.067173658772,1418
2909.8070115340597,1427
2911.5465212814497,1431
2913.285703208527,1444
2915.0245576229563,1413
2916.7630848324807,1517
2918.5012851449196,1469
2920.2391588681758,1468
2921.976706310227,1417
2923.7139277791334,1409
2925.4508235830313,1416
2927.187394030137,1446
2928.923639428745,1381
2930.6595600872306,1404
2932.395156314046,1490
2934.1304284177218,1503
2935.8653767068713,1420
2937.6000014901815,1440
2939.3343030764227,1446
2941.068281774442,1375
2942.8019378931644,1390
2944.5352717415976,1481
2946.2682836288236,1431
2948.0009738640065,1470
2949.7333427563885,1482
2951.465390615289,1427
2953.1971177501086,1429
2954.9285244703265,1468
2956.6596110855,1471
2958.3903779052657,1488
2960.1208252393385,1503
2961.8509533975125,1463
2963.5807626896617,1412
2965.3102534257378,1493
2967.0394259157715,1438
2968.768280469873,1355
2970.496817398232,1425
2972.2250370111146,1468
2973.952939618869,1447
2975.6805255319196,1465
2977.4077950607707,1433
2979.134748516006,1515
2980.861386208289,1498
2982.587708448359,1486
2984.313715547037,1468
2986.039407815222,1395
2987.764785563891,1423
2989.489849104102,1401
2991.2145987469908,1402
2992.9390348037705,1405
2994.6631575857346,1395
2996.3869674042576,1381
2998.1104645707887,1405
2999.83364939686,1453
3001.5565221940783,1467
3003.2790832741334,1514
3005.0013329487924,1438
3006.7232715298996,1398
3008.4448993293804,1423
3010.166216659239,1406
3011.887223831558,1385
3013.607921158498,1445
3015.3283089522993,1353
3017.0483875252826,1406
3018.7681571898443,1411
3020.4876182584626,1445
3022.2067710436927,1463
3023.9256158581707,1419
3025.644153014609,1444
3027.362382825801,1406
3029.0803056046193,1407
3030.797921664012,1391
3032.5152313170106,1431
3034.2322348767225,1407
3035.9489326563353,1419
3037.665324969115,1419
3039.3814121284063,1441
3041.097194447633,1405
3042.812672240299,1336
3044.5278458199855,1469
3046.2427155003525,1434
3047.9572815951406,1445
3049.671544418167,1431
3051.38550428333,1374
3053.0991615046073,1406
3054.812516396051,1401
3056.5255692717974,1416
3058.2383204460575,1394
3059.9507702331257,1363
3061.662918947372,1383
3063.3747669032446,1401
3065.0863144152736,1388
3066.7975617980674,1433
3068.508509366309,1426
3070.219157434767,1386
3071.9295063182844,1392
3073.639556331785,1434
3075.3493077902704,1433
3077.058761008821,1403
3078.7679163025964,1457
3080.476773986837,1402
3082.1853343768594,1443
3083.89359778806,1378
3085.6015645359153,1449
3087.3092349359786,1412
3089.016609303884,1455
3090.7236879553434,1425
3092.4304712061476,1383
3094.136959372166,1428
3095.843152769349,1333
3097.5490517137237,1393
3099.2546565213966,1421
3100.959967508554,1456
3102.66498499146,1392
3104.3697092864577,1413
3106.0741407099695,1418
3107.778279578498,1447
3109.482126208622,1418
3111.1856809170004,1455
3112.8889440203716,1462
3114.5919158355528,1408
3116.294596679439,1472
3117.996986869006,1502
3119.6990867213062,1399
3121.4008965534726,1442
3123.102416682717,1425
3124.803647426329,1455
3126.5045891016784,1433
3128.205242026213,1524
3129.90560651746,1483
3131.605682893025,1422
3133.3054714705922,1345
3135.0049725679282,1436
3136.7041865028714,1438
3138.4031135933465,1466
3140.101754157353,1465
3141.800108512971,1405
3143.498176978357,1443
3145.1959598717494,1431
3146.8934575114636,1352
3148.5906702158954,1424
3150.2875983035183,1448
3151.9842420928853,1375
3153.680601902627,1374
3155.376678051456,1410
3157.07247085816,1381
3158.767980641609,1379
3160.463207720748,1413
3162.158152414606,1399
3163.8528150422862,1429
3165.5471959229726,1379
3167.2412953759303,1386
3168.9351137204976,1399
3170.628651276098,1403
3172.3219083622307,1401
3174.014885298474,1401
3175.707582404485,1339
3177.4000000000005,1443
3179.092138404835,1408
3180.7839979388846,1417
3182.47557892212,1445
3184.166881674594,1459
3185.8579065164386,1400
3187.5486537678626,1440
3189.2391237491547,1361
3190.9293167806827,1447
3192.6192331828934,1406
3194.3088732763117,1392
3195.998237381542,1341
3197.687325819268,1375
3199.376138910251,1390
3201.064676975334,1402
3202.7529403354347,1433
3204.4409293115523,1432
3206.1286442247647,1395
3207.816085396229,1424
3209.5032531471825,1420
3211.190147798936,1421
3212.8767696728846,1385
3214.5631190905015,1378
3216.2491963733373,1353
3217.9350018430214,1387
3219.6205358212637,1381
3221.305798629851,1367
3222.990790590651,1406
3224.6755120256103,1349
3226.359963256751,1330
3228.0441446061795,1398
3229.7280563960758,1362
3231.411698948703,1386
3233.0950725863995,1366
3234.778177631587,1331
3236.461014406761,1367
3238.1435832345005,1433
3239.8258844374595,1439
3241.507918338374,1434
3243.1896852600576,1428
3244.8711855254023,1364
3246.552419457381,1373
3248.233387379042,1355
3249.914089613516,1392
3251.59452648401,1459
3253.274698313813,1449
3254.95460542629,1433
3256.6342481448855,1401
3258.313626793125,1379
3259.9927416946084,1362
3261.6715931730196,1413
3263.3501815521176,1378
3265.0285071557437,1315
3266.706570307815,1402
3268.3843713323286,1374
3270.0619105533615,1393
3271.739188295068,1386
3273.4162048816834,1382
3275.0929606375184,1343
3276.769455886966,1382
3278.445690954498,1363
3280.1216661646613,1336
3281.797381842087,1388
3283.4728383114807,1391
3285.1480358976296,1371
3286.8229749253996,1431
3288.4976557197333,1405
3290.172078605655,1436
3291.846243908266,1368
3293.5201519527463,1391
3295.193803064357,1397
3296.8671975684374,1358
3298.5403357904024,1332
3300.21321805575,1363
3301.8858446900567,1352
3303.558216018975,1356
3305.23033236824,1410
3306.9021940636603,1311
3308.57380143113,1427
3310.2451547966184,1429
3311.916254486174,1372
3313.5871008259246,1371
3315.2576941420766,1382
3316.9280347609147,1409
3318.5981230088046,1366
3320.2679592121895,1437
3321.9375436975924,1400
3323.606876791612,1391
3325.27595882093,1351
3326.944790112305,1338
3328.6133709925753,1396
3330.2817017886573,1359
3331.949782827547,1293
3333.617614436319,1381
3335.2851969421245,1398
3336.952530672199,1359
3338.619615953853,1408
3340.286453114475,1368
3341.9530424815357,1456
3343.619384382583,1409
3345.2854791452437,1427
3346.951327097224,1370
3348.6169285663073,1340
3350.2822838803577,1370
3351.947393367319,1388
3353.61225735521,1399
3355.2768761721345,1448
3356.9412501462693,1348
3358.605379605873,1347
3360.2692648792827,1341
3361.9329062949146,1339
3363.596304181263,1345
