CollectionTime,7/10/2024 4:06:35 PM
ExposureUsed,3
CalibratedSpectrum
-962.7078968117929,503
-959.9714848408522,549
-957.2358232597828,561
-954.5009119013725,567
-951.7667505983302,569
-949.0333391832855,590
-946.3006774887896,566
-943.5687653473143,587
-940.837602591253,561
-938.1071890529199,576
-935.3775245645503,592
-932.6486089583007,556
-929.9204420662485,599
-927.1930237203925,586
-924.4663537526524,548
-921.7404319948689,578
-919.0152582788041,567
-916.2908324361409,618
-913.5671542984834,604
-910.8442236973568,561
-908.1220404642074,581
-905.4006044304027,607
-902.679915427231,587
-899.959973285902,605
-897.2407778375464,571
-894.5223289132158,586
-891.8046263438832,560
-889.0876699604426,550
-886.3714595937089,568
-883.6559950744183,569
-880.9412762332282,546
-878.2273029007168,578
-875.5140749073835,566
-872.8015920836489,541
-870.0898542598545,552
-867.3788612662631,545
-864.6686129330585,598
-861.9591090903457,553
-859.2503495681506,564
-856.5423341964203,574
-853.8350628050229,586
-851.1285352237478,568
-848.4227512823054,573
-845.7177108103272,569
-843.0134136373656,546
-840.3098595928943,570
-837.6070485063082,579
-834.9049802069229,602
-832.2036545239757,614
-829.5030712866244,590
-826.8032303239481,594
-824.1041314649472,634
-821.4057745385428,587
-818.7081593735775,573
-816.0112857988148,566
-813.3151536429393,592
-810.6197627345566,583
-807.9251129021936,594
-805.2312039742981,598
-802.5380357792392,577
-799.8456081453069,583
-797.1539209007124,586
-794.462973873588,599
-791.772766891987,573
-789.083299783884,580
-786.3945723771743,606
-783.7065844996748,606
-781.0193359791231,588
-778.3328266431781,591
-775.6470563194197,624
-772.9620248353489,590
-770.2777320183878,611
-767.5941776958798,587
-764.9113616950891,582
-762.2292838432011,589
-759.5479439673222,601
-756.8673418944801,598
-754.1874774516235,576
-751.5083504656222,582
-748.8299607632671,583
-746.15230817127,646
-743.475392516264,595
-740.7992136248035,629
-738.1237713233636,609
-735.4490654383407,615
-732.7750957960521,626
-730.1018622227365,625
-727.4293645445534,618
-724.7576025875837,605
-722.0865761778291,652
-719.4162851412126,647
-716.7467293035781,649
-714.0779084906909,628
-711.409822528237,662
-708.7424712418238,610
-706.0758544569796,639
-703.4099719991541,628
-700.7448236937178,642
-698.0804093659622,651
-695.4167288411002,669
-692.7537819442656,652
-690.0915685005134,670
-687.4300883348199,647
-684.7693412720819,652
-682.1093271371178,671
-679.4500457546669,627
-676.7914969493897,699
-674.1336805458676,659
-671.4765963686034,682
-668.8202442420206,683
-666.1646239904642,651
-663.5097354382001,673
-660.8555784094151,649
-658.2021527282176,697
-655.5494582186366,660
-652.8974947046223,674
-650.2462620100463,704
-647.5957599587009,685
-644.9459883742998,662
-642.2969470804776,701
-639.6486359007902,698
-637.0010546587141,716
-634.3542031776476,691
-631.7080812809096,700
-629.0626887917401,667
-626.4180255333008,667
-623.7740913286734,694
-621.1308860008619,740
-618.4884093727904,685
-615.8466612673046,719
-613.2056415071715,693
-610.5653499150785,676
-607.9257863136347,716
-605.28695052537,727
-602.6488423727357,713
-600.0114616781036,720
-597.3748082637674,699
-594.7388819519412,710
-592.1036825647604,719
-589.4692099242818,733
-586.8354638524829,700
-584.2024441712624,702
-581.5701507024403,709
-578.9385832677575,700
-576.3077416888759,735
-573.6776257873787,719
-571.0482353847704,689
-568.4195703024757,710
-565.7916303618415,735
-563.164415384135,728
-560.5379251905453,756
-557.9121596021815,719
-555.2871184400748,734
-552.6628015251767,728
-550.0392086783606,731
-547.4163397204204,732
-544.794194472071,755
-542.1727727539491,714
-539.5520743866118,775
-536.9320991905377,769
-534.3128469861261,834
-531.6943175936979,884
-529.0765108334947,875
-526.4594265256793,871
-523.8430644903358,951
-521.2274245474689,1108
-518.612506517005,1148
-515.9983102187913,1150
-513.3848354725959,1087
-510.77208209810846,1186
-508.16004991493924,1218
-505.5487387426199,1336
-502.9381484006032,1538
-500.3282787082628,1630
-497.71912948489364,1642
-495.1107005497117,1494
-492.5029917218539,1365
-489.8960028203786,1247
-487.28973366426493,1128
-484.68418407241325,1054
-482.07935386364494,968
-479.47524285670266,923
-476.87185087025,906
-474.2691777228715,949
-471.66722323307334,943
-469.0659872192821,911
-466.4654694998459,922
-463.86566989303384,931
-461.26658821703614,906
-458.66822428996414,964
-456.07057792985,917
-453.4736489546475,940
-450.877437182231,928
-448.28194243039627,924
-445.68716451686,903
-443.09310325926003,915
-440.49975847515555,899
-437.9071299820263,909
-435.31521759727354,891
-432.72402113821954,978
-430.13354042210767,923
-427.5437752661022,920
-424.95472548728867,926
-422.36639090267386,950
-419.7787713291855,978
-417.1918665836721,955
-414.60567648290385,1028
-412.0202008435715,970
-409.4354394822874,1003
-406.8513922155845,969
-404.26805885991723,1001
-401.685439231661,1004
-399.103533147112,899
-396.522340422488,1010
-393.9418608739278,963
-391.3620943174908,985
-388.7830405691583,980
-386.2046994448317,894
-383.6270707603344,925
-381.05015433141045,835
-378.473949973725,822
-375.8984575028645,784
-373.32367673433623,708
-370.74960748356875,713
-368.1762495659117,676
-365.60360279663576,634
-363.03166699093265,562
-360.4604419639154,535
-357.8899275306178,525
-355.32012350599507,540
-352.7510297049233,496
-350.1826459421999,461
-347.61497203254316,455
-345.04800779059235,483
-342.4817530309082,476
-339.91620756797226,469
-337.35137121618743,478
-334.7872437898774,489
-332.22382510328725,483
-329.66111497058273,507
-327.09911320585127,491
-324.53781962310075,511
-321.9772340362607,479
-319.4173562591816,446
-316.8581861056348,471
-314.2997233893127,457
-311.7419679238294,493
-309.1849195227194,473
-306.62857799943856,518
-304.0729431673641,504
-301.51801483979375,500
-298.963792829947,540
-296.41027695096386,525
-293.85746701590574,561
-291.3053628377552,554
-288.7539642294155,543
-286.2032710037115,528
-283.65328297338897,550
-281.1039999511146,594
-278.5554217494762,599
-276.007548180983,557
-273.4603790580651,552
-270.9139141930734,562
-268.3681533982807,601
-265.8230964858798,631
-263.27874326798565,614
-260.7350935566336,595
-258.1921471637804,607
-255.6499039013039,655
-253.10836358100266,593
-250.56752601459698,579
-248.02739101372765,578
-245.48795838995704,663
-242.94922795476816,638
-240.41119951956557,615
-237.8738728956746,634
-235.33724789434166,652
-232.80132432673452,641
-230.2661020039418,629
-227.73158073697357,614
-225.19776033676033,633
-222.66464061415422,691
-220.1322213799284,661
-217.60050244477725,694
-215.06948361931552,647
-212.53916471408013,689
-210.00954553952818,716
-207.48062590603843,735
-204.9524056239104,720
-202.4248845033651,749
-199.8980623545441,737
-197.37193898751036,800
-194.84651421224817,791
-192.32178783866232,769
-189.79775967657952,825
-187.27442953574644,801
-184.7517972258321,850
-182.2298625564256,820
-179.7086253370378,834
-177.18808537710026,791
-174.66824248596583,807
-172.14909647290835,792
-169.6306471471229,790
-167.11289431772548,809
-164.59583779375328,874
-162.07947738416453,895
-159.5638128978386,856
-157.04884414357605,856
-154.53457093009854,896
-152.02099306604828,861
-149.50811035998936,815
-146.99592262040665,769
-144.48442965570587,845
-141.97363127421409,910
-139.46352728417958,975
-136.95411749377126,896
-134.44540171107985,872
-131.93737974411636,845
-129.43005140081357,849
-126.92341648902493,1071
-124.41747481652521,1364
-121.91222619101006,1611
-119.40767042009657,1734
-116.90380731132257,2018
-114.40063667214702,2103
-111.8981583099503,2228
-109.3963720320337,2063
-106.89527764561933,1725
-104.39487495785067,1516
-101.89516377579241,1640
-99.39614390642998,2604
-96.89781515667039,3524
-94.40017733334128,3400
-91.90323024319173,2741
-89.40697369289148,2315
-86.91140748903172,3187
-84.41653143812482,3657
-81.92234534660395,4224
-79.42884902082358,4825
-76.93604226705907,7048
-74.4439248915071,11949
-71.95249670028534,18211
-69.46175749943245,22364
-66.97170709490854,23126
-64.48234529259423,19378
-61.99367189829195,16537
-59.50568671772464,11684
-57.01838955653636,8201
-54.53178022029283,9381
-52.045858514480074,11008
-49.560624244506016,11329
-47.07607721569923,11320
-44.59221723330904,10883
-42.10904410250669,10929
-39.62655762838392,10970
-37.14475761595372,12715
-34.66364387015028,15634
-32.18321619582866,15309
-29.70347439776515,13522
-27.224418280657005,13004
-24.74604764912317,12289
-22.26836230770266,14612
-19.7913620608565,26458
-17.315046712966478,47360
-14.83941606833514,63574
-12.36446993118659,65038
-9.89020810566592,65038
-7.416630395839093,65038
-4.94373660569363,65038
-2.471526539137585,65038
-6.821210263296962E-13,65038
2.47084320796705,65038
4.941003281093458,65038
7.410480415786196,65038
9.879274808531363,65038
12.347386655893956,65038
14.814816154518212,65038
17.28156350112681,65038
19.74762889252179,65038
22.21301252558385,65038
24.67771459727237,21479
27.141735304626195,4694
29.605074844762612,2904
32.06773341487792,2842
34.52971121224755,2689
36.99100843422559,2848
39.45162527824516,2563
41.91156194181792,2148
44.370818622535126,1798
46.82939551806646,1538
49.287292826160524,1528
51.74451074464503,1830
54.201049471426245,1952
56.65690920448981,1746
59.112090141899785,1480
61.56659248179983,1402
64.02041642241159,1291
66.4735621620365,1143
68.92602989905402,1128
71.37781983192338,1122
73.82893215918205,1325
76.27936707944684,1397
78.72912479141326,1425
81.17820549385567,1388
83.62660938562783,1174
86.07433666566146,1165
88.5213875329681,1092
90.96776218663751,971
93.41346082583925,1058
95.85848364982041,1222
98.30283085790859,1364
100.7465026495089,1095
103.18949922410604,1067
105.63182078126385,1047
108.07346752062438,1107
110.51443964190923,1103
112.95473734491827,1089
115.39436082953114,911
117.83331029570547,979
120.27158594347827,1200
122.7091879729652,1342
125.1461165843615,1317
127.58237197794062,1126
130.01795435405518,1026
132.4528639131364,962
134.88710085569494,990
137.32066538231982,965
139.75355769367923,892
142.1857779905207,837
144.61732647366978,856
147.04820334403132,796
149.47840880258934,822
151.90794305040674,894
154.33680628862487,1123
156.76499871846443,1304
159.19252054122433,1432
161.61937195828352,1463
164.04555317109896,1615
166.47106438120693,1811
168.89590579022217,2017
171.320077599839,2093
173.7435800118302,2159
176.16641322804742,2335
178.58857745042144,2525
181.01007288096173,2720
183.43089972175687,2754
185.85105817497413,2619
188.27054844285988,2601
190.6893707277394,2560
193.10752523201643,2587
195.5250121581745,2614
197.9418317087751,2660
200.3579840864594,2706
202.7734694939469,2630
205.18828813403627,2752
207.6024402096051,2888
210.01592592360964,3015
212.42874547908548,2939
214.84089907914665,2849
217.2523869269868,2748
219.66320922587727,2750
222.0733661791695,2787
224.48285799029293,2750
226.8916848627572,2721
229.29984700014882,2625
231.7073446061355,2799
234.11417788446204,2743
236.520347038953,2806
238.92585227351185,2792
241.33069379212054,2789
243.73487179884035,2936
246.1383864978112,2969
248.541238093252,2999
250.9434267894609,2840
253.34495279081432,2910
255.74581630176783,2964
258.1460175268563,2937
260.54555667069314,2953
262.9444339379703,3062
265.3426495334594,2881
267.7402036620107,2851
270.1370965285529,2765
272.53332833809407,2716
274.9288992957214,2680
277.32380960660055,2619
279.718059475976,2612
282.1116491091717,2591
284.5045787115897,2557
286.89684848871195,2536
289.2884586460981,2567
291.67940938938807,2588
294.0697009242996,2639
296.4593334566299,2650
298.84830719225477,2602
301.23662233712923,2517
303.6242790972866,2424
306.01127767884,2493
308.39761828798066,2439
310.78330113097934,2455
313.16832641418534,2380
315.5526943440269,2394
317.9364051270112,2246
320.3194589697242,2347
322.70185607883093,2390
325.0835966610754,2406
327.4646809232805,2207
329.8451090723478,2181
332.2248813152577,2258
334.6039978590701,2217
336.9824589109231,2231
339.36026467803447,2172
341.7374153677,2199
344.113911187295,2188
346.48975234427337,2202
348.8649390461686,2189
351.2394715005918,2181
353.61334991523415,2127
355.9865744978655,2123
358.35914545633375,2182
360.73106299856715,2158
363.10232733257146,2196
365.47293866643247,2183
367.84289720831396,2161
370.2122031664593,2086
372.5808567491905,2080
374.9488581649083,2072
377.31620762209275,1999
379.6829053293021,2095
382.0489514951745,2143
384.4143463284262,2101
386.7790900378528,2019
389.14318283232853,2029
391.50662492080653,2039
393.86941651231916,2024
396.23155781597745,2096
398.5930490409713,2005
400.9538903965696,1955
403.3140820921202,2004
405.6736243370498,2065
408.03251734086336,2075
410.3907613131465,2082
412.74835646356166,1945
415.10530300185144,1997
417.4616011378372,2071
419.81725108141893,2031
422.1722530425758,2000
424.5266072313656,1974
426.880313857925,2038
429.2333731324701,2022
431.58578526529516,1984
433.9375504667738,1988
436.2886689473588,1957
438.63914091758113,1996
440.9889665880513,1967
443.33814616945835,1899
445.68667987257015,1962
448.03456790823395,1935
450.3818104873759,1949
452.72840782100013,1998
455.07436012019105,1893
457.41966759611057,1945
459.7643304600007,1923
462.10834892318155,1880
464.4517231970525,1911
466.79445349309174,1933
469.1365400228566,1945
471.4779829979826,1997
473.81878263018564,1866
476.15893913125876,2006
478.4984527130747,2032
480.8373235875855,2106
483.17555196682144,2136
485.5131380628919,2011
487.8500820879857,2179
490.1863842543697,2221
492.52204477439034,2310
494.8570638604725,2665
497.1914417251204,2875
499.52517858091653,3069
501.85827464052306,3377
504.19073011668036,3497
506.5225452222086,3392
508.85372017000566,3483
511.18425517304956,3323
513.514150444396,3358
515.8434061971808,3919
518.1720226446176,4623
520.4999999999999,4926
522.8273384766991,4662
525.1540382881666,4436
527.480099647932,3878
529.8055227696037,3344
532.1303078668694,2725
534.454455153496,2394
536.777964843328,2280
539.1008371502907,2267
541.4230722883866,2073
543.744670471698,2058
546.0656319143858,2050
548.3859568306899,2127
550.7056454349294,2086
553.0246979415016,1994
555.3431145648834,1963
557.6608955196306,1974
559.978041020377,2008
562.2945512818363,2046
564.6104265188006,2111
566.9256669461412,2084
569.2402727788082,2071
571.5542442318302,1970
573.8675815203156,2070
576.1802848594508,2048
578.4923544645015,2127
580.8037905508126,2148
583.114593333807,2061
585.4247630289875,2087
587.7342998519354,2099
590.0432040183106,2078
592.3514757438526,2027
594.6591152443794,2159
596.9661227357875,2114
599.2724984340531,2132
601.578242555231,2073
603.8833553154542,2103
606.1878369309362,2094
608.4916876179676,2019
610.7949075929192,2053
613.0974970722403,2072
615.3994562724587,2001
617.7007854101818,2012
620.0014847020951,2059
622.3015543649641,2008
624.6009946156324,2085
626.8998056710224,2017
629.1979877481361,2107
631.4955410640538,2016
633.7924658359349,2095
636.0887622810175,2050
638.3844306166192,2077
640.6794710601358,2039
642.9738838290426,2062
645.2676691408932,2015
647.5608272133207,2061
649.853358264037,2039
652.1452625108324,2079
654.4365401715764,2051
656.7271914642178,2089
659.0172166067838,2194
661.3066158173809,2116
663.5953893141935,2036
665.8835373154867,2063
668.1710600396028,2011
670.4579577049639,2037
672.7442305300709,2015
675.0298787335033,2077
677.3149025339197,2054
679.599302150058,2075
681.8830778007342,2090
684.1662297048437,2166
686.4487580813608,2039
688.7306631493387,2088
691.0119451279091,2104
693.2926042362834,2113
695.5726406937516,2077
697.8520547196814,2076
700.1308465335215,2057
702.4090163547982,2057
704.6865644031171,2051
706.9634908981619,2051
709.2397960596965,2071
711.5154801075631,2130
713.7905432616823,2094
716.0649857420548,2118
718.3388077687592,1994
720.612009561953,2020
722.8845913418733,2062
725.1565533288352,2021
727.427895743234,2133
729.6986188055427,2023
731.9687227363137,2017
734.238207756178,2086
736.5070740858458,2098
738.7753219461066,2026
741.0429515578281,2096
743.3099631419569,2114
745.5763569195191,2046
747.8421331116193,2048
750.1072919394409,2016
752.3718336242467,2114
754.6357583873777,2105
756.8990664502545,2091
759.1617580343765,2081
761.423833361321,2023
763.6852926527457,2044
765.9461361303862,2064
768.206364016058,2133
770.4659765316536,2132
772.7249738991469,2055
774.9833563405886,2074
777.2411240781092,2149
779.4982773339183,2106
781.7548163303044,1978
784.010741289634,2048
786.2660524343538,2107
788.5207499869881,2040
790.7748341701416,2121
793.0283052064964,2057
795.2811633188143,2129
797.5334087299362,2108
799.7850416627813,2083
802.0360623403484,2115
804.2864709857143,2131
806.5362678220353,2137
808.7854530725468,2100
811.0340269605625,2141
813.2819897094754,2127
815.5293415427581,2099
817.77608268396,2132
820.0222133567116,2126
822.2677337847211,2029
824.5126441917765,2114
826.7569448017433,2129
829.0006358385675,2064
831.2437175262731,2127
833.4861900889629,2067
835.7280537508192,2053
837.9693087361026,2049
840.2099552691533,2138
842.4499935743896,2078
844.689423876309,2027
846.9282463994886,2072
849.1664613685833,2155
851.4040690083276,2139
853.6410695435349,2103
855.877463199097,2154
858.1132501999847,2173
860.3484307712487,2174
862.5830051380175,2125
864.8169735254988,2109
867.0503361589791,2159
869.2830932638243,2196
871.5152450654786,2128
873.7467917894654,2148
875.9777336613873,2179
878.2080709069252,2172
880.4378037518389,2207
882.666932421968,2173
884.8954571432301,2248
887.1233781416219,2209
889.3506956432192,2193
891.5774098741766,2228
893.803521060728,2167
896.0290294291852,2144
898.2539352059397,2205
900.4782386174619,2154
902.7019398903011,2182
904.925039251085,2138
907.147536926521,2206
909.3694331433943,2216
911.59072812857,2170
913.8114221089921,2080
916.0315153116827,2195
918.2510079637437,2114
920.4699002923547,2135
922.6881925247761,2128
924.905884888345,2072
927.1229776104793,2126
929.3394709186747,2141
931.555365040506,2108
933.7706602036275,2078
935.9853566357709,2170
938.1994545647489,2107
940.4129542184515,2097
942.6258558248488,2135
944.8381596119883,2154
947.0498658079974,2096
949.2609746410825,2049
951.4714863395287,2041
953.6814011316998,2134
955.8907192460387,2066
958.0994409110671,2053
960.3075663553858,2097
962.5150958076741,2080
964.7220294966913,2009
966.928367651274,1951
969.1341105003388,2103
971.3392582728806,2082
973.5438111979742,2008
975.747769504772,2054
977.9511334225061,1934
980.153903180487,1997
982.3560790081052,1969
984.5576611348289,2021
986.7586497902058,2001
988.9590452038618,1971
991.158847605503,2023
993.3580572249133,1895
995.5566742919558,1854
997.7546990365728,1843
999.952131688785,1952
1002.1489724786926,1905
1004.3452216364743,1873
1006.5408793923874,1841
1008.7359459767691,1777
1010.9304216200343,1814
1013.1243065526781,1797
1015.3176010052733,1892
1017.510305208472,1728
1019.7024193930064,1729
1021.8939437896848,1741
1024.0848786293977,1755
1026.2752241431122,1769
1028.4649805618747,1833
1030.6541481168115,1765
1032.842727039127,1778
1035.0307175601051,1767
1037.2181199111074,1714
1039.4049343235752,1757
1041.591161029029,1749
1043.7768002590683,1717
1045.9618522453698,1668
1048.1463172196918,1744
1050.3301954138697,1761
1052.513487059818,1794
1054.69619238953,1798
1056.8783116350783,1716
1059.0598450286152,1761
1061.2407928023704,1753
1063.4211551886528,1758
1065.6009324198508,1746
1067.780124728432,1811
1069.9587323469414,1737
1072.1367555080046,1708
1074.314194444325,1721
1076.4910493886855,1732
1078.667320573947,1726
1080.843008233051,1686
1083.0181125990161,1695
1085.1926339049414,1752
1087.3665723840027,1706
1089.5399282694575,1640
1091.7127017946405,1711
1093.8848931929647,1725
1096.0565026979243,1694
1098.2275305430899,1680
1100.3979769621128,1680
1102.567842188722,1643
1104.737126456726,1654
1106.9058300000124,1608
1109.0739530525475,1621
1111.2414958483764,1639
1113.4084586216231,1589
1115.5748416064907,1620
1117.7406450372605,1606
1119.9058691482942,1656
1122.0705141740304,1645
1124.2345803489884,1643
1126.3980679077658,1658
1128.5609770850388,1602
1130.7233081155623,1638
1132.8850612341707,1674
1135.0462366757774,1633
1137.2068346753745,1634
1139.3668554680326,1581
1141.526299288901,1680
1143.68516637321,1629
1145.8434569562655,1711
1148.001171273455,1637
1150.158309560244,1612
1152.3148720521767,1612
1154.470858984876,1610
1156.626270594044,1591
1158.7811071154629,1633
1160.9353687849912,1623
1163.089055838569,1598
1165.242168512213,1539
1167.3947070420209,1578
1169.5466716641677,1582
1171.6980626149075,1654
1173.8488801305748,1610
1175.9991244475814,1571
1178.1487958024186,1566
1180.2978944316555,1617
1182.4464205719428,1553
1184.5943744600072,1607
1186.7417563326567,1594
1188.8885664267755,1641
1191.0348049793297,1582
1193.1804722273619,1538
1195.325568407995,1604
1197.4700937584303,1563
1199.614048515948,1576
1201.7574329179074,1606
1203.900247201746,1626
1206.042491604982,1605
1208.1841663652099,1603
1210.3252717201053,1552
1212.465807907422,1546
1214.6057751649923,1531
1216.7451737307279,1565
1218.8840038426192,1595
1221.0222657387353,1536
1223.1599596572241,1600
1225.2970858363137,1623
1227.4336445143094,1607
1229.5696359295966,1647
1231.705060320639,1618
1233.8399179259786,1606
1235.9742089842384,1611
1238.107933734118,1602
1240.2410924143974,1630
1242.373685263935,1538
1244.5057125216676,1650
1246.6371744266116,1671
1248.7680712178621,1659
1250.898403134593,1628
1253.028170416058,1624
1255.1573733015875,1680
1257.2860120305932,1590
1259.4140868425648,1623
1261.54159797707,1664
1263.6685456737569,1601
1265.7949301723515,1667
1267.9207517126597,1656
1270.046010534565,1687
1272.1707068780306,1707
1274.2948409830983,1740
1276.4184130898889,1685
1278.541423438603,1695
1280.6638722695184,1706
1282.785759822993,1679
1284.9070863394636,1724
1287.0278520594447,1632
1289.1480572235314,1682
1291.2677020723963,1735
1293.3867868467923,1722
1295.5053117875495,1727
1297.623277135579,1780
1299.740683131868,1760
1301.8575300174857,1685
1303.973818033578,1662
1306.0895474213703,1761
1308.2047184221678,1731
1310.3193312773528,1781
1312.4333862283888,1734
1314.5468835168163,1739
1316.659823384255,1676
1318.7722060724045,1730
1320.8840318230418,1783
1322.9953008780249,1744
1325.1060134792888,1703
1327.2161698688478,1747
1329.3257702887959,1716
1331.4348149813054,1747
1333.5433041886276,1720
1335.6512381530933,1750
1337.7586171171101,1742
1339.8654413231675,1695
1341.9717110138317,1769
1344.0774264317488,1778
1346.1825878196432,1735
1348.2871954203192,1778
1350.3912494766587,1747
1352.4947502316231,1715
1354.5976979282532,1691
1356.7000928096686,1791
1358.8019351190665,1808
1360.9032250997243,1711
1363.0039629949988,1671
1365.1041490483235,1765
1367.2037835032133,1672
1369.3028666032606,1765
1371.401398592137,1758
1373.4993797135926,1733
1375.5968102114575,1725
1377.6936903296396,1732
1379.7900203121262,1713
1381.8858004029835,1795
1383.9810308463561,1769
1386.075711886469,1708
1388.1698437676241,1775
1390.2634267342032,1777
1392.356461030667,1773
1394.4489469015557,1750
1396.5408845914872,1764
1398.6322743451592,1776
1400.7231164073469,1808
1402.813411022907,1780
1404.903158436773,1816
1406.9923588939578,1801
1409.0810126395531,1776
1411.1691199187303,1835
1413.2566809767386,1731
1415.343696058907,1811
1417.4301654106425,1852
1419.5160892774315,1804
1421.6014679048399,1893
1423.6863015385125,1881
1425.7705904241707,1879
1427.8543348076178,1882
1429.9375349347342,1844
1432.0201910514802,1917
1434.102303403894,1872
1436.1838722380944,1933
1438.2648978002767,1981
1440.3453803367174,2022
1442.4253200937692,2032
1444.5047173178677,2010
1446.5835722555234,1971
1448.6618851533285,2036
1450.739656257952,2072
1452.8168858161434,2108
1454.8935740747306,2068
1456.96972128062,2104
1459.045327680797,2087
1461.120393522327,2124
1463.1949190523528,2163
1465.2689045180973,2210
1467.3423501668608,2254
1469.415256246024,2311
1471.4876230030463,2270
1473.559450685465,2267
1475.6307395408976,2405
1477.7014898170391,2415
1479.771701761665,2391
1481.8413756226287,2461
1483.9105116478618,2403
1485.9791100853772,2471
1488.0471711832643,2413
1490.1146951896926,2559
1492.1816823529098,2528
1494.2481329212433,2569
1496.3140471430984,2678
1498.3794252669609,2598
1500.4442675413939,2569
1502.5085742150404,2663
1504.572345536622,2727
1506.6355817549388,2650
1508.6982831188702,2675
1510.7604498773744,2704
1512.8220822794883,2762
1514.8831805743293,2747
1516.9437450110909,2860
1519.003775839048,2822
1521.0632733075522,2858
1523.1222376660367,2814
1525.1806691640113,2945
1527.2385680510652,2826
1529.2959345768668,2912
1531.3527689911643,3063
1533.4090715437833,2998
1535.4648424846291,3033
1537.5200820636855,3070
1539.5747905310159,3217
1541.6289681367616,3122
1543.6826151311434,3235
1545.7357317644614,3263
1547.7883182870937,3224
1549.8403749494987,3248
1551.8919020022113,3380
1553.9428996958477,3426
1555.9933682811015,3521
1558.0433080087469,3400
1560.0927191296346,3543
1562.1416018946961,3610
1564.1899565549415,3608
1566.2377833614592,3546
1568.2850825654164,3524
1570.3318544180606,3509
1572.3780991707158,3475
1574.423817074788,3358
1576.4690083817595,3292
1578.5136733431923,3125
1580.5578122107272,3090
1582.601425236085,2927
1584.6445126710646,2850
1586.6870747675434,2706
1588.7291117774776,2627
1590.7706239529034,2494
1592.8116115459347,2370
1594.8520748087658,2369
1596.8920139936686,2359
1598.9314293529933,2189
1600.9703211391711,2213
1603.008689604711,2094
1605.0465350022005,2053
1607.0838575843068,2063
1609.1206576037753,2023
1611.1569353134305,1999
1613.1926909661765,1956
1615.2279248149953,1957
1617.2626371129481,1899
1619.2968281131757,1892
1621.3304980688963,1901
1623.3636472334088,1893
1625.39627586009,1899
1627.428384202396,1826
1629.459972513861,1866
1631.4910410480993,1827
1633.5215900588028,1801
1635.551619799744,1816
1637.5811305247717,1760
1639.6101224878166,1802
1641.6385959428862,1779
1643.6665511440683,1780
1645.693988345528,1745
1647.7209078015112,1711
1649.7473097663405,1732
1651.7731944944203,1735
1653.7985622402307,1758
1655.823413258333,1656
1657.847747803366,1682
1659.8715661300494,1718
1661.8948684931793,1719
1663.9176551476316,1755
1665.9399263483624,1730
1667.9616823504057,1730
1669.982923408873,1688
1672.0036497789574,1738
1674.0238617159293,1738
1676.043559475138,1731
1678.0627433120121,1732
1680.081413482059,1676
1682.0995702408654,1722
1684.117213844096,1773
1686.134344547495,1671
1688.1509626068864,1680
1690.1670682781705,1650
1692.182661817329,1754
1694.1977434804217,1701
1696.2123135235875,1728
1698.226372203043,1743
1700.2399197750851,1727
1702.2529564960905,1760
1704.2654826225112,1665
1706.277498410882,1695
1708.2890041178139,1738
1710.2999999999988,1687
1712.3104863142066,1675
1714.3204633172854,1699
1716.329931266163,1663
1718.3388904178469,1646
1720.3473410294214,1653
1722.3552833580516,1687
1724.3627176609807,1719
1726.3696441955308,1698
1728.3760632191033,1669
1730.3819749891782,1679
1732.3873797633146,1581
1734.3922777991502,1649
1736.3966693544012,1621
1738.4005546868639,1642
1740.4039340544127,1647
1742.406807715001,1642
1744.4091759266616,1623
1746.4110389475054,1619
1748.4123970357223,1627
1750.413250449582,1619
1752.4135994474318,1598
1754.4134442876993,1602
1756.4127852288902,1639
1758.4116225295893,1617
1760.4099564484595,1606
1762.407787244244,1593
1764.405115175764,1618
1766.4019405019203,1700
1768.3982634816916,1687
1770.3940843741357,1633
1772.3894034383907,1605
1774.3842209336717,1599
1776.378537119274,1593
1778.372352254571,1634
1780.3656665990156,1586
1782.3584804121397,1597
1784.3507939535534,1546
1786.3426074829463,1599
1788.3339212600863,1540
1790.3247355448211,1616
1792.3150505970766,1601
1794.3048666768573,1611
1796.2941840442477,1582
1798.2830029594106,1644
1800.2713236825884,1624
1802.2591464741004,1624
1804.2464715943465,1613
1806.2332993038058,1580
1808.2196298630352,1591
1810.2054635326708,1630
1812.190800573428,1544
1814.175641246101,1560
1816.1599858115628,1569
1818.1438345307652,1574
1820.127187664738,1646
1822.1100454745924,1544
1824.092408221516,1612
1826.0742761667766,1580
1828.055649571721,1633
1830.0365286977735,1603
1832.0169138064398,1593
1833.9968051593014,1698
1835.9762030180214,1609
1837.9551076443408,1622
1839.9335193000788,1573
1841.9114382471344,1536
1843.888864747485,1568
1845.8657990631878,1643
1847.842241456378,1556
1849.8181921892697,1556
1851.7936515241558,1616
1853.7686197234098,1573
1855.7430970494815,1520
1857.7170837649014,1546
1859.6905801322787,1553
1861.6635864143004,1566
1863.6361028737338,1627
1865.608129773424,1581
1867.5796673762961,1609
1869.5507159453537,1605
1871.521275743678,1672
1873.4913470344313,1595
1875.4609300808534,1626
1877.4300251462632,1578
1879.3986324940588,1635
1881.366752387717,1608
1883.3343850907936,1576
1885.3015308669228,1630
1887.268189979819,1579
1889.2343626932739,1720
1891.2000492711595,1609
1893.1652499774254,1586
1895.1299650761011,1609
1897.0941948312952,1552
1899.0579395071945,1622
1901.0211993680641,1631
1902.98397467825,1642
1904.9462657021745,1569
1906.9080727043415,1581
1908.869395949332,1589
1910.8302357018065,1598
1912.790592226504,1623
1914.7504657882428,1610
1916.7098566519212,1575
1918.6687650825133,1638
1920.6271913450764,1558
1922.5851357047422,1587
1924.5425984267245,1580
1926.499579776314,1560
1928.4560800188833,1628
1930.4120994198802,1612
1932.367638244833,1658
1934.32269675935,1632
1936.2772752291175,1625
1938.231373919899,1585
1940.1849930975404,1623
1942.1381330279637,1641
1944.0907939771696,1638
1946.0429762112412,1565
1947.9946799963363,1568
1949.9459055986945,1541
1951.896653284633,1623
1953.8469233205478,1511
1955.7967159729142,1549
1957.7460315082863,1594
1959.6948701932974,1535
1961.6432322946594,1633
1963.5911180791632,1562
1965.5385278136787,1611
1967.4854617651545,1559
1969.4319202006182,1572
1971.377903387176,1563
1973.3234115920136,1601
1975.268445082395,1541
1977.2130041256642,1597
1979.1570889892423,1523
1981.1006999406304,1599
1983.04383724741,1547
1984.986501177238,1535
1986.928691997853,1510
1988.8704099770712,1562
1990.811655382789,1544
1992.7524284829801,1538
1994.692729545698,1568
1996.6325588390755,1595
1998.5719166313224,1560
2000.5108031907307,1575
2002.4492187856677,1562
2004.387163684583,1532
2006.3246381560011,1583
2008.2616424685298,1547
2010.1981768908527,1569
2012.1342416917332,1533
2014.069837140014,1549
2016.0049635046162,1557
2017.9396210545406,1570
2019.8738100588666,1509
2021.8075307867502,1565
2023.740783507431,1478
2025.6735684902228,1524
2027.6058860045214,1563
2029.5377363198004,1586
2031.4691197056118,1476
2033.4000364315875,1536
2035.3304867674374,1512
2037.260470982952,1558
2039.189989347998,1563
2041.1190421325232,1525
2043.047629606554,1588
2044.9757520401945,1478
2046.9034097036288,1490
2048.8306028671195,1566
2050.7573318010086,1553
2052.683596775716,1510
2054.609398061742,1507
2056.5347359296647,1477
2058.4596106501403,1545
2060.384022493906,1564
2062.3079717317764,1568
2064.231458634646,1486
2066.1544834734873,1502
2068.077046519352,1545
2069.99914804337,1527
2071.9207883167524,1519
2073.8419676107865,1474
2075.7626861968406,1497
2077.6829443463607,1518
2079.6027423308715,1500
2081.522080421977,1482
2083.440958891362,1518
2085.359378010786,1512
2087.2773380520907,1495
2089.194839287196,1537
2091.111881988101,1482
2093.0284664268825,1508
2094.9445928756973,1570
2096.86026160678,1523
2098.775472892446,1519
2100.690227005088,1554
2102.604524217178,1510
2104.5183648012676,1569
2106.431749029985,1528
2108.34467717604,1532
2110.2571495122206,1536
2112.169166311393,1529
2114.080727846503,1527
2115.9918343905747,1576
2117.902486216711,1502
2119.8126835980956,1553
2121.722426807987,1580
2123.6317161197285,1506
2125.5405518067364,1588
2127.448934142509,1541
2129.356863400624,1543
2131.264339854737,1572
2133.1713637785815,1548
2135.077935445972,1487
2136.9840551308002,1553
2138.889723107037,1554
2140.7949396487334,1522
2142.699705030018,1555
2144.6040195250994,1565
2146.507883408264,1583
2148.4112969538774,1571
2150.3142604363848,1599
2152.2167741303097,1567
2154.1188383102535,1552
2156.0204532508997,1562
2157.9216192270064,1570
2159.822336513414,1544
2161.7226053850413,1616
2163.622426116884,1565
2165.5217989840185,1570
2167.4207242616,1607
2169.319202224862,1571
2171.2172331491165,1543
2173.1148173097563,1663
2175.0119549822507,1635
2176.90864644215,1638
2178.8048919650823,1617
2180.7006918267534,1587
2182.596046302952,1585
2184.4909556695407,1558
2186.3854202024645,1570
2188.279440177746,1626
2190.173015871487,1575
2192.066147559868,1583
2193.958835519149,1555
2195.851080025667,1565
2197.7428813558417,1580
2199.6342397861667,1561
2201.5251555932186,1556
2203.415629053651,1599
2205.3056604441986,1600
2207.19525004167,1561
2209.084398122958,1603
2210.9731049650327,1602
2212.861370844941,1673
2214.749196039812,1615
2216.636580826851,1611
2218.523525483344,1605
2220.410030286655,1644
2222.296095514226,1629
2224.1817214435805,1592
2226.066908352319,1629
2227.951656518121,1588
2229.835966218746,1591
2231.71983773203,1601
2233.6032713358913,1576
2235.486267308324,1688
2237.3688259274036,1638
2239.2509474712824,1637
2241.132632218193,1697
2243.013880446447,1626
2244.8946924344323,1642
2246.7750684606203,1648
2248.6550088035574,1630
2250.534513741871,1656
2252.413583554265,1598
2254.292218519526,1572
2256.170418916517,1639
2258.0481850241786,1607
2259.925517121534,1592
2261.8024154876825,1549
2263.678880401803,1636
2265.5549121431536,1637
2267.430510991071,1624
2269.305677224971,1612
2271.180411124348,1621
2273.0547129687766,1586
2274.9285830379076,1594
2276.8020216114737,1581
2278.6750289692845,1579
2280.5476053912294,1596
2282.4197511572766,1583
2284.2914665474727,1570
2286.162751841943,1616
2288.0336073208937,1664
2289.904033264608,1665
2291.774029953448,1643
2293.6435976678554,1605
2295.5127366883517,1647
2297.381447295534,1614
2299.2497297700825,1548
2301.1175843927526,1486
2302.9850114443825,1504
2304.852011205885,1455
2306.7185839582553,1505
2308.5847299825664,1449
2310.4504495599676,1438
2312.3157429716925,1438
2314.1806104990483,1410
2316.0450524234247,1379
2317.9090690262888,1419
2319.772660589186,1441
2321.635827393742,1434
2323.498569721661,1401
2325.3608878547248,1362
2327.2227820747967,1407
2329.0842526638157,1408
2330.945299903803,1459
2332.805924076857,1360
2334.6661254651535,1423
2336.525904350951,1430
2338.3852610165827,1393
2340.244195744464,1399
2342.102708817088,1387
2343.9608005170253,1398
2345.8184711269287,1369
2347.675720929526,1410
2349.532550207628,1457
2351.38895924412,1427
2353.24494832197,1344
2355.100517724223,1403
2356.955667734004,1425
2358.810398634514,1445
2360.664710709037,1403
2362.5186042409337,1389
2364.3720795136437,1372
2366.225136810686,1415
2368.0777764156583,1415
2369.929998612237,1423
2371.7818036841777,1371
2373.633191915315,1374
2375.484163589562,1426
2377.3347189909114,1371
2379.184858403434,1447
2381.03458211128,1458
2382.8838903986775,1394
2384.732783549936,1395
2386.5812618494406,1412
2388.4293255816588,1444
2390.2769750311327,1397
2392.1242104824883,1462
2393.971032220427,1463
2395.8174405297295,1424
2397.6634356952563,1410
2399.509018001947,1392
2401.3541877348193,1425
2403.1989451789705,1466
2405.043290619576,1429
2406.8872243418905,1467
2408.730746631247,1430
2410.5738577730594,1392
2412.4165580528183,1435
2414.258847756095,1421
2416.100727168537,1457
2417.9421965758734,1416
2419.783256263912,1432
2421.623906518538,1397
2423.4641476257157,1396
2425.303979871491,1407
2427.143403541984,1404
2428.9824189233977,1429
2430.821026302012,1449
2432.6592259641866,1470
2434.497018196361,1426
2436.33440328505,1378
2438.171381516851,1433
2440.00795317844,1394
2441.844118556569,1448
2443.6798779380724,1452
2445.5152316098606,1443
2447.3501798589255,1466
2449.1847229723357,1439
2451.0188612372403,1425
2452.8525949408663,1374
2454.6859243705203,1425
2456.518849813587,1428
2458.3513715575314,1396
2460.183489889895,1396
2462.015205098301,1412
2463.8465174704493,1376
2465.67742729412,1410
2467.5079348571717,1419
2469.338040447542,1448
2471.1677443532476,1403
2472.9970468623833,1481
2474.825948263123,1440
2476.6544488437207,1464
2478.482548892508,1367
2480.310248697896,1522
2482.137548548374,1420
2483.9644487325118,1387
2485.790949538956,1474
2487.617051256433,1471
2489.44275417375,1451
2491.26805857979,1471
2493.0929647635157,1477
2494.917473013971,1398
2496.741583620276,1458
2498.5652968716304,1491
2500.3886130573137,1535
2502.2115324666834,1399
2504.0340553891765,1420
2505.856182114308,1459
2507.6779129316733,1499
2509.499248130945,1475
2511.3201880018764,1515
2513.140732834298,1501
2514.9608829181198,1499
2516.780638543331,1484
2518.6,1479
2520.418967578273,1507
2522.237541568376,1458
2524.0557222606144,1438
2525.8735099453706,1532
2527.6909049131086,1519
2529.507907454368,1506
2531.32451785977,1501
2533.140736420014,1515
2534.9565634258774,1526
2536.771999168218,1552
2538.5870439379714,1528
2540.4016980261526,1552
2542.2159617238544,1531
2544.02983532225,1506
2545.8433191125914,1623
2547.656413386209,1577
2549.4691184345115,1591
2551.2814345489874,1616
2553.093362021204,1609
2554.904901142808,1633
2556.716052205523,1631
2558.526815501153,1627
2560.3371913215824,1570
2562.147179958771,1564
2563.956781704761,1651
2565.7659968516705,1722
2567.5748256916986,1624
2569.3832685171224,1680
2571.1913256202984,1639
2572.9989972936614,1675
2574.806283829725,1717
2576.613185521084,1709
2578.4197026604074,1691
2580.2258355404483,1685
2582.031584454035,1691
2583.836949694077,1712
2585.6419315535613,1719
2587.4465303255533,1754
2589.2507463032002,1683
2591.0545797797245,1714
2592.8580310484303,1680
2594.6611004026995,1743
2596.463788135992,1702
2598.266094541849,1786
2600.0680199138874,1785
2601.869564545807,1802
2603.670728731383,1791
2605.4715127644704,1806
2607.2719169390048,1747
2609.071941548998,1798
2610.8715868885433,1764
2612.670853251811,1779
2614.469740933052,1743
2616.268250226594,1737
2618.0663814268455,1724
2619.864134828292,1745
2621.6615107255006,1803
2623.458509413115,1784
2625.2551311858597,1736
2627.0513763385347,1789
2628.8472451660223,1743
2630.6427379632833,1687
2632.4378550253564,1749
2634.232596647359,1727
2636.026963124488,1683
2637.8209547520187,1682
2639.6145718253065,1632
2641.407814639785,1632
2643.200683490966,1683
2644.9931786744414,1633
2646.7853004858807,1674
2648.577049221034,1671
2650.3684251757277,1620
2652.1594286458712,1515
2653.9500599274484,1593
2655.740319316525,1628
2657.5302071092437,1583
2659.3197236018286,1611
2661.10886909058,1546
2662.8976438718782,1597
2664.686048242183,1593
2666.4740824980327,1560
2668.2617469360443,1512
2670.0490418529134,1530
2671.8359675454153,1505
2673.622524310403,1561
2675.408712444811,1480
2677.1945322456495,1489
2678.979984010009,1437
2680.76506803506,1460
2682.5497846180497,1500
2684.334134056306,1378
2686.1181166472343,1481
2687.9017326883213,1508
2689.6849824771293,1475
2691.4678663113013,1476
2693.2503844885596,1461
2695.032537306705,1414
2696.8143250636167,1432
2698.5957480572542,1481
2700.3768065856534,1441
2702.1575009469316,1442
2703.937831439283,1486
2705.717798360982,1449
2707.4974020103837,1418
2709.276642685917,1400
2711.055520686095,1475
2712.834036309506,1409
2714.612189854819,1416
2716.389981620782,1465
2718.1674119062204,1442
2719.944481010041,1443
2721.721189231226,1421
2723.4975368688415,1457
2725.273524222027,1426
2727.0491515900053,1362
2728.824419272075,1432
2730.5993275676146,1347
2732.3738767760838,1376
2734.148067197016,1377
2735.921899130031,1393
2737.6953728748194,1389
2739.468488731156,1399
2741.2412469988926,1389
2743.0136479779617,1350
2744.785691968372,1429
2746.5573792702116,1320
2748.3287101836504,1381
2750.099685008934,1348
2751.870304046388,1393
2753.640567596418,1381
2755.4104759595057,1408
2757.1800294362156,1353
2758.949228327187,1351
2760.7180729331412,1416
2762.486563554877,1395
2764.254700493272,1465
2766.022484049284,1401
2767.789914523947,1430
2769.5569922183786,1340
2771.3237174337705,1393
2773.090090471394,1368
2774.8561116326036,1388
2776.6217812188274,1457
2778.3870995315756,1351
2780.1520668724356,1373
2781.9166835430747,1391
2783.6809498452394,1366
2785.444866080754,1409
2787.2084325515225,1434
2788.971649559527,1408
2790.73451740683,1324
2792.4970363955713,1372
2794.2592068279705,1351
2796.0210290063264,1332
2797.7825032330147,1394
2799.543629810493,1428
2801.304409041296,1372
2803.0648412280366,1354
2804.8249266734088,1387
2806.5846656801846,1412
2808.344058551212,1346
2810.1031055894246,1346
2811.8618070978273,1387
2813.6201633795085,1445
2815.378174737636,1315
2817.1358414754536,1372
2818.893163896285,1362
2820.6501423035334,1332
2822.4067770006814,1435
2824.1630682912883,1343
2825.9190164789957,1362
2827.6746218675207,1422
2829.429884760661,1405
2831.184805462294,1392
2832.9393842763743,1337
2834.693621506936,1402
2836.4475174580916,1435
2838.201072434034,1366
2839.954286739034,1358
2841.707160677441,1346
2843.459694553685,1384
2845.2118886722724,1361
2846.96374333779,1363
2848.7152588549034,1419
2850.4664355283567,1415
2852.217273662973,1403
2853.9677735636546,1406
2855.7179355353833,1369
2857.4677598832186,1347
2859.217246912299,1376
2860.9663969278427,1400
2862.715210235146,1403
2864.4636871395846,1404
2866.211827946614,1426
2867.9596329617652,1376
2869.7071024906536,1353
2871.4542368389684,1342
2873.20103631248,1345
2874.947501217038,1394
2876.6936318585695,1416
2878.4394285430812,1364
2880.1848915766604,1395
2881.9300212654707,1351
2883.6748179157553,1422
2885.4192818338374,1348
2887.1634133261173,1371
2888.907212699077,1366
2890.6506802592744,1390
2892.393816313348,1370
2894.1366211680142,1369
2895.8790951300693,1400
2897.621238506388,1457
2899.363051603925,1387
2901.1045347297118,1300
2902.8456881908596,1387
2904.58651229456,1400
2906.327007348081,1375
2908.067173658772,1371
2909.8070115340597,1331
2911.5465212814497,1324
2913.285703208527,1400
2915.0245576229563,1352
2916.7630848324807,1355
2918.5012851449196,1418
2920.2391588681758,1357
2921.976706310227,1339
2923.7139277791334,1342
2925.4508235830313,1346
2927.187394030137,1379
2928.923639428745,1379
2930.6595600872306,1369
2932.395156314046,1352
2934.1304284177218,1370
2935.8653767068713,1419
2937.6000014901815,1368
2939.3343030764227,1325
2941.068281774442,1430
2942.8019378931644,1366
2944.5352717415976,1408
2946.2682836288236,1412
2948.0009738640065,1341
2949.7333427563885,1404
2951.465390615289,1422
2953.1971177501086,1409
2954.9285244703265,1372
2956.6596110855,1371
2958.3903779052657,1400
2960.1208252393385,1370
2961.8509533975125,1386
2963.5807626896617,1341
2965.3102534257378,1343
2967.0394259157715,1370
2968.768280469873,1295
2970.496817398232,1391
2972.2250370111146,1396
2973.952939618869,1350
2975.6805255319196,1273
2977.4077950607707,1348
2979.134748516006,1444
2980.861386208289,1362
2982.587708448359,1379
2984.313715547037,1353
2986.039407815222,1402
2987.764785563891,1287
2989.489849104102,1405
2991.2145987469908,1359
2992.9390348037705,1368
2994.6631575857346,1330
2996.3869674042576,1305
2998.1104645707887,1338
2999.83364939686,1356
3001.5565221940783,1353
3003.2790832741334,1396
3005.0013329487924,1328
3006.7232715298996,1380
3008.4448993293804,1389
3010.166216659239,1353
3011.887223831558,1320
3013.607921158498,1292
3015.3283089522993,1361
3017.0483875252826,1381
3018.7681571898443,1306
3020.4876182584626,1330
3022.2067710436927,1295
3023.9256158581707,1305
3025.644153014609,1370
3027.362382825801,1288
3029.0803056046193,1356
3030.797921664012,1343
3032.5152313170106,1351
3034.2322348767225,1305
3035.9489326563353,1357
3037.665324969115,1327
3039.3814121284063,1327
3041.097194447633,1337
3042.812672240299,1335
3044.5278458199855,1338
3046.2427155003525,1317
3047.9572815951406,1316
3049.671544418167,1339
3051.38550428333,1347
3053.0991615046073,1345
3054.812516396051,1328
3056.5255692717974,1321
3058.2383204460575,1343
3059.9507702331257,1349
3061.662918947372,1363
3063.3747669032446,1366
3065.0863144152736,1322
3066.7975617980674,1367
3068.508509366309,1365
3070.219157434767,1350
3071.9295063182844,1301
3073.639556331785,1363
3075.3493077902704,1355
3077.058761008821,1303
3078.7679163025964,1280
3080.476773986837,1323
3082.1853343768594,1373
3083.89359778806,1360
3085.6015645359153,1297
3087.3092349359786,1329
3089.016609303884,1373
3090.7236879553434,1375
3092.4304712061476,1361
3094.136959372166,1357
3095.843152769349,1378
3097.5490517137237,1382
3099.2546565213966,1328
3100.959967508554,1417
3102.66498499146,1388
3104.3697092864577,1363
3106.0741407099695,1352
3107.778279578498,1372
3109.482126208622,1388
3111.1856809170004,1372
3112.8889440203716,1342
3114.5919158355528,1388
3116.294596679439,1362
3117.996986869006,1382
3119.6990867213062,1353
3121.4008965534726,1340
3123.102416682717,1342
3124.803647426329,1398
3126.5045891016784,1329
3128.205242026213,1400
3129.90560651746,1364
3131.605682893025,1332
3133.3054714705922,1318
3135.0049725679282,1372
3136.7041865028714,1334
3138.4031135933465,1360
3140.101754157353,1352
3141.800108512971,1334
3143.498176978357,1374
3145.1959598717494,1410
3146.8934575114636,1372
3148.5906702158954,1341
3150.2875983035183,1329
3151.9842420928853,1371
3153.680601902627,1306
3155.376678051456,1360
3157.07247085816,1353
3158.767980641609,1326
3160.463207720748,1366
3162.158152414606,1383
3163.8528150422862,1349
3165.5471959229726,1332
3167.2412953759303,1298
3168.9351137204976,1391
3170.628651276098,1351
3172.3219083622307,1343
3174.014885298474,1367
3175.707582404485,1359
3177.4000000000005,1331
3179.092138404835,1380
3180.7839979388846,1353
3182.47557892212,1350
3184.166881674594,1389
3185.8579065164386,1361
3187.5486537678626,1345
3189.2391237491547,1355
3190.9293167806827,1327
3192.6192331828934,1370
3194.3088732763117,1374
3195.998237381542,1313
3197.687325819268,1305
3199.376138910251,1362
3201.064676975334,1279
3202.7529403354347,1346
3204.4409293115523,1287
3206.1286442247647,1347
3207.816085396229,1298
3209.5032531471825,1344
3211.190147798936,1303
3212.8767696728846,1374
3214.5631190905015,1313
3216.2491963733373,1354
3217.9350018430214,1336
3219.6205358212637,1304
3221.305798629851,1334
3222.990790590651,1307
3224.6755120256103,1302
3226.359963256751,1269
3228.0441446061795,1319
3229.7280563960758,1304
3231.411698948703,1292
3233.0950725863995,1257
3234.778177631587,1301
3236.461014406761,1336
3238.1435832345005,1303
3239.8258844374595,1298
3241.507918338374,1350
3243.1896852600576,1294
3244.8711855254023,1376
3246.552419457381,1367
3248.233387379042,1320
3249.914089613516,1305
3251.59452648401,1335
3253.274698313813,1359
3254.95460542629,1320
3256.6342481448855,1348
3258.313626793125,1376
3259.9927416946084,1263
3261.6715931730196,1287
3263.3501815521176,1329
3265.0285071557437,1304
3266.706570307815,1321
3268.3843713323286,1297
3270.0619105533615,1279
3271.739188295068,1306
3273.4162048816834,1342
3275.0929606375184,1294
3276.769455886966,1334
3278.445690954498,1370
3280.1216661646613,1292
3281.797381842087,1356
3283.4728383114807,1303
3285.1480358976296,1289
3286.8229749253996,1298
3288.4976557197333,1336
3290.172078605655,1267
3291.846243908266,1272
3293.5201519527463,1264
3295.193803064357,1304
3296.8671975684374,1253
3298.5403357904024,1311
3300.21321805575,1317
3301.8858446900567,1284
3303.558216018975,1277
3305.23033236824,1288
3306.9021940636603,1358
3308.57380143113,1347
3310.2451547966184,1345
3311.916254486174,1283
3313.5871008259246,1281
3315.2576941420766,1303
3316.9280347609147,1322
3318.5981230088046,1287
3320.2679592121895,1274
3321.9375436975924,1330
3323.606876791612,1264
3325.27595882093,1346
3326.944790112305,1324
3328.6133709925753,1294
3330.2817017886573,1280
3331.949782827547,1298
3333.617614436319,1265
3335.2851969421245,1313
3336.952530672199,1301
3338.619615953853,1349
3340.286453114475,1349
3341.9530424815357,1344
3343.619384382583,1357
3345.2854791452437,1260
3346.951327097224,1318
3348.6169285663073,1307
3350.2822838803577,1327
3351.947393367319,1318
3353.61225735521,1337
3355.2768761721345,1311
3356.9412501462693,1321
3358.605379605873,1362
3360.2692648792827,1292
3361.9329062949146,1279
3363.596304181263,1270
