CollectionTime,7/10/2024 4:07:05 PM
ExposureUsed,3
CalibratedSpectrum
-962.7078968117929,541
-959.9714848408522,588
-957.2358232597828,558
-954.5009119013725,566
-951.7667505983302,551
-949.0333391832855,556
-946.3006774887896,568
-943.5687653473143,576
-940.837602591253,587
-938.1071890529199,604
-935.3775245645503,587
-932.6486089583007,581
-929.9204420662485,587
-927.1930237203925,581
-924.4663537526524,612
-921.7404319948689,609
-919.0152582788041,569
-916.2908324361409,606
-913.5671542984834,602
-910.8442236973568,581
-908.1220404642074,590
-905.4006044304027,610
-902.679915427231,580
-899.959973285902,582
-897.2407778375464,554
-894.5223289132158,578
-891.8046263438832,584
-889.0876699604426,561
-886.3714595937089,589
-883.6559950744183,578
-880.9412762332282,555
-878.2273029007168,535
-875.5140749073835,547
-872.8015920836489,537
-870.0898542598545,562
-867.3788612662631,567
-864.6686129330585,577
-861.9591090903457,603
-859.2503495681506,592
-856.5423341964203,548
-853.8350628050229,585
-851.1285352237478,576
-848.4227512823054,582
-845.7177108103272,556
-843.0134136373656,568
-840.3098595928943,551
-837.6070485063082,587
-834.9049802069229,585
-832.2036545239757,577
-829.5030712866244,598
-826.8032303239481,600
-824.1041314649472,615
-821.4057745385428,589
-818.7081593735775,587
-816.0112857988148,592
-813.3151536429393,564
-810.6197627345566,565
-807.9251129021936,587
-805.2312039742981,570
-802.5380357792392,571
-799.8456081453069,572
-797.1539209007124,572
-794.462973873588,568
-791.772766891987,629
-789.083299783884,616
-786.3945723771743,581
-783.7065844996748,544
-781.0193359791231,581
-778.3328266431781,604
-775.6470563194197,582
-772.9620248353489,603
-770.2777320183878,595
-767.5941776958798,594
-764.9113616950891,595
-762.2292838432011,616
-759.5479439673222,595
-756.8673418944801,580
-754.1874774516235,594
-751.5083504656222,606
-748.8299607632671,586
-746.15230817127,576
-743.475392516264,625
-740.7992136248035,631
-738.1237713233636,613
-735.4490654383407,615
-732.7750957960521,603
-730.1018622227365,627
-727.4293645445534,618
-724.7576025875837,627
-722.0865761778291,613
-719.4162851412126,647
-716.7467293035781,604
-714.0779084906909,625
-711.409822528237,624
-708.7424712418238,603
-706.0758544569796,618
-703.4099719991541,641
-700.7448236937178,676
-698.0804093659622,640
-695.4167288411002,638
-692.7537819442656,659
-690.0915685005134,634
-687.4300883348199,672
-684.7693412720819,648
-682.1093271371178,652
-679.4500457546669,656
-676.7914969493897,636
-674.1336805458676,662
-671.4765963686034,670
-668.8202442420206,673
-666.1646239904642,673
-663.5097354382001,678
-660.8555784094151,682
-658.2021527282176,706
-655.5494582186366,662
-652.8974947046223,683
-650.2462620100463,680
-647.5957599587009,680
-644.9459883742998,667
-642.2969470804776,686
-639.6486359007902,684
-637.0010546587141,670
-634.3542031776476,664
-631.7080812809096,685
-629.0626887917401,712
-626.4180255333008,727
-623.7740913286734,722
-621.1308860008619,718
-618.4884093727904,667
-615.8466612673046,666
-613.2056415071715,694
-610.5653499150785,668
-607.9257863136347,711
-605.28695052537,712
-602.6488423727357,696
-600.0114616781036,682
-597.3748082637674,702
-594.7388819519412,742
-592.1036825647604,745
-589.4692099242818,714
-586.8354638524829,705
-584.2024441712624,723
-581.5701507024403,698
-578.9385832677575,740
-576.3077416888759,726
-573.6776257873787,715
-571.0482353847704,730
-568.4195703024757,731
-565.7916303618415,760
-563.164415384135,752
-560.5379251905453,762
-557.9121596021815,727
-555.2871184400748,702
-552.6628015251767,735
-550.0392086783606,742
-547.4163397204204,741
-544.794194472071,755
-542.1727727539491,752
-539.5520743866118,737
-536.9320991905377,811
-534.3128469861261,869
-531.6943175936979,845
-529.0765108334947,826
-526.4594265256793,843
-523.8430644903358,954
-521.2274245474689,1109
-518.612506517005,1159
-515.9983102187913,1105
-513.3848354725959,1150
-510.77208209810846,1211
-508.16004991493924,1237
-505.5487387426199,1321
-502.9381484006032,1491
-500.3282787082628,1524
-497.71912948489364,1514
-495.1107005497117,1469
-492.5029917218539,1322
-489.8960028203786,1225
-487.28973366426493,1086
-484.68418407241325,1044
-482.07935386364494,967
-479.47524285670266,950
-476.87185087025,949
-474.2691777228715,972
-471.66722323307334,945
-469.0659872192821,970
-466.4654694998459,933
-463.86566989303384,910
-461.26658821703614,907
-458.66822428996414,877
-456.07057792985,927
-453.4736489546475,927
-450.877437182231,924
-448.28194243039627,894
-445.68716451686,937
-443.09310325926003,936
-440.49975847515555,888
-437.9071299820263,885
-435.31521759727354,861
-432.72402113821954,941
-430.13354042210767,915
-427.5437752661022,896
-424.95472548728867,928
-422.36639090267386,904
-419.7787713291855,934
-417.1918665836721,1022
-414.60567648290385,1057
-412.0202008435715,954
-409.4354394822874,923
-406.8513922155845,930
-404.26805885991723,995
-401.685439231661,1028
-399.103533147112,1009
-396.522340422488,1032
-393.9418608739278,954
-391.3620943174908,1027
-388.7830405691583,1047
-386.2046994448317,941
-383.6270707603344,854
-381.05015433141045,825
-378.473949973725,788
-375.8984575028645,758
-373.32367673433623,722
-370.74960748356875,657
-368.1762495659117,668
-365.60360279663576,618
-363.03166699093265,558
-360.4604419639154,536
-357.8899275306178,515
-355.32012350599507,513
-352.7510297049233,512
-350.1826459421999,481
-347.61497203254316,478
-345.04800779059235,509
-342.4817530309082,479
-339.91620756797226,499
-337.35137121618743,495
-334.7872437898774,511
-332.22382510328725,489
-329.66111497058273,517
-327.09911320585127,479
-324.53781962310075,486
-321.9772340362607,506
-319.4173562591816,490
-316.8581861056348,489
-314.2997233893127,472
-311.7419679238294,458
-309.1849195227194,483
-306.62857799943856,516
-304.0729431673641,554
-301.51801483979375,511
-298.963792829947,534
-296.41027695096386,540
-293.85746701590574,534
-291.3053628377552,611
-288.7539642294155,608
-286.2032710037115,567
-283.65328297338897,553
-281.1039999511146,614
-278.5554217494762,611
-276.007548180983,575
-273.4603790580651,525
-270.9139141930734,532
-268.3681533982807,601
-265.8230964858798,606
-263.27874326798565,616
-260.7350935566336,598
-258.1921471637804,635
-255.6499039013039,651
-253.10836358100266,641
-250.56752601459698,605
-248.02739101372765,594
-245.48795838995704,629
-242.94922795476816,632
-240.41119951956557,639
-237.8738728956746,643
-235.33724789434166,677
-232.80132432673452,665
-230.2661020039418,609
-227.73158073697357,638
-225.19776033676033,695
-222.66464061415422,651
-220.1322213799284,666
-217.60050244477725,664
-215.06948361931552,653
-212.53916471408013,651
-210.00954553952818,695
-207.48062590603843,736
-204.9524056239104,715
-202.4248845033651,702
-199.8980623545441,665
-197.37193898751036,695
-194.84651421224817,737
-192.32178783866232,793
-189.79775967657952,885
-187.27442953574644,855
-184.7517972258321,875
-182.2298625564256,908
-179.7086253370378,786
-177.18808537710026,738
-174.66824248596583,778
-172.14909647290835,769
-169.6306471471229,753
-167.11289431772548,891
-164.59583779375328,865
-162.07947738416453,858
-159.5638128978386,814
-157.04884414357605,873
-154.53457093009854,898
-152.02099306604828,913
-149.50811035998936,824
-146.99592262040665,771
-144.48442965570587,928
-141.97363127421409,946
-139.46352728417958,1033
-136.95411749377126,958
-134.44540171107985,899
-131.93737974411636,956
-129.43005140081357,924
-126.92341648902493,1111
-124.41747481652521,1245
-121.91222619101006,1606
-119.40767042009657,1804
-116.90380731132257,1915
-114.40063667214702,2103
-111.8981583099503,2262
-109.3963720320337,1988
-106.89527764561933,1630
-104.39487495785067,1578
-101.89516377579241,1791
-99.39614390642998,2852
-96.89781515667039,3537
-94.40017733334128,3367
-91.90323024319173,2790
-89.40697369289148,2175
-86.91140748903172,2650
-84.41653143812482,3267
-81.92234534660395,4068
-79.42884902082358,4784
-76.93604226705907,6854
-74.4439248915071,10563
-71.95249670028534,16764
-69.46175749943245,20300
-66.97170709490854,21415
-64.48234529259423,18243
-61.99367189829195,15808
-59.50568671772464,10898
-57.01838955653636,8202
-54.53178022029283,10116
-52.045858514480074,12313
-49.560624244506016,12296
-47.07607721569923,12984
-44.59221723330904,13616
-42.10904410250669,14455
-39.62655762838392,13422
-37.14475761595372,14461
-34.66364387015028,17473
-32.18321619582866,17893
-29.70347439776515,15911
-27.224418280657005,15326
-24.74604764912317,13896
-22.26836230770266,14285
-19.7913620608565,20206
-17.315046712966478,32595
-14.83941606833514,42617
-12.36446993118659,65039
-9.89020810566592,65039
-7.416630395839093,65039
-4.94373660569363,65039
-2.471526539137585,65039
-6.821210263296962E-13,65039
2.47084320796705,65039
4.941003281093458,65039
7.410480415786196,65039
9.879274808531363,65039
12.347386655893956,65039
14.814816154518212,65039
17.28156350112681,65039
19.74762889252179,65039
22.21301252558385,65039
24.67771459727237,20463
27.141735304626195,4166
29.605074844762612,2644
32.06773341487792,2194
34.52971121224755,2099
36.99100843422559,2497
39.45162527824516,2584
41.91156194181792,2240
44.370818622535126,1806
46.82939551806646,1619
49.287292826160524,1527
51.74451074464503,1801
54.201049471426245,1992
56.65690920448981,1626
59.112090141899785,1407
61.56659248179983,1297
64.02041642241159,1166
66.4735621620365,1054
68.92602989905402,1039
71.37781983192338,1187
73.82893215918205,1216
76.27936707944684,1190
78.72912479141326,1271
81.17820549385567,1414
83.62660938562783,1207
86.07433666566146,1132
88.5213875329681,979
90.96776218663751,988
93.41346082583925,966
95.85848364982041,1122
98.30283085790859,1400
100.7465026495089,1162
103.18949922410604,985
105.63182078126385,946
108.07346752062438,1002
110.51443964190923,1118
112.95473734491827,1242
115.39436082953114,1223
117.83331029570547,1165
120.27158594347827,1194
122.7091879729652,1284
125.1461165843615,1297
127.58237197794062,1243
130.01795435405518,1164
132.4528639131364,1034
134.88710085569494,965
137.32066538231982,888
139.75355769367923,826
142.1857779905207,779
144.61732647366978,805
147.04820334403132,865
149.47840880258934,960
151.90794305040674,984
154.33680628862487,1060
156.76499871846443,1307
159.19252054122433,1492
161.61937195828352,1596
164.04555317109896,1654
166.47106438120693,1879
168.89590579022217,2000
171.320077599839,2114
173.7435800118302,2062
176.16641322804742,2309
178.58857745042144,2399
181.01007288096173,2480
183.43089972175687,2588
185.85105817497413,2577
188.27054844285988,2505
190.6893707277394,2617
193.10752523201643,2588
195.5250121581745,2680
197.9418317087751,2744
200.3579840864594,2743
202.7734694939469,2708
205.18828813403627,2746
207.6024402096051,2929
210.01592592360964,2870
212.42874547908548,2878
214.84089907914665,2865
217.2523869269868,2729
219.66320922587727,2788
222.0733661791695,2769
224.48285799029293,2626
226.8916848627572,2719
229.29984700014882,2793
231.7073446061355,2827
234.11417788446204,2813
236.520347038953,2815
238.92585227351185,2889
241.33069379212054,2902
243.73487179884035,2918
246.1383864978112,2933
248.541238093252,2888
250.9434267894609,3021
253.34495279081432,2993
255.74581630176783,2956
258.1460175268563,2973
260.54555667069314,2961
262.9444339379703,3011
265.3426495334594,2918
267.7402036620107,2872
270.1370965285529,2908
272.53332833809407,2752
274.9288992957214,2765
277.32380960660055,2643
279.718059475976,2525
282.1116491091717,2600
284.5045787115897,2551
286.89684848871195,2663
289.2884586460981,2589
291.67940938938807,2653
294.0697009242996,2577
296.4593334566299,2524
298.84830719225477,2602
301.23662233712923,2553
303.6242790972866,2531
306.01127767884,2506
308.39761828798066,2489
310.78330113097934,2393
313.16832641418534,2463
315.5526943440269,2360
317.9364051270112,2320
320.3194589697242,2414
322.70185607883093,2378
325.0835966610754,2364
327.4646809232805,2302
329.8451090723478,2278
332.2248813152577,2302
334.6039978590701,2299
336.9824589109231,2239
339.36026467803447,2281
341.7374153677,2263
344.113911187295,2210
346.48975234427337,2204
348.8649390461686,2233
351.2394715005918,2241
353.61334991523415,2164
355.9865744978655,2155
358.35914545633375,2128
360.73106299856715,2185
363.10232733257146,2228
365.47293866643247,2111
367.84289720831396,2103
370.2122031664593,2052
372.5808567491905,2069
374.9488581649083,2176
377.31620762209275,2084
379.6829053293021,2066
382.0489514951745,2059
384.4143463284262,2115
386.7790900378528,2080
389.14318283232853,2053
391.50662492080653,2023
393.86941651231916,2089
396.23155781597745,1984
398.5930490409713,2031
400.9538903965696,2070
403.3140820921202,2042
405.6736243370498,2024
408.03251734086336,2032
410.3907613131465,2005
412.74835646356166,2042
415.10530300185144,1989
417.4616011378372,1962
419.81725108141893,1992
422.1722530425758,1957
424.5266072313656,2009
426.880313857925,1975
429.2333731324701,1974
431.58578526529516,2028
433.9375504667738,1923
436.2886689473588,2050
438.63914091758113,1950
440.9889665880513,2008
443.33814616945835,1910
445.68667987257015,1920
448.03456790823395,1959
450.3818104873759,1964
452.72840782100013,1973
455.07436012019105,1892
457.41966759611057,1871
459.7643304600007,1892
462.10834892318155,1958
464.4517231970525,1949
466.79445349309174,1918
469.1365400228566,1966
471.4779829979826,1971
473.81878263018564,2029
476.15893913125876,2020
478.4984527130747,1993
480.8373235875855,2000
483.17555196682144,2068
485.5131380628919,2142
487.8500820879857,2174
490.1863842543697,2247
492.52204477439034,2398
494.8570638604725,2537
497.1914417251204,2868
499.52517858091653,3184
501.85827464052306,3402
504.19073011668036,3453
506.5225452222086,3403
508.85372017000566,3364
511.18425517304956,3314
513.514150444396,3474
515.8434061971808,3933
518.1720226446176,4647
520.4999999999999,4820
522.8273384766991,4627
525.1540382881666,4365
527.480099647932,3846
529.8055227696037,3262
532.1303078668694,2616
534.454455153496,2327
536.777964843328,2222
539.1008371502907,2221
541.4230722883866,2106
543.744670471698,2085
546.0656319143858,2093
548.3859568306899,2091
550.7056454349294,2005
553.0246979415016,1913
555.3431145648834,2071
557.6608955196306,1986
559.978041020377,1993
562.2945512818363,2033
564.6104265188006,2032
566.9256669461412,2067
569.2402727788082,2008
571.5542442318302,2038
573.8675815203156,1988
576.1802848594508,2035
578.4923544645015,2098
580.8037905508126,2115
583.114593333807,2097
585.4247630289875,2090
587.7342998519354,1988
590.0432040183106,2117
592.3514757438526,2115
594.6591152443794,2075
596.9661227357875,2115
599.2724984340531,1996
601.578242555231,2061
603.8833553154542,2069
606.1878369309362,2085
608.4916876179676,2015
610.7949075929192,2035
613.0974970722403,2121
615.3994562724587,2069
617.7007854101818,2098
620.0014847020951,2086
622.3015543649641,2048
624.6009946156324,2031
626.8998056710224,2043
629.1979877481361,2070
631.4955410640538,2004
633.7924658359349,2083
636.0887622810175,2060
638.3844306166192,2078
640.6794710601358,2043
642.9738838290426,1989
645.2676691408932,2117
647.5608272133207,2063
649.853358264037,2084
652.1452625108324,2115
654.4365401715764,2109
656.7271914642178,2143
659.0172166067838,2146
661.3066158173809,2153
663.5953893141935,2149
665.8835373154867,2099
668.1710600396028,2192
670.4579577049639,2139
672.7442305300709,2154
675.0298787335033,2109
677.3149025339197,2084
679.599302150058,2067
681.8830778007342,2058
684.1662297048437,2044
686.4487580813608,2121
688.7306631493387,2108
691.0119451279091,2105
693.2926042362834,2036
695.5726406937516,2066
697.8520547196814,2087
700.1308465335215,2053
702.4090163547982,2040
704.6865644031171,2104
706.9634908981619,2087
709.2397960596965,2059
711.5154801075631,1959
713.7905432616823,2040
716.0649857420548,2088
718.3388077687592,2111
720.612009561953,2079
722.8845913418733,2068
725.1565533288352,2035
727.427895743234,2022
729.6986188055427,2024
731.9687227363137,2137
734.238207756178,2024
736.5070740858458,2185
738.7753219461066,2020
741.0429515578281,2047
743.3099631419569,2125
745.5763569195191,2098
747.8421331116193,2070
750.1072919394409,2038
752.3718336242467,2014
754.6357583873777,2037
756.8990664502545,2077
759.1617580343765,2030
761.423833361321,2066
763.6852926527457,2139
765.9461361303862,2099
768.206364016058,2088
770.4659765316536,2046
772.7249738991469,2075
774.9833563405886,2161
777.2411240781092,2066
779.4982773339183,2156
781.7548163303044,2061
784.010741289634,2103
786.2660524343538,2132
788.5207499869881,2157
790.7748341701416,2150
793.0283052064964,2116
795.2811633188143,2108
797.5334087299362,2140
799.7850416627813,2078
802.0360623403484,2074
804.2864709857143,2099
806.5362678220353,2050
808.7854530725468,2105
811.0340269605625,2184
813.2819897094754,2134
815.5293415427581,2128
817.77608268396,2188
820.0222133567116,2077
822.2677337847211,2163
824.5126441917765,2146
826.7569448017433,2161
829.0006358385675,2181
831.2437175262731,2175
833.4861900889629,2178
835.7280537508192,2137
837.9693087361026,2053
840.2099552691533,2186
842.4499935743896,2166
844.689423876309,2176
846.9282463994886,2145
849.1664613685833,2085
851.4040690083276,2127
853.6410695435349,2078
855.877463199097,2143
858.1132501999847,2112
860.3484307712487,2063
862.5830051380175,2161
864.8169735254988,2118
867.0503361589791,2193
869.2830932638243,2141
871.5152450654786,2163
873.7467917894654,2228
875.9777336613873,2128
878.2080709069252,2205
880.4378037518389,2238
882.666932421968,2122
884.8954571432301,2260
887.1233781416219,2189
889.3506956432192,2177
891.5774098741766,2239
893.803521060728,2165
896.0290294291852,2230
898.2539352059397,2193
900.4782386174619,2190
902.7019398903011,2179
904.925039251085,2205
907.147536926521,2237
909.3694331433943,2207
911.59072812857,2082
913.8114221089921,2152
916.0315153116827,2103
918.2510079637437,2144
920.4699002923547,2187
922.6881925247761,2087
924.905884888345,2203
927.1229776104793,2071
929.3394709186747,2101
931.555365040506,2115
933.7706602036275,2140
935.9853566357709,2059
938.1994545647489,2138
940.4129542184515,2096
942.6258558248488,2141
944.8381596119883,2107
947.0498658079974,2113
949.2609746410825,2020
951.4714863395287,2099
953.6814011316998,2049
955.8907192460387,2145
958.0994409110671,2095
960.3075663553858,2064
962.5150958076741,2078
964.7220294966913,2126
966.928367651274,2059
969.1341105003388,2083
971.3392582728806,2070
973.5438111979742,2010
975.747769504772,2031
977.9511334225061,1978
980.153903180487,2025
982.3560790081052,1945
984.5576611348289,1984
986.7586497902058,2035
988.9590452038618,1941
991.158847605503,2004
993.3580572249133,1935
995.5566742919558,1921
997.7546990365728,1836
999.952131688785,1891
1002.1489724786926,1890
1004.3452216364743,1876
1006.5408793923874,1847
1008.7359459767691,1794
1010.9304216200343,1826
1013.1243065526781,1831
1015.3176010052733,1767
1017.510305208472,1775
1019.7024193930064,1759
1021.8939437896848,1786
1024.0848786293977,1774
1026.2752241431122,1725
1028.4649805618747,1711
1030.6541481168115,1783
1032.842727039127,1769
1035.0307175601051,1787
1037.2181199111074,1758
1039.4049343235752,1808
1041.591161029029,1802
1043.7768002590683,1710
1045.9618522453698,1811
1048.1463172196918,1744
1050.3301954138697,1702
1052.513487059818,1744
1054.69619238953,1721
1056.8783116350783,1727
1059.0598450286152,1676
1061.2407928023704,1769
1063.4211551886528,1750
1065.6009324198508,1766
1067.780124728432,1750
1069.9587323469414,1784
1072.1367555080046,1764
1074.314194444325,1727
1076.4910493886855,1742
1078.667320573947,1727
1080.843008233051,1665
1083.0181125990161,1696
1085.1926339049414,1643
1087.3665723840027,1720
1089.5399282694575,1684
1091.7127017946405,1688
1093.8848931929647,1694
1096.0565026979243,1757
1098.2275305430899,1718
1100.3979769621128,1675
1102.567842188722,1635
1104.737126456726,1642
1106.9058300000124,1674
1109.0739530525475,1587
1111.2414958483764,1704
1113.4084586216231,1690
1115.5748416064907,1651
1117.7406450372605,1578
1119.9058691482942,1617
1122.0705141740304,1662
1124.2345803489884,1584
1126.3980679077658,1689
1128.5609770850388,1587
1130.7233081155623,1620
1132.8850612341707,1696
1135.0462366757774,1579
1137.2068346753745,1607
1139.3668554680326,1650
1141.526299288901,1538
1143.68516637321,1531
1145.8434569562655,1638
1148.001171273455,1583
1150.158309560244,1626
1152.3148720521767,1541
1154.470858984876,1596
1156.626270594044,1623
1158.7811071154629,1566
1160.9353687849912,1580
1163.089055838569,1592
1165.242168512213,1601
1167.3947070420209,1533
1169.5466716641677,1656
1171.6980626149075,1671
1173.8488801305748,1572
1175.9991244475814,1594
1178.1487958024186,1589
1180.2978944316555,1552
1182.4464205719428,1526
1184.5943744600072,1557
1186.7417563326567,1610
1188.8885664267755,1549
1191.0348049793297,1604
1193.1804722273619,1570
1195.325568407995,1546
1197.4700937584303,1566
1199.614048515948,1562
1201.7574329179074,1607
1203.900247201746,1547
1206.042491604982,1603
1208.1841663652099,1577
1210.3252717201053,1591
1212.465807907422,1538
1214.6057751649923,1584
1216.7451737307279,1601
1218.8840038426192,1659
1221.0222657387353,1589
1223.1599596572241,1591
1225.2970858363137,1632
1227.4336445143094,1596
1229.5696359295966,1577
1231.705060320639,1635
1233.8399179259786,1645
1235.9742089842384,1579
1238.107933734118,1576
1240.2410924143974,1691
1242.373685263935,1635
1244.5057125216676,1663
1246.6371744266116,1681
1248.7680712178621,1651
1250.898403134593,1694
1253.028170416058,1670
1255.1573733015875,1632
1257.2860120305932,1663
1259.4140868425648,1612
1261.54159797707,1695
1263.6685456737569,1682
1265.7949301723515,1640
1267.9207517126597,1627
1270.046010534565,1643
1272.1707068780306,1728
1274.2948409830983,1709
1276.4184130898889,1676
1278.541423438603,1628
1280.6638722695184,1694
1282.785759822993,1726
1284.9070863394636,1705
1287.0278520594447,1708
1289.1480572235314,1711
1291.2677020723963,1722
1293.3867868467923,1737
1295.5053117875495,1695
1297.623277135579,1718
1299.740683131868,1777
1301.8575300174857,1757
1303.973818033578,1764
1306.0895474213703,1754
1308.2047184221678,1697
1310.3193312773528,1749
1312.4333862283888,1745
1314.5468835168163,1754
1316.659823384255,1755
1318.7722060724045,1804
1320.8840318230418,1812
1322.9953008780249,1754
1325.1060134792888,1810
1327.2161698688478,1768
1329.3257702887959,1678
1331.4348149813054,1752
1333.5433041886276,1708
1335.6512381530933,1766
1337.7586171171101,1816
1339.8654413231675,1791
1341.9717110138317,1762
1344.0774264317488,1789
1346.1825878196432,1768
1348.2871954203192,1711
1350.3912494766587,1736
1352.4947502316231,1712
1354.5976979282532,1710
1356.7000928096686,1703
1358.8019351190665,1784
1360.9032250997243,1781
1363.0039629949988,1729
1365.1041490483235,1763
1367.2037835032133,1739
1369.3028666032606,1770
1371.401398592137,1761
1373.4993797135926,1728
1375.5968102114575,1756
1377.6936903296396,1778
1379.7900203121262,1770
1381.8858004029835,1854
1383.9810308463561,1821
1386.075711886469,1786
1388.1698437676241,1730
1390.2634267342032,1747
1392.356461030667,1726
1394.4489469015557,1814
1396.5408845914872,1762
1398.6322743451592,1795
1400.7231164073469,1818
1402.813411022907,1865
1404.903158436773,1803
1406.9923588939578,1874
1409.0810126395531,1861
1411.1691199187303,1794
1413.2566809767386,1893
1415.343696058907,1844
1417.4301654106425,1848
1419.5160892774315,1890
1421.6014679048399,1860
1423.6863015385125,1908
1425.7705904241707,1900
1427.8543348076178,1867
1429.9375349347342,1921
1432.0201910514802,1967
1434.102303403894,1886
1436.1838722380944,1947
1438.2648978002767,1934
1440.3453803367174,1955
1442.4253200937692,1977
1444.5047173178677,2030
1446.5835722555234,1933
1448.6618851533285,2045
1450.739656257952,2019
1452.8168858161434,2050
1454.8935740747306,2054
1456.96972128062,2169
1459.045327680797,2091
1461.120393522327,2154
1463.1949190523528,2141
1465.2689045180973,2223
1467.3423501668608,2304
1469.415256246024,2272
1471.4876230030463,2263
1473.559450685465,2284
1475.6307395408976,2355
1477.7014898170391,2267
1479.771701761665,2396
1481.8413756226287,2512
1483.9105116478618,2459
1485.9791100853772,2580
1488.0471711832643,2520
1490.1146951896926,2547
1492.1816823529098,2467
1494.2481329212433,2557
1496.3140471430984,2674
1498.3794252669609,2645
1500.4442675413939,2662
1502.5085742150404,2647
1504.572345536622,2724
1506.6355817549388,2759
1508.6982831188702,2686
1510.7604498773744,2762
1512.8220822794883,2818
1514.8831805743293,2813
1516.9437450110909,2781
1519.003775839048,2852
1521.0632733075522,2890
1523.1222376660367,2914
1525.1806691640113,2864
1527.2385680510652,2946
1529.2959345768668,3025
1531.3527689911643,3097
1533.4090715437833,3069
1535.4648424846291,3071
1537.5200820636855,3170
1539.5747905310159,3180
1541.6289681367616,3193
1543.6826151311434,3241
1545.7357317644614,3273
1547.7883182870937,3335
1549.8403749494987,3337
1551.8919020022113,3421
1553.9428996958477,3379
1555.9933682811015,3490
1558.0433080087469,3640
1560.0927191296346,3658
1562.1416018946961,3612
1564.1899565549415,3711
1566.2377833614592,3595
1568.2850825654164,3657
1570.3318544180606,3603
1572.3780991707158,3488
1574.423817074788,3412
1576.4690083817595,3341
1578.5136733431923,3127
1580.5578122107272,3031
1582.601425236085,2948
1584.6445126710646,2873
1586.6870747675434,2704
1588.7291117774776,2625
1590.7706239529034,2491
1592.8116115459347,2417
1594.8520748087658,2366
1596.8920139936686,2400
1598.9314293529933,2259
1600.9703211391711,2263
1603.008689604711,2185
1605.0465350022005,2164
1607.0838575843068,2136
1609.1206576037753,2017
1611.1569353134305,2006
1613.1926909661765,2000
1615.2279248149953,1977
1617.2626371129481,1925
1619.2968281131757,1910
1621.3304980688963,2005
1623.3636472334088,1906
1625.39627586009,1847
1627.428384202396,1800
1629.459972513861,1902
1631.4910410480993,1816
1633.5215900588028,1816
1635.551619799744,1818
1637.5811305247717,1748
1639.6101224878166,1768
1641.6385959428862,1730
1643.6665511440683,1762
1645.693988345528,1730
1647.7209078015112,1782
1649.7473097663405,1778
1651.7731944944203,1700
1653.7985622402307,1724
1655.823413258333,1733
1657.847747803366,1666
1659.8715661300494,1704
1661.8948684931793,1794
1663.9176551476316,1733
1665.9399263483624,1742
1667.9616823504057,1814
1669.982923408873,1778
1672.0036497789574,1721
1674.0238617159293,1724
1676.043559475138,1669
1678.0627433120121,1690
1680.081413482059,1754
1682.0995702408654,1585
1684.117213844096,1703
1686.134344547495,1733
1688.1509626068864,1697
1690.1670682781705,1770
1692.182661817329,1687
1694.1977434804217,1669
1696.2123135235875,1738
1698.226372203043,1669
1700.2399197750851,1766
1702.2529564960905,1703
1704.2654826225112,1742
1706.277498410882,1680
1708.2890041178139,1725
1710.2999999999988,1770
1712.3104863142066,1722
1714.3204633172854,1732
1716.329931266163,1677
1718.3388904178469,1664
1720.3473410294214,1691
1722.3552833580516,1672
1724.3627176609807,1719
1726.3696441955308,1678
1728.3760632191033,1691
1730.3819749891782,1684
1732.3873797633146,1683
1734.3922777991502,1660
1736.3966693544012,1630
1738.4005546868639,1656
1740.4039340544127,1741
1742.406807715001,1688
1744.4091759266616,1666
1746.4110389475054,1654
1748.4123970357223,1670
1750.413250449582,1669
1752.4135994474318,1643
1754.4134442876993,1657
1756.4127852288902,1659
1758.4116225295893,1688
1760.4099564484595,1684
1762.407787244244,1635
1764.405115175764,1633
1766.4019405019203,1655
1768.3982634816916,1662
1770.3940843741357,1625
1772.3894034383907,1624
1774.3842209336717,1645
1776.378537119274,1623
1778.372352254571,1655
1780.3656665990156,1603
1782.3584804121397,1581
1784.3507939535534,1646
1786.3426074829463,1639
1788.3339212600863,1650
1790.3247355448211,1636
1792.3150505970766,1609
1794.3048666768573,1645
1796.2941840442477,1640
1798.2830029594106,1631
1800.2713236825884,1660
1802.2591464741004,1572
1804.2464715943465,1642
1806.2332993038058,1620
1808.2196298630352,1638
1810.2054635326708,1617
1812.190800573428,1591
1814.175641246101,1642
1816.1599858115628,1547
1818.1438345307652,1638
1820.127187664738,1605
1822.1100454745924,1627
1824.092408221516,1610
1826.0742761667766,1638
1828.055649571721,1662
1830.0365286977735,1527
1832.0169138064398,1663
1833.9968051593014,1619
1835.9762030180214,1650
1837.9551076443408,1567
1839.9335193000788,1601
1841.9114382471344,1525
1843.888864747485,1606
1845.8657990631878,1586
1847.842241456378,1602
1849.8181921892697,1517
1851.7936515241558,1545
1853.7686197234098,1552
1855.7430970494815,1639
1857.7170837649014,1559
1859.6905801322787,1587
1861.6635864143004,1635
1863.6361028737338,1597
1865.608129773424,1614
1867.5796673762961,1603
1869.5507159453537,1640
1871.521275743678,1649
1873.4913470344313,1610
1875.4609300808534,1667
1877.4300251462632,1642
1879.3986324940588,1623
1881.366752387717,1747
1883.3343850907936,1616
1885.3015308669228,1551
1887.268189979819,1631
1889.2343626932739,1646
1891.2000492711595,1639
1893.1652499774254,1653
1895.1299650761011,1664
1897.0941948312952,1674
1899.0579395071945,1695
1901.0211993680641,1585
1902.98397467825,1591
1904.9462657021745,1683
1906.9080727043415,1669
1908.869395949332,1638
1910.8302357018065,1581
1912.790592226504,1597
1914.7504657882428,1638
1916.7098566519212,1625
1918.6687650825133,1583
1920.6271913450764,1593
1922.5851357047422,1622
1924.5425984267245,1581
1926.499579776314,1591
1928.4560800188833,1632
1930.4120994198802,1639
1932.367638244833,1625
1934.32269675935,1655
1936.2772752291175,1599
1938.231373919899,1604
1940.1849930975404,1503
1942.1381330279637,1643
1944.0907939771696,1569
1946.0429762112412,1551
1947.9946799963363,1595
1949.9459055986945,1561
1951.896653284633,1628
1953.8469233205478,1553
1955.7967159729142,1585
1957.7460315082863,1547
1959.6948701932974,1530
1961.6432322946594,1604
1963.5911180791632,1584
1965.5385278136787,1568
1967.4854617651545,1609
1969.4319202006182,1662
1971.377903387176,1601
1973.3234115920136,1631
1975.268445082395,1538
1977.2130041256642,1541
1979.1570889892423,1566
1981.1006999406304,1604
1983.04383724741,1623
1984.986501177238,1537
1986.928691997853,1544
1988.8704099770712,1582
1990.811655382789,1615
1992.7524284829801,1580
1994.692729545698,1490
1996.6325588390755,1524
1998.5719166313224,1573
2000.5108031907307,1573
2002.4492187856677,1537
2004.387163684583,1545
2006.3246381560011,1535
2008.2616424685298,1558
2010.1981768908527,1559
2012.1342416917332,1507
2014.069837140014,1561
2016.0049635046162,1545
2017.9396210545406,1597
2019.8738100588666,1587
2021.8075307867502,1510
2023.740783507431,1597
2025.6735684902228,1499
2027.6058860045214,1505
2029.5377363198004,1551
2031.4691197056118,1542
2033.4000364315875,1529
2035.3304867674374,1493
2037.260470982952,1524
2039.189989347998,1560
2041.1190421325232,1498
2043.047629606554,1535
2044.9757520401945,1536
2046.9034097036288,1537
2048.8306028671195,1541
2050.7573318010086,1484
2052.683596775716,1581
2054.609398061742,1527
2056.5347359296647,1525
2058.4596106501403,1561
2060.384022493906,1505
2062.3079717317764,1529
2064.231458634646,1512
2066.1544834734873,1510
2068.077046519352,1562
2069.99914804337,1524
2071.9207883167524,1500
2073.8419676107865,1470
2075.7626861968406,1586
2077.6829443463607,1538
2079.6027423308715,1506
2081.522080421977,1511
2083.440958891362,1538
2085.359378010786,1533
2087.2773380520907,1569
2089.194839287196,1543
2091.111881988101,1531
2093.0284664268825,1460
2094.9445928756973,1529
2096.86026160678,1523
2098.775472892446,1454
2100.690227005088,1591
2102.604524217178,1546
2104.5183648012676,1549
2106.431749029985,1455
2108.34467717604,1549
2110.2571495122206,1509
2112.169166311393,1465
2114.080727846503,1564
2115.9918343905747,1608
2117.902486216711,1526
2119.8126835980956,1527
2121.722426807987,1552
2123.6317161197285,1547
2125.5405518067364,1500
2127.448934142509,1535
2129.356863400624,1533
2131.264339854737,1595
2133.1713637785815,1529
2135.077935445972,1505
2136.9840551308002,1572
2138.889723107037,1557
2140.7949396487334,1538
2142.699705030018,1549
2144.6040195250994,1547
2146.507883408264,1558
2148.4112969538774,1548
2150.3142604363848,1539
2152.2167741303097,1589
2154.1188383102535,1589
2156.0204532508997,1563
2157.9216192270064,1552
2159.822336513414,1594
2161.7226053850413,1563
2163.622426116884,1600
2165.5217989840185,1598
2167.4207242616,1609
2169.319202224862,1614
2171.2172331491165,1584
2173.1148173097563,1589
2175.0119549822507,1571
2176.90864644215,1556
2178.8048919650823,1554
2180.7006918267534,1573
2182.596046302952,1599
2184.4909556695407,1582
2186.3854202024645,1579
2188.279440177746,1618
2190.173015871487,1588
2192.066147559868,1554
2193.958835519149,1650
2195.851080025667,1602
2197.7428813558417,1677
2199.6342397861667,1633
2201.5251555932186,1606
2203.415629053651,1599
2205.3056604441986,1669
2207.19525004167,1616
2209.084398122958,1630
2210.9731049650327,1614
2212.861370844941,1640
2214.749196039812,1670
2216.636580826851,1624
2218.523525483344,1596
2220.410030286655,1599
2222.296095514226,1646
2224.1817214435805,1598
2226.066908352319,1637
2227.951656518121,1610
2229.835966218746,1616
2231.71983773203,1600
2233.6032713358913,1594
2235.486267308324,1649
2237.3688259274036,1666
2239.2509474712824,1643
2241.132632218193,1619
2243.013880446447,1626
2244.8946924344323,1703
2246.7750684606203,1648
2248.6550088035574,1671
2250.534513741871,1684
2252.413583554265,1663
2254.292218519526,1611
2256.170418916517,1623
2258.0481850241786,1623
2259.925517121534,1654
2261.8024154876825,1582
2263.678880401803,1660
2265.5549121431536,1603
2267.430510991071,1669
2269.305677224971,1631
2271.180411124348,1588
2273.0547129687766,1603
2274.9285830379076,1589
2276.8020216114737,1640
2278.6750289692845,1586
2280.5476053912294,1607
2282.4197511572766,1545
2284.2914665474727,1610
2286.162751841943,1636
2288.0336073208937,1697
2289.904033264608,1688
2291.774029953448,1694
2293.6435976678554,1601
2295.5127366883517,1655
2297.381447295534,1678
2299.2497297700825,1569
2301.1175843927526,1580
2302.9850114443825,1508
2304.852011205885,1492
2306.7185839582553,1460
2308.5847299825664,1479
2310.4504495599676,1468
2312.3157429716925,1447
2314.1806104990483,1405
2316.0450524234247,1437
2317.9090690262888,1438
2319.772660589186,1430
2321.635827393742,1408
2323.498569721661,1420
2325.3608878547248,1401
2327.2227820747967,1445
2329.0842526638157,1414
2330.945299903803,1421
2332.805924076857,1441
2334.6661254651535,1431
2336.525904350951,1407
2338.3852610165827,1393
2340.244195744464,1385
2342.102708817088,1357
2343.9608005170253,1448
2345.8184711269287,1453
2347.675720929526,1365
2349.532550207628,1405
2351.38895924412,1371
2353.24494832197,1467
2355.100517724223,1393
2356.955667734004,1365
2358.810398634514,1428
2360.664710709037,1407
2362.5186042409337,1351
2364.3720795136437,1403
2366.225136810686,1430
2368.0777764156583,1443
2369.929998612237,1458
2371.7818036841777,1392
2373.633191915315,1436
2375.484163589562,1426
2377.3347189909114,1412
2379.184858403434,1429
2381.03458211128,1428
2382.8838903986775,1442
2384.732783549936,1452
2386.5812618494406,1447
2388.4293255816588,1387
2390.2769750311327,1425
2392.1242104824883,1408
2393.971032220427,1432
2395.8174405297295,1379
2397.6634356952563,1394
2399.509018001947,1394
2401.3541877348193,1484
2403.1989451789705,1431
2405.043290619576,1405
2406.8872243418905,1417
2408.730746631247,1409
2410.5738577730594,1421
2412.4165580528183,1415
2414.258847756095,1469
2416.100727168537,1435
2417.9421965758734,1407
2419.783256263912,1459
2421.623906518538,1437
2423.4641476257157,1392
2425.303979871491,1409
2427.143403541984,1384
2428.9824189233977,1398
2430.821026302012,1439
2432.6592259641866,1385
2434.497018196361,1388
2436.33440328505,1391
2438.171381516851,1455
2440.00795317844,1408
2441.844118556569,1409
2443.6798779380724,1402
2445.5152316098606,1432
2447.3501798589255,1447
2449.1847229723357,1483
2451.0188612372403,1479
2452.8525949408663,1418
2454.6859243705203,1404
2456.518849813587,1450
2458.3513715575314,1404
2460.183489889895,1447
2462.015205098301,1416
2463.8465174704493,1420
2465.67742729412,1489
2467.5079348571717,1409
2469.338040447542,1451
2471.1677443532476,1485
2472.9970468623833,1472
2474.825948263123,1417
2476.6544488437207,1437
2478.482548892508,1487
2480.310248697896,1383
2482.137548548374,1433
2483.9644487325118,1427
2485.790949538956,1496
2487.617051256433,1482
2489.44275417375,1494
2491.26805857979,1432
2493.0929647635157,1428
2494.917473013971,1400
2496.741583620276,1469
2498.5652968716304,1455
2500.3886130573137,1513
2502.2115324666834,1475
2504.0340553891765,1494
2505.856182114308,1457
2507.6779129316733,1452
2509.499248130945,1481
2511.3201880018764,1443
2513.140732834298,1461
2514.9608829181198,1469
2516.780638543331,1459
2518.6,1466
2520.418967578273,1494
2522.237541568376,1441
2524.0557222606144,1455
2525.8735099453706,1474
2527.6909049131086,1499
2529.507907454368,1555
2531.32451785977,1462
2533.140736420014,1516
2534.9565634258774,1514
2536.771999168218,1482
2538.5870439379714,1525
2540.4016980261526,1541
2542.2159617238544,1594
2544.02983532225,1614
2545.8433191125914,1632
2547.656413386209,1611
2549.4691184345115,1547
2551.2814345489874,1589
2553.093362021204,1614
2554.904901142808,1596
2556.716052205523,1652
2558.526815501153,1668
2560.3371913215824,1603
2562.147179958771,1542
2563.956781704761,1651
2565.7659968516705,1601
2567.5748256916986,1650
2569.3832685171224,1645
2571.1913256202984,1691
2572.9989972936614,1682
2574.806283829725,1578
2576.613185521084,1643
2578.4197026604074,1662
2580.2258355404483,1694
2582.031584454035,1705
2583.836949694077,1735
2585.6419315535613,1728
2587.4465303255533,1715
2589.2507463032002,1738
2591.0545797797245,1765
2592.8580310484303,1757
2594.6611004026995,1759
2596.463788135992,1748
2598.266094541849,1748
2600.0680199138874,1771
2601.869564545807,1736
2603.670728731383,1831
2605.4715127644704,1791
2607.2719169390048,1813
2609.071941548998,1821
2610.8715868885433,1763
2612.670853251811,1765
2614.469740933052,1765
2616.268250226594,1794
2618.0663814268455,1769
2619.864134828292,1726
2621.6615107255006,1734
2623.458509413115,1735
2625.2551311858597,1720
2627.0513763385347,1746
2628.8472451660223,1710
2630.6427379632833,1697
2632.4378550253564,1649
2634.232596647359,1699
2636.026963124488,1727
2637.8209547520187,1637
2639.6145718253065,1649
2641.407814639785,1699
2643.200683490966,1690
2644.9931786744414,1611
2646.7853004858807,1657
2648.577049221034,1589
2650.3684251757277,1616
2652.1594286458712,1594
2653.9500599274484,1599
2655.740319316525,1603
2657.5302071092437,1532
2659.3197236018286,1567
2661.10886909058,1567
2662.8976438718782,1506
2664.686048242183,1575
2666.4740824980327,1519
2668.2617469360443,1550
2670.0490418529134,1539
2671.8359675454153,1521
2673.622524310403,1515
2675.408712444811,1469
2677.1945322456495,1541
2678.979984010009,1540
2680.76506803506,1523
2682.5497846180497,1444
2684.334134056306,1495
2686.1181166472343,1446
2687.9017326883213,1533
2689.6849824771293,1524
2691.4678663113013,1460
2693.2503844885596,1489
2695.032537306705,1528
2696.8143250636167,1463
2698.5957480572542,1469
2700.3768065856534,1516
2702.1575009469316,1511
2703.937831439283,1436
2705.717798360982,1435
2707.4974020103837,1411
2709.276642685917,1452
2711.055520686095,1442
2712.834036309506,1425
2714.612189854819,1438
2716.389981620782,1431
2718.1674119062204,1472
2719.944481010041,1442
2721.721189231226,1406
2723.4975368688415,1391
2725.273524222027,1410
2727.0491515900053,1386
2728.824419272075,1464
2730.5993275676146,1415
2732.3738767760838,1381
2734.148067197016,1400
2735.921899130031,1374
2737.6953728748194,1368
2739.468488731156,1418
2741.2412469988926,1406
2743.0136479779617,1404
2744.785691968372,1376
2746.5573792702116,1388
2748.3287101836504,1364
2750.099685008934,1364
2751.870304046388,1386
2753.640567596418,1420
2755.4104759595057,1390
2757.1800294362156,1434
2758.949228327187,1339
2760.7180729331412,1340
2762.486563554877,1379
2764.254700493272,1400
2766.022484049284,1398
2767.789914523947,1399
2769.5569922183786,1452
2771.3237174337705,1438
2773.090090471394,1361
2774.8561116326036,1307
2776.6217812188274,1302
2778.3870995315756,1380
2780.1520668724356,1431
2781.9166835430747,1338
2783.6809498452394,1447
2785.444866080754,1408
2787.2084325515225,1463
2788.971649559527,1373
2790.73451740683,1379
2792.4970363955713,1399
2794.2592068279705,1370
2796.0210290063264,1372
2797.7825032330147,1373
2799.543629810493,1320
2801.304409041296,1395
2803.0648412280366,1427
2804.8249266734088,1353
2806.5846656801846,1374
2808.344058551212,1404
2810.1031055894246,1350
2811.8618070978273,1409
2813.6201633795085,1393
2815.378174737636,1399
2817.1358414754536,1382
2818.893163896285,1387
2820.6501423035334,1384
2822.4067770006814,1365
2824.1630682912883,1361
2825.9190164789957,1404
2827.6746218675207,1370
2829.429884760661,1413
2831.184805462294,1362
2832.9393842763743,1374
2834.693621506936,1357
2836.4475174580916,1416
2838.201072434034,1422
2839.954286739034,1418
2841.707160677441,1355
2843.459694553685,1374
2845.2118886722724,1354
2846.96374333779,1381
2848.7152588549034,1374
2850.4664355283567,1339
2852.217273662973,1400
2853.9677735636546,1339
2855.7179355353833,1365
2857.4677598832186,1403
2859.217246912299,1375
2860.9663969278427,1379
2862.715210235146,1304
2864.4636871395846,1358
2866.211827946614,1371
2867.9596329617652,1357
2869.7071024906536,1387
2871.4542368389684,1416
2873.20103631248,1338
2874.947501217038,1394
2876.6936318585695,1373
2878.4394285430812,1377
2880.1848915766604,1355
2881.9300212654707,1407
2883.6748179157553,1414
2885.4192818338374,1385
2887.1634133261173,1345
2888.907212699077,1356
2890.6506802592744,1365
2892.393816313348,1354
2894.1366211680142,1351
2895.8790951300693,1372
2897.621238506388,1371
2899.363051603925,1371
2901.1045347297118,1335
2902.8456881908596,1349
2904.58651229456,1384
2906.327007348081,1417
2908.067173658772,1358
2909.8070115340597,1307
2911.5465212814497,1366
2913.285703208527,1361
2915.0245576229563,1351
2916.7630848324807,1388
2918.5012851449196,1308
2920.2391588681758,1373
2921.976706310227,1360
2923.7139277791334,1307
2925.4508235830313,1382
2927.187394030137,1392
2928.923639428745,1400
2930.6595600872306,1341
2932.395156314046,1382
2934.1304284177218,1376
2935.8653767068713,1352
2937.6000014901815,1349
2939.3343030764227,1394
2941.068281774442,1341
2942.8019378931644,1314
2944.5352717415976,1428
2946.2682836288236,1347
2948.0009738640065,1373
2949.7333427563885,1339
2951.465390615289,1338
2953.1971177501086,1375
2954.9285244703265,1423
2956.6596110855,1386
2958.3903779052657,1378
2960.1208252393385,1326
2961.8509533975125,1343
2963.5807626896617,1290
2965.3102534257378,1385
2967.0394259157715,1307
2968.768280469873,1322
2970.496817398232,1318
2972.2250370111146,1269
2973.952939618869,1387
2975.6805255319196,1352
2977.4077950607707,1312
2979.134748516006,1390
2980.861386208289,1375
2982.587708448359,1353
2984.313715547037,1338
2986.039407815222,1387
2987.764785563891,1375
2989.489849104102,1332
2991.2145987469908,1419
2992.9390348037705,1363
2994.6631575857346,1366
2996.3869674042576,1339
2998.1104645707887,1323
2999.83364939686,1338
3001.5565221940783,1308
3003.2790832741334,1362
3005.0013329487924,1371
3006.7232715298996,1279
3008.4448993293804,1288
3010.166216659239,1283
3011.887223831558,1291
3013.607921158498,1266
3015.3283089522993,1311
3017.0483875252826,1312
3018.7681571898443,1378
3020.4876182584626,1306
3022.2067710436927,1334
3023.9256158581707,1367
3025.644153014609,1304
3027.362382825801,1325
3029.0803056046193,1303
3030.797921664012,1335
3032.5152313170106,1334
3034.2322348767225,1322
3035.9489326563353,1344
3037.665324969115,1348
3039.3814121284063,1345
3041.097194447633,1297
3042.812672240299,1311
3044.5278458199855,1370
3046.2427155003525,1433
3047.9572815951406,1335
3049.671544418167,1398
3051.38550428333,1382
3053.0991615046073,1327
3054.812516396051,1356
3056.5255692717974,1325
3058.2383204460575,1351
3059.9507702331257,1275
3061.662918947372,1280
3063.3747669032446,1319
3065.0863144152736,1265
3066.7975617980674,1364
3068.508509366309,1360
3070.219157434767,1317
3071.9295063182844,1337
3073.639556331785,1328
3075.3493077902704,1330
3077.058761008821,1357
3078.7679163025964,1324
3080.476773986837,1385
3082.1853343768594,1400
3083.89359778806,1364
3085.6015645359153,1388
3087.3092349359786,1360
3089.016609303884,1331
3090.7236879553434,1344
3092.4304712061476,1277
3094.136959372166,1304
3095.843152769349,1366
3097.5490517137237,1396
3099.2546565213966,1365
3100.959967508554,1342
3102.66498499146,1340
3104.3697092864577,1363
3106.0741407099695,1360
3107.778279578498,1343
3109.482126208622,1344
3111.1856809170004,1379
3112.8889440203716,1344
3114.5919158355528,1329
3116.294596679439,1396
3117.996986869006,1435
3119.6990867213062,1343
3121.4008965534726,1441
3123.102416682717,1383
3124.803647426329,1378
3126.5045891016784,1386
3128.205242026213,1351
3129.90560651746,1327
3131.605682893025,1373
3133.3054714705922,1297
3135.0049725679282,1411
3136.7041865028714,1367
3138.4031135933465,1343
3140.101754157353,1375
3141.800108512971,1368
3143.498176978357,1331
3145.1959598717494,1296
3146.8934575114636,1375
3148.5906702158954,1344
3150.2875983035183,1289
3151.9842420928853,1352
3153.680601902627,1307
3155.376678051456,1318
3157.07247085816,1340
3158.767980641609,1315
3160.463207720748,1349
3162.158152414606,1313
3163.8528150422862,1344
3165.5471959229726,1382
3167.2412953759303,1362
3168.9351137204976,1327
3170.628651276098,1316
3172.3219083622307,1331
3174.014885298474,1314
3175.707582404485,1298
3177.4000000000005,1354
3179.092138404835,1303
3180.7839979388846,1349
3182.47557892212,1411
3184.166881674594,1335
3185.8579065164386,1361
3187.5486537678626,1294
3189.2391237491547,1316
3190.9293167806827,1297
3192.6192331828934,1335
3194.3088732763117,1385
3195.998237381542,1312
3197.687325819268,1372
3199.376138910251,1340
3201.064676975334,1357
3202.7529403354347,1350
3204.4409293115523,1327
3206.1286442247647,1384
3207.816085396229,1336
3209.5032531471825,1336
3211.190147798936,1344
3212.8767696728846,1283
3214.5631190905015,1279
3216.2491963733373,1311
3217.9350018430214,1285
3219.6205358212637,1314
3221.305798629851,1323
3222.990790590651,1243
3224.6755120256103,1299
3226.359963256751,1350
3228.0441446061795,1268
3229.7280563960758,1365
3231.411698948703,1307
3233.0950725863995,1321
3234.778177631587,1330
3236.461014406761,1305
3238.1435832345005,1333
3239.8258844374595,1267
3241.507918338374,1326
3243.1896852600576,1366
3244.8711855254023,1346
3246.552419457381,1374
3248.233387379042,1323
3249.914089613516,1343
3251.59452648401,1301
3253.274698313813,1402
3254.95460542629,1312
3256.6342481448855,1311
3258.313626793125,1336
3259.9927416946084,1320
3261.6715931730196,1300
3263.3501815521176,1278
3265.0285071557437,1266
3266.706570307815,1253
3268.3843713323286,1337
3270.0619105533615,1335
3271.739188295068,1343
3273.4162048816834,1280
3275.0929606375184,1310
3276.769455886966,1294
3278.445690954498,1362
3280.1216661646613,1331
3281.797381842087,1233
3283.4728383114807,1284
3285.1480358976296,1306
3286.8229749253996,1285
3288.4976557197333,1247
3290.172078605655,1294
3291.846243908266,1279
3293.5201519527463,1266
3295.193803064357,1278
3296.8671975684374,1276
3298.5403357904024,1312
3300.21321805575,1305
3301.8858446900567,1323
3303.558216018975,1340
3305.23033236824,1340
3306.9021940636603,1305
3308.57380143113,1396
3310.2451547966184,1375
3311.916254486174,1356
3313.5871008259246,1369
3315.2576941420766,1285
3316.9280347609147,1312
3318.5981230088046,1316
3320.2679592121895,1311
3321.9375436975924,1256
3323.606876791612,1243
3325.27595882093,1244
3326.944790112305,1259
3328.6133709925753,1273
3330.2817017886573,1280
3331.949782827547,1245
3333.617614436319,1318
3335.2851969421245,1258
3336.952530672199,1258
3338.619615953853,1309
3340.286453114475,1332
3341.9530424815357,1364
3343.619384382583,1293
3345.2854791452437,1341
3346.951327097224,1289
3348.6169285663073,1271
3350.2822838803577,1314
3351.947393367319,1357
3353.61225735521,1305
3355.2768761721345,1294
3356.9412501462693,1302
3358.605379605873,1283
3360.2692648792827,1290
3361.9329062949146,1302
3363.596304181263,1252
