CollectionTime,7/10/2024 4:05:33 PM
ExposureUsed,3
CalibratedSpectrum
-962.7078968117929,526
-959.9714848408522,561
-957.2358232597828,624
-954.5009119013725,554
-951.7667505983302,575
-949.0333391832855,618
-946.3006774887896,576
-943.5687653473143,611
-940.837602591253,580
-938.1071890529199,591
-935.3775245645503,585
-932.6486089583007,599
-929.9204420662485,596
-927.1930237203925,615
-924.4663537526524,605
-921.7404319948689,622
-919.0152582788041,601
-916.2908324361409,639
-913.5671542984834,597
-910.8442236973568,557
-908.1220404642074,571
-905.4006044304027,634
-902.679915427231,592
-899.959973285902,571
-897.2407778375464,585
-894.5223289132158,577
-891.8046263438832,544
-889.0876699604426,578
-886.3714595937089,584
-883.6559950744183,570
-880.9412762332282,566
-878.2273029007168,566
-875.5140749073835,582
-872.8015920836489,563
-870.0898542598545,548
-867.3788612662631,577
-864.6686129330585,568
-861.9591090903457,575
-859.2503495681506,603
-856.5423341964203,578
-853.8350628050229,576
-851.1285352237478,593
-848.4227512823054,590
-845.7177108103272,585
-843.0134136373656,561
-840.3098595928943,607
-837.6070485063082,578
-834.9049802069229,583
-832.2036545239757,613
-829.5030712866244,613
-826.8032303239481,609
-824.1041314649472,603
-821.4057745385428,579
-818.7081593735775,601
-816.0112857988148,612
-813.3151536429393,596
-810.6197627345566,576
-807.9251129021936,580
-805.2312039742981,571
-802.5380357792392,592
-799.8456081453069,563
-797.1539209007124,579
-794.462973873588,579
-791.772766891987,640
-789.083299783884,616
-786.3945723771743,621
-783.7065844996748,575
-781.0193359791231,600
-778.3328266431781,578
-775.6470563194197,562
-772.9620248353489,594
-770.2777320183878,584
-767.5941776958798,586
-764.9113616950891,582
-762.2292838432011,612
-759.5479439673222,606
-756.8673418944801,585
-754.1874774516235,594
-751.5083504656222,615
-748.8299607632671,611
-746.15230817127,645
-743.475392516264,616
-740.7992136248035,621
-738.1237713233636,604
-735.4490654383407,593
-732.7750957960521,631
-730.1018622227365,663
-727.4293645445534,633
-724.7576025875837,619
-722.0865761778291,599
-719.4162851412126,645
-716.7467293035781,641
-714.0779084906909,668
-711.409822528237,688
-708.7424712418238,659
-706.0758544569796,650
-703.4099719991541,671
-700.7448236937178,694
-698.0804093659622,682
-695.4167288411002,666
-692.7537819442656,670
-690.0915685005134,669
-687.4300883348199,655
-684.7693412720819,648
-682.1093271371178,671
-679.4500457546669,641
-676.7914969493897,635
-674.1336805458676,635
-671.4765963686034,685
-668.8202442420206,686
-666.1646239904642,667
-663.5097354382001,649
-660.8555784094151,670
-658.2021527282176,686
-655.5494582186366,665
-652.8974947046223,665
-650.2462620100463,673
-647.5957599587009,713
-644.9459883742998,647
-642.2969470804776,657
-639.6486359007902,647
-637.0010546587141,692
-634.3542031776476,707
-631.7080812809096,680
-629.0626887917401,720
-626.4180255333008,685
-623.7740913286734,693
-621.1308860008619,727
-618.4884093727904,649
-615.8466612673046,725
-613.2056415071715,707
-610.5653499150785,670
-607.9257863136347,708
-605.28695052537,673
-602.6488423727357,676
-600.0114616781036,693
-597.3748082637674,696
-594.7388819519412,691
-592.1036825647604,752
-589.4692099242818,747
-586.8354638524829,755
-584.2024441712624,714
-581.5701507024403,721
-578.9385832677575,753
-576.3077416888759,728
-573.6776257873787,742
-571.0482353847704,734
-568.4195703024757,727
-565.7916303618415,733
-563.164415384135,755
-560.5379251905453,700
-557.9121596021815,743
-555.2871184400748,729
-552.6628015251767,734
-550.0392086783606,804
-547.4163397204204,733
-544.794194472071,723
-542.1727727539491,762
-539.5520743866118,769
-536.9320991905377,799
-534.3128469861261,832
-531.6943175936979,845
-529.0765108334947,856
-526.4594265256793,915
-523.8430644903358,1028
-521.2274245474689,1150
-518.612506517005,1179
-515.9983102187913,1118
-513.3848354725959,1142
-510.77208209810846,1214
-508.16004991493924,1287
-505.5487387426199,1472
-502.9381484006032,1553
-500.3282787082628,1550
-497.71912948489364,1634
-495.1107005497117,1468
-492.5029917218539,1349
-489.8960028203786,1308
-487.28973366426493,1132
-484.68418407241325,1047
-482.07935386364494,991
-479.47524285670266,949
-476.87185087025,973
-474.2691777228715,949
-471.66722323307334,992
-469.0659872192821,923
-466.4654694998459,996
-463.86566989303384,936
-461.26658821703614,916
-458.66822428996414,962
-456.07057792985,906
-453.4736489546475,922
-450.877437182231,928
-448.28194243039627,962
-445.68716451686,905
-443.09310325926003,908
-440.49975847515555,929
-437.9071299820263,945
-435.31521759727354,893
-432.72402113821954,930
-430.13354042210767,927
-427.5437752661022,916
-424.95472548728867,947
-422.36639090267386,971
-419.7787713291855,949
-417.1918665836721,993
-414.60567648290385,1011
-412.0202008435715,945
-409.4354394822874,955
-406.8513922155845,1016
-404.26805885991723,952
-401.685439231661,987
-399.103533147112,1026
-396.522340422488,984
-393.9418608739278,930
-391.3620943174908,967
-388.7830405691583,984
-386.2046994448317,916
-383.6270707603344,952
-381.05015433141045,861
-378.473949973725,804
-375.8984575028645,782
-373.32367673433623,727
-370.74960748356875,665
-368.1762495659117,647
-365.60360279663576,667
-363.03166699093265,586
-360.4604419639154,551
-357.8899275306178,530
-355.32012350599507,527
-352.7510297049233,539
-350.1826459421999,490
-347.61497203254316,492
-345.04800779059235,483
-342.4817530309082,472
-339.91620756797226,501
-337.35137121618743,492
-334.7872437898774,468
-332.22382510328725,485
-329.66111497058273,532
-327.09911320585127,469
-324.53781962310075,533
-321.9772340362607,513
-319.4173562591816,494
-316.8581861056348,467
-314.2997233893127,477
-311.7419679238294,464
-309.1849195227194,473
-306.62857799943856,549
-304.0729431673641,550
-301.51801483979375,497
-298.963792829947,515
-296.41027695096386,550
-293.85746701590574,629
-291.3053628377552,683
-288.7539642294155,660
-286.2032710037115,574
-283.65328297338897,592
-281.1039999511146,628
-278.5554217494762,696
-276.007548180983,624
-273.4603790580651,624
-270.9139141930734,612
-268.3681533982807,668
-265.8230964858798,709
-263.27874326798565,686
-260.7350935566336,675
-258.1921471637804,707
-255.6499039013039,652
-253.10836358100266,701
-250.56752601459698,651
-248.02739101372765,626
-245.48795838995704,650
-242.94922795476816,633
-240.41119951956557,648
-237.8738728956746,665
-235.33724789434166,735
-232.80132432673452,707
-230.2661020039418,677
-227.73158073697357,629
-225.19776033676033,674
-222.66464061415422,701
-220.1322213799284,699
-217.60050244477725,685
-215.06948361931552,681
-212.53916471408013,707
-210.00954553952818,729
-207.48062590603843,719
-204.9524056239104,699
-202.4248845033651,771
-199.8980623545441,779
-197.37193898751036,799
-194.84651421224817,795
-192.32178783866232,782
-189.79775967657952,861
-187.27442953574644,860
-184.7517972258321,965
-182.2298625564256,916
-179.7086253370378,829
-177.18808537710026,767
-174.66824248596583,814
-172.14909647290835,784
-169.6306471471229,850
-167.11289431772548,853
-164.59583779375328,901
-162.07947738416453,948
-159.5638128978386,943
-157.04884414357605,906
-154.53457093009854,950
-152.02099306604828,895
-149.50811035998936,829
-146.99592262040665,912
-144.48442965570587,1032
-141.97363127421409,953
-139.46352728417958,998
-136.95411749377126,982
-134.44540171107985,972
-131.93737974411636,983
-129.43005140081357,967
-126.92341648902493,1218
-124.41747481652521,1375
-121.91222619101006,1625
-119.40767042009657,1965
-116.90380731132257,2116
-114.40063667214702,2349
-111.8981583099503,2565
-109.3963720320337,2364
-106.89527764561933,1918
-104.39487495785067,1619
-101.89516377579241,1786
-99.39614390642998,3045
-96.89781515667039,3774
-94.40017733334128,3754
-91.90323024319173,2878
-89.40697369289148,2604
-86.91140748903172,3273
-84.41653143812482,4005
-81.92234534660395,4663
-79.42884902082358,5265
-76.93604226705907,7818
-74.4439248915071,13143
-71.95249670028534,20411
-69.46175749943245,23990
-66.97170709490854,24714
-64.48234529259423,20711
-61.99367189829195,17369
-59.50568671772464,12687
-57.01838955653636,9222
-54.53178022029283,10920
-52.045858514480074,13781
-49.560624244506016,14586
-47.07607721569923,14961
-44.59221723330904,14858
-42.10904410250669,15590
-39.62655762838392,14960
-37.14475761595372,15881
-34.66364387015028,18657
-32.18321619582866,17883
-29.70347439776515,15826
-27.224418280657005,15139
-24.74604764912317,13716
-22.26836230770266,14651
-19.7913620608565,23364
-17.315046712966478,40651
-14.83941606833514,56707
-12.36446993118659,65039
-9.89020810566592,65039
-7.416630395839093,65039
-4.94373660569363,65039
-2.471526539137585,65039
-6.821210263296962E-13,65039
2.47084320796705,65039
4.941003281093458,65039
7.410480415786196,65039
9.879274808531363,65039
12.347386655893956,65039
14.814816154518212,65039
17.28156350112681,65039
19.74762889252179,65039
22.21301252558385,65039
24.67771459727237,20859
27.141735304626195,4343
29.605074844762612,2773
32.06773341487792,2828
34.52971121224755,2994
36.99100843422559,3056
39.45162527824516,2719
41.91156194181792,2388
44.370818622535126,1909
46.82939551806646,1725
49.287292826160524,1657
51.74451074464503,1780
54.201049471426245,1904
56.65690920448981,1787
59.112090141899785,1542
61.56659248179983,1499
64.02041642241159,1385
66.4735621620365,1196
68.92602989905402,1217
71.37781983192338,1225
73.82893215918205,1380
76.27936707944684,1557
78.72912479141326,1439
81.17820549385567,1373
83.62660938562783,1212
86.07433666566146,1072
88.5213875329681,1031
90.96776218663751,968
93.41346082583925,1017
95.85848364982041,1245
98.30283085790859,1518
100.7465026495089,1241
103.18949922410604,1146
105.63182078126385,1118
108.07346752062438,1179
110.51443964190923,1283
112.95473734491827,1394
115.39436082953114,1073
117.83331029570547,1005
120.27158594347827,1202
122.7091879729652,1500
125.1461165843615,1488
127.58237197794062,1295
130.01795435405518,1154
132.4528639131364,1013
134.88710085569494,959
137.32066538231982,938
139.75355769367923,868
142.1857779905207,866
144.61732647366978,851
147.04820334403132,839
149.47840880258934,878
151.90794305040674,967
154.33680628862487,1079
156.76499871846443,1370
159.19252054122433,1574
161.61937195828352,1656
164.04555317109896,1692
166.47106438120693,1849
168.89590579022217,2006
171.320077599839,2092
173.7435800118302,2168
176.16641322804742,2321
178.58857745042144,2573
181.01007288096173,2666
183.43089972175687,2645
185.85105817497413,2643
188.27054844285988,2530
190.6893707277394,2591
193.10752523201643,2683
195.5250121581745,2636
197.9418317087751,2667
200.3579840864594,2693
202.7734694939469,2619
205.18828813403627,2731
207.6024402096051,2874
210.01592592360964,2893
212.42874547908548,2935
214.84089907914665,2861
217.2523869269868,2873
219.66320922587727,2768
222.0733661791695,2867
224.48285799029293,2819
226.8916848627572,2721
229.29984700014882,2633
231.7073446061355,2704
234.11417788446204,2727
236.520347038953,2711
238.92585227351185,2930
241.33069379212054,2798
243.73487179884035,2904
246.1383864978112,2993
248.541238093252,2912
250.9434267894609,2948
253.34495279081432,2873
255.74581630176783,2915
258.1460175268563,2913
260.54555667069314,2964
262.9444339379703,2929
265.3426495334594,2795
267.7402036620107,2837
270.1370965285529,2777
272.53332833809407,2719
274.9288992957214,2647
277.32380960660055,2671
279.718059475976,2653
282.1116491091717,2645
284.5045787115897,2545
286.89684848871195,2598
289.2884586460981,2661
291.67940938938807,2688
294.0697009242996,2526
296.4593334566299,2641
298.84830719225477,2574
301.23662233712923,2554
303.6242790972866,2544
306.01127767884,2563
308.39761828798066,2441
310.78330113097934,2544
313.16832641418534,2503
315.5526943440269,2376
317.9364051270112,2283
320.3194589697242,2359
322.70185607883093,2463
325.0835966610754,2349
327.4646809232805,2347
329.8451090723478,2366
332.2248813152577,2318
334.6039978590701,2336
336.9824589109231,2341
339.36026467803447,2211
341.7374153677,2271
344.113911187295,2275
346.48975234427337,2256
348.8649390461686,2233
351.2394715005918,2249
353.61334991523415,2217
355.9865744978655,2194
358.35914545633375,2236
360.73106299856715,2118
363.10232733257146,2155
365.47293866643247,2249
367.84289720831396,2138
370.2122031664593,2190
372.5808567491905,2165
374.9488581649083,2180
377.31620762209275,2114
379.6829053293021,2066
382.0489514951745,2061
384.4143463284262,2120
386.7790900378528,2116
389.14318283232853,2049
391.50662492080653,2055
393.86941651231916,2048
396.23155781597745,2006
398.5930490409713,2025
400.9538903965696,2041
403.3140820921202,2110
405.6736243370498,2105
408.03251734086336,2069
410.3907613131465,2085
412.74835646356166,1963
415.10530300185144,2031
417.4616011378372,2040
419.81725108141893,1972
422.1722530425758,1994
424.5266072313656,2040
426.880313857925,1967
429.2333731324701,2048
431.58578526529516,2019
433.9375504667738,2054
436.2886689473588,1996
438.63914091758113,1989
440.9889665880513,2002
443.33814616945835,2008
445.68667987257015,1998
448.03456790823395,1955
450.3818104873759,1997
452.72840782100013,1992
455.07436012019105,2003
457.41966759611057,1986
459.7643304600007,1918
462.10834892318155,1970
464.4517231970525,1950
466.79445349309174,1993
469.1365400228566,1966
471.4779829979826,1949
473.81878263018564,2010
476.15893913125876,1984
478.4984527130747,2024
480.8373235875855,2146
483.17555196682144,2148
485.5131380628919,2151
487.8500820879857,2136
490.1863842543697,2302
492.52204477439034,2522
494.8570638604725,2655
497.1914417251204,2879
499.52517858091653,3218
501.85827464052306,3450
504.19073011668036,3566
506.5225452222086,3612
508.85372017000566,3445
511.18425517304956,3490
513.514150444396,3510
515.8434061971808,3967
518.1720226446176,4664
520.4999999999999,4806
522.8273384766991,4679
525.1540382881666,4524
527.480099647932,3836
529.8055227696037,3363
532.1303078668694,2741
534.454455153496,2433
536.777964843328,2258
539.1008371502907,2248
541.4230722883866,2196
543.744670471698,2089
546.0656319143858,2165
548.3859568306899,2123
550.7056454349294,2141
553.0246979415016,2075
555.3431145648834,2049
557.6608955196306,2049
559.978041020377,2110
562.2945512818363,2106
564.6104265188006,2193
566.9256669461412,2120
569.2402727788082,2055
571.5542442318302,2097
573.8675815203156,2084
576.1802848594508,2103
578.4923544645015,2047
580.8037905508126,2118
583.114593333807,2163
585.4247630289875,2173
587.7342998519354,2123
590.0432040183106,2077
592.3514757438526,2075
594.6591152443794,2227
596.9661227357875,2049
599.2724984340531,2112
601.578242555231,2132
603.8833553154542,2187
606.1878369309362,2099
608.4916876179676,2038
610.7949075929192,2093
613.0974970722403,2093
615.3994562724587,2077
617.7007854101818,2074
620.0014847020951,2038
622.3015543649641,2105
624.6009946156324,2055
626.8998056710224,2088
629.1979877481361,2050
631.4955410640538,2151
633.7924658359349,2112
636.0887622810175,2082
638.3844306166192,2004
640.6794710601358,2018
642.9738838290426,2086
645.2676691408932,2052
647.5608272133207,2019
649.853358264037,2114
652.1452625108324,2123
654.4365401715764,2188
656.7271914642178,2154
659.0172166067838,2199
661.3066158173809,2091
663.5953893141935,2074
665.8835373154867,2103
668.1710600396028,2132
670.4579577049639,2037
672.7442305300709,2091
675.0298787335033,2110
677.3149025339197,2019
679.599302150058,2035
681.8830778007342,2108
684.1662297048437,2040
686.4487580813608,2117
688.7306631493387,2191
691.0119451279091,2067
693.2926042362834,2125
695.5726406937516,2109
697.8520547196814,2111
700.1308465335215,2103
702.4090163547982,2110
704.6865644031171,2143
706.9634908981619,1984
709.2397960596965,2038
711.5154801075631,2060
713.7905432616823,2114
716.0649857420548,2104
718.3388077687592,2151
720.612009561953,2133
722.8845913418733,2131
725.1565533288352,2075
727.427895743234,2075
729.6986188055427,2177
731.9687227363137,2144
734.238207756178,2159
736.5070740858458,2058
738.7753219461066,2102
741.0429515578281,2117
743.3099631419569,2100
745.5763569195191,2100
747.8421331116193,2113
750.1072919394409,2098
752.3718336242467,2165
754.6357583873777,2182
756.8990664502545,2080
759.1617580343765,2083
761.423833361321,2073
763.6852926527457,2143
765.9461361303862,2196
768.206364016058,2158
770.4659765316536,2110
772.7249738991469,2075
774.9833563405886,2111
777.2411240781092,2133
779.4982773339183,2062
781.7548163303044,2082
784.010741289634,2195
786.2660524343538,2215
788.5207499869881,2181
790.7748341701416,2156
793.0283052064964,2211
795.2811633188143,2103
797.5334087299362,2181
799.7850416627813,2193
802.0360623403484,2151
804.2864709857143,2173
806.5362678220353,2220
808.7854530725468,2158
811.0340269605625,2128
813.2819897094754,2188
815.5293415427581,2225
817.77608268396,2145
820.0222133567116,2183
822.2677337847211,2114
824.5126441917765,2071
826.7569448017433,2148
829.0006358385675,2111
831.2437175262731,2147
833.4861900889629,2123
835.7280537508192,2154
837.9693087361026,2201
840.2099552691533,2150
842.4499935743896,2161
844.689423876309,2120
846.9282463994886,2085
849.1664613685833,2217
851.4040690083276,2146
853.6410695435349,2141
855.877463199097,2135
858.1132501999847,2145
860.3484307712487,2129
862.5830051380175,2253
864.8169735254988,2107
867.0503361589791,2123
869.2830932638243,2194
871.5152450654786,2210
873.7467917894654,2225
875.9777336613873,2276
878.2080709069252,2124
880.4378037518389,2199
882.666932421968,2288
884.8954571432301,2129
887.1233781416219,2193
889.3506956432192,2235
891.5774098741766,2196
893.803521060728,2234
896.0290294291852,2277
898.2539352059397,2188
900.4782386174619,2211
902.7019398903011,2185
904.925039251085,2255
907.147536926521,2229
909.3694331433943,2196
911.59072812857,2144
913.8114221089921,2222
916.0315153116827,2157
918.2510079637437,2152
920.4699002923547,2025
922.6881925247761,2167
924.905884888345,2073
927.1229776104793,2112
929.3394709186747,2175
931.555365040506,2124
933.7706602036275,2103
935.9853566357709,2174
938.1994545647489,2178
940.4129542184515,2091
942.6258558248488,2149
944.8381596119883,2108
947.0498658079974,2144
949.2609746410825,2130
951.4714863395287,2148
953.6814011316998,2123
955.8907192460387,2050
958.0994409110671,2186
960.3075663553858,2096
962.5150958076741,2122
964.7220294966913,2027
966.928367651274,2009
969.1341105003388,2017
971.3392582728806,2013
973.5438111979742,2055
975.747769504772,2026
977.9511334225061,2076
980.153903180487,2022
982.3560790081052,2032
984.5576611348289,1982
986.7586497902058,1982
988.9590452038618,1966
991.158847605503,2023
993.3580572249133,1917
995.5566742919558,1954
997.7546990365728,1906
999.952131688785,1948
1002.1489724786926,1875
1004.3452216364743,1931
1006.5408793923874,1815
1008.7359459767691,1788
1010.9304216200343,1837
1013.1243065526781,1827
1015.3176010052733,1827
1017.510305208472,1829
1019.7024193930064,1766
1021.8939437896848,1793
1024.0848786293977,1826
1026.2752241431122,1778
1028.4649805618747,1787
1030.6541481168115,1759
1032.842727039127,1751
1035.0307175601051,1707
1037.2181199111074,1701
1039.4049343235752,1682
1041.591161029029,1730
1043.7768002590683,1791
1045.9618522453698,1737
1048.1463172196918,1766
1050.3301954138697,1792
1052.513487059818,1770
1054.69619238953,1763
1056.8783116350783,1773
1059.0598450286152,1705
1061.2407928023704,1803
1063.4211551886528,1769
1065.6009324198508,1743
1067.780124728432,1756
1069.9587323469414,1690
1072.1367555080046,1758
1074.314194444325,1850
1076.4910493886855,1793
1078.667320573947,1713
1080.843008233051,1732
1083.0181125990161,1706
1085.1926339049414,1677
1087.3665723840027,1670
1089.5399282694575,1787
1091.7127017946405,1697
1093.8848931929647,1688
1096.0565026979243,1649
1098.2275305430899,1675
1100.3979769621128,1708
1102.567842188722,1567
1104.737126456726,1623
1106.9058300000124,1678
1109.0739530525475,1618
1111.2414958483764,1594
1113.4084586216231,1739
1115.5748416064907,1663
1117.7406450372605,1687
1119.9058691482942,1665
1122.0705141740304,1660
1124.2345803489884,1709
1126.3980679077658,1678
1128.5609770850388,1609
1130.7233081155623,1650
1132.8850612341707,1638
1135.0462366757774,1630
1137.2068346753745,1663
1139.3668554680326,1621
1141.526299288901,1651
1143.68516637321,1631
1145.8434569562655,1658
1148.001171273455,1571
1150.158309560244,1599
1152.3148720521767,1646
1154.470858984876,1536
1156.626270594044,1642
1158.7811071154629,1557
1160.9353687849912,1619
1163.089055838569,1677
1165.242168512213,1601
1167.3947070420209,1555
1169.5466716641677,1503
1171.6980626149075,1566
1173.8488801305748,1635
1175.9991244475814,1619
1178.1487958024186,1588
1180.2978944316555,1589
1182.4464205719428,1624
1184.5943744600072,1563
1186.7417563326567,1511
1188.8885664267755,1617
1191.0348049793297,1581
1193.1804722273619,1599
1195.325568407995,1599
1197.4700937584303,1548
1199.614048515948,1579
1201.7574329179074,1575
1203.900247201746,1581
1206.042491604982,1579
1208.1841663652099,1586
1210.3252717201053,1569
1212.465807907422,1588
1214.6057751649923,1641
1216.7451737307279,1616
1218.8840038426192,1598
1221.0222657387353,1622
1223.1599596572241,1640
1225.2970858363137,1616
1227.4336445143094,1585
1229.5696359295966,1603
1231.705060320639,1614
1233.8399179259786,1698
1235.9742089842384,1606
1238.107933734118,1666
1240.2410924143974,1682
1242.373685263935,1723
1244.5057125216676,1608
1246.6371744266116,1623
1248.7680712178621,1682
1250.898403134593,1659
1253.028170416058,1644
1255.1573733015875,1638
1257.2860120305932,1669
1259.4140868425648,1632
1261.54159797707,1629
1263.6685456737569,1687
1265.7949301723515,1653
1267.9207517126597,1682
1270.046010534565,1686
1272.1707068780306,1693
1274.2948409830983,1697
1276.4184130898889,1689
1278.541423438603,1729
1280.6638722695184,1658
1282.785759822993,1716
1284.9070863394636,1717
1287.0278520594447,1728
1289.1480572235314,1715
1291.2677020723963,1668
1293.3867868467923,1727
1295.5053117875495,1735
1297.623277135579,1734
1299.740683131868,1728
1301.8575300174857,1724
1303.973818033578,1757
1306.0895474213703,1782
1308.2047184221678,1744
1310.3193312773528,1785
1312.4333862283888,1745
1314.5468835168163,1807
1316.659823384255,1784
1318.7722060724045,1759
1320.8840318230418,1749
1322.9953008780249,1732
1325.1060134792888,1681
1327.2161698688478,1725
1329.3257702887959,1784
1331.4348149813054,1809
1333.5433041886276,1757
1335.6512381530933,1794
1337.7586171171101,1761
1339.8654413231675,1771
1341.9717110138317,1752
1344.0774264317488,1778
1346.1825878196432,1751
1348.2871954203192,1861
1350.3912494766587,1832
1352.4947502316231,1784
1354.5976979282532,1800
1356.7000928096686,1696
1358.8019351190665,1778
1360.9032250997243,1720
1363.0039629949988,1759
1365.1041490483235,1770
1367.2037835032133,1767
1369.3028666032606,1815
1371.401398592137,1716
1373.4993797135926,1812
1375.5968102114575,1744
1377.6936903296396,1800
1379.7900203121262,1769
1381.8858004029835,1804
1383.9810308463561,1715
1386.075711886469,1791
1388.1698437676241,1756
1390.2634267342032,1773
1392.356461030667,1804
1394.4489469015557,1794
1396.5408845914872,1800
1398.6322743451592,1866
1400.7231164073469,1877
1402.813411022907,1752
1404.903158436773,1844
1406.9923588939578,1869
1409.0810126395531,1809
1411.1691199187303,1843
1413.2566809767386,1866
1415.343696058907,1893
1417.4301654106425,1795
1419.5160892774315,1826
1421.6014679048399,1902
1423.6863015385125,1915
1425.7705904241707,1916
1427.8543348076178,1926
1429.9375349347342,1866
1432.0201910514802,1819
1434.102303403894,1895
1436.1838722380944,1899
1438.2648978002767,1941
1440.3453803367174,1914
1442.4253200937692,1939
1444.5047173178677,1971
1446.5835722555234,1971
1448.6618851533285,2089
1450.739656257952,2025
1452.8168858161434,2066
1454.8935740747306,2044
1456.96972128062,2065
1459.045327680797,2114
1461.120393522327,2137
1463.1949190523528,2149
1465.2689045180973,2138
1467.3423501668608,2196
1469.415256246024,2253
1471.4876230030463,2230
1473.559450685465,2253
1475.6307395408976,2204
1477.7014898170391,2310
1479.771701761665,2323
1481.8413756226287,2375
1483.9105116478618,2374
1485.9791100853772,2485
1488.0471711832643,2436
1490.1146951896926,2503
1492.1816823529098,2463
1494.2481329212433,2433
1496.3140471430984,2554
1498.3794252669609,2471
1500.4442675413939,2535
1502.5085742150404,2509
1504.572345536622,2550
1506.6355817549388,2592
1508.6982831188702,2550
1510.7604498773744,2648
1512.8220822794883,2622
1514.8831805743293,2682
1516.9437450110909,2659
1519.003775839048,2733
1521.0632733075522,2689
1523.1222376660367,2716
1525.1806691640113,2808
1527.2385680510652,2817
1529.2959345768668,2874
1531.3527689911643,2934
1533.4090715437833,2940
1535.4648424846291,2946
1537.5200820636855,2945
1539.5747905310159,3018
1541.6289681367616,3060
1543.6826151311434,3031
1545.7357317644614,3222
1547.7883182870937,3150
1549.8403749494987,3160
1551.8919020022113,3292
1553.9428996958477,3302
1555.9933682811015,3504
1558.0433080087469,3363
1560.0927191296346,3447
1562.1416018946961,3555
1564.1899565549415,3564
1566.2377833614592,3560
1568.2850825654164,3563
1570.3318544180606,3380
1572.3780991707158,3404
1574.423817074788,3323
1576.4690083817595,3159
1578.5136733431923,3093
1580.5578122107272,2955
1582.601425236085,2836
1584.6445126710646,2759
1586.6870747675434,2615
1588.7291117774776,2593
1590.7706239529034,2513
1592.8116115459347,2416
1594.8520748087658,2340
1596.8920139936686,2280
1598.9314293529933,2160
1600.9703211391711,2177
1603.008689604711,2214
1605.0465350022005,2185
1607.0838575843068,2067
1609.1206576037753,2049
1611.1569353134305,2015
1613.1926909661765,1993
1615.2279248149953,1872
1617.2626371129481,1873
1619.2968281131757,1900
1621.3304980688963,1814
1623.3636472334088,1813
1625.39627586009,1923
1627.428384202396,1819
1629.459972513861,1824
1631.4910410480993,1859
1633.5215900588028,1822
1635.551619799744,1811
1637.5811305247717,1794
1639.6101224878166,1851
1641.6385959428862,1738
1643.6665511440683,1774
1645.693988345528,1823
1647.7209078015112,1776
1649.7473097663405,1758
1651.7731944944203,1742
1653.7985622402307,1810
1655.823413258333,1747
1657.847747803366,1765
1659.8715661300494,1731
1661.8948684931793,1753
1663.9176551476316,1740
1665.9399263483624,1732
1667.9616823504057,1733
1669.982923408873,1766
1672.0036497789574,1738
1674.0238617159293,1766
1676.043559475138,1736
1678.0627433120121,1739
1680.081413482059,1661
1682.0995702408654,1688
1684.117213844096,1743
1686.134344547495,1695
1688.1509626068864,1678
1690.1670682781705,1763
1692.182661817329,1755
1694.1977434804217,1777
1696.2123135235875,1716
1698.226372203043,1789
1700.2399197750851,1727
1702.2529564960905,1745
1704.2654826225112,1736
1706.277498410882,1723
1708.2890041178139,1694
1710.2999999999988,1752
1712.3104863142066,1667
1714.3204633172854,1765
1716.329931266163,1727
1718.3388904178469,1692
1720.3473410294214,1683
1722.3552833580516,1738
1724.3627176609807,1753
1726.3696441955308,1734
1728.3760632191033,1662
1730.3819749891782,1732
1732.3873797633146,1723
1734.3922777991502,1672
1736.3966693544012,1654
1738.4005546868639,1696
1740.4039340544127,1707
1742.406807715001,1724
1744.4091759266616,1709
1746.4110389475054,1675
1748.4123970357223,1623
1750.413250449582,1667
1752.4135994474318,1620
1754.4134442876993,1668
1756.4127852288902,1667
1758.4116225295893,1659
1760.4099564484595,1647
1762.407787244244,1712
1764.405115175764,1637
1766.4019405019203,1606
1768.3982634816916,1622
1770.3940843741357,1574
1772.3894034383907,1611
1774.3842209336717,1657
1776.378537119274,1653
1778.372352254571,1670
1780.3656665990156,1635
1782.3584804121397,1680
1784.3507939535534,1658
1786.3426074829463,1693
1788.3339212600863,1618
1790.3247355448211,1604
1792.3150505970766,1610
1794.3048666768573,1625
1796.2941840442477,1617
1798.2830029594106,1591
1800.2713236825884,1663
1802.2591464741004,1635
1804.2464715943465,1651
1806.2332993038058,1593
1808.2196298630352,1649
1810.2054635326708,1602
1812.190800573428,1655
1814.175641246101,1632
1816.1599858115628,1634
1818.1438345307652,1722
1820.127187664738,1648
1822.1100454745924,1563
1824.092408221516,1611
1826.0742761667766,1614
1828.055649571721,1667
1830.0365286977735,1614
1832.0169138064398,1551
1833.9968051593014,1603
1835.9762030180214,1630
1837.9551076443408,1687
1839.9335193000788,1623
1841.9114382471344,1594
1843.888864747485,1631
1845.8657990631878,1629
1847.842241456378,1592
1849.8181921892697,1645
1851.7936515241558,1666
1853.7686197234098,1609
1855.7430970494815,1617
1857.7170837649014,1613
1859.6905801322787,1661
1861.6635864143004,1594
1863.6361028737338,1651
1865.608129773424,1655
1867.5796673762961,1586
1869.5507159453537,1636
1871.521275743678,1602
1873.4913470344313,1616
1875.4609300808534,1623
1877.4300251462632,1654
1879.3986324940588,1639
1881.366752387717,1707
1883.3343850907936,1677
1885.3015308669228,1673
1887.268189979819,1651
1889.2343626932739,1625
1891.2000492711595,1621
1893.1652499774254,1624
1895.1299650761011,1665
1897.0941948312952,1664
1899.0579395071945,1619
1901.0211993680641,1646
1902.98397467825,1695
1904.9462657021745,1630
1906.9080727043415,1610
1908.869395949332,1606
1910.8302357018065,1658
1912.790592226504,1723
1914.7504657882428,1637
1916.7098566519212,1641
1918.6687650825133,1628
1920.6271913450764,1655
1922.5851357047422,1672
1924.5425984267245,1588
1926.499579776314,1621
1928.4560800188833,1690
1930.4120994198802,1653
1932.367638244833,1604
1934.32269675935,1634
1936.2772752291175,1657
1938.231373919899,1623
1940.1849930975404,1666
1942.1381330279637,1604
1944.0907939771696,1618
1946.0429762112412,1662
1947.9946799963363,1602
1949.9459055986945,1561
1951.896653284633,1647
1953.8469233205478,1582
1955.7967159729142,1572
1957.7460315082863,1641
1959.6948701932974,1592
1961.6432322946594,1596
1963.5911180791632,1599
1965.5385278136787,1604
1967.4854617651545,1614
1969.4319202006182,1614
1971.377903387176,1579
1973.3234115920136,1587
1975.268445082395,1607
1977.2130041256642,1580
1979.1570889892423,1569
1981.1006999406304,1597
1983.04383724741,1640
1984.986501177238,1546
1986.928691997853,1539
1988.8704099770712,1567
1990.811655382789,1521
1992.7524284829801,1635
1994.692729545698,1582
1996.6325588390755,1564
1998.5719166313224,1631
2000.5108031907307,1612
2002.4492187856677,1544
2004.387163684583,1534
2006.3246381560011,1602
2008.2616424685298,1530
2010.1981768908527,1577
2012.1342416917332,1572
2014.069837140014,1591
2016.0049635046162,1624
2017.9396210545406,1610
2019.8738100588666,1590
2021.8075307867502,1536
2023.740783507431,1530
2025.6735684902228,1572
2027.6058860045214,1539
2029.5377363198004,1619
2031.4691197056118,1535
2033.4000364315875,1535
2035.3304867674374,1605
2037.260470982952,1553
2039.189989347998,1522
2041.1190421325232,1553
2043.047629606554,1616
2044.9757520401945,1559
2046.9034097036288,1507
2048.8306028671195,1596
2050.7573318010086,1551
2052.683596775716,1633
2054.609398061742,1568
2056.5347359296647,1515
2058.4596106501403,1582
2060.384022493906,1593
2062.3079717317764,1527
2064.231458634646,1553
2066.1544834734873,1559
2068.077046519352,1486
2069.99914804337,1513
2071.9207883167524,1530
2073.8419676107865,1578
2075.7626861968406,1530
2077.6829443463607,1549
2079.6027423308715,1543
2081.522080421977,1541
2083.440958891362,1547
2085.359378010786,1503
2087.2773380520907,1531
2089.194839287196,1549
2091.111881988101,1537
2093.0284664268825,1587
2094.9445928756973,1492
2096.86026160678,1517
2098.775472892446,1524
2100.690227005088,1581
2102.604524217178,1556
2104.5183648012676,1629
2106.431749029985,1589
2108.34467717604,1522
2110.2571495122206,1540
2112.169166311393,1566
2114.080727846503,1568
2115.9918343905747,1553
2117.902486216711,1539
2119.8126835980956,1583
2121.722426807987,1601
2123.6317161197285,1589
2125.5405518067364,1599
2127.448934142509,1626
2129.356863400624,1567
2131.264339854737,1573
2133.1713637785815,1539
2135.077935445972,1585
2136.9840551308002,1601
2138.889723107037,1578
2140.7949396487334,1582
2142.699705030018,1658
2144.6040195250994,1578
2146.507883408264,1524
2148.4112969538774,1606
2150.3142604363848,1570
2152.2167741303097,1611
2154.1188383102535,1644
2156.0204532508997,1572
2157.9216192270064,1599
2159.822336513414,1613
2161.7226053850413,1599
2163.622426116884,1648
2165.5217989840185,1596
2167.4207242616,1592
2169.319202224862,1627
2171.2172331491165,1671
2173.1148173097563,1609
2175.0119549822507,1546
2176.90864644215,1613
2178.8048919650823,1638
2180.7006918267534,1587
2182.596046302952,1643
2184.4909556695407,1655
2186.3854202024645,1665
2188.279440177746,1654
2190.173015871487,1648
2192.066147559868,1615
2193.958835519149,1625
2195.851080025667,1624
2197.7428813558417,1618
2199.6342397861667,1571
2201.5251555932186,1620
2203.415629053651,1642
2205.3056604441986,1594
2207.19525004167,1619
2209.084398122958,1585
2210.9731049650327,1645
2212.861370844941,1649
2214.749196039812,1672
2216.636580826851,1682
2218.523525483344,1625
2220.410030286655,1679
2222.296095514226,1633
2224.1817214435805,1668
2226.066908352319,1666
2227.951656518121,1559
2229.835966218746,1660
2231.71983773203,1676
2233.6032713358913,1619
2235.486267308324,1616
2237.3688259274036,1675
2239.2509474712824,1620
2241.132632218193,1626
2243.013880446447,1593
2244.8946924344323,1622
2246.7750684606203,1667
2248.6550088035574,1605
2250.534513741871,1576
2252.413583554265,1611
2254.292218519526,1639
2256.170418916517,1637
2258.0481850241786,1656
2259.925517121534,1642
2261.8024154876825,1657
2263.678880401803,1648
2265.5549121431536,1585
2267.430510991071,1655
2269.305677224971,1644
2271.180411124348,1655
2273.0547129687766,1709
2274.9285830379076,1644
2276.8020216114737,1650
2278.6750289692845,1626
2280.5476053912294,1621
2282.4197511572766,1616
2284.2914665474727,1666
2286.162751841943,1677
2288.0336073208937,1705
2289.904033264608,1665
2291.774029953448,1635
2293.6435976678554,1606
2295.5127366883517,1593
2297.381447295534,1628
2299.2497297700825,1523
2301.1175843927526,1589
2302.9850114443825,1552
2304.852011205885,1529
2306.7185839582553,1538
2308.5847299825664,1502
2310.4504495599676,1459
2312.3157429716925,1481
2314.1806104990483,1422
2316.0450524234247,1440
2317.9090690262888,1471
2319.772660589186,1446
2321.635827393742,1416
2323.498569721661,1431
2325.3608878547248,1458
2327.2227820747967,1474
2329.0842526638157,1388
2330.945299903803,1484
2332.805924076857,1396
2334.6661254651535,1407
2336.525904350951,1463
2338.3852610165827,1397
2340.244195744464,1396
2342.102708817088,1419
2343.9608005170253,1439
2345.8184711269287,1450
2347.675720929526,1473
2349.532550207628,1414
2351.38895924412,1426
2353.24494832197,1465
2355.100517724223,1370
2356.955667734004,1452
2358.810398634514,1469
2360.664710709037,1480
2362.5186042409337,1463
2364.3720795136437,1485
2366.225136810686,1498
2368.0777764156583,1414
2369.929998612237,1418
2371.7818036841777,1414
2373.633191915315,1458
2375.484163589562,1432
2377.3347189909114,1445
2379.184858403434,1463
2381.03458211128,1438
2382.8838903986775,1402
2384.732783549936,1469
2386.5812618494406,1534
2388.4293255816588,1438
2390.2769750311327,1482
2392.1242104824883,1399
2393.971032220427,1412
2395.8174405297295,1451
2397.6634356952563,1446
2399.509018001947,1450
2401.3541877348193,1488
2403.1989451789705,1410
2405.043290619576,1401
2406.8872243418905,1373
2408.730746631247,1386
2410.5738577730594,1344
2412.4165580528183,1464
2414.258847756095,1456
2416.100727168537,1480
2417.9421965758734,1493
2419.783256263912,1501
2421.623906518538,1432
2423.4641476257157,1428
2425.303979871491,1442
2427.143403541984,1453
2428.9824189233977,1467
2430.821026302012,1489
2432.6592259641866,1499
2434.497018196361,1491
2436.33440328505,1431
2438.171381516851,1430
2440.00795317844,1457
2441.844118556569,1465
2443.6798779380724,1481
2445.5152316098606,1449
2447.3501798589255,1498
2449.1847229723357,1430
2451.0188612372403,1460
2452.8525949408663,1445
2454.6859243705203,1482
2456.518849813587,1477
2458.3513715575314,1443
2460.183489889895,1493
2462.015205098301,1467
2463.8465174704493,1474
2465.67742729412,1472
2467.5079348571717,1473
2469.338040447542,1473
2471.1677443532476,1494
2472.9970468623833,1494
2474.825948263123,1466
2476.6544488437207,1492
2478.482548892508,1419
2480.310248697896,1456
2482.137548548374,1473
2483.9644487325118,1476
2485.790949538956,1480
2487.617051256433,1531
2489.44275417375,1433
2491.26805857979,1467
2493.0929647635157,1410
2494.917473013971,1462
2496.741583620276,1490
2498.5652968716304,1496
2500.3886130573137,1497
2502.2115324666834,1531
2504.0340553891765,1453
2505.856182114308,1495
2507.6779129316733,1551
2509.499248130945,1540
2511.3201880018764,1491
2513.140732834298,1497
2514.9608829181198,1517
2516.780638543331,1534
2518.6,1532
2520.418967578273,1481
2522.237541568376,1530
2524.0557222606144,1477
2525.8735099453706,1489
2527.6909049131086,1549
2529.507907454368,1511
2531.32451785977,1472
2533.140736420014,1535
2534.9565634258774,1569
2536.771999168218,1513
2538.5870439379714,1597
2540.4016980261526,1520
2542.2159617238544,1568
2544.02983532225,1572
2545.8433191125914,1538
2547.656413386209,1560
2549.4691184345115,1595
2551.2814345489874,1552
2553.093362021204,1623
2554.904901142808,1574
2556.716052205523,1634
2558.526815501153,1623
2560.3371913215824,1613
2562.147179958771,1679
2563.956781704761,1652
2565.7659968516705,1663
2567.5748256916986,1673
2569.3832685171224,1658
2571.1913256202984,1749
2572.9989972936614,1667
2574.806283829725,1674
2576.613185521084,1704
2578.4197026604074,1758
2580.2258355404483,1693
2582.031584454035,1730
2583.836949694077,1781
2585.6419315535613,1687
2587.4465303255533,1804
2589.2507463032002,1739
2591.0545797797245,1733
2592.8580310484303,1783
2594.6611004026995,1737
2596.463788135992,1812
2598.266094541849,1799
2600.0680199138874,1778
2601.869564545807,1775
2603.670728731383,1758
2605.4715127644704,1758
2607.2719169390048,1884
2609.071941548998,1827
2610.8715868885433,1806
2612.670853251811,1740
2614.469740933052,1764
2616.268250226594,1734
2618.0663814268455,1694
2619.864134828292,1718
2621.6615107255006,1827
2623.458509413115,1776
2625.2551311858597,1737
2627.0513763385347,1730
2628.8472451660223,1741
2630.6427379632833,1758
2632.4378550253564,1697
2634.232596647359,1664
2636.026963124488,1700
2637.8209547520187,1758
2639.6145718253065,1763
2641.407814639785,1626
2643.200683490966,1672
2644.9931786744414,1671
2646.7853004858807,1709
2648.577049221034,1680
2650.3684251757277,1676
2652.1594286458712,1666
2653.9500599274484,1634
2655.740319316525,1653
2657.5302071092437,1610
2659.3197236018286,1661
2661.10886909058,1543
2662.8976438718782,1639
2664.686048242183,1570
2666.4740824980327,1608
2668.2617469360443,1558
2670.0490418529134,1594
2671.8359675454153,1536
2673.622524310403,1581
2675.408712444811,1549
2677.1945322456495,1503
2678.979984010009,1513
2680.76506803506,1562
2682.5497846180497,1528
2684.334134056306,1473
2686.1181166472343,1543
2687.9017326883213,1543
2689.6849824771293,1479
2691.4678663113013,1525
2693.2503844885596,1457
2695.032537306705,1540
2696.8143250636167,1474
2698.5957480572542,1495
2700.3768065856534,1467
2702.1575009469316,1509
2703.937831439283,1452
2705.717798360982,1451
2707.4974020103837,1478
2709.276642685917,1438
2711.055520686095,1510
2712.834036309506,1453
2714.612189854819,1407
2716.389981620782,1462
2718.1674119062204,1409
2719.944481010041,1408
2721.721189231226,1410
2723.4975368688415,1396
2725.273524222027,1412
2727.0491515900053,1352
2728.824419272075,1449
2730.5993275676146,1417
2732.3738767760838,1467
2734.148067197016,1432
2735.921899130031,1439
2737.6953728748194,1368
2739.468488731156,1467
2741.2412469988926,1417
2743.0136479779617,1388
2744.785691968372,1365
2746.5573792702116,1456
2748.3287101836504,1392
2750.099685008934,1347
2751.870304046388,1410
2753.640567596418,1394
2755.4104759595057,1421
2757.1800294362156,1453
2758.949228327187,1354
2760.7180729331412,1408
2762.486563554877,1368
2764.254700493272,1405
2766.022484049284,1444
2767.789914523947,1436
2769.5569922183786,1427
2771.3237174337705,1350
2773.090090471394,1403
2774.8561116326036,1482
2776.6217812188274,1417
2778.3870995315756,1435
2780.1520668724356,1437
2781.9166835430747,1417
2783.6809498452394,1502
2785.444866080754,1405
2787.2084325515225,1476
2788.971649559527,1479
2790.73451740683,1340
2792.4970363955713,1383
2794.2592068279705,1445
2796.0210290063264,1407
2797.7825032330147,1412
2799.543629810493,1351
2801.304409041296,1409
2803.0648412280366,1439
2804.8249266734088,1448
2806.5846656801846,1390
2808.344058551212,1375
2810.1031055894246,1319
2811.8618070978273,1403
2813.6201633795085,1405
2815.378174737636,1418
2817.1358414754536,1374
2818.893163896285,1387
2820.6501423035334,1450
2822.4067770006814,1432
2824.1630682912883,1438
2825.9190164789957,1489
2827.6746218675207,1374
2829.429884760661,1448
2831.184805462294,1366
2832.9393842763743,1409
2834.693621506936,1419
2836.4475174580916,1451
2838.201072434034,1451
2839.954286739034,1421
2841.707160677441,1395
2843.459694553685,1405
2845.2118886722724,1408
2846.96374333779,1383
2848.7152588549034,1456
2850.4664355283567,1414
2852.217273662973,1393
2853.9677735636546,1387
2855.7179355353833,1375
2857.4677598832186,1399
2859.217246912299,1425
2860.9663969278427,1356
2862.715210235146,1363
2864.4636871395846,1375
2866.211827946614,1402
2867.9596329617652,1420
2869.7071024906536,1419
2871.4542368389684,1328
2873.20103631248,1398
2874.947501217038,1453
2876.6936318585695,1403
2878.4394285430812,1423
2880.1848915766604,1421
2881.9300212654707,1416
2883.6748179157553,1373
2885.4192818338374,1386
2887.1634133261173,1402
2888.907212699077,1406
2890.6506802592744,1463
2892.393816313348,1392
2894.1366211680142,1356
2895.8790951300693,1449
2897.621238506388,1462
2899.363051603925,1353
2901.1045347297118,1362
2902.8456881908596,1424
2904.58651229456,1441
2906.327007348081,1457
2908.067173658772,1458
2909.8070115340597,1420
2911.5465212814497,1430
2913.285703208527,1396
2915.0245576229563,1374
2916.7630848324807,1375
2918.5012851449196,1369
2920.2391588681758,1388
2921.976706310227,1419
2923.7139277791334,1308
2925.4508235830313,1451
2927.187394030137,1349
2928.923639428745,1462
2930.6595600872306,1397
2932.395156314046,1432
2934.1304284177218,1389
2935.8653767068713,1412
2937.6000014901815,1446
2939.3343030764227,1387
2941.068281774442,1371
2942.8019378931644,1388
2944.5352717415976,1441
2946.2682836288236,1404
2948.0009738640065,1422
2949.7333427563885,1433
2951.465390615289,1423
2953.1971177501086,1403
2954.9285244703265,1416
2956.6596110855,1438
2958.3903779052657,1404
2960.1208252393385,1400
2961.8509533975125,1390
2963.5807626896617,1422
2965.3102534257378,1429
2967.0394259157715,1393
2968.768280469873,1377
2970.496817398232,1428
2972.2250370111146,1399
2973.952939618869,1371
2975.6805255319196,1381
2977.4077950607707,1406
2979.134748516006,1451
2980.861386208289,1394
2982.587708448359,1406
2984.313715547037,1427
2986.039407815222,1353
2987.764785563891,1349
2989.489849104102,1346
2991.2145987469908,1358
2992.9390348037705,1363
2994.6631575857346,1353
2996.3869674042576,1384
2998.1104645707887,1389
2999.83364939686,1400
3001.5565221940783,1414
3003.2790832741334,1368
3005.0013329487924,1323
3006.7232715298996,1395
3008.4448993293804,1349
3010.166216659239,1373
3011.887223831558,1353
3013.607921158498,1371
3015.3283089522993,1386
3017.0483875252826,1353
3018.7681571898443,1383
3020.4876182584626,1363
3022.2067710436927,1361
3023.9256158581707,1383
3025.644153014609,1335
3027.362382825801,1332
3029.0803056046193,1346
3030.797921664012,1373
3032.5152313170106,1347
3034.2322348767225,1403
3035.9489326563353,1380
3037.665324969115,1360
3039.3814121284063,1346
3041.097194447633,1301
3042.812672240299,1342
3044.5278458199855,1356
3046.2427155003525,1371
3047.9572815951406,1396
3049.671544418167,1350
3051.38550428333,1391
3053.0991615046073,1346
3054.812516396051,1342
3056.5255692717974,1394
3058.2383204460575,1397
3059.9507702331257,1336
3061.662918947372,1368
3063.3747669032446,1373
3065.0863144152736,1398
3066.7975617980674,1414
3068.508509366309,1410
3070.219157434767,1356
3071.9295063182844,1333
3073.639556331785,1353
3075.3493077902704,1413
3077.058761008821,1350
3078.7679163025964,1396
3080.476773986837,1361
3082.1853343768594,1385
3083.89359778806,1386
3085.6015645359153,1376
3087.3092349359786,1406
3089.016609303884,1303
3090.7236879553434,1368
3092.4304712061476,1368
3094.136959372166,1418
3095.843152769349,1392
3097.5490517137237,1428
3099.2546565213966,1403
3100.959967508554,1369
3102.66498499146,1411
3104.3697092864577,1412
3106.0741407099695,1412
3107.778279578498,1412
3109.482126208622,1434
3111.1856809170004,1358
3112.8889440203716,1400
3114.5919158355528,1419
3116.294596679439,1363
3117.996986869006,1450
3119.6990867213062,1384
3121.4008965534726,1376
3123.102416682717,1399
3124.803647426329,1411
3126.5045891016784,1399
3128.205242026213,1387
3129.90560651746,1382
3131.605682893025,1379
3133.3054714705922,1331
3135.0049725679282,1426
3136.7041865028714,1324
3138.4031135933465,1340
3140.101754157353,1371
3141.800108512971,1448
3143.498176978357,1388
3145.1959598717494,1388
3146.8934575114636,1391
3148.5906702158954,1347
3150.2875983035183,1350
3151.9842420928853,1346
3153.680601902627,1398
3155.376678051456,1377
3157.07247085816,1343
3158.767980641609,1390
3160.463207720748,1353
3162.158152414606,1419
3163.8528150422862,1427
3165.5471959229726,1372
3167.2412953759303,1351
3168.9351137204976,1359
3170.628651276098,1398
3172.3219083622307,1401
3174.014885298474,1323
3175.707582404485,1341
3177.4000000000005,1355
3179.092138404835,1330
3180.7839979388846,1400
3182.47557892212,1350
3184.166881674594,1359
3185.8579065164386,1385
3187.5486537678626,1348
3189.2391237491547,1357
3190.9293167806827,1363
3192.6192331828934,1356
3194.3088732763117,1360
3195.998237381542,1394
3197.687325819268,1360
3199.376138910251,1354
3201.064676975334,1296
3202.7529403354347,1345
3204.4409293115523,1316
3206.1286442247647,1344
3207.816085396229,1323
3209.5032531471825,1363
3211.190147798936,1338
3212.8767696728846,1342
3214.5631190905015,1332
3216.2491963733373,1375
3217.9350018430214,1376
3219.6205358212637,1372
3221.305798629851,1350
3222.990790590651,1317
3224.6755120256103,1266
3226.359963256751,1299
3228.0441446061795,1328
3229.7280563960758,1314
3231.411698948703,1321
3233.0950725863995,1388
3234.778177631587,1372
3236.461014406761,1302
3238.1435832345005,1375
3239.8258844374595,1328
3241.507918338374,1363
3243.1896852600576,1348
3244.8711855254023,1378
3246.552419457381,1380
3248.233387379042,1349
3249.914089613516,1347
3251.59452648401,1369
3253.274698313813,1359
3254.95460542629,1303
3256.6342481448855,1356
3258.313626793125,1329
3259.9927416946084,1315
3261.6715931730196,1292
3263.3501815521176,1305
3265.0285071557437,1367
3266.706570307815,1336
3268.3843713323286,1324
3270.0619105533615,1336
3271.739188295068,1290
3273.4162048816834,1349
3275.0929606375184,1320
3276.769455886966,1346
3278.445690954498,1408
3280.1216661646613,1366
3281.797381842087,1476
3283.4728383114807,1386
3285.1480358976296,1343
3286.8229749253996,1312
3288.4976557197333,1311
3290.172078605655,1326
3291.846243908266,1338
3293.5201519527463,1338
3295.193803064357,1312
3296.8671975684374,1335
3298.5403357904024,1363
3300.21321805575,1331
3301.8858446900567,1370
3303.558216018975,1352
3305.23033236824,1274
3306.9021940636603,1345
3308.57380143113,1398
3310.2451547966184,1370
3311.916254486174,1375
3313.5871008259246,1386
3315.2576941420766,1343
3316.9280347609147,1328
3318.5981230088046,1304
3320.2679592121895,1316
3321.9375436975924,1330
3323.606876791612,1271
3325.27595882093,1286
3326.944790112305,1316
3328.6133709925753,1273
3330.2817017886573,1302
3331.949782827547,1339
3333.617614436319,1309
3335.2851969421245,1320
3336.952530672199,1361
3338.619615953853,1338
3340.286453114475,1292
3341.9530424815357,1335
3343.619384382583,1326
3345.2854791452437,1363
3346.951327097224,1366
3348.6169285663073,1346
3350.2822838803577,1334
3351.947393367319,1361
3353.61225735521,1367
3355.2768761721345,1292
3356.9412501462693,1340
3358.605379605873,1347
3360.2692648792827,1308
3361.9329062949146,1321
3363.596304181263,1290
