CollectionTime,7/9/2024 4:32:46 PM
ExposureUsed,3
CalibratedSpectrum
-962.7078968117929,417
-959.9714848408522,434
-957.2358232597828,442
-954.5009119013725,444
-951.7667505983302,454
-949.0333391832855,443
-946.3006774887896,443
-943.5687653473143,459
-940.837602591253,429
-938.1071890529199,444
-935.3775245645503,442
-932.6486089583007,421
-929.9204420662485,443
-927.1930237203925,443
-924.4663537526524,455
-921.7404319948689,442
-919.0152582788041,452
-916.2908324361409,483
-913.5671542984834,450
-910.8442236973568,432
-908.1220404642074,453
-905.4006044304027,469
-902.679915427231,438
-899.959973285902,424
-897.2407778375464,432
-894.5223289132158,433
-891.8046263438832,424
-889.0876699604426,430
-886.3714595937089,426
-883.6559950744183,454
-880.9412762332282,431
-878.2273029007168,431
-875.5140749073835,418
-872.8015920836489,447
-870.0898542598545,460
-867.3788612662631,446
-864.6686129330585,436
-861.9591090903457,461
-859.2503495681506,446
-856.5423341964203,433
-853.8350628050229,481
-851.1285352237478,423
-848.4227512823054,432
-845.7177108103272,441
-843.0134136373656,438
-840.3098595928943,444
-837.6070485063082,471
-834.9049802069229,462
-832.2036545239757,457
-829.5030712866244,458
-826.8032303239481,479
-824.1041314649472,450
-821.4057745385428,447
-818.7081593735775,466
-816.0112857988148,434
-813.3151536429393,450
-810.6197627345566,470
-807.9251129021936,445
-805.2312039742981,450
-802.5380357792392,454
-799.8456081453069,441
-797.1539209007124,454
-794.462973873588,456
-791.772766891987,452
-789.083299783884,461
-786.3945723771743,455
-783.7065844996748,458
-781.0193359791231,446
-778.3328266431781,450
-775.6470563194197,458
-772.9620248353489,463
-770.2777320183878,450
-767.5941776958798,443
-764.9113616950891,493
-762.2292838432011,463
-759.5479439673222,451
-756.8673418944801,457
-754.1874774516235,483
-751.5083504656222,463
-748.8299607632671,458
-746.15230817127,464
-743.475392516264,474
-740.7992136248035,477
-738.1237713233636,486
-735.4490654383407,471
-732.7750957960521,446
-730.1018622227365,497
-727.4293645445534,482
-724.7576025875837,472
-722.0865761778291,473
-719.4162851412126,471
-716.7467293035781,482
-714.0779084906909,454
-711.409822528237,490
-708.7424712418238,490
-706.0758544569796,483
-703.4099719991541,486
-700.7448236937178,476
-698.0804093659622,477
-695.4167288411002,501
-692.7537819442656,484
-690.0915685005134,491
-687.4300883348199,474
-684.7693412720819,485
-682.1093271371178,478
-679.4500457546669,471
-676.7914969493897,494
-674.1336805458676,485
-671.4765963686034,475
-668.8202442420206,505
-666.1646239904642,509
-663.5097354382001,498
-660.8555784094151,497
-658.2021527282176,511
-655.5494582186366,491
-652.8974947046223,487
-650.2462620100463,489
-647.5957599587009,484
-644.9459883742998,509
-642.2969470804776,530
-639.6486359007902,493
-637.0010546587141,523
-634.3542031776476,511
-631.7080812809096,534
-629.0626887917401,528
-626.4180255333008,552
-623.7740913286734,535
-621.1308860008619,548
-618.4884093727904,527
-615.8466612673046,531
-613.2056415071715,521
-610.5653499150785,494
-607.9257863136347,508
-605.28695052537,519
-602.6488423727357,539
-600.0114616781036,539
-597.3748082637674,515
-594.7388819519412,546
-592.1036825647604,549
-589.4692099242818,547
-586.8354638524829,531
-584.2024441712624,563
-581.5701507024403,528
-578.9385832677575,529
-576.3077416888759,572
-573.6776257873787,554
-571.0482353847704,542
-568.4195703024757,552
-565.7916303618415,542
-563.164415384135,541
-560.5379251905453,538
-557.9121596021815,553
-555.2871184400748,586
-552.6628015251767,581
-550.0392086783606,585
-547.4163397204204,554
-544.794194472071,561
-542.1727727539491,567
-539.5520743866118,588
-536.9320991905377,602
-534.3128469861261,626
-531.6943175936979,607
-529.0765108334947,667
-526.4594265256793,700
-523.8430644903358,833
-521.2274245474689,893
-518.612506517005,957
-515.9983102187913,1042
-513.3848354725959,1245
-510.77208209810846,1435
-508.16004991493924,1550
-505.5487387426199,1534
-502.9381484006032,1494
-500.3282787082628,1281
-497.71912948489364,1099
-495.1107005497117,921
-492.5029917218539,828
-489.8960028203786,759
-487.28973366426493,692
-484.68418407241325,658
-482.07935386364494,627
-479.47524285670266,645
-476.87185087025,641
-474.2691777228715,658
-471.66722323307334,666
-469.0659872192821,675
-466.4654694998459,673
-463.86566989303384,628
-461.26658821703614,638
-458.66822428996414,667
-456.07057792985,657
-453.4736489546475,662
-450.877437182231,665
-448.28194243039627,657
-445.68716451686,650
-443.09310325926003,683
-440.49975847515555,650
-437.9071299820263,679
-435.31521759727354,655
-432.72402113821954,664
-430.13354042210767,713
-427.5437752661022,717
-424.95472548728867,689
-422.36639090267386,684
-419.7787713291855,713
-417.1918665836721,710
-414.60567648290385,733
-412.0202008435715,672
-409.4354394822874,691
-406.8513922155845,740
-404.26805885991723,768
-401.685439231661,711
-399.103533147112,769
-396.522340422488,751
-393.9418608739278,726
-391.3620943174908,736
-388.7830405691583,729
-386.2046994448317,684
-383.6270707603344,675
-381.05015433141045,680
-378.473949973725,627
-375.8984575028645,627
-373.32367673433623,579
-370.74960748356875,549
-368.1762495659117,536
-365.60360279663576,541
-363.03166699093265,491
-360.4604419639154,480
-357.8899275306178,456
-355.32012350599507,441
-352.7510297049233,433
-350.1826459421999,442
-347.61497203254316,440
-345.04800779059235,424
-342.4817530309082,446
-339.91620756797226,473
-337.35137121618743,481
-334.7872437898774,455
-332.22382510328725,469
-329.66111497058273,430
-327.09911320585127,469
-324.53781962310075,474
-321.9772340362607,484
-319.4173562591816,472
-316.8581861056348,426
-314.2997233893127,420
-311.7419679238294,418
-309.1849195227194,449
-306.62857799943856,470
-304.0729431673641,492
-301.51801483979375,501
-298.963792829947,464
-296.41027695096386,490
-293.85746701590574,506
-291.3053628377552,505
-288.7539642294155,551
-286.2032710037115,526
-283.65328297338897,500
-281.1039999511146,530
-278.5554217494762,538
-276.007548180983,538
-273.4603790580651,531
-270.9139141930734,513
-268.3681533982807,490
-265.8230964858798,498
-263.27874326798565,539
-260.7350935566336,527
-258.1921471637804,542
-255.6499039013039,467
-253.10836358100266,536
-250.56752601459698,520
-248.02739101372765,568
-245.48795838995704,589
-242.94922795476816,565
-240.41119951956557,529
-237.8738728956746,608
-235.33724789434166,630
-232.80132432673452,586
-230.2661020039418,576
-227.73158073697357,564
-225.19776033676033,668
-222.66464061415422,713
-220.1322213799284,653
-217.60050244477725,624
-215.06948361931552,611
-212.53916471408013,607
-210.00954553952818,641
-207.48062590603843,636
-204.9524056239104,634
-202.4248845033651,671
-199.8980623545441,668
-197.37193898751036,626
-194.84651421224817,624
-192.32178783866232,662
-189.79775967657952,702
-187.27442953574644,779
-184.7517972258321,778
-182.2298625564256,714
-179.7086253370378,681
-177.18808537710026,666
-174.66824248596583,654
-172.14909647290835,763
-169.6306471471229,829
-167.11289431772548,703
-164.59583779375328,694
-162.07947738416453,698
-159.5638128978386,797
-157.04884414357605,981
-154.53457093009854,1070
-152.02099306604828,1001
-149.50811035998936,724
-146.99592262040665,711
-144.48442965570587,713
-141.97363127421409,869
-139.46352728417958,997
-136.95411749377126,1130
-134.44540171107985,1014
-131.93737974411636,796
-129.43005140081357,831
-126.92341648902493,1259
-124.41747481652521,1528
-121.91222619101006,1963
-119.40767042009657,2551
-116.90380731132257,3272
-114.40063667214702,3049
-111.8981583099503,2403
-109.3963720320337,1743
-106.89527764561933,1520
-104.39487495785067,1571
-101.89516377579241,2666
-99.39614390642998,3398
-96.89781515667039,3704
-94.40017733334128,3270
-91.90323024319173,3042
-89.40697369289148,3730
-86.91140748903172,5002
-84.41653143812482,5509
-81.92234534660395,4618
-79.42884902082358,3716
-76.93604226705907,5402
-74.4439248915071,9667
-71.95249670028534,14123
-69.46175749943245,15597
-66.97170709490854,14986
-64.48234529259423,12676
-61.99367189829195,10289
-59.50568671772464,7376
-57.01838955653636,5815
-54.53178022029283,5469
-52.045858514480074,4718
-49.560624244506016,5420
-47.07607721569923,6482
-44.59221723330904,7090
-42.10904410250669,6627
-39.62655762838392,6008
-37.14475761595372,6085
-34.66364387015028,6111
-32.18321619582866,6333
-29.70347439776515,6878
-27.224418280657005,7830
-24.74604764912317,8981
-22.26836230770266,13369
-19.7913620608565,23843
-17.315046712966478,41971
-14.83941606833514,59024
-12.36446993118659,65038
-9.89020810566592,65038
-7.416630395839093,65038
-4.94373660569363,65038
-2.471526539137585,65038
-6.821210263296962E-13,65038
2.47084320796705,65038
4.941003281093458,65038
7.410480415786196,65038
9.879274808531363,65038
12.347386655893956,65038
14.814816154518212,65038
17.28156350112681,65038
19.74762889252179,65038
22.21301252558385,65038
24.67771459727237,20321
27.141735304626195,3528
29.605074844762612,2021
32.06773341487792,1598
34.52971121224755,1557
36.99100843422559,1656
39.45162527824516,1573
41.91156194181792,1392
44.370818622535126,1392
46.82939551806646,1128
49.287292826160524,1205
51.74451074464503,1252
54.201049471426245,1177
56.65690920448981,1168
59.112090141899785,1022
61.56659248179983,916
64.02041642241159,813
66.4735621620365,843
68.92602989905402,799
71.37781983192338,911
73.82893215918205,906
76.27936707944684,918
78.72912479141326,886
81.17820549385567,984
83.62660938562783,1018
86.07433666566146,1101
88.5213875329681,825
90.96776218663751,781
93.41346082583925,803
95.85848364982041,858
98.30283085790859,977
100.7465026495089,944
103.18949922410604,881
105.63182078126385,839
108.07346752062438,918
110.51443964190923,783
112.95473734491827,715
115.39436082953114,736
117.83331029570547,842
120.27158594347827,827
122.7091879729652,841
125.1461165843615,847
127.58237197794062,905
130.01795435405518,774
132.4528639131364,719
134.88710085569494,711
137.32066538231982,685
139.75355769367923,704
142.1857779905207,702
144.61732647366978,700
147.04820334403132,778
149.47840880258934,791
151.90794305040674,768
154.33680628862487,831
156.76499871846443,1029
159.19252054122433,1038
161.61937195828352,1119
164.04555317109896,1192
166.47106438120693,1253
168.89590579022217,1424
171.320077599839,1467
173.7435800118302,1420
176.16641322804742,1467
178.58857745042144,1589
181.01007288096173,1685
183.43089972175687,1585
185.85105817497413,1650
188.27054844285988,1626
190.6893707277394,1734
193.10752523201643,1729
195.5250121581745,1745
197.9418317087751,1710
200.3579840864594,1740
202.7734694939469,1697
205.18828813403627,1739
207.6024402096051,1858
210.01592592360964,1988
212.42874547908548,1894
214.84089907914665,1941
217.2523869269868,1892
219.66320922587727,1819
222.0733661791695,1850
224.48285799029293,1776
226.8916848627572,1755
229.29984700014882,1882
231.7073446061355,1979
234.11417788446204,1819
236.520347038953,1860
238.92585227351185,1871
241.33069379212054,1855
243.73487179884035,1866
246.1383864978112,1903
248.541238093252,1849
250.9434267894609,1864
253.34495279081432,1838
255.74581630176783,1831
258.1460175268563,1787
260.54555667069314,1876
262.9444339379703,1828
265.3426495334594,1873
267.7402036620107,1940
270.1370965285529,1901
272.53332833809407,1977
274.9288992957214,1826
277.32380960660055,1756
279.718059475976,1919
282.1116491091717,1971
284.5045787115897,1900
286.89684848871195,1894
289.2884586460981,1906
291.67940938938807,1906
294.0697009242996,1985
296.4593334566299,1998
298.84830719225477,1900
301.23662233712923,1990
303.6242790972866,1932
306.01127767884,1920
308.39761828798066,1903
310.78330113097934,1874
313.16832641418534,1868
315.5526943440269,1847
317.9364051270112,1830
320.3194589697242,1814
322.70185607883093,1833
325.0835966610754,1840
327.4646809232805,1734
329.8451090723478,1743
332.2248813152577,1723
334.6039978590701,1816
336.9824589109231,1684
339.36026467803447,1731
341.7374153677,1702
344.113911187295,1763
346.48975234427337,1735
348.8649390461686,1702
351.2394715005918,1660
353.61334991523415,1683
355.9865744978655,1678
358.35914545633375,1697
360.73106299856715,1663
363.10232733257146,1650
365.47293866643247,1605
367.84289720831396,1662
370.2122031664593,1568
372.5808567491905,1626
374.9488581649083,1598
377.31620762209275,1546
379.6829053293021,1577
382.0489514951745,1563
384.4143463284262,1606
386.7790900378528,1554
389.14318283232853,1605
391.50662492080653,1634
393.86941651231916,1556
396.23155781597745,1641
398.5930490409713,1583
400.9538903965696,1645
403.3140820921202,1541
405.6736243370498,1559
408.03251734086336,1564
410.3907613131465,1619
412.74835646356166,1519
415.10530300185144,1554
417.4616011378372,1641
419.81725108141893,1510
422.1722530425758,1524
424.5266072313656,1583
426.880313857925,1599
429.2333731324701,1523
431.58578526529516,1539
433.9375504667738,1490
436.2886689473588,1574
438.63914091758113,1579
440.9889665880513,1495
443.33814616945835,1471
445.68667987257015,1450
448.03456790823395,1593
450.3818104873759,1515
452.72840782100013,1509
455.07436012019105,1458
457.41966759611057,1506
459.7643304600007,1501
462.10834892318155,1481
464.4517231970525,1476
466.79445349309174,1457
469.1365400228566,1538
471.4779829979826,1491
473.81878263018564,1527
476.15893913125876,1421
478.4984527130747,1530
480.8373235875855,1615
483.17555196682144,1591
485.5131380628919,1573
487.8500820879857,1676
490.1863842543697,1658
492.52204477439034,1809
494.8570638604725,1906
497.1914417251204,1976
499.52517858091653,2291
501.85827464052306,2698
504.19073011668036,3375
506.5225452222086,3975
508.85372017000566,4240
511.18425517304956,4416
513.514150444396,4437
515.8434061971808,4647
518.1720226446176,5293
520.4999999999999,5083
522.8273384766991,4539
525.1540382881666,4023
527.480099647932,3364
529.8055227696037,2828
532.1303078668694,2255
534.454455153496,1949
536.777964843328,1828
539.1008371502907,1746
541.4230722883866,1656
543.744670471698,1670
546.0656319143858,1651
548.3859568306899,1589
550.7056454349294,1616
553.0246979415016,1539
555.3431145648834,1513
557.6608955196306,1579
559.978041020377,1545
562.2945512818363,1527
564.6104265188006,1574
566.9256669461412,1631
569.2402727788082,1612
571.5542442318302,1583
573.8675815203156,1575
576.1802848594508,1596
578.4923544645015,1601
580.8037905508126,1689
583.114593333807,1625
585.4247630289875,1627
587.7342998519354,1596
590.0432040183106,1604
592.3514757438526,1607
594.6591152443794,1636
596.9661227357875,1643
599.2724984340531,1598
601.578242555231,1555
603.8833553154542,1633
606.1878369309362,1679
608.4916876179676,1685
610.7949075929192,1621
613.0974970722403,1645
615.3994562724587,1601
617.7007854101818,1548
620.0014847020951,1630
622.3015543649641,1580
624.6009946156324,1599
626.8998056710224,1558
629.1979877481361,1589
631.4955410640538,1583
633.7924658359349,1602
636.0887622810175,1539
638.3844306166192,1523
640.6794710601358,1573
642.9738838290426,1644
645.2676691408932,1664
647.5608272133207,1610
649.853358264037,1663
652.1452625108324,1583
654.4365401715764,1602
656.7271914642178,1556
659.0172166067838,1643
661.3066158173809,1555
663.5953893141935,1558
665.8835373154867,1574
668.1710600396028,1586
670.4579577049639,1579
672.7442305300709,1618
675.0298787335033,1584
677.3149025339197,1494
679.599302150058,1510
681.8830778007342,1606
684.1662297048437,1660
686.4487580813608,1538
688.7306631493387,1590
691.0119451279091,1541
693.2926042362834,1531
695.5726406937516,1555
697.8520547196814,1601
700.1308465335215,1564
702.4090163547982,1529
704.6865644031171,1573
706.9634908981619,1564
709.2397960596965,1578
711.5154801075631,1595
713.7905432616823,1533
716.0649857420548,1589
718.3388077687592,1598
720.612009561953,1584
722.8845913418733,1543
725.1565533288352,1534
727.427895743234,1499
729.6986188055427,1586
731.9687227363137,1583
734.238207756178,1620
736.5070740858458,1556
738.7753219461066,1601
741.0429515578281,1549
743.3099631419569,1616
745.5763569195191,1619
747.8421331116193,1546
750.1072919394409,1620
752.3718336242467,1571
754.6357583873777,1597
756.8990664502545,1583
759.1617580343765,1554
761.423833361321,1602
763.6852926527457,1545
765.9461361303862,1601
768.206364016058,1576
770.4659765316536,1596
772.7249738991469,1584
774.9833563405886,1606
777.2411240781092,1625
779.4982773339183,1670
781.7548163303044,1641
784.010741289634,1623
786.2660524343538,1711
788.5207499869881,1549
790.7748341701416,1671
793.0283052064964,1663
795.2811633188143,1711
797.5334087299362,1641
799.7850416627813,1619
802.0360623403484,1655
804.2864709857143,1670
806.5362678220353,1629
808.7854530725468,1690
811.0340269605625,1619
813.2819897094754,1641
815.5293415427581,1649
817.77608268396,1601
820.0222133567116,1622
822.2677337847211,1631
824.5126441917765,1580
826.7569448017433,1608
829.0006358385675,1610
831.2437175262731,1638
833.4861900889629,1599
835.7280537508192,1597
837.9693087361026,1650
840.2099552691533,1643
842.4499935743896,1582
844.689423876309,1605
846.9282463994886,1629
849.1664613685833,1598
851.4040690083276,1655
853.6410695435349,1612
855.877463199097,1583
858.1132501999847,1615
860.3484307712487,1621
862.5830051380175,1609
864.8169735254988,1637
867.0503361589791,1634
869.2830932638243,1648
871.5152450654786,1697
873.7467917894654,1669
875.9777336613873,1590
878.2080709069252,1658
880.4378037518389,1663
882.666932421968,1722
884.8954571432301,1672
887.1233781416219,1684
889.3506956432192,1657
891.5774098741766,1633
893.803521060728,1643
896.0290294291852,1670
898.2539352059397,1714
900.4782386174619,1650
902.7019398903011,1621
904.925039251085,1658
907.147536926521,1709
909.3694331433943,1697
911.59072812857,1681
913.8114221089921,1739
916.0315153116827,1690
918.2510079637437,1687
920.4699002923547,1675
922.6881925247761,1563
924.905884888345,1660
927.1229776104793,1710
929.3394709186747,1722
931.555365040506,1692
933.7706602036275,1673
935.9853566357709,1655
938.1994545647489,1698
940.4129542184515,1717
942.6258558248488,1717
944.8381596119883,1655
947.0498658079974,1638
949.2609746410825,1730
951.4714863395287,1704
953.6814011316998,1686
955.8907192460387,1695
958.0994409110671,1673
960.3075663553858,1637
962.5150958076741,1679
964.7220294966913,1632
966.928367651274,1624
969.1341105003388,1613
971.3392582728806,1601
973.5438111979742,1577
975.747769504772,1573
977.9511334225061,1594
980.153903180487,1558
982.3560790081052,1475
984.5576611348289,1569
986.7586497902058,1544
988.9590452038618,1554
991.158847605503,1548
993.3580572249133,1540
995.5566742919558,1494
997.7546990365728,1445
999.952131688785,1486
1002.1489724786926,1487
1004.3452216364743,1423
1006.5408793923874,1415
1008.7359459767691,1374
1010.9304216200343,1391
1013.1243065526781,1370
1015.3176010052733,1349
1017.510305208472,1306
1019.7024193930064,1357
1021.8939437896848,1350
1024.0848786293977,1387
1026.2752241431122,1308
1028.4649805618747,1284
1030.6541481168115,1395
1032.842727039127,1331
1035.0307175601051,1259
1037.2181199111074,1313
1039.4049343235752,1269
1041.591161029029,1270
1043.7768002590683,1332
1045.9618522453698,1269
1048.1463172196918,1273
1050.3301954138697,1286
1052.513487059818,1309
1054.69619238953,1273
1056.8783116350783,1326
1059.0598450286152,1347
1061.2407928023704,1272
1063.4211551886528,1228
1065.6009324198508,1280
1067.780124728432,1321
1069.9587323469414,1263
1072.1367555080046,1278
1074.314194444325,1302
1076.4910493886855,1267
1078.667320573947,1247
1080.843008233051,1200
1083.0181125990161,1238
1085.1926339049414,1244
1087.3665723840027,1303
1089.5399282694575,1203
1091.7127017946405,1163
1093.8848931929647,1224
1096.0565026979243,1249
1098.2275305430899,1268
1100.3979769621128,1186
1102.567842188722,1243
1104.737126456726,1154
1106.9058300000124,1196
1109.0739530525475,1185
1111.2414958483764,1267
1113.4084586216231,1228
1115.5748416064907,1161
1117.7406450372605,1196
1119.9058691482942,1185
1122.0705141740304,1210
1124.2345803489884,1190
1126.3980679077658,1252
1128.5609770850388,1213
1130.7233081155623,1202
1132.8850612341707,1227
1135.0462366757774,1156
1137.2068346753745,1184
1139.3668554680326,1258
1141.526299288901,1202
1143.68516637321,1158
1145.8434569562655,1187
1148.001171273455,1198
1150.158309560244,1194
1152.3148720521767,1182
1154.470858984876,1195
1156.626270594044,1182
1158.7811071154629,1213
1160.9353687849912,1195
1163.089055838569,1245
1165.242168512213,1220
1167.3947070420209,1164
1169.5466716641677,1180
1171.6980626149075,1184
1173.8488801305748,1115
1175.9991244475814,1164
1178.1487958024186,1173
1180.2978944316555,1188
1182.4464205719428,1158
1184.5943744600072,1152
1186.7417563326567,1156
1188.8885664267755,1175
1191.0348049793297,1129
1193.1804722273619,1134
1195.325568407995,1167
1197.4700937584303,1191
1199.614048515948,1186
1201.7574329179074,1118
1203.900247201746,1134
1206.042491604982,1183
1208.1841663652099,1132
1210.3252717201053,1133
1212.465807907422,1166
1214.6057751649923,1193
1216.7451737307279,1197
1218.8840038426192,1164
1221.0222657387353,1178
1223.1599596572241,1134
1225.2970858363137,1191
1227.4336445143094,1192
1229.5696359295966,1147
1231.705060320639,1173
1233.8399179259786,1218
1235.9742089842384,1162
1238.107933734118,1191
1240.2410924143974,1228
1242.373685263935,1224
1244.5057125216676,1173
1246.6371744266116,1161
1248.7680712178621,1180
1250.898403134593,1160
1253.028170416058,1132
1255.1573733015875,1229
1257.2860120305932,1129
1259.4140868425648,1168
1261.54159797707,1171
1263.6685456737569,1146
1265.7949301723515,1182
1267.9207517126597,1160
1270.046010534565,1194
1272.1707068780306,1170
1274.2948409830983,1168
1276.4184130898889,1177
1278.541423438603,1198
1280.6638722695184,1160
1282.785759822993,1218
1284.9070863394636,1217
1287.0278520594447,1171
1289.1480572235314,1190
1291.2677020723963,1180
1293.3867868467923,1194
1295.5053117875495,1177
1297.623277135579,1258
1299.740683131868,1209
1301.8575300174857,1154
1303.973818033578,1191
1306.0895474213703,1194
1308.2047184221678,1200
1310.3193312773528,1217
1312.4333862283888,1208
1314.5468835168163,1202
1316.659823384255,1217
1318.7722060724045,1150
1320.8840318230418,1201
1322.9953008780249,1160
1325.1060134792888,1180
1327.2161698688478,1122
1329.3257702887959,1195
1331.4348149813054,1168
1333.5433041886276,1126
1335.6512381530933,1185
1337.7586171171101,1191
1339.8654413231675,1214
1341.9717110138317,1170
1344.0774264317488,1199
1346.1825878196432,1197
1348.2871954203192,1221
1350.3912494766587,1190
1352.4947502316231,1156
1354.5976979282532,1165
1356.7000928096686,1213
1358.8019351190665,1172
1360.9032250997243,1186
1363.0039629949988,1205
1365.1041490483235,1184
1367.2037835032133,1189
1369.3028666032606,1254
1371.401398592137,1170
1373.4993797135926,1166
1375.5968102114575,1213
1377.6936903296396,1238
1379.7900203121262,1197
1381.8858004029835,1240
1383.9810308463561,1214
1386.075711886469,1242
1388.1698437676241,1180
1390.2634267342032,1186
1392.356461030667,1198
1394.4489469015557,1232
1396.5408845914872,1164
1398.6322743451592,1193
1400.7231164073469,1243
1402.813411022907,1220
1404.903158436773,1226
1406.9923588939578,1238
1409.0810126395531,1224
1411.1691199187303,1210
1413.2566809767386,1191
1415.343696058907,1240
1417.4301654106425,1174
1419.5160892774315,1208
1421.6014679048399,1268
1423.6863015385125,1199
1425.7705904241707,1194
1427.8543348076178,1182
1429.9375349347342,1190
1432.0201910514802,1214
1434.102303403894,1260
1436.1838722380944,1229
1438.2648978002767,1206
1440.3453803367174,1248
1442.4253200937692,1259
1444.5047173178677,1224
1446.5835722555234,1274
1448.6618851533285,1226
1450.739656257952,1226
1452.8168858161434,1273
1454.8935740747306,1243
1456.96972128062,1258
1459.045327680797,1256
1461.120393522327,1255
1463.1949190523528,1169
1465.2689045180973,1259
1467.3423501668608,1202
1469.415256246024,1217
1471.4876230030463,1259
1473.559450685465,1248
1475.6307395408976,1260
1477.7014898170391,1227
1479.771701761665,1223
1481.8413756226287,1215
1483.9105116478618,1279
1485.9791100853772,1229
1488.0471711832643,1258
1490.1146951896926,1281
1492.1816823529098,1257
1494.2481329212433,1219
1496.3140471430984,1205
1498.3794252669609,1212
1500.4442675413939,1234
1502.5085742150404,1255
1504.572345536622,1207
1506.6355817549388,1289
1508.6982831188702,1205
1510.7604498773744,1195
1512.8220822794883,1297
1514.8831805743293,1252
1516.9437450110909,1272
1519.003775839048,1267
1521.0632733075522,1327
1523.1222376660367,1245
1525.1806691640113,1244
1527.2385680510652,1254
1529.2959345768668,1251
1531.3527689911643,1260
1533.4090715437833,1242
1535.4648424846291,1297
1537.5200820636855,1226
1539.5747905310159,1267
1541.6289681367616,1366
1543.6826151311434,1290
1545.7357317644614,1290
1547.7883182870937,1235
1549.8403749494987,1292
1551.8919020022113,1246
1553.9428996958477,1295
1555.9933682811015,1258
1558.0433080087469,1249
1560.0927191296346,1293
1562.1416018946961,1306
1564.1899565549415,1295
1566.2377833614592,1297
1568.2850825654164,1271
1570.3318544180606,1256
1572.3780991707158,1229
1574.423817074788,1241
1576.4690083817595,1216
1578.5136733431923,1253
1580.5578122107272,1231
1582.601425236085,1270
1584.6445126710646,1243
1586.6870747675434,1250
1588.7291117774776,1291
1590.7706239529034,1263
1592.8116115459347,1201
1594.8520748087658,1226
1596.8920139936686,1277
1598.9314293529933,1277
1600.9703211391711,1231
1603.008689604711,1254
1605.0465350022005,1290
1607.0838575843068,1229
1609.1206576037753,1289
1611.1569353134305,1276
1613.1926909661765,1238
1615.2279248149953,1207
1617.2626371129481,1235
1619.2968281131757,1297
1621.3304980688963,1242
1623.3636472334088,1250
1625.39627586009,1243
1627.428384202396,1202
1629.459972513861,1209
1631.4910410480993,1229
1633.5215900588028,1243
1635.551619799744,1234
1637.5811305247717,1207
1639.6101224878166,1240
1641.6385959428862,1199
1643.6665511440683,1242
1645.693988345528,1231
1647.7209078015112,1187
1649.7473097663405,1173
1651.7731944944203,1236
1653.7985622402307,1247
1655.823413258333,1164
1657.847747803366,1211
1659.8715661300494,1239
1661.8948684931793,1192
1663.9176551476316,1233
1665.9399263483624,1195
1667.9616823504057,1178
1669.982923408873,1242
1672.0036497789574,1236
1674.0238617159293,1242
1676.043559475138,1207
1678.0627433120121,1194
1680.081413482059,1182
1682.0995702408654,1203
1684.117213844096,1209
1686.134344547495,1198
1688.1509626068864,1197
1690.1670682781705,1270
1692.182661817329,1254
1694.1977434804217,1197
1696.2123135235875,1235
1698.226372203043,1132
1700.2399197750851,1182
1702.2529564960905,1228
1704.2654826225112,1255
1706.277498410882,1240
1708.2890041178139,1238
1710.2999999999988,1221
1712.3104863142066,1189
1714.3204633172854,1194
1716.329931266163,1160
1718.3388904178469,1222
1720.3473410294214,1190
1722.3552833580516,1227
1724.3627176609807,1206
1726.3696441955308,1202
1728.3760632191033,1257
1730.3819749891782,1252
1732.3873797633146,1234
1734.3922777991502,1279
1736.3966693544012,1215
1738.4005546868639,1234
1740.4039340544127,1255
1742.406807715001,1192
1744.4091759266616,1180
1746.4110389475054,1171
1748.4123970357223,1204
1750.413250449582,1242
1752.4135994474318,1243
1754.4134442876993,1223
1756.4127852288902,1188
1758.4116225295893,1187
1760.4099564484595,1202
1762.407787244244,1240
1764.405115175764,1179
1766.4019405019203,1203
1768.3982634816916,1248
1770.3940843741357,1193
1772.3894034383907,1226
1774.3842209336717,1202
1776.378537119274,1218
1778.372352254571,1219
1780.3656665990156,1193
1782.3584804121397,1203
1784.3507939535534,1214
1786.3426074829463,1209
1788.3339212600863,1203
1790.3247355448211,1181
1792.3150505970766,1218
1794.3048666768573,1162
1796.2941840442477,1207
1798.2830029594106,1206
1800.2713236825884,1208
1802.2591464741004,1212
1804.2464715943465,1226
1806.2332993038058,1256
1808.2196298630352,1184
1810.2054635326708,1215
1812.190800573428,1274
1814.175641246101,1197
1816.1599858115628,1160
1818.1438345307652,1233
1820.127187664738,1269
1822.1100454745924,1231
1824.092408221516,1230
1826.0742761667766,1290
1828.055649571721,1238
1830.0365286977735,1246
1832.0169138064398,1242
1833.9968051593014,1182
1835.9762030180214,1222
1837.9551076443408,1256
1839.9335193000788,1251
1841.9114382471344,1227
1843.888864747485,1267
1845.8657990631878,1153
1847.842241456378,1177
1849.8181921892697,1164
1851.7936515241558,1222
1853.7686197234098,1191
1855.7430970494815,1271
1857.7170837649014,1137
1859.6905801322787,1218
1861.6635864143004,1254
1863.6361028737338,1220
1865.608129773424,1210
1867.5796673762961,1243
1869.5507159453537,1215
1871.521275743678,1251
1873.4913470344313,1184
1875.4609300808534,1203
1877.4300251462632,1207
1879.3986324940588,1207
1881.366752387717,1163
1883.3343850907936,1236
1885.3015308669228,1224
1887.268189979819,1161
1889.2343626932739,1231
1891.2000492711595,1250
1893.1652499774254,1216
1895.1299650761011,1259
1897.0941948312952,1223
1899.0579395071945,1243
1901.0211993680641,1239
1902.98397467825,1205
1904.9462657021745,1207
1906.9080727043415,1245
1908.869395949332,1225
1910.8302357018065,1236
1912.790592226504,1202
1914.7504657882428,1196
1916.7098566519212,1162
1918.6687650825133,1206
1920.6271913450764,1227
1922.5851357047422,1224
1924.5425984267245,1238
1926.499579776314,1246
1928.4560800188833,1216
1930.4120994198802,1194
1932.367638244833,1227
1934.32269675935,1218
1936.2772752291175,1236
1938.231373919899,1191
1940.1849930975404,1279
1942.1381330279637,1251
1944.0907939771696,1276
1946.0429762112412,1213
1947.9946799963363,1241
1949.9459055986945,1263
1951.896653284633,1236
1953.8469233205478,1199
1955.7967159729142,1181
1957.7460315082863,1184
1959.6948701932974,1221
1961.6432322946594,1185
1963.5911180791632,1185
1965.5385278136787,1257
1967.4854617651545,1232
1969.4319202006182,1172
1971.377903387176,1226
1973.3234115920136,1187
1975.268445082395,1243
1977.2130041256642,1260
1979.1570889892423,1296
1981.1006999406304,1241
1983.04383724741,1222
1984.986501177238,1239
1986.928691997853,1265
1988.8704099770712,1235
1990.811655382789,1145
1992.7524284829801,1205
1994.692729545698,1240
1996.6325588390755,1244
1998.5719166313224,1210
2000.5108031907307,1236
2002.4492187856677,1256
2004.387163684583,1206
2006.3246381560011,1203
2008.2616424685298,1198
2010.1981768908527,1183
2012.1342416917332,1196
2014.069837140014,1278
2016.0049635046162,1245
2017.9396210545406,1259
2019.8738100588666,1228
2021.8075307867502,1187
2023.740783507431,1247
2025.6735684902228,1219
2027.6058860045214,1205
2029.5377363198004,1250
2031.4691197056118,1241
2033.4000364315875,1205
2035.3304867674374,1154
2037.260470982952,1205
2039.189989347998,1240
2041.1190421325232,1221
2043.047629606554,1240
2044.9757520401945,1246
2046.9034097036288,1191
2048.8306028671195,1187
2050.7573318010086,1205
2052.683596775716,1236
2054.609398061742,1222
2056.5347359296647,1218
2058.4596106501403,1169
2060.384022493906,1224
2062.3079717317764,1206
2064.231458634646,1276
2066.1544834734873,1159
2068.077046519352,1194
2069.99914804337,1188
2071.9207883167524,1195
2073.8419676107865,1201
2075.7626861968406,1227
2077.6829443463607,1240
2079.6027423308715,1240
2081.522080421977,1261
2083.440958891362,1214
2085.359378010786,1148
2087.2773380520907,1216
2089.194839287196,1237
2091.111881988101,1198
2093.0284664268825,1187
2094.9445928756973,1200
2096.86026160678,1201
2098.775472892446,1257
2100.690227005088,1204
2102.604524217178,1220
2104.5183648012676,1207
2106.431749029985,1241
2108.34467717604,1202
2110.2571495122206,1196
2112.169166311393,1232
2114.080727846503,1197
2115.9918343905747,1253
2117.902486216711,1226
2119.8126835980956,1213
2121.722426807987,1230
2123.6317161197285,1227
2125.5405518067364,1225
2127.448934142509,1263
2129.356863400624,1219
2131.264339854737,1223
2133.1713637785815,1210
2135.077935445972,1264
2136.9840551308002,1265
2138.889723107037,1226
2140.7949396487334,1237
2142.699705030018,1261
2144.6040195250994,1234
2146.507883408264,1260
2148.4112969538774,1231
2150.3142604363848,1295
2152.2167741303097,1268
2154.1188383102535,1252
2156.0204532508997,1187
2157.9216192270064,1271
2159.822336513414,1238
2161.7226053850413,1258
2163.622426116884,1291
2165.5217989840185,1249
2167.4207242616,1275
2169.319202224862,1291
2171.2172331491165,1287
2173.1148173097563,1310
2175.0119549822507,1229
2176.90864644215,1249
2178.8048919650823,1267
2180.7006918267534,1287
2182.596046302952,1278
2184.4909556695407,1276
2186.3854202024645,1295
2188.279440177746,1223
2190.173015871487,1237
2192.066147559868,1247
2193.958835519149,1242
2195.851080025667,1289
2197.7428813558417,1286
2199.6342397861667,1214
2201.5251555932186,1263
2203.415629053651,1300
2205.3056604441986,1298
2207.19525004167,1281
2209.084398122958,1320
2210.9731049650327,1254
2212.861370844941,1293
2214.749196039812,1317
2216.636580826851,1299
2218.523525483344,1338
2220.410030286655,1331
2222.296095514226,1285
2224.1817214435805,1327
2226.066908352319,1304
2227.951656518121,1303
2229.835966218746,1310
2231.71983773203,1338
2233.6032713358913,1297
2235.486267308324,1341
2237.3688259274036,1276
2239.2509474712824,1342
2241.132632218193,1358
2243.013880446447,1324
2244.8946924344323,1352
2246.7750684606203,1326
2248.6550088035574,1314
2250.534513741871,1368
2252.413583554265,1318
2254.292218519526,1293
2256.170418916517,1280
2258.0481850241786,1324
2259.925517121534,1365
2261.8024154876825,1287
2263.678880401803,1312
2265.5549121431536,1268
2267.430510991071,1275
2269.305677224971,1298
2271.180411124348,1323
2273.0547129687766,1279
2274.9285830379076,1296
2276.8020216114737,1302
2278.6750289692845,1285
2280.5476053912294,1340
2282.4197511572766,1350
2284.2914665474727,1345
2286.162751841943,1382
2288.0336073208937,1402
2289.904033264608,1407
2291.774029953448,1337
2293.6435976678554,1286
2295.5127366883517,1301
2297.381447295534,1336
2299.2497297700825,1194
2301.1175843927526,1186
2302.9850114443825,1175
2304.852011205885,1156
2306.7185839582553,1186
2308.5847299825664,1175
2310.4504495599676,1108
2312.3157429716925,1086
2314.1806104990483,1127
2316.0450524234247,1097
2317.9090690262888,1060
2319.772660589186,1047
2321.635827393742,1116
2323.498569721661,1105
2325.3608878547248,1128
2327.2227820747967,1114
2329.0842526638157,1080
2330.945299903803,1051
2332.805924076857,1072
2334.6661254651535,1121
2336.525904350951,1075
2338.3852610165827,1036
2340.244195744464,1108
2342.102708817088,1052
2343.9608005170253,1093
2345.8184711269287,1069
2347.675720929526,1097
2349.532550207628,1077
2351.38895924412,1082
2353.24494832197,1053
2355.100517724223,1082
2356.955667734004,1107
2358.810398634514,1046
2360.664710709037,1062
2362.5186042409337,1090
2364.3720795136437,1088
2366.225136810686,1067
2368.0777764156583,1049
2369.929998612237,1084
2371.7818036841777,1083
2373.633191915315,1059
2375.484163589562,1061
2377.3347189909114,1101
2379.184858403434,1094
2381.03458211128,1146
2382.8838903986775,1099
2384.732783549936,1056
2386.5812618494406,1063
2388.4293255816588,1118
2390.2769750311327,1142
2392.1242104824883,1085
2393.971032220427,1091
2395.8174405297295,1124
2397.6634356952563,1103
2399.509018001947,1086
2401.3541877348193,1070
2403.1989451789705,1088
2405.043290619576,1097
2406.8872243418905,1103
2408.730746631247,1082
2410.5738577730594,1113
2412.4165580528183,1151
2414.258847756095,1081
2416.100727168537,1087
2417.9421965758734,1113
2419.783256263912,1048
2421.623906518538,1114
2423.4641476257157,1094
2425.303979871491,1058
2427.143403541984,1110
2428.9824189233977,1140
2430.821026302012,1118
2432.6592259641866,1170
2434.497018196361,1123
2436.33440328505,1089
2438.171381516851,1084
2440.00795317844,1097
2441.844118556569,1093
2443.6798779380724,1107
2445.5152316098606,1110
2447.3501798589255,1135
2449.1847229723357,1112
2451.0188612372403,1101
2452.8525949408663,1077
2454.6859243705203,1092
2456.518849813587,1103
2458.3513715575314,1060
2460.183489889895,1082
2462.015205098301,1088
2463.8465174704493,1147
2465.67742729412,1078
2467.5079348571717,1072
2469.338040447542,1114
2471.1677443532476,1108
2472.9970468623833,1066
2474.825948263123,1090
2476.6544488437207,1074
2478.482548892508,1089
2480.310248697896,1124
2482.137548548374,1113
2483.9644487325118,1139
2485.790949538956,1092
2487.617051256433,1063
2489.44275417375,1050
2491.26805857979,1127
2493.0929647635157,1098
2494.917473013971,1099
2496.741583620276,1101
2498.5652968716304,1084
2500.3886130573137,1102
2502.2115324666834,1097
2504.0340553891765,1090
2505.856182114308,1044
2507.6779129316733,1139
2509.499248130945,1052
2511.3201880018764,1115
2513.140732834298,1092
2514.9608829181198,1137
2516.780638543331,1095
2518.6,1054
2520.418967578273,1075
2522.237541568376,1052
2524.0557222606144,1099
2525.8735099453706,1055
2527.6909049131086,1088
2529.507907454368,1097
2531.32451785977,1074
2533.140736420014,1087
2534.9565634258774,1079
2536.771999168218,1106
2538.5870439379714,1088
2540.4016980261526,1038
2542.2159617238544,1089
2544.02983532225,1098
2545.8433191125914,1130
2547.656413386209,1111
2549.4691184345115,1061
2551.2814345489874,1067
2553.093362021204,1073
2554.904901142808,1096
2556.716052205523,1104
2558.526815501153,1049
2560.3371913215824,1058
2562.147179958771,1082
2563.956781704761,1044
2565.7659968516705,1093
2567.5748256916986,1139
2569.3832685171224,1084
2571.1913256202984,1135
2572.9989972936614,1058
2574.806283829725,1088
2576.613185521084,1098
2578.4197026604074,1089
2580.2258355404483,1101
2582.031584454035,1126
2583.836949694077,1059
2585.6419315535613,1045
2587.4465303255533,1128
2589.2507463032002,1105
2591.0545797797245,1050
2592.8580310484303,1067
2594.6611004026995,1082
2596.463788135992,1088
2598.266094541849,1093
2600.0680199138874,1078
2601.869564545807,1050
2603.670728731383,1102
2605.4715127644704,1073
2607.2719169390048,1057
2609.071941548998,1040
2610.8715868885433,1102
2612.670853251811,1095
2614.469740933052,1091
2616.268250226594,1064
2618.0663814268455,1067
2619.864134828292,1101
2621.6615107255006,1088
2623.458509413115,1098
2625.2551311858597,1082
2627.0513763385347,1083
2628.8472451660223,1098
2630.6427379632833,1113
2632.4378550253564,1041
2634.232596647359,1060
2636.026963124488,1069
2637.8209547520187,1088
2639.6145718253065,1053
2641.407814639785,1126
2643.200683490966,1107
2644.9931786744414,1066
2646.7853004858807,1073
2648.577049221034,1117
2650.3684251757277,1102
2652.1594286458712,1077
2653.9500599274484,1063
2655.740319316525,1093
2657.5302071092437,1056
2659.3197236018286,1085
2661.10886909058,1102
2662.8976438718782,1120
2664.686048242183,1088
2666.4740824980327,1069
2668.2617469360443,1089
2670.0490418529134,1104
2671.8359675454153,1080
2673.622524310403,1125
2675.408712444811,1024
2677.1945322456495,1022
2678.979984010009,1095
2680.76506803506,1111
2682.5497846180497,1091
2684.334134056306,1119
2686.1181166472343,1132
2687.9017326883213,1100
2689.6849824771293,1034
2691.4678663113013,1083
2693.2503844885596,1114
2695.032537306705,1127
2696.8143250636167,1144
2698.5957480572542,1127
2700.3768065856534,1091
2702.1575009469316,1137
2703.937831439283,1085
2705.717798360982,1041
2707.4974020103837,1058
2709.276642685917,1115
2711.055520686095,1074
2712.834036309506,1059
2714.612189854819,1111
2716.389981620782,1082
2718.1674119062204,1073
2719.944481010041,1067
2721.721189231226,1064
2723.4975368688415,1090
2725.273524222027,1101
2727.0491515900053,1046
2728.824419272075,1109
2730.5993275676146,1073
2732.3738767760838,1094
2734.148067197016,1100
2735.921899130031,1146
2737.6953728748194,1080
2739.468488731156,1042
2741.2412469988926,1086
2743.0136479779617,1097
2744.785691968372,1027
2746.5573792702116,1100
2748.3287101836504,1065
2750.099685008934,1082
2751.870304046388,1106
2753.640567596418,1053
2755.4104759595057,1105
2757.1800294362156,1088
2758.949228327187,1095
2760.7180729331412,1077
2762.486563554877,1146
2764.254700493272,1115
2766.022484049284,1113
2767.789914523947,1094
2769.5569922183786,1080
2771.3237174337705,1130
2773.090090471394,1080
2774.8561116326036,1079
2776.6217812188274,1063
2778.3870995315756,1052
2780.1520668724356,1129
2781.9166835430747,1097
2783.6809498452394,1119
2785.444866080754,1088
2787.2084325515225,1116
2788.971649559527,1102
2790.73451740683,1138
2792.4970363955713,1075
2794.2592068279705,1062
2796.0210290063264,1115
2797.7825032330147,1114
2799.543629810493,1049
2801.304409041296,1111
2803.0648412280366,1073
2804.8249266734088,1065
2806.5846656801846,1085
2808.344058551212,1073
2810.1031055894246,1120
2811.8618070978273,1076
2813.6201633795085,1086
2815.378174737636,1057
2817.1358414754536,1087
2818.893163896285,1116
2820.6501423035334,1088
2822.4067770006814,1082
2824.1630682912883,1102
2825.9190164789957,1063
2827.6746218675207,1079
2829.429884760661,1124
2831.184805462294,1103
2832.9393842763743,1105
2834.693621506936,1101
2836.4475174580916,1130
2838.201072434034,1120
2839.954286739034,1122
2841.707160677441,1127
2843.459694553685,1117
2845.2118886722724,1099
2846.96374333779,1127
2848.7152588549034,1090
2850.4664355283567,1094
2852.217273662973,1139
2853.9677735636546,1110
2855.7179355353833,1098
2857.4677598832186,1095
2859.217246912299,1088
2860.9663969278427,1069
2862.715210235146,1092
2864.4636871395846,1125
2866.211827946614,1114
2867.9596329617652,1099
2869.7071024906536,1123
2871.4542368389684,1111
2873.20103631248,1105
2874.947501217038,1054
2876.6936318585695,1128
2878.4394285430812,1126
2880.1848915766604,1097
2881.9300212654707,1102
2883.6748179157553,1141
2885.4192818338374,1086
2887.1634133261173,1098
2888.907212699077,1101
2890.6506802592744,1088
2892.393816313348,1100
2894.1366211680142,1100
2895.8790951300693,1080
2897.621238506388,1137
2899.363051603925,1116
2901.1045347297118,1120
2902.8456881908596,1088
2904.58651229456,1084
2906.327007348081,1124
2908.067173658772,1133
2909.8070115340597,1090
2911.5465212814497,1126
2913.285703208527,1104
2915.0245576229563,1146
2916.7630848324807,1092
2918.5012851449196,1144
2920.2391588681758,1074
2921.976706310227,1123
2923.7139277791334,1067
2925.4508235830313,1078
2927.187394030137,1097
2928.923639428745,1110
2930.6595600872306,1121
2932.395156314046,1097
2934.1304284177218,1108
2935.8653767068713,1162
2937.6000014901815,1129
2939.3343030764227,1097
2941.068281774442,1112
2942.8019378931644,1094
2944.5352717415976,1139
2946.2682836288236,1066
2948.0009738640065,1124
2949.7333427563885,1119
2951.465390615289,1135
2953.1971177501086,1089
2954.9285244703265,1114
2956.6596110855,1064
2958.3903779052657,1101
2960.1208252393385,1143
2961.8509533975125,1088
2963.5807626896617,1143
2965.3102534257378,1055
2967.0394259157715,1049
2968.768280469873,1049
2970.496817398232,1063
2972.2250370111146,1099
2973.952939618869,1086
2975.6805255319196,1138
2977.4077950607707,1101
2979.134748516006,1136
2980.861386208289,1088
2982.587708448359,1144
2984.313715547037,1099
2986.039407815222,1165
2987.764785563891,1073
2989.489849104102,1106
2991.2145987469908,1119
2992.9390348037705,1084
2994.6631575857346,1089
2996.3869674042576,1089
2998.1104645707887,1092
2999.83364939686,1085
3001.5565221940783,1109
3003.2790832741334,1120
3005.0013329487924,1098
3006.7232715298996,1086
3008.4448993293804,1068
3010.166216659239,1069
3011.887223831558,1112
3013.607921158498,1084
3015.3283089522993,1084
3017.0483875252826,1067
3018.7681571898443,1103
3020.4876182584626,1081
3022.2067710436927,1087
3023.9256158581707,1089
3025.644153014609,1098
3027.362382825801,1114
3029.0803056046193,1029
3030.797921664012,1057
3032.5152313170106,1079
3034.2322348767225,1085
3035.9489326563353,1073
3037.665324969115,1055
3039.3814121284063,1097
3041.097194447633,1080
3042.812672240299,1095
3044.5278458199855,1068
3046.2427155003525,1101
3047.9572815951406,1050
3049.671544418167,1042
3051.38550428333,1094
3053.0991615046073,1050
3054.812516396051,1059
3056.5255692717974,1092
3058.2383204460575,1088
3059.9507702331257,1030
3061.662918947372,1125
3063.3747669032446,1080
3065.0863144152736,1103
3066.7975617980674,1144
3068.508509366309,1079
3070.219157434767,1111
3071.9295063182844,1084
3073.639556331785,1085
3075.3493077902704,1074
3077.058761008821,1059
3078.7679163025964,1096
3080.476773986837,1034
3082.1853343768594,1077
3083.89359778806,1090
3085.6015645359153,1121
3087.3092349359786,1096
3089.016609303884,1077
3090.7236879553434,1092
3092.4304712061476,1098
3094.136959372166,1100
3095.843152769349,1103
3097.5490517137237,1055
3099.2546565213966,1099
3100.959967508554,1087
3102.66498499146,1044
3104.3697092864577,1070
3106.0741407099695,1071
3107.778279578498,1036
3109.482126208622,1110
3111.1856809170004,1075
3112.8889440203716,1124
3114.5919158355528,1088
3116.294596679439,1104
3117.996986869006,1016
3119.6990867213062,1092
3121.4008965534726,1123
3123.102416682717,1075
3124.803647426329,1077
3126.5045891016784,1087
3128.205242026213,1106
3129.90560651746,1097
3131.605682893025,1067
3133.3054714705922,1080
3135.0049725679282,1098
3136.7041865028714,1105
3138.4031135933465,1051
3140.101754157353,1111
3141.800108512971,1071
3143.498176978357,1078
3145.1959598717494,1045
3146.8934575114636,1105
3148.5906702158954,1085
3150.2875983035183,1095
3151.9842420928853,1061
3153.680601902627,1053
3155.376678051456,1110
3157.07247085816,1055
3158.767980641609,1079
3160.463207720748,1104
3162.158152414606,1043
3163.8528150422862,1079
3165.5471959229726,1059
3167.2412953759303,1063
3168.9351137204976,1088
3170.628651276098,1050
3172.3219083622307,1076
3174.014885298474,1079
3175.707582404485,1065
3177.4000000000005,1087
3179.092138404835,1062
3180.7839979388846,1076
3182.47557892212,1079
3184.166881674594,1090
3185.8579065164386,1119
3187.5486537678626,1160
3189.2391237491547,1087
3190.9293167806827,1082
3192.6192331828934,1099
3194.3088732763117,1116
3195.998237381542,1061
3197.687325819268,1098
3199.376138910251,1104
3201.064676975334,1082
3202.7529403354347,1053
3204.4409293115523,1049
3206.1286442247647,1100
3207.816085396229,1134
3209.5032531471825,1048
3211.190147798936,1078
3212.8767696728846,1094
3214.5631190905015,1097
3216.2491963733373,1107
3217.9350018430214,1034
3219.6205358212637,1073
3221.305798629851,1035
3222.990790590651,1066
3224.6755120256103,1052
3226.359963256751,1027
3228.0441446061795,1062
3229.7280563960758,1054
3231.411698948703,1038
3233.0950725863995,1081
3234.778177631587,1072
3236.461014406761,1067
3238.1435832345005,1080
3239.8258844374595,1076
3241.507918338374,1053
3243.1896852600576,1055
3244.8711855254023,1094
3246.552419457381,1103
3248.233387379042,1078
3249.914089613516,1092
3251.59452648401,1120
3253.274698313813,1128
3254.95460542629,1114
3256.6342481448855,1075
3258.313626793125,1061
3259.9927416946084,1088
3261.6715931730196,1029
3263.3501815521176,1065
3265.0285071557437,1050
3266.706570307815,1059
3268.3843713323286,1047
3270.0619105533615,1070
3271.739188295068,1115
3273.4162048816834,1069
3275.0929606375184,1099
3276.769455886966,1148
3278.445690954498,1088
3280.1216661646613,1119
3281.797381842087,1084
3283.4728383114807,1112
3285.1480358976296,1105
3286.8229749253996,1094
3288.4976557197333,1074
3290.172078605655,1097
3291.846243908266,1040
3293.5201519527463,1078
3295.193803064357,1060
3296.8671975684374,1036
3298.5403357904024,1102
3300.21321805575,1105
3301.8858446900567,1112
3303.558216018975,1087
3305.23033236824,1109
3306.9021940636603,1098
3308.57380143113,1095
3310.2451547966184,1124
3311.916254486174,1057
3313.5871008259246,1108
3315.2576941420766,1127
3316.9280347609147,1071
3318.5981230088046,1085
3320.2679592121895,1056
3321.9375436975924,1063
3323.606876791612,1094
3325.27595882093,1045
3326.944790112305,1050
3328.6133709925753,1090
3330.2817017886573,1093
3331.949782827547,1034
3333.617614436319,1065
3335.2851969421245,1084
3336.952530672199,1056
3338.619615953853,1121
3340.286453114475,1072
3341.9530424815357,1109
3343.619384382583,1084
3345.2854791452437,1154
3346.951327097224,1066
3348.6169285663073,1067
3350.2822838803577,1120
3351.947393367319,1132
3353.61225735521,1101
3355.2768761721345,1081
3356.9412501462693,1071
3358.605379605873,1078
3360.2692648792827,1068
3361.9329062949146,1076
3363.596304181263,1050
