CollectionTime,7/9/2024 4:32:50 PM
ExposureUsed,3
CalibratedSpectrum
-962.7078968117929,402
-959.9714848408522,438
-957.2358232597828,459
-954.5009119013725,460
-951.7667505983302,426
-949.0333391832855,455
-946.3006774887896,441
-943.5687653473143,461
-940.837602591253,434
-938.1071890529199,433
-935.3775245645503,449
-932.6486089583007,431
-929.9204420662485,450
-927.1930237203925,412
-924.4663537526524,445
-921.7404319948689,444
-919.0152582788041,451
-916.2908324361409,488
-913.5671542984834,475
-910.8442236973568,440
-908.1220404642074,456
-905.4006044304027,442
-902.679915427231,433
-899.959973285902,444
-897.2407778375464,440
-894.5223289132158,431
-891.8046263438832,426
-889.0876699604426,425
-886.3714595937089,447
-883.6559950744183,412
-880.9412762332282,441
-878.2273029007168,437
-875.5140749073835,442
-872.8015920836489,442
-870.0898542598545,459
-867.3788612662631,428
-864.6686129330585,445
-861.9591090903457,464
-859.2503495681506,448
-856.5423341964203,448
-853.8350628050229,451
-851.1285352237478,426
-848.4227512823054,442
-845.7177108103272,438
-843.0134136373656,441
-840.3098595928943,437
-837.6070485063082,468
-834.9049802069229,462
-832.2036545239757,469
-829.5030712866244,468
-826.8032303239481,467
-824.1041314649472,461
-821.4057745385428,489
-818.7081593735775,444
-816.0112857988148,459
-813.3151536429393,440
-810.6197627345566,448
-807.9251129021936,440
-805.2312039742981,462
-802.5380357792392,471
-799.8456081453069,469
-797.1539209007124,455
-794.462973873588,447
-791.772766891987,476
-789.083299783884,481
-786.3945723771743,456
-783.7065844996748,474
-781.0193359791231,466
-778.3328266431781,450
-775.6470563194197,448
-772.9620248353489,455
-770.2777320183878,458
-767.5941776958798,461
-764.9113616950891,437
-762.2292838432011,457
-759.5479439673222,454
-756.8673418944801,461
-754.1874774516235,482
-751.5083504656222,468
-748.8299607632671,469
-746.15230817127,470
-743.475392516264,451
-740.7992136248035,476
-738.1237713233636,497
-735.4490654383407,450
-732.7750957960521,465
-730.1018622227365,488
-727.4293645445534,470
-724.7576025875837,460
-722.0865761778291,481
-719.4162851412126,473
-716.7467293035781,478
-714.0779084906909,468
-711.409822528237,477
-708.7424712418238,495
-706.0758544569796,468
-703.4099719991541,504
-700.7448236937178,486
-698.0804093659622,491
-695.4167288411002,482
-692.7537819442656,489
-690.0915685005134,514
-687.4300883348199,490
-684.7693412720819,483
-682.1093271371178,461
-679.4500457546669,493
-676.7914969493897,486
-674.1336805458676,486
-671.4765963686034,486
-668.8202442420206,484
-666.1646239904642,486
-663.5097354382001,468
-660.8555784094151,510
-658.2021527282176,480
-655.5494582186366,515
-652.8974947046223,506
-650.2462620100463,503
-647.5957599587009,511
-644.9459883742998,501
-642.2969470804776,466
-639.6486359007902,474
-637.0010546587141,544
-634.3542031776476,546
-631.7080812809096,537
-629.0626887917401,554
-626.4180255333008,515
-623.7740913286734,507
-621.1308860008619,525
-618.4884093727904,538
-615.8466612673046,550
-613.2056415071715,522
-610.5653499150785,524
-607.9257863136347,523
-605.28695052537,539
-602.6488423727357,503
-600.0114616781036,516
-597.3748082637674,520
-594.7388819519412,525
-592.1036825647604,559
-589.4692099242818,588
-586.8354638524829,554
-584.2024441712624,582
-581.5701507024403,547
-578.9385832677575,529
-576.3077416888759,534
-573.6776257873787,560
-571.0482353847704,538
-568.4195703024757,530
-565.7916303618415,527
-563.164415384135,577
-560.5379251905453,553
-557.9121596021815,540
-555.2871184400748,568
-552.6628015251767,558
-550.0392086783606,539
-547.4163397204204,526
-544.794194472071,552
-542.1727727539491,573
-539.5520743866118,626
-536.9320991905377,598
-534.3128469861261,621
-531.6943175936979,601
-529.0765108334947,621
-526.4594265256793,697
-523.8430644903358,799
-521.2274245474689,914
-518.612506517005,993
-515.9983102187913,1050
-513.3848354725959,1215
-510.77208209810846,1471
-508.16004991493924,1562
-505.5487387426199,1501
-502.9381484006032,1468
-500.3282787082628,1319
-497.71912948489364,1094
-495.1107005497117,932
-492.5029917218539,814
-489.8960028203786,765
-487.28973366426493,688
-484.68418407241325,699
-482.07935386364494,666
-479.47524285670266,675
-476.87185087025,679
-474.2691777228715,682
-471.66722323307334,674
-469.0659872192821,682
-466.4654694998459,719
-463.86566989303384,665
-461.26658821703614,657
-458.66822428996414,673
-456.07057792985,666
-453.4736489546475,679
-450.877437182231,677
-448.28194243039627,632
-445.68716451686,663
-443.09310325926003,687
-440.49975847515555,676
-437.9071299820263,653
-435.31521759727354,605
-432.72402113821954,688
-430.13354042210767,716
-427.5437752661022,715
-424.95472548728867,722
-422.36639090267386,658
-419.7787713291855,682
-417.1918665836721,726
-414.60567648290385,774
-412.0202008435715,741
-409.4354394822874,722
-406.8513922155845,711
-404.26805885991723,746
-401.685439231661,744
-399.103533147112,753
-396.522340422488,719
-393.9418608739278,728
-391.3620943174908,709
-388.7830405691583,706
-386.2046994448317,701
-383.6270707603344,667
-381.05015433141045,680
-378.473949973725,633
-375.8984575028645,613
-373.32367673433623,566
-370.74960748356875,557
-368.1762495659117,543
-365.60360279663576,522
-363.03166699093265,469
-360.4604419639154,454
-357.8899275306178,441
-355.32012350599507,466
-352.7510297049233,457
-350.1826459421999,432
-347.61497203254316,450
-345.04800779059235,448
-342.4817530309082,479
-339.91620756797226,450
-337.35137121618743,461
-334.7872437898774,469
-332.22382510328725,469
-329.66111497058273,448
-327.09911320585127,450
-324.53781962310075,512
-321.9772340362607,497
-319.4173562591816,457
-316.8581861056348,442
-314.2997233893127,455
-311.7419679238294,434
-309.1849195227194,454
-306.62857799943856,458
-304.0729431673641,474
-301.51801483979375,520
-298.963792829947,485
-296.41027695096386,493
-293.85746701590574,556
-291.3053628377552,553
-288.7539642294155,562
-286.2032710037115,510
-283.65328297338897,497
-281.1039999511146,534
-278.5554217494762,562
-276.007548180983,541
-273.4603790580651,583
-270.9139141930734,537
-268.3681533982807,480
-265.8230964858798,510
-263.27874326798565,549
-260.7350935566336,533
-258.1921471637804,545
-255.6499039013039,501
-253.10836358100266,539
-250.56752601459698,521
-248.02739101372765,554
-245.48795838995704,589
-242.94922795476816,560
-240.41119951956557,522
-237.8738728956746,586
-235.33724789434166,647
-232.80132432673452,604
-230.2661020039418,586
-227.73158073697357,594
-225.19776033676033,689
-222.66464061415422,684
-220.1322213799284,637
-217.60050244477725,614
-215.06948361931552,594
-212.53916471408013,635
-210.00954553952818,654
-207.48062590603843,646
-204.9524056239104,637
-202.4248845033651,664
-199.8980623545441,648
-197.37193898751036,675
-194.84651421224817,665
-192.32178783866232,667
-189.79775967657952,665
-187.27442953574644,737
-184.7517972258321,701
-182.2298625564256,695
-179.7086253370378,674
-177.18808537710026,639
-174.66824248596583,709
-172.14909647290835,753
-169.6306471471229,813
-167.11289431772548,745
-164.59583779375328,730
-162.07947738416453,743
-159.5638128978386,746
-157.04884414357605,914
-154.53457093009854,1038
-152.02099306604828,990
-149.50811035998936,752
-146.99592262040665,714
-144.48442965570587,803
-141.97363127421409,850
-139.46352728417958,1018
-136.95411749377126,1070
-134.44540171107985,996
-131.93737974411636,795
-129.43005140081357,865
-126.92341648902493,1185
-124.41747481652521,1487
-121.91222619101006,1949
-119.40767042009657,2586
-116.90380731132257,3132
-114.40063667214702,2925
-111.8981583099503,2376
-109.3963720320337,1749
-106.89527764561933,1569
-104.39487495785067,1510
-101.89516377579241,2500
-99.39614390642998,3237
-96.89781515667039,3527
-94.40017733334128,3275
-91.90323024319173,3160
-89.40697369289148,4049
-86.91140748903172,5200
-84.41653143812482,5703
-81.92234534660395,4634
-79.42884902082358,3663
-76.93604226705907,5247
-74.4439248915071,9826
-71.95249670028534,13971
-69.46175749943245,15939
-66.97170709490854,15212
-64.48234529259423,13270
-61.99367189829195,10756
-59.50568671772464,8012
-57.01838955653636,6615
-54.53178022029283,6218
-52.045858514480074,5698
-49.560624244506016,6601
-47.07607721569923,8289
-44.59221723330904,8883
-42.10904410250669,8241
-39.62655762838392,7433
-37.14475761595372,6709
-34.66364387015028,6146
-32.18321619582866,6204
-29.70347439776515,6865
-27.224418280657005,7586
-24.74604764912317,9025
-22.26836230770266,13465
-19.7913620608565,24318
-17.315046712966478,43376
-14.83941606833514,62232
-12.36446993118659,65038
-9.89020810566592,65038
-7.416630395839093,65038
-4.94373660569363,65038
-2.471526539137585,65038
-6.821210263296962E-13,65038
2.47084320796705,65038
4.941003281093458,65038
7.410480415786196,65038
9.879274808531363,65038
12.347386655893956,65038
14.814816154518212,65038
17.28156350112681,65038
19.74762889252179,65038
22.21301252558385,65038
24.67771459727237,20125
27.141735304626195,3492
29.605074844762612,2051
32.06773341487792,1834
34.52971121224755,1756
36.99100843422559,1714
39.45162527824516,1605
41.91156194181792,1457
44.370818622535126,1376
46.82939551806646,1136
49.287292826160524,1194
51.74451074464503,1138
54.201049471426245,1129
56.65690920448981,1187
59.112090141899785,1087
61.56659248179983,948
64.02041642241159,898
66.4735621620365,878
68.92602989905402,818
71.37781983192338,904
73.82893215918205,925
76.27936707944684,984
78.72912479141326,1014
81.17820549385567,963
83.62660938562783,1036
86.07433666566146,953
88.5213875329681,876
90.96776218663751,834
93.41346082583925,825
95.85848364982041,905
98.30283085790859,964
100.7465026495089,1019
103.18949922410604,903
105.63182078126385,891
108.07346752062438,975
110.51443964190923,797
112.95473734491827,761
115.39436082953114,822
117.83331029570547,827
120.27158594347827,820
122.7091879729652,915
125.1461165843615,880
127.58237197794062,879
130.01795435405518,889
132.4528639131364,749
134.88710085569494,795
137.32066538231982,711
139.75355769367923,677
142.1857779905207,720
144.61732647366978,739
147.04820334403132,782
149.47840880258934,815
151.90794305040674,757
154.33680628862487,815
156.76499871846443,953
159.19252054122433,1096
161.61937195828352,1124
164.04555317109896,1109
166.47106438120693,1290
168.89590579022217,1406
171.320077599839,1452
173.7435800118302,1493
176.16641322804742,1471
178.58857745042144,1636
181.01007288096173,1709
183.43089972175687,1677
185.85105817497413,1612
188.27054844285988,1700
190.6893707277394,1679
193.10752523201643,1673
195.5250121581745,1731
197.9418317087751,1766
200.3579840864594,1800
202.7734694939469,1847
205.18828813403627,1821
207.6024402096051,1895
210.01592592360964,1934
212.42874547908548,1954
214.84089907914665,2013
217.2523869269868,1908
219.66320922587727,1853
222.0733661791695,1899
224.48285799029293,1814
226.8916848627572,1901
229.29984700014882,1967
231.7073446061355,1944
234.11417788446204,1918
236.520347038953,1816
238.92585227351185,1819
241.33069379212054,1832
243.73487179884035,1834
246.1383864978112,1852
248.541238093252,1883
250.9434267894609,1897
253.34495279081432,1896
255.74581630176783,1872
258.1460175268563,1847
260.54555667069314,1821
262.9444339379703,1860
265.3426495334594,1850
267.7402036620107,1933
270.1370965285529,1889
272.53332833809407,1884
274.9288992957214,1915
277.32380960660055,1848
279.718059475976,1903
282.1116491091717,1967
284.5045787115897,1887
286.89684848871195,1955
289.2884586460981,1922
291.67940938938807,1898
294.0697009242996,1984
296.4593334566299,1981
298.84830719225477,1919
301.23662233712923,1877
303.6242790972866,1889
306.01127767884,1880
308.39761828798066,1895
310.78330113097934,1893
313.16832641418534,1845
315.5526943440269,1806
317.9364051270112,1771
320.3194589697242,1864
322.70185607883093,1811
325.0835966610754,1807
327.4646809232805,1776
329.8451090723478,1781
332.2248813152577,1812
334.6039978590701,1687
336.9824589109231,1700
339.36026467803447,1733
341.7374153677,1675
344.113911187295,1695
346.48975234427337,1718
348.8649390461686,1639
351.2394715005918,1701
353.61334991523415,1645
355.9865744978655,1657
358.35914545633375,1662
360.73106299856715,1669
363.10232733257146,1682
365.47293866643247,1691
367.84289720831396,1624
370.2122031664593,1607
372.5808567491905,1679
374.9488581649083,1642
377.31620762209275,1613
379.6829053293021,1563
382.0489514951745,1615
384.4143463284262,1627
386.7790900378528,1593
389.14318283232853,1592
391.50662492080653,1616
393.86941651231916,1602
396.23155781597745,1688
398.5930490409713,1652
400.9538903965696,1650
403.3140820921202,1595
405.6736243370498,1574
408.03251734086336,1605
410.3907613131465,1586
412.74835646356166,1590
415.10530300185144,1528
417.4616011378372,1553
419.81725108141893,1550
422.1722530425758,1562
424.5266072313656,1581
426.880313857925,1586
429.2333731324701,1541
431.58578526529516,1539
433.9375504667738,1531
436.2886689473588,1550
438.63914091758113,1562
440.9889665880513,1476
443.33814616945835,1541
445.68667987257015,1510
448.03456790823395,1531
450.3818104873759,1523
452.72840782100013,1523
455.07436012019105,1483
457.41966759611057,1524
459.7643304600007,1443
462.10834892318155,1451
464.4517231970525,1462
466.79445349309174,1478
469.1365400228566,1525
471.4779829979826,1495
473.81878263018564,1511
476.15893913125876,1483
478.4984527130747,1513
480.8373235875855,1557
483.17555196682144,1523
485.5131380628919,1605
487.8500820879857,1693
490.1863842543697,1685
492.52204477439034,1707
494.8570638604725,1877
497.1914417251204,2038
499.52517858091653,2229
501.85827464052306,2701
504.19073011668036,3281
506.5225452222086,3819
508.85372017000566,4182
511.18425517304956,4281
513.514150444396,4306
515.8434061971808,4709
518.1720226446176,5097
520.4999999999999,4998
522.8273384766991,4431
525.1540382881666,3899
527.480099647932,3363
529.8055227696037,2771
532.1303078668694,2162
534.454455153496,1892
536.777964843328,1767
539.1008371502907,1721
541.4230722883866,1728
543.744670471698,1675
546.0656319143858,1668
548.3859568306899,1670
550.7056454349294,1687
553.0246979415016,1554
555.3431145648834,1521
557.6608955196306,1474
559.978041020377,1564
562.2945512818363,1556
564.6104265188006,1611
566.9256669461412,1609
569.2402727788082,1677
571.5542442318302,1616
573.8675815203156,1605
576.1802848594508,1544
578.4923544645015,1606
580.8037905508126,1650
583.114593333807,1602
585.4247630289875,1586
587.7342998519354,1554
590.0432040183106,1590
592.3514757438526,1591
594.6591152443794,1537
596.9661227357875,1622
599.2724984340531,1581
601.578242555231,1587
603.8833553154542,1565
606.1878369309362,1655
608.4916876179676,1596
610.7949075929192,1569
613.0974970722403,1602
615.3994562724587,1597
617.7007854101818,1580
620.0014847020951,1641
622.3015543649641,1609
624.6009946156324,1592
626.8998056710224,1556
629.1979877481361,1592
631.4955410640538,1567
633.7924658359349,1597
636.0887622810175,1633
638.3844306166192,1588
640.6794710601358,1589
642.9738838290426,1559
645.2676691408932,1578
647.5608272133207,1583
649.853358264037,1664
652.1452625108324,1582
654.4365401715764,1558
656.7271914642178,1570
659.0172166067838,1655
661.3066158173809,1583
663.5953893141935,1538
665.8835373154867,1518
668.1710600396028,1620
670.4579577049639,1529
672.7442305300709,1552
675.0298787335033,1589
677.3149025339197,1529
679.599302150058,1549
681.8830778007342,1593
684.1662297048437,1584
686.4487580813608,1574
688.7306631493387,1522
691.0119451279091,1569
693.2926042362834,1620
695.5726406937516,1566
697.8520547196814,1590
700.1308465335215,1554
702.4090163547982,1566
704.6865644031171,1534
706.9634908981619,1493
709.2397960596965,1569
711.5154801075631,1545
713.7905432616823,1554
716.0649857420548,1581
718.3388077687592,1623
720.612009561953,1607
722.8845913418733,1624
725.1565533288352,1598
727.427895743234,1548
729.6986188055427,1613
731.9687227363137,1646
734.238207756178,1573
736.5070740858458,1545
738.7753219461066,1544
741.0429515578281,1566
743.3099631419569,1585
745.5763569195191,1632
747.8421331116193,1577
750.1072919394409,1576
752.3718336242467,1566
754.6357583873777,1596
756.8990664502545,1540
759.1617580343765,1552
761.423833361321,1578
763.6852926527457,1545
765.9461361303862,1602
768.206364016058,1648
770.4659765316536,1594
772.7249738991469,1603
774.9833563405886,1622
777.2411240781092,1563
779.4982773339183,1550
781.7548163303044,1604
784.010741289634,1634
786.2660524343538,1696
788.5207499869881,1557
790.7748341701416,1609
793.0283052064964,1649
795.2811633188143,1624
797.5334087299362,1589
799.7850416627813,1653
802.0360623403484,1598
804.2864709857143,1614
806.5362678220353,1599
808.7854530725468,1615
811.0340269605625,1674
813.2819897094754,1661
815.5293415427581,1612
817.77608268396,1617
820.0222133567116,1648
822.2677337847211,1618
824.5126441917765,1656
826.7569448017433,1550
829.0006358385675,1565
831.2437175262731,1693
833.4861900889629,1609
835.7280537508192,1608
837.9693087361026,1556
840.2099552691533,1581
842.4499935743896,1544
844.689423876309,1579
846.9282463994886,1661
849.1664613685833,1597
851.4040690083276,1628
853.6410695435349,1605
855.877463199097,1568
858.1132501999847,1568
860.3484307712487,1614
862.5830051380175,1653
864.8169735254988,1660
867.0503361589791,1668
869.2830932638243,1660
871.5152450654786,1675
873.7467917894654,1676
875.9777336613873,1581
878.2080709069252,1603
880.4378037518389,1619
882.666932421968,1580
884.8954571432301,1669
887.1233781416219,1685
889.3506956432192,1634
891.5774098741766,1618
893.803521060728,1628
896.0290294291852,1644
898.2539352059397,1585
900.4782386174619,1594
902.7019398903011,1580
904.925039251085,1640
907.147536926521,1605
909.3694331433943,1628
911.59072812857,1649
913.8114221089921,1668
916.0315153116827,1621
918.2510079637437,1660
920.4699002923547,1713
922.6881925247761,1729
924.905884888345,1704
927.1229776104793,1595
929.3394709186747,1680
931.555365040506,1702
933.7706602036275,1681
935.9853566357709,1597
938.1994545647489,1677
940.4129542184515,1626
942.6258558248488,1666
944.8381596119883,1670
947.0498658079974,1692
949.2609746410825,1633
951.4714863395287,1722
953.6814011316998,1653
955.8907192460387,1684
958.0994409110671,1645
960.3075663553858,1677
962.5150958076741,1672
964.7220294966913,1710
966.928367651274,1697
969.1341105003388,1536
971.3392582728806,1546
973.5438111979742,1631
975.747769504772,1586
977.9511334225061,1525
980.153903180487,1555
982.3560790081052,1495
984.5576611348289,1502
986.7586497902058,1533
988.9590452038618,1525
991.158847605503,1484
993.3580572249133,1509
995.5566742919558,1498
997.7546990365728,1521
999.952131688785,1448
1002.1489724786926,1471
1004.3452216364743,1420
1006.5408793923874,1383
1008.7359459767691,1417
1010.9304216200343,1386
1013.1243065526781,1381
1015.3176010052733,1403
1017.510305208472,1337
1019.7024193930064,1387
1021.8939437896848,1317
1024.0848786293977,1360
1026.2752241431122,1285
1028.4649805618747,1328
1030.6541481168115,1272
1032.842727039127,1317
1035.0307175601051,1280
1037.2181199111074,1281
1039.4049343235752,1289
1041.591161029029,1297
1043.7768002590683,1248
1045.9618522453698,1252
1048.1463172196918,1314
1050.3301954138697,1275
1052.513487059818,1256
1054.69619238953,1288
1056.8783116350783,1270
1059.0598450286152,1304
1061.2407928023704,1271
1063.4211551886528,1299
1065.6009324198508,1283
1067.780124728432,1324
1069.9587323469414,1271
1072.1367555080046,1288
1074.314194444325,1299
1076.4910493886855,1271
1078.667320573947,1248
1080.843008233051,1298
1083.0181125990161,1240
1085.1926339049414,1301
1087.3665723840027,1273
1089.5399282694575,1248
1091.7127017946405,1274
1093.8848931929647,1210
1096.0565026979243,1224
1098.2275305430899,1292
1100.3979769621128,1274
1102.567842188722,1214
1104.737126456726,1225
1106.9058300000124,1191
1109.0739530525475,1230
1111.2414958483764,1173
1113.4084586216231,1206
1115.5748416064907,1189
1117.7406450372605,1227
1119.9058691482942,1200
1122.0705141740304,1193
1124.2345803489884,1186
1126.3980679077658,1142
1128.5609770850388,1197
1130.7233081155623,1202
1132.8850612341707,1178
1135.0462366757774,1190
1137.2068346753745,1173
1139.3668554680326,1229
1141.526299288901,1222
1143.68516637321,1246
1145.8434569562655,1169
1148.001171273455,1190
1150.158309560244,1206
1152.3148720521767,1152
1154.470858984876,1193
1156.626270594044,1141
1158.7811071154629,1165
1160.9353687849912,1192
1163.089055838569,1198
1165.242168512213,1124
1167.3947070420209,1126
1169.5466716641677,1175
1171.6980626149075,1145
1173.8488801305748,1181
1175.9991244475814,1139
1178.1487958024186,1165
1180.2978944316555,1134
1182.4464205719428,1189
1184.5943744600072,1112
1186.7417563326567,1094
1188.8885664267755,1189
1191.0348049793297,1137
1193.1804722273619,1158
1195.325568407995,1196
1197.4700937584303,1142
1199.614048515948,1154
1201.7574329179074,1159
1203.900247201746,1123
1206.042491604982,1196
1208.1841663652099,1185
1210.3252717201053,1152
1212.465807907422,1176
1214.6057751649923,1189
1216.7451737307279,1151
1218.8840038426192,1207
1221.0222657387353,1151
1223.1599596572241,1172
1225.2970858363137,1176
1227.4336445143094,1251
1229.5696359295966,1174
1231.705060320639,1199
1233.8399179259786,1130
1235.9742089842384,1191
1238.107933734118,1184
1240.2410924143974,1161
1242.373685263935,1188
1244.5057125216676,1201
1246.6371744266116,1188
1248.7680712178621,1157
1250.898403134593,1153
1253.028170416058,1191
1255.1573733015875,1195
1257.2860120305932,1155
1259.4140868425648,1195
1261.54159797707,1197
1263.6685456737569,1180
1265.7949301723515,1189
1267.9207517126597,1205
1270.046010534565,1152
1272.1707068780306,1152
1274.2948409830983,1173
1276.4184130898889,1119
1278.541423438603,1167
1280.6638722695184,1178
1282.785759822993,1149
1284.9070863394636,1190
1287.0278520594447,1129
1289.1480572235314,1152
1291.2677020723963,1203
1293.3867868467923,1178
1295.5053117875495,1198
1297.623277135579,1159
1299.740683131868,1183
1301.8575300174857,1223
1303.973818033578,1220
1306.0895474213703,1163
1308.2047184221678,1205
1310.3193312773528,1167
1312.4333862283888,1171
1314.5468835168163,1195
1316.659823384255,1194
1318.7722060724045,1152
1320.8840318230418,1190
1322.9953008780249,1199
1325.1060134792888,1201
1327.2161698688478,1176
1329.3257702887959,1184
1331.4348149813054,1225
1333.5433041886276,1177
1335.6512381530933,1187
1337.7586171171101,1170
1339.8654413231675,1186
1341.9717110138317,1185
1344.0774264317488,1190
1346.1825878196432,1146
1348.2871954203192,1209
1350.3912494766587,1169
1352.4947502316231,1168
1354.5976979282532,1206
1356.7000928096686,1232
1358.8019351190665,1211
1360.9032250997243,1180
1363.0039629949988,1200
1365.1041490483235,1185
1367.2037835032133,1248
1369.3028666032606,1205
1371.401398592137,1172
1373.4993797135926,1175
1375.5968102114575,1224
1377.6936903296396,1186
1379.7900203121262,1235
1381.8858004029835,1164
1383.9810308463561,1237
1386.075711886469,1256
1388.1698437676241,1194
1390.2634267342032,1200
1392.356461030667,1243
1394.4489469015557,1239
1396.5408845914872,1209
1398.6322743451592,1236
1400.7231164073469,1216
1402.813411022907,1232
1404.903158436773,1169
1406.9923588939578,1190
1409.0810126395531,1216
1411.1691199187303,1238
1413.2566809767386,1196
1415.343696058907,1250
1417.4301654106425,1223
1419.5160892774315,1279
1421.6014679048399,1229
1423.6863015385125,1235
1425.7705904241707,1229
1427.8543348076178,1225
1429.9375349347342,1265
1432.0201910514802,1209
1434.102303403894,1244
1436.1838722380944,1224
1438.2648978002767,1229
1440.3453803367174,1246
1442.4253200937692,1279
1444.5047173178677,1212
1446.5835722555234,1243
1448.6618851533285,1226
1450.739656257952,1247
1452.8168858161434,1211
1454.8935740747306,1256
1456.96972128062,1299
1459.045327680797,1266
1461.120393522327,1260
1463.1949190523528,1238
1465.2689045180973,1246
1467.3423501668608,1230
1469.415256246024,1237
1471.4876230030463,1242
1473.559450685465,1257
1475.6307395408976,1263
1477.7014898170391,1249
1479.771701761665,1280
1481.8413756226287,1281
1483.9105116478618,1248
1485.9791100853772,1275
1488.0471711832643,1251
1490.1146951896926,1207
1492.1816823529098,1274
1494.2481329212433,1228
1496.3140471430984,1220
1498.3794252669609,1293
1500.4442675413939,1230
1502.5085742150404,1224
1504.572345536622,1237
1506.6355817549388,1278
1508.6982831188702,1217
1510.7604498773744,1262
1512.8220822794883,1234
1514.8831805743293,1272
1516.9437450110909,1245
1519.003775839048,1252
1521.0632733075522,1230
1523.1222376660367,1239
1525.1806691640113,1287
1527.2385680510652,1286
1529.2959345768668,1245
1531.3527689911643,1300
1533.4090715437833,1223
1535.4648424846291,1272
1537.5200820636855,1287
1539.5747905310159,1296
1541.6289681367616,1281
1543.6826151311434,1240
1545.7357317644614,1271
1547.7883182870937,1248
1549.8403749494987,1277
1551.8919020022113,1274
1553.9428996958477,1267
1555.9933682811015,1306
1558.0433080087469,1260
1560.0927191296346,1263
1562.1416018946961,1282
1564.1899565549415,1321
1566.2377833614592,1255
1568.2850825654164,1266
1570.3318544180606,1308
1572.3780991707158,1263
1574.423817074788,1261
1576.4690083817595,1276
1578.5136733431923,1254
1580.5578122107272,1283
1582.601425236085,1252
1584.6445126710646,1224
1586.6870747675434,1295
1588.7291117774776,1267
1590.7706239529034,1236
1592.8116115459347,1206
1594.8520748087658,1246
1596.8920139936686,1212
1598.9314293529933,1254
1600.9703211391711,1276
1603.008689604711,1260
1605.0465350022005,1282
1607.0838575843068,1218
1609.1206576037753,1241
1611.1569353134305,1291
1613.1926909661765,1194
1615.2279248149953,1188
1617.2626371129481,1204
1619.2968281131757,1234
1621.3304980688963,1236
1623.3636472334088,1244
1625.39627586009,1283
1627.428384202396,1265
1629.459972513861,1239
1631.4910410480993,1189
1633.5215900588028,1222
1635.551619799744,1229
1637.5811305247717,1215
1639.6101224878166,1188
1641.6385959428862,1203
1643.6665511440683,1195
1645.693988345528,1154
1647.7209078015112,1199
1649.7473097663405,1208
1651.7731944944203,1219
1653.7985622402307,1187
1655.823413258333,1166
1657.847747803366,1183
1659.8715661300494,1205
1661.8948684931793,1239
1663.9176551476316,1239
1665.9399263483624,1179
1667.9616823504057,1252
1669.982923408873,1214
1672.0036497789574,1250
1674.0238617159293,1204
1676.043559475138,1159
1678.0627433120121,1191
1680.081413482059,1194
1682.0995702408654,1165
1684.117213844096,1176
1686.134344547495,1208
1688.1509626068864,1255
1690.1670682781705,1177
1692.182661817329,1190
1694.1977434804217,1201
1696.2123135235875,1219
1698.226372203043,1209
1700.2399197750851,1239
1702.2529564960905,1262
1704.2654826225112,1248
1706.277498410882,1246
1708.2890041178139,1232
1710.2999999999988,1216
1712.3104863142066,1190
1714.3204633172854,1231
1716.329931266163,1221
1718.3388904178469,1151
1720.3473410294214,1216
1722.3552833580516,1183
1724.3627176609807,1184
1726.3696441955308,1237
1728.3760632191033,1228
1730.3819749891782,1232
1732.3873797633146,1188
1734.3922777991502,1191
1736.3966693544012,1195
1738.4005546868639,1208
1740.4039340544127,1180
1742.406807715001,1163
1744.4091759266616,1248
1746.4110389475054,1196
1748.4123970357223,1226
1750.413250449582,1216
1752.4135994474318,1204
1754.4134442876993,1162
1756.4127852288902,1214
1758.4116225295893,1191
1760.4099564484595,1226
1762.407787244244,1199
1764.405115175764,1207
1766.4019405019203,1212
1768.3982634816916,1199
1770.3940843741357,1190
1772.3894034383907,1244
1774.3842209336717,1215
1776.378537119274,1213
1778.372352254571,1221
1780.3656665990156,1157
1782.3584804121397,1191
1784.3507939535534,1201
1786.3426074829463,1176
1788.3339212600863,1183
1790.3247355448211,1218
1792.3150505970766,1257
1794.3048666768573,1259
1796.2941840442477,1211
1798.2830029594106,1215
1800.2713236825884,1275
1802.2591464741004,1190
1804.2464715943465,1217
1806.2332993038058,1124
1808.2196298630352,1219
1810.2054635326708,1213
1812.190800573428,1218
1814.175641246101,1246
1816.1599858115628,1208
1818.1438345307652,1286
1820.127187664738,1236
1822.1100454745924,1223
1824.092408221516,1220
1826.0742761667766,1224
1828.055649571721,1183
1830.0365286977735,1226
1832.0169138064398,1181
1833.9968051593014,1241
1835.9762030180214,1170
1837.9551076443408,1250
1839.9335193000788,1266
1841.9114382471344,1261
1843.888864747485,1194
1845.8657990631878,1192
1847.842241456378,1180
1849.8181921892697,1188
1851.7936515241558,1170
1853.7686197234098,1245
1855.7430970494815,1239
1857.7170837649014,1183
1859.6905801322787,1196
1861.6635864143004,1179
1863.6361028737338,1187
1865.608129773424,1195
1867.5796673762961,1208
1869.5507159453537,1200
1871.521275743678,1258
1873.4913470344313,1249
1875.4609300808534,1258
1877.4300251462632,1157
1879.3986324940588,1236
1881.366752387717,1204
1883.3343850907936,1168
1885.3015308669228,1168
1887.268189979819,1198
1889.2343626932739,1152
1891.2000492711595,1235
1893.1652499774254,1195
1895.1299650761011,1206
1897.0941948312952,1278
1899.0579395071945,1211
1901.0211993680641,1225
1902.98397467825,1225
1904.9462657021745,1258
1906.9080727043415,1237
1908.869395949332,1210
1910.8302357018065,1227
1912.790592226504,1220
1914.7504657882428,1154
1916.7098566519212,1250
1918.6687650825133,1177
1920.6271913450764,1198
1922.5851357047422,1158
1924.5425984267245,1261
1926.499579776314,1212
1928.4560800188833,1236
1930.4120994198802,1218
1932.367638244833,1200
1934.32269675935,1251
1936.2772752291175,1238
1938.231373919899,1231
1940.1849930975404,1279
1942.1381330279637,1230
1944.0907939771696,1233
1946.0429762112412,1212
1947.9946799963363,1207
1949.9459055986945,1181
1951.896653284633,1201
1953.8469233205478,1178
1955.7967159729142,1223
1957.7460315082863,1206
1959.6948701932974,1271
1961.6432322946594,1205
1963.5911180791632,1220
1965.5385278136787,1228
1967.4854617651545,1201
1969.4319202006182,1192
1971.377903387176,1270
1973.3234115920136,1227
1975.268445082395,1239
1977.2130041256642,1224
1979.1570889892423,1187
1981.1006999406304,1231
1983.04383724741,1193
1984.986501177238,1223
1986.928691997853,1250
1988.8704099770712,1222
1990.811655382789,1241
1992.7524284829801,1233
1994.692729545698,1267
1996.6325588390755,1206
1998.5719166313224,1204
2000.5108031907307,1237
2002.4492187856677,1194
2004.387163684583,1225
2006.3246381560011,1244
2008.2616424685298,1236
2010.1981768908527,1193
2012.1342416917332,1205
2014.069837140014,1242
2016.0049635046162,1255
2017.9396210545406,1245
2019.8738100588666,1241
2021.8075307867502,1230
2023.740783507431,1265
2025.6735684902228,1238
2027.6058860045214,1202
2029.5377363198004,1210
2031.4691197056118,1187
2033.4000364315875,1237
2035.3304867674374,1269
2037.260470982952,1220
2039.189989347998,1172
2041.1190421325232,1200
2043.047629606554,1233
2044.9757520401945,1238
2046.9034097036288,1231
2048.8306028671195,1171
2050.7573318010086,1202
2052.683596775716,1176
2054.609398061742,1240
2056.5347359296647,1248
2058.4596106501403,1231
2060.384022493906,1187
2062.3079717317764,1182
2064.231458634646,1180
2066.1544834734873,1202
2068.077046519352,1196
2069.99914804337,1218
2071.9207883167524,1171
2073.8419676107865,1207
2075.7626861968406,1198
2077.6829443463607,1177
2079.6027423308715,1200
2081.522080421977,1215
2083.440958891362,1214
2085.359378010786,1184
2087.2773380520907,1230
2089.194839287196,1257
2091.111881988101,1156
2093.0284664268825,1232
2094.9445928756973,1257
2096.86026160678,1221
2098.775472892446,1238
2100.690227005088,1155
2102.604524217178,1243
2104.5183648012676,1198
2106.431749029985,1223
2108.34467717604,1174
2110.2571495122206,1249
2112.169166311393,1268
2114.080727846503,1234
2115.9918343905747,1219
2117.902486216711,1230
2119.8126835980956,1236
2121.722426807987,1232
2123.6317161197285,1260
2125.5405518067364,1204
2127.448934142509,1170
2129.356863400624,1236
2131.264339854737,1293
2133.1713637785815,1222
2135.077935445972,1198
2136.9840551308002,1237
2138.889723107037,1280
2140.7949396487334,1243
2142.699705030018,1232
2144.6040195250994,1192
2146.507883408264,1214
2148.4112969538774,1249
2150.3142604363848,1213
2152.2167741303097,1249
2154.1188383102535,1214
2156.0204532508997,1243
2157.9216192270064,1226
2159.822336513414,1281
2161.7226053850413,1271
2163.622426116884,1256
2165.5217989840185,1231
2167.4207242616,1250
2169.319202224862,1272
2171.2172331491165,1238
2173.1148173097563,1296
2175.0119549822507,1253
2176.90864644215,1299
2178.8048919650823,1259
2180.7006918267534,1226
2182.596046302952,1258
2184.4909556695407,1281
2186.3854202024645,1210
2188.279440177746,1284
2190.173015871487,1281
2192.066147559868,1305
2193.958835519149,1278
2195.851080025667,1253
2197.7428813558417,1262
2199.6342397861667,1286
2201.5251555932186,1304
2203.415629053651,1304
2205.3056604441986,1284
2207.19525004167,1296
2209.084398122958,1283
2210.9731049650327,1300
2212.861370844941,1314
2214.749196039812,1282
2216.636580826851,1320
2218.523525483344,1334
2220.410030286655,1318
2222.296095514226,1330
2224.1817214435805,1276
2226.066908352319,1303
2227.951656518121,1314
2229.835966218746,1285
2231.71983773203,1285
2233.6032713358913,1308
2235.486267308324,1303
2237.3688259274036,1292
2239.2509474712824,1354
2241.132632218193,1309
2243.013880446447,1296
2244.8946924344323,1334
2246.7750684606203,1304
2248.6550088035574,1330
2250.534513741871,1277
2252.413583554265,1325
2254.292218519526,1285
2256.170418916517,1277
2258.0481850241786,1253
2259.925517121534,1233
2261.8024154876825,1330
2263.678880401803,1306
2265.5549121431536,1280
2267.430510991071,1339
2269.305677224971,1308
2271.180411124348,1312
2273.0547129687766,1247
2274.9285830379076,1281
2276.8020216114737,1287
2278.6750289692845,1338
2280.5476053912294,1273
2282.4197511572766,1297
2284.2914665474727,1398
2286.162751841943,1308
2288.0336073208937,1398
2289.904033264608,1397
2291.774029953448,1360
2293.6435976678554,1279
2295.5127366883517,1271
2297.381447295534,1281
2299.2497297700825,1229
2301.1175843927526,1238
2302.9850114443825,1221
2304.852011205885,1192
2306.7185839582553,1145
2308.5847299825664,1127
2310.4504495599676,1090
2312.3157429716925,1155
2314.1806104990483,1039
2316.0450524234247,1055
2317.9090690262888,1106
2319.772660589186,1079
2321.635827393742,1125
2323.498569721661,1076
2325.3608878547248,1050
2327.2227820747967,1080
2329.0842526638157,1105
2330.945299903803,1043
2332.805924076857,1046
2334.6661254651535,1023
2336.525904350951,1033
2338.3852610165827,1074
2340.244195744464,1098
2342.102708817088,1049
2343.9608005170253,1042
2345.8184711269287,1084
2347.675720929526,1081
2349.532550207628,1086
2351.38895924412,1035
2353.24494832197,1072
2355.100517724223,1107
2356.955667734004,1070
2358.810398634514,1093
2360.664710709037,1074
2362.5186042409337,1075
2364.3720795136437,1070
2366.225136810686,1071
2368.0777764156583,1103
2369.929998612237,1065
2371.7818036841777,1052
2373.633191915315,1013
2375.484163589562,1059
2377.3347189909114,1091
2379.184858403434,1094
2381.03458211128,1099
2382.8838903986775,1086
2384.732783549936,1078
2386.5812618494406,1092
2388.4293255816588,1047
2390.2769750311327,1069
2392.1242104824883,1083
2393.971032220427,1061
2395.8174405297295,1124
2397.6634356952563,1063
2399.509018001947,1053
2401.3541877348193,1051
2403.1989451789705,1054
2405.043290619576,1084
2406.8872243418905,1069
2408.730746631247,1061
2410.5738577730594,1040
2412.4165580528183,1092
2414.258847756095,1071
2416.100727168537,990
2417.9421965758734,1035
2419.783256263912,1076
2421.623906518538,1084
2423.4641476257157,1080
2425.303979871491,1111
2427.143403541984,1108
2428.9824189233977,1119
2430.821026302012,1063
2432.6592259641866,1134
2434.497018196361,1081
2436.33440328505,1103
2438.171381516851,1042
2440.00795317844,1066
2441.844118556569,1128
2443.6798779380724,1157
2445.5152316098606,1092
2447.3501798589255,1053
2449.1847229723357,1047
2451.0188612372403,1100
2452.8525949408663,1072
2454.6859243705203,1096
2456.518849813587,1110
2458.3513715575314,1064
2460.183489889895,1056
2462.015205098301,1076
2463.8465174704493,1072
2465.67742729412,1118
2467.5079348571717,1086
2469.338040447542,1085
2471.1677443532476,1071
2472.9970468623833,1034
2474.825948263123,1088
2476.6544488437207,1082
2478.482548892508,1060
2480.310248697896,1083
2482.137548548374,1095
2483.9644487325118,1065
2485.790949538956,1056
2487.617051256433,1100
2489.44275417375,1136
2491.26805857979,1097
2493.0929647635157,1115
2494.917473013971,1054
2496.741583620276,1087
2498.5652968716304,1089
2500.3886130573137,1104
2502.2115324666834,1117
2504.0340553891765,1054
2505.856182114308,1103
2507.6779129316733,1116
2509.499248130945,1151
2511.3201880018764,1043
2513.140732834298,1073
2514.9608829181198,1088
2516.780638543331,1029
2518.6,1065
2520.418967578273,1059
2522.237541568376,1076
2524.0557222606144,1109
2525.8735099453706,1085
2527.6909049131086,1101
2529.507907454368,1056
2531.32451785977,1059
2533.140736420014,1082
2534.9565634258774,1131
2536.771999168218,1048
2538.5870439379714,1075
2540.4016980261526,1130
2542.2159617238544,1042
2544.02983532225,1119
2545.8433191125914,1061
2547.656413386209,1104
2549.4691184345115,1100
2551.2814345489874,1142
2553.093362021204,1086
2554.904901142808,1037
2556.716052205523,1058
2558.526815501153,1043
2560.3371913215824,1065
2562.147179958771,1009
2563.956781704761,1080
2565.7659968516705,1042
2567.5748256916986,1101
2569.3832685171224,1082
2571.1913256202984,1089
2572.9989972936614,1050
2574.806283829725,1055
2576.613185521084,1055
2578.4197026604074,1076
2580.2258355404483,1060
2582.031584454035,1074
2583.836949694077,1063
2585.6419315535613,1104
2587.4465303255533,1131
2589.2507463032002,1042
2591.0545797797245,1108
2592.8580310484303,1061
2594.6611004026995,1075
2596.463788135992,1079
2598.266094541849,1078
2600.0680199138874,1082
2601.869564545807,1103
2603.670728731383,1039
2605.4715127644704,1069
2607.2719169390048,1062
2609.071941548998,1077
2610.8715868885433,1043
2612.670853251811,1078
2614.469740933052,1035
2616.268250226594,1076
2618.0663814268455,1101
2619.864134828292,1074
2621.6615107255006,1026
2623.458509413115,1083
2625.2551311858597,1051
2627.0513763385347,1059
2628.8472451660223,1042
2630.6427379632833,1059
2632.4378550253564,1032
2634.232596647359,1062
2636.026963124488,1040
2637.8209547520187,1042
2639.6145718253065,1062
2641.407814639785,1105
2643.200683490966,1093
2644.9931786744414,1074
2646.7853004858807,1085
2648.577049221034,1102
2650.3684251757277,1103
2652.1594286458712,1092
2653.9500599274484,1087
2655.740319316525,1059
2657.5302071092437,1027
2659.3197236018286,1013
2661.10886909058,1034
2662.8976438718782,1083
2664.686048242183,1095
2666.4740824980327,1078
2668.2617469360443,1037
2670.0490418529134,1069
2671.8359675454153,1017
2673.622524310403,1062
2675.408712444811,1030
2677.1945322456495,1042
2678.979984010009,1079
2680.76506803506,1089
2682.5497846180497,1052
2684.334134056306,1081
2686.1181166472343,1030
2687.9017326883213,1083
2689.6849824771293,1087
2691.4678663113013,1090
2693.2503844885596,1108
2695.032537306705,1069
2696.8143250636167,1106
2698.5957480572542,1106
2700.3768065856534,1107
2702.1575009469316,1065
2703.937831439283,1082
2705.717798360982,1103
2707.4974020103837,1044
2709.276642685917,1099
2711.055520686095,1074
2712.834036309506,1066
2714.612189854819,1046
2716.389981620782,1132
2718.1674119062204,1025
2719.944481010041,1082
2721.721189231226,1073
2723.4975368688415,1097
2725.273524222027,1059
2727.0491515900053,1064
2728.824419272075,1084
2730.5993275676146,1054
2732.3738767760838,1056
2734.148067197016,1086
2735.921899130031,1118
2737.6953728748194,1034
2739.468488731156,1087
2741.2412469988926,1050
2743.0136479779617,1078
2744.785691968372,1082
2746.5573792702116,1087
2748.3287101836504,1071
2750.099685008934,1029
2751.870304046388,1050
2753.640567596418,1101
2755.4104759595057,1086
2757.1800294362156,1067
2758.949228327187,1073
2760.7180729331412,1129
2762.486563554877,1083
2764.254700493272,1068
2766.022484049284,1106
2767.789914523947,1063
2769.5569922183786,1069
2771.3237174337705,1071
2773.090090471394,1045
2774.8561116326036,1038
2776.6217812188274,1049
2778.3870995315756,1030
2780.1520668724356,1062
2781.9166835430747,1021
2783.6809498452394,1086
2785.444866080754,1020
2787.2084325515225,1077
2788.971649559527,1046
2790.73451740683,1056
2792.4970363955713,1082
2794.2592068279705,1064
2796.0210290063264,1034
2797.7825032330147,1079
2799.543629810493,1062
2801.304409041296,1077
2803.0648412280366,1076
2804.8249266734088,1111
2806.5846656801846,1077
2808.344058551212,1039
2810.1031055894246,1111
2811.8618070978273,1064
2813.6201633795085,1116
2815.378174737636,1078
2817.1358414754536,1117
2818.893163896285,1075
2820.6501423035334,1090
2822.4067770006814,1084
2824.1630682912883,1103
2825.9190164789957,1103
2827.6746218675207,1055
2829.429884760661,1023
2831.184805462294,1072
2832.9393842763743,1091
2834.693621506936,1065
2836.4475174580916,1067
2838.201072434034,1101
2839.954286739034,1059
2841.707160677441,1074
2843.459694553685,1103
2845.2118886722724,1095
2846.96374333779,1117
2848.7152588549034,1078
2850.4664355283567,1098
2852.217273662973,1118
2853.9677735636546,1089
2855.7179355353833,1061
2857.4677598832186,1079
2859.217246912299,1070
2860.9663969278427,1058
2862.715210235146,1087
2864.4636871395846,1042
2866.211827946614,1034
2867.9596329617652,1042
2869.7071024906536,1055
2871.4542368389684,1108
2873.20103631248,1093
2874.947501217038,1073
2876.6936318585695,1127
2878.4394285430812,1086
2880.1848915766604,1075
2881.9300212654707,1097
2883.6748179157553,1050
2885.4192818338374,1100
2887.1634133261173,1097
2888.907212699077,1103
2890.6506802592744,1062
2892.393816313348,1107
2894.1366211680142,1127
2895.8790951300693,1115
2897.621238506388,1100
2899.363051603925,1051
2901.1045347297118,1123
2902.8456881908596,1056
2904.58651229456,1086
2906.327007348081,1060
2908.067173658772,1090
2909.8070115340597,1113
2911.5465212814497,1050
2913.285703208527,1107
2915.0245576229563,1085
2916.7630848324807,1064
2918.5012851449196,1079
2920.2391588681758,1136
2921.976706310227,1069
2923.7139277791334,1064
2925.4508235830313,1070
2927.187394030137,1072
2928.923639428745,1162
2930.6595600872306,1115
2932.395156314046,1127
2934.1304284177218,1078
2935.8653767068713,1123
2937.6000014901815,1117
2939.3343030764227,1105
2941.068281774442,1143
2942.8019378931644,1087
2944.5352717415976,1087
2946.2682836288236,1130
2948.0009738640065,1070
2949.7333427563885,1087
2951.465390615289,1088
2953.1971177501086,1087
2954.9285244703265,1046
2956.6596110855,1069
2958.3903779052657,1080
2960.1208252393385,1044
2961.8509533975125,1123
2963.5807626896617,1059
2965.3102534257378,1097
2967.0394259157715,1088
2968.768280469873,1071
2970.496817398232,1041
2972.2250370111146,1061
2973.952939618869,1087
2975.6805255319196,1100
2977.4077950607707,1101
2979.134748516006,1098
2980.861386208289,1107
2982.587708448359,1077
2984.313715547037,1064
2986.039407815222,1092
2987.764785563891,1055
2989.489849104102,1084
2991.2145987469908,1034
2992.9390348037705,1078
2994.6631575857346,1101
2996.3869674042576,1128
2998.1104645707887,1053
2999.83364939686,1087
3001.5565221940783,1116
3003.2790832741334,1091
3005.0013329487924,1127
3006.7232715298996,1092
3008.4448993293804,1042
3010.166216659239,1085
3011.887223831558,1096
3013.607921158498,1042
3015.3283089522993,1060
3017.0483875252826,1077
3018.7681571898443,1090
3020.4876182584626,1043
3022.2067710436927,1071
3023.9256158581707,1123
3025.644153014609,1065
3027.362382825801,1043
3029.0803056046193,1085
3030.797921664012,1065
3032.5152313170106,1073
3034.2322348767225,1024
3035.9489326563353,1042
3037.665324969115,1068
3039.3814121284063,1067
3041.097194447633,1022
3042.812672240299,1078
3044.5278458199855,1056
3046.2427155003525,1078
3047.9572815951406,1074
3049.671544418167,1141
3051.38550428333,1057
3053.0991615046073,1063
3054.812516396051,1096
3056.5255692717974,1065
3058.2383204460575,1062
3059.9507702331257,1050
3061.662918947372,1057
3063.3747669032446,1061
3065.0863144152736,1073
3066.7975617980674,1052
3068.508509366309,1020
3070.219157434767,1032
3071.9295063182844,1043
3073.639556331785,1073
3075.3493077902704,1052
3077.058761008821,1050
3078.7679163025964,1063
3080.476773986837,1088
3082.1853343768594,1051
3083.89359778806,1030
3085.6015645359153,1112
3087.3092349359786,1031
3089.016609303884,1086
3090.7236879553434,1081
3092.4304712061476,1090
3094.136959372166,1059
3095.843152769349,1044
3097.5490517137237,1049
3099.2546565213966,1059
3100.959967508554,1056
3102.66498499146,1039
3104.3697092864577,1063
3106.0741407099695,1106
3107.778279578498,1044
3109.482126208622,1105
3111.1856809170004,1077
3112.8889440203716,1107
3114.5919158355528,1029
3116.294596679439,1055
3117.996986869006,1056
3119.6990867213062,1088
3121.4008965534726,1015
3123.102416682717,1039
3124.803647426329,1089
3126.5045891016784,1028
3128.205242026213,1126
3129.90560651746,1054
3131.605682893025,1057
3133.3054714705922,1063
3135.0049725679282,1087
3136.7041865028714,1070
3138.4031135933465,1043
3140.101754157353,1063
3141.800108512971,1074
3143.498176978357,1101
3145.1959598717494,1066
3146.8934575114636,1039
3148.5906702158954,1104
3150.2875983035183,1106
3151.9842420928853,1035
3153.680601902627,1041
3155.376678051456,1054
3157.07247085816,1045
3158.767980641609,1044
3160.463207720748,1107
3162.158152414606,1020
3163.8528150422862,1094
3165.5471959229726,1089
3167.2412953759303,1087
3168.9351137204976,1064
3170.628651276098,1056
3172.3219083622307,1067
3174.014885298474,1035
3175.707582404485,1050
3177.4000000000005,1075
3179.092138404835,1067
3180.7839979388846,1038
3182.47557892212,1101
3184.166881674594,1067
3185.8579065164386,1077
3187.5486537678626,1055
3189.2391237491547,1085
3190.9293167806827,1050
3192.6192331828934,1053
3194.3088732763117,1061
3195.998237381542,1054
3197.687325819268,1085
3199.376138910251,1099
3201.064676975334,1086
3202.7529403354347,1039
3204.4409293115523,1065
3206.1286442247647,1060
3207.816085396229,1082
3209.5032531471825,1041
3211.190147798936,1020
3212.8767696728846,1042
3214.5631190905015,1054
3216.2491963733373,1046
3217.9350018430214,1052
3219.6205358212637,1072
3221.305798629851,1088
3222.990790590651,1033
3224.6755120256103,1048
3226.359963256751,1057
3228.0441446061795,1094
3229.7280563960758,1056
3231.411698948703,1090
3233.0950725863995,1108
3234.778177631587,1053
3236.461014406761,1063
3238.1435832345005,1094
3239.8258844374595,1089
3241.507918338374,1086
3243.1896852600576,1083
3244.8711855254023,1119
3246.552419457381,1094
3248.233387379042,1064
3249.914089613516,1064
3251.59452648401,1060
3253.274698313813,1062
3254.95460542629,1063
3256.6342481448855,1034
3258.313626793125,1050
3259.9927416946084,1015
3261.6715931730196,996
3263.3501815521176,1061
3265.0285071557437,1063
3266.706570307815,1036
3268.3843713323286,1040
3270.0619105533615,1041
3271.739188295068,1028
3273.4162048816834,1055
3275.0929606375184,1086
3276.769455886966,1076
3278.445690954498,1134
3280.1216661646613,1059
3281.797381842087,1072
3283.4728383114807,1070
3285.1480358976296,1105
3286.8229749253996,1063
3288.4976557197333,1059
3290.172078605655,1096
3291.846243908266,1049
3293.5201519527463,1060
3295.193803064357,1044
3296.8671975684374,1097
3298.5403357904024,1059
3300.21321805575,1051
3301.8858446900567,1000
3303.558216018975,1087
3305.23033236824,1027
3306.9021940636603,1053
3308.57380143113,1079
3310.2451547966184,1051
3311.916254486174,1130
3313.5871008259246,1082
3315.2576941420766,1055
3316.9280347609147,1086
3318.5981230088046,1063
3320.2679592121895,1024
3321.9375436975924,1077
3323.606876791612,1031
3325.27595882093,1078
3326.944790112305,1065
3328.6133709925753,1065
3330.2817017886573,1072
3331.949782827547,1039
3333.617614436319,1078
3335.2851969421245,1089
3336.952530672199,1060
3338.619615953853,1111
3340.286453114475,1047
3341.9530424815357,1048
3343.619384382583,1096
3345.2854791452437,1084
3346.951327097224,1045
3348.6169285663073,1089
3350.2822838803577,1091
3351.947393367319,1054
3353.61225735521,1054
3355.2768761721345,1059
3356.9412501462693,1041
3358.605379605873,1086
3360.2692648792827,1074
3361.9329062949146,1043
3363.596304181263,1038
