CollectionTime,9/25/2024 10:32:26 AM
ExposureUsed,3
CalibratedSpectrum
-962.7078968117929,475
-959.9714848408522,514
-957.2358232597828,504
-954.5009119013725,536
-951.7667505983302,561
-949.0333391832855,535
-946.3006774887896,521
-943.5687653473143,494
-940.837602591253,508
-938.1071890529199,522
-935.3775245645503,538
-932.6486089583007,539
-929.9204420662485,552
-927.1930237203925,601
-924.4663537526524,576
-921.7404319948689,557
-919.0152582788041,576
-916.2908324361409,603
-913.5671542984834,587
-910.8442236973568,579
-908.1220404642074,532
-905.4006044304027,564
-902.679915427231,544
-899.959973285902,546
-897.2407778375464,553
-894.5223289132158,560
-891.8046263438832,552
-889.0876699604426,551
-886.3714595937089,530
-883.6559950744183,530
-880.9412762332282,537
-878.2273029007168,526
-875.5140749073835,485
-872.8015920836489,523
-870.0898542598545,542
-867.3788612662631,516
-864.6686129330585,497
-861.9591090903457,502
-859.2503495681506,499
-856.5423341964203,467
-853.8350628050229,463
-851.1285352237478,489
-848.4227512823054,512
-845.7177108103272,498
-843.0134136373656,492
-840.3098595928943,505
-837.6070485063082,538
-834.9049802069229,564
-832.2036545239757,555
-829.5030712866244,539
-826.8032303239481,531
-824.1041314649472,534
-821.4057745385428,522
-818.7081593735775,517
-816.0112857988148,557
-813.3151536429393,554
-810.6197627345566,550
-807.9251129021936,547
-805.2312039742981,527
-802.5380357792392,527
-799.8456081453069,531
-797.1539209007124,505
-794.462973873588,538
-791.772766891987,555
-789.083299783884,530
-786.3945723771743,538
-783.7065844996748,549
-781.0193359791231,545
-778.3328266431781,570
-775.6470563194197,548
-772.9620248353489,527
-770.2777320183878,516
-767.5941776958798,517
-764.9113616950891,517
-762.2292838432011,532
-759.5479439673222,539
-756.8673418944801,558
-754.1874774516235,553
-751.5083504656222,514
-748.8299607632671,520
-746.15230817127,545
-743.475392516264,589
-740.7992136248035,547
-738.1237713233636,558
-735.4490654383407,551
-732.7750957960521,536
-730.1018622227365,529
-727.4293645445534,516
-724.7576025875837,540
-722.0865761778291,548
-719.4162851412126,525
-716.7467293035781,588
-714.0779084906909,603
-711.409822528237,577
-708.7424712418238,572
-706.0758544569796,571
-703.4099719991541,524
-700.7448236937178,586
-698.0804093659622,565
-695.4167288411002,563
-692.7537819442656,565
-690.0915685005134,580
-687.4300883348199,580
-684.7693412720819,569
-682.1093271371178,620
-679.4500457546669,570
-676.7914969493897,557
-674.1336805458676,564
-671.4765963686034,568
-668.8202442420206,569
-666.1646239904642,561
-663.5097354382001,584
-660.8555784094151,567
-658.2021527282176,567
-655.5494582186366,581
-652.8974947046223,602
-650.2462620100463,627
-647.5957599587009,620
-644.9459883742998,636
-642.2969470804776,625
-639.6486359007902,631
-637.0010546587141,639
-634.3542031776476,605
-631.7080812809096,611
-629.0626887917401,646
-626.4180255333008,671
-623.7740913286734,681
-621.1308860008619,683
-618.4884093727904,640
-615.8466612673046,606
-613.2056415071715,594
-610.5653499150785,622
-607.9257863136347,661
-605.28695052537,667
-602.6488423727357,655
-600.0114616781036,644
-597.3748082637674,695
-594.7388819519412,702
-592.1036825647604,699
-589.4692099242818,703
-586.8354638524829,714
-584.2024441712624,747
-581.5701507024403,760
-578.9385832677575,692
-576.3077416888759,700
-573.6776257873787,665
-571.0482353847704,661
-568.4195703024757,662
-565.7916303618415,721
-563.164415384135,691
-560.5379251905453,694
-557.9121596021815,656
-555.2871184400748,660
-552.6628015251767,662
-550.0392086783606,704
-547.4163397204204,695
-544.794194472071,727
-542.1727727539491,737
-539.5520743866118,717
-536.9320991905377,753
-534.3128469861261,858
-531.6943175936979,779
-529.0765108334947,877
-526.4594265256793,940
-523.8430644903358,1061
-521.2274245474689,1181
-518.612506517005,1311
-515.9983102187913,1480
-513.3848354725959,1664
-510.77208209810846,1861
-508.16004991493924,2146
-505.5487387426199,2193
-502.9381484006032,2185
-500.3282787082628,2039
-497.71912948489364,1738
-495.1107005497117,1542
-492.5029917218539,1195
-489.8960028203786,1047
-487.28973366426493,965
-484.68418407241325,944
-482.07935386364494,909
-479.47524285670266,855
-476.87185087025,852
-474.2691777228715,912
-471.66722323307334,880
-469.0659872192821,862
-466.4654694998459,908
-463.86566989303384,888
-461.26658821703614,883
-458.66822428996414,869
-456.07057792985,878
-453.4736489546475,894
-450.877437182231,865
-448.28194243039627,768
-445.68716451686,799
-443.09310325926003,808
-440.49975847515555,749
-437.9071299820263,794
-435.31521759727354,825
-432.72402113821954,850
-430.13354042210767,827
-427.5437752661022,899
-424.95472548728867,884
-422.36639090267386,928
-419.7787713291855,905
-417.1918665836721,1029
-414.60567648290385,946
-412.0202008435715,889
-409.4354394822874,881
-406.8513922155845,943
-404.26805885991723,944
-401.685439231661,937
-399.103533147112,925
-396.522340422488,888
-393.9418608739278,886
-391.3620943174908,902
-388.7830405691583,884
-386.2046994448317,887
-383.6270707603344,867
-381.05015433141045,813
-378.473949973725,782
-375.8984575028645,730
-373.32367673433623,698
-370.74960748356875,672
-368.1762495659117,715
-365.60360279663576,661
-363.03166699093265,591
-360.4604419639154,599
-357.8899275306178,580
-355.32012350599507,580
-352.7510297049233,599
-350.1826459421999,576
-347.61497203254316,551
-345.04800779059235,572
-342.4817530309082,557
-339.91620756797226,607
-337.35137121618743,671
-334.7872437898774,728
-332.22382510328725,726
-329.66111497058273,728
-327.09911320585127,618
-324.53781962310075,588
-321.9772340362607,607
-319.4173562591816,574
-316.8581861056348,560
-314.2997233893127,569
-311.7419679238294,598
-309.1849195227194,584
-306.62857799943856,636
-304.0729431673641,661
-301.51801483979375,698
-298.963792829947,757
-296.41027695096386,749
-293.85746701590574,724
-291.3053628377552,747
-288.7539642294155,748
-286.2032710037115,843
-283.65328297338897,785
-281.1039999511146,795
-278.5554217494762,934
-276.007548180983,872
-273.4603790580651,842
-270.9139141930734,838
-268.3681533982807,747
-265.8230964858798,687
-263.27874326798565,740
-260.7350935566336,799
-258.1921471637804,901
-255.6499039013039,949
-253.10836358100266,881
-250.56752601459698,879
-248.02739101372765,969
-245.48795838995704,999
-242.94922795476816,875
-240.41119951956557,928
-237.8738728956746,992
-235.33724789434166,1117
-232.80132432673452,961
-230.2661020039418,904
-227.73158073697357,1004
-225.19776033676033,1180
-222.66464061415422,1169
-220.1322213799284,963
-217.60050244477725,847
-215.06948361931552,982
-212.53916471408013,1188
-210.00954553952818,1287
-207.48062590603843,1096
-204.9524056239104,1016
-202.4248845033651,1164
-199.8980623545441,1205
-197.37193898751036,1260
-194.84651421224817,1170
-192.32178783866232,1030
-189.79775967657952,1236
-187.27442953574644,1337
-184.7517972258321,1337
-182.2298625564256,1225
-179.7086253370378,1134
-177.18808537710026,1552
-174.66824248596583,1765
-172.14909647290835,1604
-169.6306471471229,1410
-167.11289431772548,1171
-164.59583779375328,1199
-162.07947738416453,1493
-159.5638128978386,1761
-157.04884414357605,1928
-154.53457093009854,1859
-152.02099306604828,1515
-149.50811035998936,1282
-146.99592262040665,1313
-144.48442965570587,1617
-141.97363127421409,1970
-139.46352728417958,2169
-136.95411749377126,1827
-134.44540171107985,1538
-131.93737974411636,1475
-129.43005140081357,1652
-126.92341648902493,2372
-124.41747481652521,3492
-121.91222619101006,4479
-119.40767042009657,5359
-116.90380731132257,5069
-114.40063667214702,4537
-111.8981583099503,3943
-109.3963720320337,3984
-106.89527764561933,4401
-104.39487495785067,5214
-101.89516377579241,8121
-99.39614390642998,11396
-96.89781515667039,12607
-94.40017733334128,11495
-91.90323024319173,8660
-89.40697369289148,6923
-86.91140748903172,6604
-84.41653143812482,7916
-81.92234534660395,10795
-79.42884902082358,13031
-76.93604226705907,13523
-74.4439248915071,17747
-71.95249670028534,27255
-69.46175749943245,37238
-66.97170709490854,41980
-64.48234529259423,41893
-61.99367189829195,38831
-59.50568671772464,34339
-57.01838955653636,34466
-54.53178022029283,41713
-52.045858514480074,45333
-49.560624244506016,40940
-47.07607721569923,31827
-44.59221723330904,25254
-42.10904410250669,22222
-39.62655762838392,21157
-37.14475761595372,23723
-34.66364387015028,27726
-32.18321619582866,26540
-29.70347439776515,32477
-27.224418280657005,37642
-24.74604764912317,44956
-22.26836230770266,65040
-19.7913620608565,65040
-17.315046712966478,65040
-14.83941606833514,65040
-12.36446993118659,65040
-9.89020810566592,65040
-7.416630395839093,65040
-4.94373660569363,65040
-2.471526539137585,65040
-6.821210263296962E-13,65040
2.47084320796705,65040
4.941003281093458,65040
7.410480415786196,65040
9.879274808531363,65040
12.347386655893956,65040
14.814816154518212,65040
17.28156350112681,65040
19.74762889252179,65040
22.21301252558385,65040
24.67771459727237,23311
27.141735304626195,6190
29.605074844762612,6665
32.06773341487792,7731
34.52971121224755,6187
36.99100843422559,5878
39.45162527824516,6633
41.91156194181792,5162
44.370818622535126,4710
46.82939551806646,4143
49.287292826160524,4219
51.74451074464503,3894
54.201049471426245,4461
56.65690920448981,4482
59.112090141899785,4740
61.56659248179983,4360
64.02041642241159,3840
66.4735621620365,3549
68.92602989905402,3112
71.37781983192338,2695
73.82893215918205,2316
76.27936707944684,2452
78.72912479141326,2558
81.17820549385567,2776
83.62660938562783,2725
86.07433666566146,2545
88.5213875329681,2871
90.96776218663751,2672
93.41346082583925,2313
95.85848364982041,2173
98.30283085790859,1914
100.7465026495089,1956
103.18949922410604,2310
105.63182078126385,2606
108.07346752062438,2062
110.51443964190923,2068
112.95473734491827,1669
115.39436082953114,1630
117.83331029570547,1788
120.27158594347827,1879
122.7091879729652,1722
125.1461165843615,1558
127.58237197794062,1437
130.01795435405518,1599
132.4528639131364,1455
134.88710085569494,1569
137.32066538231982,1612
139.75355769367923,1559
142.1857779905207,1428
144.61732647366978,1345
147.04820334403132,1517
149.47840880258934,1532
151.90794305040674,1487
154.33680628862487,1468
156.76499871846443,1689
159.19252054122433,1670
161.61937195828352,1770
164.04555317109896,1780
166.47106438120693,1813
168.89590579022217,1849
171.320077599839,1994
173.7435800118302,2190
176.16641322804742,2404
178.58857745042144,2477
181.01007288096173,2472
183.43089972175687,2533
185.85105817497413,2498
188.27054844285988,2166
190.6893707277394,2268
193.10752523201643,2305
195.5250121581745,2423
197.9418317087751,2353
200.3579840864594,2279
202.7734694939469,2412
205.18828813403627,2432
207.6024402096051,2410
210.01592592360964,2429
212.42874547908548,2636
214.84089907914665,2493
217.2523869269868,2340
219.66320922587727,2408
222.0733661791695,2536
224.48285799029293,2388
226.8916848627572,2471
229.29984700014882,2605
231.7073446061355,2629
234.11417788446204,2575
236.520347038953,2342
238.92585227351185,2342
241.33069379212054,2426
243.73487179884035,2403
246.1383864978112,2511
248.541238093252,2487
250.9434267894609,2397
253.34495279081432,2449
255.74581630176783,2355
258.1460175268563,2394
260.54555667069314,2289
262.9444339379703,2380
265.3426495334594,2516
267.7402036620107,2459
270.1370965285529,2509
272.53332833809407,2560
274.9288992957214,2393
277.32380960660055,2411
279.718059475976,2528
282.1116491091717,2453
284.5045787115897,2474
286.89684848871195,2580
289.2884586460981,2471
291.67940938938807,2562
294.0697009242996,2489
296.4593334566299,2528
298.84830719225477,2570
301.23662233712923,2526
303.6242790972866,2489
306.01127767884,2413
308.39761828798066,2392
310.78330113097934,2287
313.16832641418534,2275
315.5526943440269,2178
317.9364051270112,2264
320.3194589697242,2320
322.70185607883093,2163
325.0835966610754,2112
327.4646809232805,2214
329.8451090723478,2222
332.2248813152577,2183
334.6039978590701,2196
336.9824589109231,2167
339.36026467803447,2056
341.7374153677,2087
344.113911187295,2045
346.48975234427337,2033
348.8649390461686,2047
351.2394715005918,2050
353.61334991523415,2016
355.9865744978655,2086
358.35914545633375,2058
360.73106299856715,2117
363.10232733257146,2065
365.47293866643247,2010
367.84289720831396,2029
370.2122031664593,1968
372.5808567491905,1997
374.9488581649083,1955
377.31620762209275,1832
379.6829053293021,1904
382.0489514951745,1992
384.4143463284262,1884
386.7790900378528,1876
389.14318283232853,1942
391.50662492080653,1931
393.86941651231916,1898
396.23155781597745,1905
398.5930490409713,1889
400.9538903965696,1958
403.3140820921202,2028
405.6736243370498,2025
408.03251734086336,1915
410.3907613131465,1894
412.74835646356166,1797
415.10530300185144,1863
417.4616011378372,1890
419.81725108141893,1881
422.1722530425758,1845
424.5266072313656,1893
426.880313857925,1841
429.2333731324701,1791
431.58578526529516,1864
433.9375504667738,1868
436.2886689473588,1873
438.63914091758113,1806
440.9889665880513,1771
443.33814616945835,1789
445.68667987257015,1846
448.03456790823395,1814
450.3818104873759,1846
452.72840782100013,1759
455.07436012019105,1751
457.41966759611057,1733
459.7643304600007,1708
462.10834892318155,1675
464.4517231970525,1767
466.79445349309174,1829
469.1365400228566,1815
471.4779829979826,1814
473.81878263018564,1841
476.15893913125876,1836
478.4984527130747,1814
480.8373235875855,1848
483.17555196682144,2000
485.5131380628919,2018
487.8500820879857,2120
490.1863842543697,2230
492.52204477439034,2286
494.8570638604725,2639
497.1914417251204,2918
499.52517858091653,3564
501.85827464052306,4249
504.19073011668036,4918
506.5225452222086,5068
508.85372017000566,5258
511.18425517304956,5178
513.514150444396,5474
515.8434061971808,6119
518.1720226446176,6615
520.4999999999999,6292
522.8273384766991,5735
525.1540382881666,5307
527.480099647932,4554
529.8055227696037,3740
532.1303078668694,2697
534.454455153496,2214
536.777964843328,2025
539.1008371502907,1949
541.4230722883866,1869
543.744670471698,1850
546.0656319143858,1908
548.3859568306899,1861
550.7056454349294,1843
553.0246979415016,1861
555.3431145648834,1800
557.6608955196306,1775
559.978041020377,1822
562.2945512818363,1833
564.6104265188006,1716
566.9256669461412,1721
569.2402727788082,1769
571.5542442318302,1781
573.8675815203156,1894
576.1802848594508,1794
578.4923544645015,1751
580.8037905508126,1771
583.114593333807,1821
585.4247630289875,1808
587.7342998519354,1797
590.0432040183106,1818
592.3514757438526,1817
594.6591152443794,1849
596.9661227357875,1854
599.2724984340531,1815
601.578242555231,1776
603.8833553154542,1784
606.1878369309362,1820
608.4916876179676,1774
610.7949075929192,1792
613.0974970722403,1788
615.3994562724587,1739
617.7007854101818,1791
620.0014847020951,1771
622.3015543649641,1748
624.6009946156324,1721
626.8998056710224,1797
629.1979877481361,1758
631.4955410640538,1807
633.7924658359349,1762
636.0887622810175,1744
638.3844306166192,1762
640.6794710601358,1822
642.9738838290426,1872
645.2676691408932,1804
647.5608272133207,1762
649.853358264037,1751
652.1452625108324,1796
654.4365401715764,1806
656.7271914642178,1801
659.0172166067838,1824
661.3066158173809,1809
663.5953893141935,1784
665.8835373154867,1783
668.1710600396028,1769
670.4579577049639,1777
672.7442305300709,1824
675.0298787335033,1797
677.3149025339197,1807
679.599302150058,1791
681.8830778007342,1727
684.1662297048437,1768
686.4487580813608,1804
688.7306631493387,1790
691.0119451279091,1743
693.2926042362834,1792
695.5726406937516,1785
697.8520547196814,1825
700.1308465335215,1842
702.4090163547982,1805
704.6865644031171,1769
706.9634908981619,1727
709.2397960596965,1812
711.5154801075631,1800
713.7905432616823,1838
716.0649857420548,1774
718.3388077687592,1909
720.612009561953,1865
722.8845913418733,1784
725.1565533288352,1775
727.427895743234,1802
729.6986188055427,1757
731.9687227363137,1799
734.238207756178,1788
736.5070740858458,1744
738.7753219461066,1758
741.0429515578281,1768
743.3099631419569,1772
745.5763569195191,1791
747.8421331116193,1806
750.1072919394409,1817
752.3718336242467,1853
754.6357583873777,1820
756.8990664502545,1755
759.1617580343765,1768
761.423833361321,1749
763.6852926527457,1792
765.9461361303862,1833
768.206364016058,1815
770.4659765316536,1859
772.7249738991469,1725
774.9833563405886,1811
777.2411240781092,1910
779.4982773339183,1845
781.7548163303044,1813
784.010741289634,1852
786.2660524343538,1963
788.5207499869881,1892
790.7748341701416,1845
793.0283052064964,1888
795.2811633188143,1856
797.5334087299362,1930
799.7850416627813,1949
802.0360623403484,1862
804.2864709857143,1887
806.5362678220353,1863
808.7854530725468,1897
811.0340269605625,1882
813.2819897094754,1926
815.5293415427581,1966
817.77608268396,1849
820.0222133567116,1833
822.2677337847211,1827
824.5126441917765,1946
826.7569448017433,1898
829.0006358385675,1856
831.2437175262731,1837
833.4861900889629,1840
835.7280537508192,1909
837.9693087361026,1898
840.2099552691533,1886
842.4499935743896,1864
844.689423876309,1848
846.9282463994886,1828
849.1664613685833,1885
851.4040690083276,1832
853.6410695435349,1852
855.877463199097,1811
858.1132501999847,1843
860.3484307712487,1859
862.5830051380175,1948
864.8169735254988,1886
867.0503361589791,1854
869.2830932638243,1837
871.5152450654786,1882
873.7467917894654,1832
875.9777336613873,1835
878.2080709069252,1909
880.4378037518389,1870
882.666932421968,1861
884.8954571432301,1892
887.1233781416219,1803
889.3506956432192,1909
891.5774098741766,1910
893.803521060728,1930
896.0290294291852,1900
898.2539352059397,1910
900.4782386174619,1908
902.7019398903011,1957
904.925039251085,1979
907.147536926521,2005
909.3694331433943,1896
911.59072812857,1981
913.8114221089921,1904
916.0315153116827,1954
918.2510079637437,1885
920.4699002923547,1917
922.6881925247761,1955
924.905884888345,1912
927.1229776104793,1958
929.3394709186747,1917
931.555365040506,1942
933.7706602036275,1865
935.9853566357709,1933
938.1994545647489,1997
940.4129542184515,2014
942.6258558248488,2002
944.8381596119883,1897
947.0498658079974,1964
949.2609746410825,2006
951.4714863395287,1939
953.6814011316998,1859
955.8907192460387,1868
958.0994409110671,1943
960.3075663553858,1947
962.5150958076741,1918
964.7220294966913,1915
966.928367651274,1901
969.1341105003388,1847
971.3392582728806,1886
973.5438111979742,1843
975.747769504772,1841
977.9511334225061,1876
980.153903180487,1848
982.3560790081052,1777
984.5576611348289,1802
986.7586497902058,1797
988.9590452038618,1745
991.158847605503,1739
993.3580572249133,1715
995.5566742919558,1721
997.7546990365728,1646
999.952131688785,1643
1002.1489724786926,1524
1004.3452216364743,1553
1006.5408793923874,1612
1008.7359459767691,1620
1010.9304216200343,1546
1013.1243065526781,1550
1015.3176010052733,1544
1017.510305208472,1451
1019.7024193930064,1516
1021.8939437896848,1539
1024.0848786293977,1506
1026.2752241431122,1549
1028.4649805618747,1544
1030.6541481168115,1497
1032.842727039127,1466
1035.0307175601051,1412
1037.2181199111074,1431
1039.4049343235752,1463
1041.591161029029,1482
1043.7768002590683,1435
1045.9618522453698,1421
1048.1463172196918,1446
1050.3301954138697,1461
1052.513487059818,1423
1054.69619238953,1452
1056.8783116350783,1388
1059.0598450286152,1371
1061.2407928023704,1389
1063.4211551886528,1482
1065.6009324198508,1416
1067.780124728432,1423
1069.9587323469414,1380
1072.1367555080046,1406
1074.314194444325,1424
1076.4910493886855,1423
1078.667320573947,1412
1080.843008233051,1458
1083.0181125990161,1380
1085.1926339049414,1343
1087.3665723840027,1396
1089.5399282694575,1376
1091.7127017946405,1372
1093.8848931929647,1362
1096.0565026979243,1338
1098.2275305430899,1360
1100.3979769621128,1345
1102.567842188722,1427
1104.737126456726,1359
1106.9058300000124,1308
1109.0739530525475,1340
1111.2414958483764,1346
1113.4084586216231,1369
1115.5748416064907,1333
1117.7406450372605,1364
1119.9058691482942,1347
1122.0705141740304,1317
1124.2345803489884,1342
1126.3980679077658,1301
1128.5609770850388,1348
1130.7233081155623,1374
1132.8850612341707,1338
1135.0462366757774,1333
1137.2068346753745,1377
1139.3668554680326,1340
1141.526299288901,1321
1143.68516637321,1345
1145.8434569562655,1294
1148.001171273455,1324
1150.158309560244,1323
1152.3148720521767,1339
1154.470858984876,1326
1156.626270594044,1308
1158.7811071154629,1335
1160.9353687849912,1375
1163.089055838569,1335
1165.242168512213,1333
1167.3947070420209,1326
1169.5466716641677,1312
1171.6980626149075,1292
1173.8488801305748,1333
1175.9991244475814,1357
1178.1487958024186,1312
1180.2978944316555,1272
1182.4464205719428,1317
1184.5943744600072,1334
1186.7417563326567,1277
1188.8885664267755,1297
1191.0348049793297,1322
1193.1804722273619,1290
1195.325568407995,1325
1197.4700937584303,1313
1199.614048515948,1315
1201.7574329179074,1297
1203.900247201746,1285
1206.042491604982,1238
1208.1841663652099,1233
1210.3252717201053,1301
1212.465807907422,1306
1214.6057751649923,1272
1216.7451737307279,1330
1218.8840038426192,1268
1221.0222657387353,1342
1223.1599596572241,1312
1225.2970858363137,1318
1227.4336445143094,1335
1229.5696359295966,1315
1231.705060320639,1285
1233.8399179259786,1301
1235.9742089842384,1311
1238.107933734118,1338
1240.2410924143974,1353
1242.373685263935,1327
1244.5057125216676,1315
1246.6371744266116,1366
1248.7680712178621,1325
1250.898403134593,1321
1253.028170416058,1369
1255.1573733015875,1313
1257.2860120305932,1361
1259.4140868425648,1328
1261.54159797707,1324
1263.6685456737569,1366
1265.7949301723515,1353
1267.9207517126597,1312
1270.046010534565,1375
1272.1707068780306,1325
1274.2948409830983,1366
1276.4184130898889,1322
1278.541423438603,1307
1280.6638722695184,1343
1282.785759822993,1337
1284.9070863394636,1330
1287.0278520594447,1319
1289.1480572235314,1366
1291.2677020723963,1387
1293.3867868467923,1329
1295.5053117875495,1391
1297.623277135579,1371
1299.740683131868,1333
1301.8575300174857,1368
1303.973818033578,1434
1306.0895474213703,1382
1308.2047184221678,1407
1310.3193312773528,1349
1312.4333862283888,1371
1314.5468835168163,1392
1316.659823384255,1376
1318.7722060724045,1381
1320.8840318230418,1385
1322.9953008780249,1393
1325.1060134792888,1351
1327.2161698688478,1353
1329.3257702887959,1379
1331.4348149813054,1369
1333.5433041886276,1378
1335.6512381530933,1370
1337.7586171171101,1420
1339.8654413231675,1430
1341.9717110138317,1371
1344.0774264317488,1373
1346.1825878196432,1373
1348.2871954203192,1344
1350.3912494766587,1396
1352.4947502316231,1365
1354.5976979282532,1372
1356.7000928096686,1348
1358.8019351190665,1373
1360.9032250997243,1344
1363.0039629949988,1422
1365.1041490483235,1394
1367.2037835032133,1362
1369.3028666032606,1383
1371.401398592137,1315
1373.4993797135926,1381
1375.5968102114575,1367
1377.6936903296396,1381
1379.7900203121262,1372
1381.8858004029835,1341
1383.9810308463561,1356
1386.075711886469,1327
1388.1698437676241,1328
1390.2634267342032,1420
1392.356461030667,1397
1394.4489469015557,1365
1396.5408845914872,1383
1398.6322743451592,1370
1400.7231164073469,1330
1402.813411022907,1354
1404.903158436773,1360
1406.9923588939578,1442
1409.0810126395531,1402
1411.1691199187303,1402
1413.2566809767386,1440
1415.343696058907,1400
1417.4301654106425,1388
1419.5160892774315,1333
1421.6014679048399,1407
1423.6863015385125,1434
1425.7705904241707,1490
1427.8543348076178,1370
1429.9375349347342,1398
1432.0201910514802,1404
1434.102303403894,1343
1436.1838722380944,1448
1438.2648978002767,1377
1440.3453803367174,1369
1442.4253200937692,1432
1444.5047173178677,1340
1446.5835722555234,1368
1448.6618851533285,1382
1450.739656257952,1347
1452.8168858161434,1367
1454.8935740747306,1398
1456.96972128062,1362
1459.045327680797,1428
1461.120393522327,1390
1463.1949190523528,1393
1465.2689045180973,1390
1467.3423501668608,1391
1469.415256246024,1378
1471.4876230030463,1415
1473.559450685465,1387
1475.6307395408976,1446
1477.7014898170391,1464
1479.771701761665,1402
1481.8413756226287,1372
1483.9105116478618,1410
1485.9791100853772,1387
1488.0471711832643,1427
1490.1146951896926,1402
1492.1816823529098,1461
1494.2481329212433,1399
1496.3140471430984,1439
1498.3794252669609,1407
1500.4442675413939,1433
1502.5085742150404,1423
1504.572345536622,1438
1506.6355817549388,1424
1508.6982831188702,1397
1510.7604498773744,1399
1512.8220822794883,1444
1514.8831805743293,1452
1516.9437450110909,1416
1519.003775839048,1434
1521.0632733075522,1479
1523.1222376660367,1452
1525.1806691640113,1371
1527.2385680510652,1407
1529.2959345768668,1448
1531.3527689911643,1475
1533.4090715437833,1392
1535.4648424846291,1432
1537.5200820636855,1415
1539.5747905310159,1478
1541.6289681367616,1434
1543.6826151311434,1511
1545.7357317644614,1512
1547.7883182870937,1494
1549.8403749494987,1455
1551.8919020022113,1430
1553.9428996958477,1475
1555.9933682811015,1538
1558.0433080087469,1495
1560.0927191296346,1500
1562.1416018946961,1490
1564.1899565549415,1548
1566.2377833614592,1523
1568.2850825654164,1550
1570.3318544180606,1545
1572.3780991707158,1607
1574.423817074788,1448
1576.4690083817595,1563
1578.5136733431923,1532
1580.5578122107272,1557
1582.601425236085,1500
1584.6445126710646,1507
1586.6870747675434,1524
1588.7291117774776,1454
1590.7706239529034,1500
1592.8116115459347,1515
1594.8520748087658,1476
1596.8920139936686,1481
1598.9314293529933,1386
1600.9703211391711,1437
1603.008689604711,1468
1605.0465350022005,1443
1607.0838575843068,1411
1609.1206576037753,1426
1611.1569353134305,1394
1613.1926909661765,1429
1615.2279248149953,1366
1617.2626371129481,1408
1619.2968281131757,1366
1621.3304980688963,1369
1623.3636472334088,1389
1625.39627586009,1386
1627.428384202396,1317
1629.459972513861,1411
1631.4910410480993,1389
1633.5215900588028,1342
1635.551619799744,1287
1637.5811305247717,1369
1639.6101224878166,1426
1641.6385959428862,1357
1643.6665511440683,1344
1645.693988345528,1288
1647.7209078015112,1284
1649.7473097663405,1345
1651.7731944944203,1378
1653.7985622402307,1350
1655.823413258333,1326
1657.847747803366,1340
1659.8715661300494,1313
1661.8948684931793,1322
1663.9176551476316,1302
1665.9399263483624,1301
1667.9616823504057,1320
1669.982923408873,1332
1672.0036497789574,1317
1674.0238617159293,1391
1676.043559475138,1325
1678.0627433120121,1352
1680.081413482059,1300
1682.0995702408654,1335
1684.117213844096,1328
1686.134344547495,1299
1688.1509626068864,1331
1690.1670682781705,1273
1692.182661817329,1352
1694.1977434804217,1312
1696.2123135235875,1301
1698.226372203043,1306
1700.2399197750851,1371
1702.2529564960905,1323
1704.2654826225112,1362
1706.277498410882,1357
1708.2890041178139,1357
1710.2999999999988,1325
1712.3104863142066,1311
1714.3204633172854,1247
1716.329931266163,1329
1718.3388904178469,1314
1720.3473410294214,1305
1722.3552833580516,1302
1724.3627176609807,1319
1726.3696441955308,1286
1728.3760632191033,1276
1730.3819749891782,1294
1732.3873797633146,1312
1734.3922777991502,1307
1736.3966693544012,1334
1738.4005546868639,1331
1740.4039340544127,1325
1742.406807715001,1319
1744.4091759266616,1335
1746.4110389475054,1305
1748.4123970357223,1288
1750.413250449582,1331
1752.4135994474318,1282
1754.4134442876993,1341
1756.4127852288902,1278
1758.4116225295893,1285
1760.4099564484595,1346
1762.407787244244,1298
1764.405115175764,1299
1766.4019405019203,1374
1768.3982634816916,1319
1770.3940843741357,1254
1772.3894034383907,1349
1774.3842209336717,1323
1776.378537119274,1347
1778.372352254571,1333
1780.3656665990156,1305
1782.3584804121397,1347
1784.3507939535534,1287
1786.3426074829463,1319
1788.3339212600863,1287
1790.3247355448211,1302
1792.3150505970766,1351
1794.3048666768573,1324
1796.2941840442477,1342
1798.2830029594106,1357
1800.2713236825884,1346
1802.2591464741004,1299
1804.2464715943465,1378
1806.2332993038058,1328
1808.2196298630352,1312
1810.2054635326708,1320
1812.190800573428,1335
1814.175641246101,1339
1816.1599858115628,1362
1818.1438345307652,1395
1820.127187664738,1362
1822.1100454745924,1270
1824.092408221516,1288
1826.0742761667766,1293
1828.055649571721,1253
1830.0365286977735,1308
1832.0169138064398,1322
1833.9968051593014,1294
1835.9762030180214,1342
1837.9551076443408,1314
1839.9335193000788,1362
1841.9114382471344,1340
1843.888864747485,1338
1845.8657990631878,1355
1847.842241456378,1293
1849.8181921892697,1343
1851.7936515241558,1362
1853.7686197234098,1359
1855.7430970494815,1336
1857.7170837649014,1334
1859.6905801322787,1306
1861.6635864143004,1337
1863.6361028737338,1312
1865.608129773424,1347
1867.5796673762961,1361
1869.5507159453537,1326
1871.521275743678,1372
1873.4913470344313,1342
1875.4609300808534,1375
1877.4300251462632,1338
1879.3986324940588,1312
1881.366752387717,1335
1883.3343850907936,1316
1885.3015308669228,1303
1887.268189979819,1329
1889.2343626932739,1402
1891.2000492711595,1309
1893.1652499774254,1364
1895.1299650761011,1273
1897.0941948312952,1308
1899.0579395071945,1302
1901.0211993680641,1356
1902.98397467825,1396
1904.9462657021745,1321
1906.9080727043415,1384
1908.869395949332,1329
1910.8302357018065,1324
1912.790592226504,1270
1914.7504657882428,1280
1916.7098566519212,1280
1918.6687650825133,1312
1920.6271913450764,1324
1922.5851357047422,1308
1924.5425984267245,1279
1926.499579776314,1364
1928.4560800188833,1342
1930.4120994198802,1351
1932.367638244833,1332
1934.32269675935,1343
1936.2772752291175,1318
1938.231373919899,1344
1940.1849930975404,1342
1942.1381330279637,1323
1944.0907939771696,1346
1946.0429762112412,1379
1947.9946799963363,1304
1949.9459055986945,1366
1951.896653284633,1306
1953.8469233205478,1318
1955.7967159729142,1305
1957.7460315082863,1265
1959.6948701932974,1284
1961.6432322946594,1292
1963.5911180791632,1266
1965.5385278136787,1345
1967.4854617651545,1339
1969.4319202006182,1272
1971.377903387176,1321
1973.3234115920136,1314
1975.268445082395,1327
1977.2130041256642,1311
1979.1570889892423,1321
1981.1006999406304,1305
1983.04383724741,1315
1984.986501177238,1340
1986.928691997853,1299
1988.8704099770712,1292
1990.811655382789,1282
1992.7524284829801,1305
1994.692729545698,1286
1996.6325588390755,1289
1998.5719166313224,1306
2000.5108031907307,1299
2002.4492187856677,1313
2004.387163684583,1282
2006.3246381560011,1278
2008.2616424685298,1319
2010.1981768908527,1309
2012.1342416917332,1320
2014.069837140014,1320
2016.0049635046162,1271
2017.9396210545406,1296
2019.8738100588666,1319
2021.8075307867502,1284
2023.740783507431,1310
2025.6735684902228,1303
2027.6058860045214,1255
2029.5377363198004,1335
2031.4691197056118,1332
2033.4000364315875,1359
2035.3304867674374,1298
2037.260470982952,1304
2039.189989347998,1265
2041.1190421325232,1273
2043.047629606554,1333
2044.9757520401945,1321
2046.9034097036288,1336
2048.8306028671195,1327
2050.7573318010086,1282
2052.683596775716,1325
2054.609398061742,1342
2056.5347359296647,1274
2058.4596106501403,1319
2060.384022493906,1324
2062.3079717317764,1300
2064.231458634646,1301
2066.1544834734873,1318
2068.077046519352,1338
2069.99914804337,1285
2071.9207883167524,1302
2073.8419676107865,1318
2075.7626861968406,1249
2077.6829443463607,1359
2079.6027423308715,1322
2081.522080421977,1333
2083.440958891362,1299
2085.359378010786,1363
2087.2773380520907,1307
2089.194839287196,1270
2091.111881988101,1274
2093.0284664268825,1362
2094.9445928756973,1332
2096.86026160678,1343
2098.775472892446,1367
2100.690227005088,1252
2102.604524217178,1330
2104.5183648012676,1302
2106.431749029985,1384
2108.34467717604,1324
2110.2571495122206,1363
2112.169166311393,1281
2114.080727846503,1312
2115.9918343905747,1369
2117.902486216711,1321
2119.8126835980956,1318
2121.722426807987,1344
2123.6317161197285,1343
2125.5405518067364,1360
2127.448934142509,1370
2129.356863400624,1378
2131.264339854737,1319
2133.1713637785815,1353
2135.077935445972,1352
2136.9840551308002,1349
2138.889723107037,1324
2140.7949396487334,1350
2142.699705030018,1367
2144.6040195250994,1342
2146.507883408264,1414
2148.4112969538774,1348
2150.3142604363848,1373
2152.2167741303097,1404
2154.1188383102535,1371
2156.0204532508997,1353
2157.9216192270064,1394
2159.822336513414,1425
2161.7226053850413,1356
2163.622426116884,1377
2165.5217989840185,1421
2167.4207242616,1360
2169.319202224862,1397
2171.2172331491165,1369
2173.1148173097563,1372
2175.0119549822507,1396
2176.90864644215,1356
2178.8048919650823,1419
2180.7006918267534,1368
2182.596046302952,1368
2184.4909556695407,1401
2186.3854202024645,1378
2188.279440177746,1368
2190.173015871487,1368
2192.066147559868,1381
2193.958835519149,1373
2195.851080025667,1374
2197.7428813558417,1341
2199.6342397861667,1357
2201.5251555932186,1424
2203.415629053651,1485
2205.3056604441986,1379
2207.19525004167,1330
2209.084398122958,1385
2210.9731049650327,1391
2212.861370844941,1402
2214.749196039812,1366
2216.636580826851,1397
2218.523525483344,1395
2220.410030286655,1381
2222.296095514226,1417
2224.1817214435805,1444
2226.066908352319,1346
2227.951656518121,1357
2229.835966218746,1363
2231.71983773203,1408
2233.6032713358913,1387
2235.486267308324,1412
2237.3688259274036,1373
2239.2509474712824,1361
2241.132632218193,1406
2243.013880446447,1376
2244.8946924344323,1425
2246.7750684606203,1352
2248.6550088035574,1361
2250.534513741871,1387
2252.413583554265,1414
2254.292218519526,1381
2256.170418916517,1370
2258.0481850241786,1358
2259.925517121534,1410
2261.8024154876825,1370
2263.678880401803,1359
2265.5549121431536,1351
2267.430510991071,1420
2269.305677224971,1407
2271.180411124348,1340
2273.0547129687766,1324
2274.9285830379076,1417
2276.8020216114737,1419
2278.6750289692845,1362
2280.5476053912294,1429
2282.4197511572766,1400
2284.2914665474727,1431
2286.162751841943,1411
2288.0336073208937,1429
2289.904033264608,1520
2291.774029953448,1383
2293.6435976678554,1426
2295.5127366883517,1360
2297.381447295534,1305
2299.2497297700825,1343
2301.1175843927526,1313
2302.9850114443825,1308
2304.852011205885,1286
2306.7185839582553,1251
2308.5847299825664,1272
2310.4504495599676,1186
2312.3157429716925,1239
2314.1806104990483,1210
2316.0450524234247,1201
2317.9090690262888,1218
2319.772660589186,1182
2321.635827393742,1216
2323.498569721661,1204
2325.3608878547248,1165
2327.2227820747967,1173
2329.0842526638157,1173
2330.945299903803,1172
2332.805924076857,1178
2334.6661254651535,1197
2336.525904350951,1176
2338.3852610165827,1186
2340.244195744464,1138
2342.102708817088,1196
2343.9608005170253,1196
2345.8184711269287,1190
2347.675720929526,1150
2349.532550207628,1189
2351.38895924412,1223
2353.24494832197,1180
2355.100517724223,1154
2356.955667734004,1175
2358.810398634514,1191
2360.664710709037,1211
2362.5186042409337,1223
2364.3720795136437,1152
2366.225136810686,1169
2368.0777764156583,1188
2369.929998612237,1212
2371.7818036841777,1198
2373.633191915315,1178
2375.484163589562,1230
2377.3347189909114,1176
2379.184858403434,1117
2381.03458211128,1176
2382.8838903986775,1159
2384.732783549936,1161
2386.5812618494406,1192
2388.4293255816588,1222
2390.2769750311327,1208
2392.1242104824883,1196
2393.971032220427,1230
2395.8174405297295,1203
2397.6634356952563,1226
2399.509018001947,1171
2401.3541877348193,1187
2403.1989451789705,1184
2405.043290619576,1214
2406.8872243418905,1196
2408.730746631247,1166
2410.5738577730594,1239
2412.4165580528183,1218
2414.258847756095,1173
2416.100727168537,1153
2417.9421965758734,1178
2419.783256263912,1218
2421.623906518538,1260
2423.4641476257157,1252
2425.303979871491,1236
2427.143403541984,1142
2428.9824189233977,1246
2430.821026302012,1210
2432.6592259641866,1205
2434.497018196361,1244
2436.33440328505,1211
2438.171381516851,1189
2440.00795317844,1239
2441.844118556569,1167
2443.6798779380724,1173
2445.5152316098606,1188
2447.3501798589255,1216
2449.1847229723357,1241
2451.0188612372403,1218
2452.8525949408663,1190
2454.6859243705203,1243
2456.518849813587,1184
2458.3513715575314,1195
2460.183489889895,1161
2462.015205098301,1212
2463.8465174704493,1228
2465.67742729412,1220
2467.5079348571717,1193
2469.338040447542,1184
2471.1677443532476,1200
2472.9970468623833,1189
2474.825948263123,1178
2476.6544488437207,1202
2478.482548892508,1126
2480.310248697896,1180
2482.137548548374,1176
2483.9644487325118,1239
2485.790949538956,1247
2487.617051256433,1220
2489.44275417375,1214
2491.26805857979,1182
2493.0929647635157,1194
2494.917473013971,1196
2496.741583620276,1174
2498.5652968716304,1180
2500.3886130573137,1191
2502.2115324666834,1234
2504.0340553891765,1212
2505.856182114308,1202
2507.6779129316733,1221
2509.499248130945,1257
2511.3201880018764,1169
2513.140732834298,1149
2514.9608829181198,1198
2516.780638543331,1200
2518.6,1224
2520.418967578273,1206
2522.237541568376,1176
2524.0557222606144,1184
2525.8735099453706,1177
2527.6909049131086,1226
2529.507907454368,1188
2531.32451785977,1193
2533.140736420014,1182
2534.9565634258774,1181
2536.771999168218,1201
2538.5870439379714,1155
2540.4016980261526,1219
2542.2159617238544,1135
2544.02983532225,1184
2545.8433191125914,1188
2547.656413386209,1189
2549.4691184345115,1204
2551.2814345489874,1199
2553.093362021204,1230
2554.904901142808,1226
2556.716052205523,1227
2558.526815501153,1206
2560.3371913215824,1204
2562.147179958771,1186
2563.956781704761,1224
2565.7659968516705,1176
2567.5748256916986,1195
2569.3832685171224,1235
2571.1913256202984,1211
2572.9989972936614,1217
2574.806283829725,1255
2576.613185521084,1151
2578.4197026604074,1190
2580.2258355404483,1213
2582.031584454035,1219
2583.836949694077,1211
2585.6419315535613,1197
2587.4465303255533,1238
2589.2507463032002,1203
2591.0545797797245,1294
2592.8580310484303,1277
2594.6611004026995,1229
2596.463788135992,1205
2598.266094541849,1188
2600.0680199138874,1196
2601.869564545807,1243
2603.670728731383,1229
2605.4715127644704,1187
2607.2719169390048,1188
2609.071941548998,1209
2610.8715868885433,1203
2612.670853251811,1250
2614.469740933052,1210
2616.268250226594,1194
2618.0663814268455,1205
2619.864134828292,1238
2621.6615107255006,1208
2623.458509413115,1227
2625.2551311858597,1145
2627.0513763385347,1253
2628.8472451660223,1255
2630.6427379632833,1230
2632.4378550253564,1186
2634.232596647359,1175
2636.026963124488,1192
2637.8209547520187,1245
2639.6145718253065,1206
2641.407814639785,1226
2643.200683490966,1204
2644.9931786744414,1228
2646.7853004858807,1224
2648.577049221034,1183
2650.3684251757277,1180
2652.1594286458712,1220
2653.9500599274484,1207
2655.740319316525,1204
2657.5302071092437,1185
2659.3197236018286,1233
2661.10886909058,1258
2662.8976438718782,1220
2664.686048242183,1209
2666.4740824980327,1230
2668.2617469360443,1196
2670.0490418529134,1167
2671.8359675454153,1200
2673.622524310403,1160
2675.408712444811,1190
2677.1945322456495,1206
2678.979984010009,1219
2680.76506803506,1251
2682.5497846180497,1181
2684.334134056306,1216
2686.1181166472343,1219
2687.9017326883213,1201
2689.6849824771293,1157
2691.4678663113013,1204
2693.2503844885596,1177
2695.032537306705,1181
2696.8143250636167,1252
2698.5957480572542,1221
2700.3768065856534,1219
2702.1575009469316,1182
2703.937831439283,1197
2705.717798360982,1160
2707.4974020103837,1190
2709.276642685917,1159
2711.055520686095,1179
2712.834036309506,1213
2714.612189854819,1175
2716.389981620782,1155
2718.1674119062204,1216
2719.944481010041,1209
2721.721189231226,1201
2723.4975368688415,1181
2725.273524222027,1144
2727.0491515900053,1197
2728.824419272075,1178
2730.5993275676146,1200
2732.3738767760838,1247
2734.148067197016,1158
2735.921899130031,1192
2737.6953728748194,1181
2739.468488731156,1178
2741.2412469988926,1194
2743.0136479779617,1152
2744.785691968372,1166
2746.5573792702116,1211
2748.3287101836504,1173
2750.099685008934,1177
2751.870304046388,1163
2753.640567596418,1213
2755.4104759595057,1184
2757.1800294362156,1169
2758.949228327187,1166
2760.7180729331412,1177
2762.486563554877,1179
2764.254700493272,1115
2766.022484049284,1184
2767.789914523947,1180
2769.5569922183786,1177
2771.3237174337705,1183
2773.090090471394,1194
2774.8561116326036,1158
2776.6217812188274,1180
2778.3870995315756,1185
2780.1520668724356,1170
2781.9166835430747,1139
2783.6809498452394,1174
2785.444866080754,1215
2787.2084325515225,1185
2788.971649559527,1198
2790.73451740683,1167
2792.4970363955713,1193
2794.2592068279705,1224
2796.0210290063264,1205
2797.7825032330147,1185
2799.543629810493,1122
2801.304409041296,1188
2803.0648412280366,1181
2804.8249266734088,1188
2806.5846656801846,1169
2808.344058551212,1178
2810.1031055894246,1202
2811.8618070978273,1209
2813.6201633795085,1197
2815.378174737636,1194
2817.1358414754536,1230
2818.893163896285,1195
2820.6501423035334,1231
2822.4067770006814,1153
2824.1630682912883,1237
2825.9190164789957,1227
2827.6746218675207,1167
2829.429884760661,1180
2831.184805462294,1203
2832.9393842763743,1187
2834.693621506936,1188
2836.4475174580916,1193
2838.201072434034,1175
2839.954286739034,1176
2841.707160677441,1193
2843.459694553685,1208
2845.2118886722724,1198
2846.96374333779,1237
2848.7152588549034,1175
2850.4664355283567,1198
2852.217273662973,1176
2853.9677735636546,1152
2855.7179355353833,1222
2857.4677598832186,1227
2859.217246912299,1155
2860.9663969278427,1157
2862.715210235146,1203
2864.4636871395846,1147
2866.211827946614,1209
2867.9596329617652,1176
2869.7071024906536,1236
2871.4542368389684,1182
2873.20103631248,1091
2874.947501217038,1151
2876.6936318585695,1167
2878.4394285430812,1173
2880.1848915766604,1202
2881.9300212654707,1183
2883.6748179157553,1229
2885.4192818338374,1169
2887.1634133261173,1209
2888.907212699077,1159
2890.6506802592744,1239
2892.393816313348,1166
2894.1366211680142,1217
2895.8790951300693,1166
2897.621238506388,1154
2899.363051603925,1225
2901.1045347297118,1193
2902.8456881908596,1228
2904.58651229456,1244
2906.327007348081,1227
2908.067173658772,1179
2909.8070115340597,1146
2911.5465212814497,1188
2913.285703208527,1154
2915.0245576229563,1184
2916.7630848324807,1179
2918.5012851449196,1212
2920.2391588681758,1219
2921.976706310227,1267
2923.7139277791334,1216
2925.4508235830313,1193
2927.187394030137,1232
2928.923639428745,1179
2930.6595600872306,1232
2932.395156314046,1275
2934.1304284177218,1194
2935.8653767068713,1240
2937.6000014901815,1213
2939.3343030764227,1256
2941.068281774442,1274
2942.8019378931644,1217
2944.5352717415976,1270
2946.2682836288236,1245
2948.0009738640065,1207
2949.7333427563885,1185
2951.465390615289,1203
2953.1971177501086,1233
2954.9285244703265,1223
2956.6596110855,1204
2958.3903779052657,1213
2960.1208252393385,1178
2961.8509533975125,1159
2963.5807626896617,1128
2965.3102534257378,1173
2967.0394259157715,1240
2968.768280469873,1223
2970.496817398232,1185
2972.2250370111146,1146
2973.952939618869,1224
2975.6805255319196,1204
2977.4077950607707,1206
2979.134748516006,1190
2980.861386208289,1192
2982.587708448359,1196
2984.313715547037,1203
2986.039407815222,1184
2987.764785563891,1162
2989.489849104102,1183
2991.2145987469908,1221
2992.9390348037705,1170
2994.6631575857346,1183
2996.3869674042576,1180
2998.1104645707887,1180
2999.83364939686,1184
3001.5565221940783,1208
3003.2790832741334,1205
3005.0013329487924,1158
3006.7232715298996,1152
3008.4448993293804,1119
3010.166216659239,1192
3011.887223831558,1127
3013.607921158498,1187
3015.3283089522993,1217
3017.0483875252826,1174
3018.7681571898443,1196
3020.4876182584626,1157
3022.2067710436927,1223
3023.9256158581707,1222
3025.644153014609,1230
3027.362382825801,1244
3029.0803056046193,1172
3030.797921664012,1188
3032.5152313170106,1146
3034.2322348767225,1165
3035.9489326563353,1185
3037.665324969115,1154
3039.3814121284063,1214
3041.097194447633,1188
3042.812672240299,1185
3044.5278458199855,1260
3046.2427155003525,1164
3047.9572815951406,1203
3049.671544418167,1189
3051.38550428333,1207
3053.0991615046073,1217
3054.812516396051,1249
3056.5255692717974,1157
3058.2383204460575,1202
3059.9507702331257,1203
3061.662918947372,1185
3063.3747669032446,1189
3065.0863144152736,1248
3066.7975617980674,1178
3068.508509366309,1187
3070.219157434767,1157
3071.9295063182844,1171
3073.639556331785,1177
3075.3493077902704,1158
3077.058761008821,1185
3078.7679163025964,1160
3080.476773986837,1197
3082.1853343768594,1152
3083.89359778806,1145
3085.6015645359153,1191
3087.3092349359786,1170
3089.016609303884,1202
3090.7236879553434,1211
3092.4304712061476,1179
3094.136959372166,1176
3095.843152769349,1196
3097.5490517137237,1204
3099.2546565213966,1119
3100.959967508554,1155
3102.66498499146,1126
3104.3697092864577,1212
3106.0741407099695,1115
3107.778279578498,1175
3109.482126208622,1181
3111.1856809170004,1193
3112.8889440203716,1187
3114.5919158355528,1148
3116.294596679439,1176
3117.996986869006,1130
3119.6990867213062,1205
3121.4008965534726,1198
3123.102416682717,1147
3124.803647426329,1174
3126.5045891016784,1190
3128.205242026213,1185
3129.90560651746,1216
3131.605682893025,1217
3133.3054714705922,1153
3135.0049725679282,1212
3136.7041865028714,1177
3138.4031135933465,1164
3140.101754157353,1141
3141.800108512971,1167
3143.498176978357,1236
3145.1959598717494,1195
3146.8934575114636,1170
3148.5906702158954,1138
3150.2875983035183,1186
3151.9842420928853,1176
3153.680601902627,1185
3155.376678051456,1155
3157.07247085816,1156
3158.767980641609,1118
3160.463207720748,1140
3162.158152414606,1155
3163.8528150422862,1184
3165.5471959229726,1166
3167.2412953759303,1209
3168.9351137204976,1198
3170.628651276098,1214
3172.3219083622307,1140
3174.014885298474,1182
3175.707582404485,1198
3177.4000000000005,1152
3179.092138404835,1185
3180.7839979388846,1204
3182.47557892212,1114
3184.166881674594,1224
3185.8579065164386,1119
3187.5486537678626,1182
3189.2391237491547,1144
3190.9293167806827,1150
3192.6192331828934,1152
3194.3088732763117,1162
3195.998237381542,1196
3197.687325819268,1179
3199.376138910251,1193
3201.064676975334,1105
3202.7529403354347,1165
3204.4409293115523,1169
3206.1286442247647,1157
3207.816085396229,1181
3209.5032531471825,1199
3211.190147798936,1146
3212.8767696728846,1173
3214.5631190905015,1166
3216.2491963733373,1160
3217.9350018430214,1129
3219.6205358212637,1094
3221.305798629851,1107
3222.990790590651,1110
3224.6755120256103,1131
3226.359963256751,1102
3228.0441446061795,1154
3229.7280563960758,1189
3231.411698948703,1129
3233.0950725863995,1115
3234.778177631587,1158
3236.461014406761,1204
3238.1435832345005,1181
3239.8258844374595,1170
3241.507918338374,1178
3243.1896852600576,1163
3244.8711855254023,1140
3246.552419457381,1185
3248.233387379042,1151
3249.914089613516,1203
3251.59452648401,1189
3253.274698313813,1155
3254.95460542629,1090
3256.6342481448855,1135
3258.313626793125,1150
3259.9927416946084,1153
3261.6715931730196,1148
3263.3501815521176,1114
3265.0285071557437,1118
3266.706570307815,1131
3268.3843713323286,1121
3270.0619105533615,1102
3271.739188295068,1119
3273.4162048816834,1127
3275.0929606375184,1149
3276.769455886966,1208
3278.445690954498,1180
3280.1216661646613,1167
3281.797381842087,1208
3283.4728383114807,1183
3285.1480358976296,1163
3286.8229749253996,1147
3288.4976557197333,1188
3290.172078605655,1143
3291.846243908266,1165
3293.5201519527463,1155
3295.193803064357,1156
3296.8671975684374,1112
3298.5403357904024,1171
3300.21321805575,1139
3301.8858446900567,1147
3303.558216018975,1169
3305.23033236824,1155
3306.9021940636603,1214
3308.57380143113,1160
3310.2451547966184,1156
3311.916254486174,1211
3313.5871008259246,1197
3315.2576941420766,1192
3316.9280347609147,1130
3318.5981230088046,1134
3320.2679592121895,1129
3321.9375436975924,1182
3323.606876791612,1192
3325.27595882093,1106
3326.944790112305,1134
3328.6133709925753,1156
3330.2817017886573,1169
3331.949782827547,1170
3333.617614436319,1187
3335.2851969421245,1174
3336.952530672199,1164
3338.619615953853,1243
3340.286453114475,1193
3341.9530424815357,1138
3343.619384382583,1175
3345.2854791452437,1113
3346.951327097224,1146
3348.6169285663073,1139
3350.2822838803577,1185
3351.947393367319,1175
3353.61225735521,1156
3355.2768761721345,1178
3356.9412501462693,1129
3358.605379605873,1152
3360.2692648792827,1149
3361.9329062949146,1140
3363.596304181263,1149
