CollectionTime,9/25/2024 10:34:37 AM
ExposureUsed,3
CalibratedSpectrum
-962.7078968117929,488
-959.9714848408522,494
-957.2358232597828,477
-954.5009119013725,493
-951.7667505983302,506
-949.0333391832855,497
-946.3006774887896,490
-943.5687653473143,484
-940.837602591253,475
-938.1071890529199,484
-935.3775245645503,499
-932.6486089583007,494
-929.9204420662485,496
-927.1930237203925,509
-924.4663537526524,518
-921.7404319948689,504
-919.0152582788041,475
-916.2908324361409,533
-913.5671542984834,550
-910.8442236973568,512
-908.1220404642074,487
-905.4006044304027,502
-902.679915427231,509
-899.959973285902,504
-897.2407778375464,506
-894.5223289132158,535
-891.8046263438832,494
-889.0876699604426,509
-886.3714595937089,507
-883.6559950744183,497
-880.9412762332282,488
-878.2273029007168,490
-875.5140749073835,473
-872.8015920836489,484
-870.0898542598545,498
-867.3788612662631,497
-864.6686129330585,474
-861.9591090903457,458
-859.2503495681506,457
-856.5423341964203,461
-853.8350628050229,481
-851.1285352237478,450
-848.4227512823054,502
-845.7177108103272,488
-843.0134136373656,495
-840.3098595928943,501
-837.6070485063082,476
-834.9049802069229,533
-832.2036545239757,506
-829.5030712866244,523
-826.8032303239481,511
-824.1041314649472,499
-821.4057745385428,510
-818.7081593735775,521
-816.0112857988148,524
-813.3151536429393,533
-810.6197627345566,528
-807.9251129021936,485
-805.2312039742981,473
-802.5380357792392,521
-799.8456081453069,506
-797.1539209007124,497
-794.462973873588,495
-791.772766891987,521
-789.083299783884,510
-786.3945723771743,522
-783.7065844996748,512
-781.0193359791231,528
-778.3328266431781,512
-775.6470563194197,507
-772.9620248353489,513
-770.2777320183878,505
-767.5941776958798,525
-764.9113616950891,526
-762.2292838432011,529
-759.5479439673222,516
-756.8673418944801,504
-754.1874774516235,505
-751.5083504656222,525
-748.8299607632671,503
-746.15230817127,562
-743.475392516264,572
-740.7992136248035,534
-738.1237713233636,529
-735.4490654383407,525
-732.7750957960521,486
-730.1018622227365,515
-727.4293645445534,549
-724.7576025875837,507
-722.0865761778291,521
-719.4162851412126,506
-716.7467293035781,544
-714.0779084906909,564
-711.409822528237,579
-708.7424712418238,529
-706.0758544569796,522
-703.4099719991541,527
-700.7448236937178,558
-698.0804093659622,566
-695.4167288411002,569
-692.7537819442656,579
-690.0915685005134,515
-687.4300883348199,539
-684.7693412720819,526
-682.1093271371178,556
-679.4500457546669,561
-676.7914969493897,532
-674.1336805458676,502
-671.4765963686034,546
-668.8202442420206,566
-666.1646239904642,530
-663.5097354382001,553
-660.8555784094151,526
-658.2021527282176,554
-655.5494582186366,569
-652.8974947046223,551
-650.2462620100463,564
-647.5957599587009,539
-644.9459883742998,559
-642.2969470804776,548
-639.6486359007902,544
-637.0010546587141,586
-634.3542031776476,617
-631.7080812809096,600
-629.0626887917401,582
-626.4180255333008,576
-623.7740913286734,604
-621.1308860008619,646
-618.4884093727904,630
-615.8466612673046,566
-613.2056415071715,572
-610.5653499150785,589
-607.9257863136347,590
-605.28695052537,593
-602.6488423727357,605
-600.0114616781036,622
-597.3748082637674,631
-594.7388819519412,648
-592.1036825647604,635
-589.4692099242818,654
-586.8354638524829,665
-584.2024441712624,663
-581.5701507024403,652
-578.9385832677575,642
-576.3077416888759,641
-573.6776257873787,600
-571.0482353847704,586
-568.4195703024757,617
-565.7916303618415,643
-563.164415384135,626
-560.5379251905453,616
-557.9121596021815,624
-555.2871184400748,623
-552.6628015251767,601
-550.0392086783606,639
-547.4163397204204,621
-544.794194472071,646
-542.1727727539491,651
-539.5520743866118,643
-536.9320991905377,676
-534.3128469861261,769
-531.6943175936979,744
-529.0765108334947,720
-526.4594265256793,792
-523.8430644903358,928
-521.2274245474689,1051
-518.612506517005,1041
-515.9983102187913,1110
-513.3848354725959,1168
-510.77208209810846,1277
-508.16004991493924,1433
-505.5487387426199,1543
-502.9381484006032,1483
-500.3282787082628,1407
-497.71912948489364,1321
-495.1107005497117,1169
-492.5029917218539,1061
-489.8960028203786,886
-487.28973366426493,804
-484.68418407241325,784
-482.07935386364494,771
-479.47524285670266,737
-476.87185087025,745
-474.2691777228715,777
-471.66722323307334,779
-469.0659872192821,788
-466.4654694998459,771
-463.86566989303384,793
-461.26658821703614,774
-458.66822428996414,827
-456.07057792985,805
-453.4736489546475,806
-450.877437182231,788
-448.28194243039627,742
-445.68716451686,723
-443.09310325926003,726
-440.49975847515555,732
-437.9071299820263,740
-435.31521759727354,768
-432.72402113821954,770
-430.13354042210767,845
-427.5437752661022,772
-424.95472548728867,767
-422.36639090267386,757
-419.7787713291855,813
-417.1918665836721,871
-414.60567648290385,779
-412.0202008435715,798
-409.4354394822874,779
-406.8513922155845,855
-404.26805885991723,831
-401.685439231661,815
-399.103533147112,796
-396.522340422488,873
-393.9418608739278,815
-391.3620943174908,782
-388.7830405691583,791
-386.2046994448317,792
-383.6270707603344,751
-381.05015433141045,731
-378.473949973725,691
-375.8984575028645,715
-373.32367673433623,645
-370.74960748356875,663
-368.1762495659117,604
-365.60360279663576,551
-363.03166699093265,527
-360.4604419639154,600
-357.8899275306178,532
-355.32012350599507,550
-352.7510297049233,542
-350.1826459421999,519
-347.61497203254316,538
-345.04800779059235,538
-342.4817530309082,494
-339.91620756797226,505
-337.35137121618743,550
-334.7872437898774,659
-332.22382510328725,620
-329.66111497058273,511
-327.09911320585127,525
-324.53781962310075,492
-321.9772340362607,518
-319.4173562591816,511
-316.8581861056348,517
-314.2997233893127,533
-311.7419679238294,518
-309.1849195227194,557
-306.62857799943856,599
-304.0729431673641,584
-301.51801483979375,563
-298.963792829947,614
-296.41027695096386,619
-293.85746701590574,617
-291.3053628377552,653
-288.7539642294155,556
-286.2032710037115,594
-283.65328297338897,641
-281.1039999511146,654
-278.5554217494762,741
-276.007548180983,669
-273.4603790580651,607
-270.9139141930734,659
-268.3681533982807,649
-265.8230964858798,621
-263.27874326798565,656
-260.7350935566336,615
-258.1921471637804,621
-255.6499039013039,691
-253.10836358100266,724
-250.56752601459698,682
-248.02739101372765,774
-245.48795838995704,747
-242.94922795476816,695
-240.41119951956557,756
-237.8738728956746,774
-235.33724789434166,739
-232.80132432673452,813
-230.2661020039418,750
-227.73158073697357,738
-225.19776033676033,751
-222.66464061415422,818
-220.1322213799284,808
-217.60050244477725,668
-215.06948361931552,731
-212.53916471408013,864
-210.00954553952818,909
-207.48062590603843,814
-204.9524056239104,767
-202.4248845033651,816
-199.8980623545441,874
-197.37193898751036,907
-194.84651421224817,920
-192.32178783866232,899
-189.79775967657952,909
-187.27442953574644,960
-184.7517972258321,1040
-182.2298625564256,997
-179.7086253370378,958
-177.18808537710026,978
-174.66824248596583,1106
-172.14909647290835,1030
-169.6306471471229,982
-167.11289431772548,862
-164.59583779375328,892
-162.07947738416453,998
-159.5638128978386,1079
-157.04884414357605,1134
-154.53457093009854,1140
-152.02099306604828,994
-149.50811035998936,921
-146.99592262040665,922
-144.48442965570587,1109
-141.97363127421409,1187
-139.46352728417958,1372
-136.95411749377126,1355
-134.44540171107985,1169
-131.93737974411636,1145
-129.43005140081357,1162
-126.92341648902493,1459
-124.41747481652521,1761
-121.91222619101006,2126
-119.40767042009657,2701
-116.90380731132257,3090
-114.40063667214702,3173
-111.8981583099503,3510
-109.3963720320337,4050
-106.89527764561933,4718
-104.39487495785067,5134
-101.89516377579241,6359
-99.39614390642998,8782
-96.89781515667039,12599
-94.40017733334128,15839
-91.90323024319173,14430
-89.40697369289148,9857
-86.91140748903172,6619
-84.41653143812482,6209
-81.92234534660395,9882
-79.42884902082358,13643
-76.93604226705907,17505
-74.4439248915071,21987
-71.95249670028534,25433
-69.46175749943245,28564
-66.97170709490854,27713
-64.48234529259423,21841
-61.99367189829195,14725
-59.50568671772464,12799
-57.01838955653636,14880
-54.53178022029283,16425
-52.045858514480074,15954
-49.560624244506016,16072
-47.07607721569923,13862
-44.59221723330904,11749
-42.10904410250669,11972
-39.62655762838392,14980
-37.14475761595372,19967
-34.66364387015028,21208
-32.18321619582866,25070
-29.70347439776515,28718
-27.224418280657005,26098
-24.74604764912317,28346
-22.26836230770266,42303
-19.7913620608565,65040
-17.315046712966478,65040
-14.83941606833514,65040
-12.36446993118659,65040
-9.89020810566592,65040
-7.416630395839093,65040
-4.94373660569363,65040
-2.471526539137585,65040
-6.821210263296962E-13,65040
2.47084320796705,65040
4.941003281093458,65040
7.410480415786196,65040
9.879274808531363,65040
12.347386655893956,65040
14.814816154518212,65040
17.28156350112681,65040
19.74762889252179,65040
22.21301252558385,28869
24.67771459727237,5874
27.141735304626195,3710
29.605074844762612,4539
32.06773341487792,4992
34.52971121224755,4775
36.99100843422559,4452
39.45162527824516,4652
41.91156194181792,3366
44.370818622535126,2940
46.82939551806646,2618
49.287292826160524,3105
51.74451074464503,3660
54.201049471426245,3367
56.65690920448981,2746
59.112090141899785,2617
61.56659248179983,2652
64.02041642241159,2563
66.4735621620365,2696
68.92602989905402,2816
71.37781983192338,2679
73.82893215918205,2226
76.27936707944684,1975
78.72912479141326,2224
81.17820549385567,2142
83.62660938562783,2127
86.07433666566146,1690
88.5213875329681,1830
90.96776218663751,1817
93.41346082583925,1720
95.85848364982041,1998
98.30283085790859,1903
100.7465026495089,1465
103.18949922410604,1507
105.63182078126385,1715
108.07346752062438,1566
110.51443964190923,1314
112.95473734491827,1410
115.39436082953114,1199
117.83331029570547,1201
120.27158594347827,1342
122.7091879729652,1313
125.1461165843615,1204
127.58237197794062,1233
130.01795435405518,1105
132.4528639131364,1174
134.88710085569494,1234
137.32066538231982,1247
139.75355769367923,1259
142.1857779905207,1306
144.61732647366978,1126
147.04820334403132,1123
149.47840880258934,1304
151.90794305040674,1403
154.33680628862487,1225
156.76499871846443,1332
159.19252054122433,1340
161.61937195828352,1369
164.04555317109896,1398
166.47106438120693,1541
168.89590579022217,1564
171.320077599839,1605
173.7435800118302,1785
176.16641322804742,1927
178.58857745042144,2047
181.01007288096173,1921
183.43089972175687,1928
185.85105817497413,2191
188.27054844285988,1958
190.6893707277394,1983
193.10752523201643,1962
195.5250121581745,2068
197.9418317087751,1926
200.3579840864594,2028
202.7734694939469,2001
205.18828813403627,2149
207.6024402096051,2048
210.01592592360964,2073
212.42874547908548,2183
214.84089907914665,2096
217.2523869269868,1973
219.66320922587727,2070
222.0733661791695,2135
224.48285799029293,1970
226.8916848627572,2025
229.29984700014882,2133
231.7073446061355,2190
234.11417788446204,2103
236.520347038953,2134
238.92585227351185,1932
241.33069379212054,2143
243.73487179884035,2178
246.1383864978112,2191
248.541238093252,2134
250.9434267894609,2037
253.34495279081432,2088
255.74581630176783,2096
258.1460175268563,2167
260.54555667069314,2160
262.9444339379703,2141
265.3426495334594,2117
267.7402036620107,2204
270.1370965285529,2122
272.53332833809407,2141
274.9288992957214,2091
277.32380960660055,2052
279.718059475976,2078
282.1116491091717,1967
284.5045787115897,2058
286.89684848871195,2128
289.2884586460981,2095
291.67940938938807,2099
294.0697009242996,2134
296.4593334566299,2132
298.84830719225477,2172
301.23662233712923,2140
303.6242790972866,2068
306.01127767884,2057
308.39761828798066,1971
310.78330113097934,2005
313.16832641418534,1957
315.5526943440269,1922
317.9364051270112,1906
320.3194589697242,2017
322.70185607883093,1906
325.0835966610754,1813
327.4646809232805,1793
329.8451090723478,1838
332.2248813152577,1890
334.6039978590701,1940
336.9824589109231,1810
339.36026467803447,1808
341.7374153677,1789
344.113911187295,1777
346.48975234427337,1755
348.8649390461686,1730
351.2394715005918,1809
353.61334991523415,1743
355.9865744978655,1750
358.35914545633375,1710
360.73106299856715,1812
363.10232733257146,1787
365.47293866643247,1772
367.84289720831396,1716
370.2122031664593,1660
372.5808567491905,1693
374.9488581649083,1678
377.31620762209275,1612
379.6829053293021,1670
382.0489514951745,1684
384.4143463284262,1746
386.7790900378528,1638
389.14318283232853,1642
391.50662492080653,1645
393.86941651231916,1631
396.23155781597745,1637
398.5930490409713,1635
400.9538903965696,1725
403.3140820921202,1697
405.6736243370498,1736
408.03251734086336,1616
410.3907613131465,1648
412.74835646356166,1640
415.10530300185144,1617
417.4616011378372,1570
419.81725108141893,1582
422.1722530425758,1571
424.5266072313656,1597
426.880313857925,1578
429.2333731324701,1558
431.58578526529516,1526
433.9375504667738,1585
436.2886689473588,1645
438.63914091758113,1630
440.9889665880513,1585
443.33814616945835,1606
445.68667987257015,1552
448.03456790823395,1600
450.3818104873759,1598
452.72840782100013,1538
455.07436012019105,1525
457.41966759611057,1516
459.7643304600007,1482
462.10834892318155,1517
464.4517231970525,1532
466.79445349309174,1549
469.1365400228566,1591
471.4779829979826,1545
473.81878263018564,1577
476.15893913125876,1569
478.4984527130747,1567
480.8373235875855,1600
483.17555196682144,1649
485.5131380628919,1605
487.8500820879857,1722
490.1863842543697,1761
492.52204477439034,1888
494.8570638604725,1999
497.1914417251204,2241
499.52517858091653,2596
501.85827464052306,2900
504.19073011668036,3273
506.5225452222086,3423
508.85372017000566,3342
511.18425517304956,3498
513.514150444396,3856
515.8434061971808,4743
518.1720226446176,5226
520.4999999999999,5224
522.8273384766991,4766
525.1540382881666,4426
527.480099647932,3864
529.8055227696037,3018
532.1303078668694,2314
534.454455153496,1925
536.777964843328,1727
539.1008371502907,1645
541.4230722883866,1637
543.744670471698,1525
546.0656319143858,1608
548.3859568306899,1556
550.7056454349294,1542
553.0246979415016,1530
555.3431145648834,1469
557.6608955196306,1540
559.978041020377,1520
562.2945512818363,1571
564.6104265188006,1501
566.9256669461412,1533
569.2402727788082,1459
571.5542442318302,1511
573.8675815203156,1591
576.1802848594508,1558
578.4923544645015,1513
580.8037905508126,1505
583.114593333807,1516
585.4247630289875,1548
587.7342998519354,1491
590.0432040183106,1540
592.3514757438526,1635
594.6591152443794,1522
596.9661227357875,1504
599.2724984340531,1481
601.578242555231,1508
603.8833553154542,1516
606.1878369309362,1466
608.4916876179676,1542
610.7949075929192,1504
613.0974970722403,1536
615.3994562724587,1523
617.7007854101818,1503
620.0014847020951,1518
622.3015543649641,1488
624.6009946156324,1494
626.8998056710224,1506
629.1979877481361,1537
631.4955410640538,1480
633.7924658359349,1489
636.0887622810175,1535
638.3844306166192,1586
640.6794710601358,1501
642.9738838290426,1564
645.2676691408932,1566
647.5608272133207,1536
649.853358264037,1579
652.1452625108324,1568
654.4365401715764,1582
656.7271914642178,1584
659.0172166067838,1605
661.3066158173809,1601
663.5953893141935,1597
665.8835373154867,1598
668.1710600396028,1552
670.4579577049639,1542
672.7442305300709,1526
675.0298787335033,1514
677.3149025339197,1569
679.599302150058,1539
681.8830778007342,1475
684.1662297048437,1558
686.4487580813608,1621
688.7306631493387,1577
691.0119451279091,1581
693.2926042362834,1593
695.5726406937516,1608
697.8520547196814,1596
700.1308465335215,1606
702.4090163547982,1592
704.6865644031171,1569
706.9634908981619,1526
709.2397960596965,1567
711.5154801075631,1569
713.7905432616823,1622
716.0649857420548,1557
718.3388077687592,1560
720.612009561953,1577
722.8845913418733,1508
725.1565533288352,1537
727.427895743234,1546
729.6986188055427,1523
731.9687227363137,1583
734.238207756178,1548
736.5070740858458,1576
738.7753219461066,1541
741.0429515578281,1566
743.3099631419569,1569
745.5763569195191,1501
747.8421331116193,1552
750.1072919394409,1560
752.3718336242467,1558
754.6357583873777,1648
756.8990664502545,1604
759.1617580343765,1585
761.423833361321,1566
763.6852926527457,1592
765.9461361303862,1563
768.206364016058,1562
770.4659765316536,1563
772.7249738991469,1566
774.9833563405886,1699
777.2411240781092,1660
779.4982773339183,1606
781.7548163303044,1609
784.010741289634,1611
786.2660524343538,1644
788.5207499869881,1585
790.7748341701416,1598
793.0283052064964,1704
795.2811633188143,1612
797.5334087299362,1623
799.7850416627813,1698
802.0360623403484,1643
804.2864709857143,1585
806.5362678220353,1562
808.7854530725468,1580
811.0340269605625,1653
813.2819897094754,1637
815.5293415427581,1631
817.77608268396,1548
820.0222133567116,1576
822.2677337847211,1579
824.5126441917765,1619
826.7569448017433,1653
829.0006358385675,1555
831.2437175262731,1581
833.4861900889629,1619
835.7280537508192,1601
837.9693087361026,1634
840.2099552691533,1635
842.4499935743896,1593
844.689423876309,1580
846.9282463994886,1615
849.1664613685833,1551
851.4040690083276,1528
853.6410695435349,1589
855.877463199097,1591
858.1132501999847,1580
860.3484307712487,1570
862.5830051380175,1631
864.8169735254988,1628
867.0503361589791,1620
869.2830932638243,1607
871.5152450654786,1585
873.7467917894654,1602
875.9777336613873,1595
878.2080709069252,1585
880.4378037518389,1631
882.666932421968,1632
884.8954571432301,1596
887.1233781416219,1591
889.3506956432192,1636
891.5774098741766,1554
893.803521060728,1588
896.0290294291852,1599
898.2539352059397,1550
900.4782386174619,1649
902.7019398903011,1632
904.925039251085,1670
907.147536926521,1681
909.3694331433943,1599
911.59072812857,1633
913.8114221089921,1707
916.0315153116827,1566
918.2510079637437,1619
920.4699002923547,1620
922.6881925247761,1586
924.905884888345,1592
927.1229776104793,1612
929.3394709186747,1585
931.555365040506,1646
933.7706602036275,1610
935.9853566357709,1606
938.1994545647489,1665
940.4129542184515,1619
942.6258558248488,1636
944.8381596119883,1604
947.0498658079974,1628
949.2609746410825,1612
951.4714863395287,1603
953.6814011316998,1614
955.8907192460387,1589
958.0994409110671,1617
960.3075663553858,1595
962.5150958076741,1608
964.7220294966913,1668
966.928367651274,1624
969.1341105003388,1599
971.3392582728806,1523
973.5438111979742,1551
975.747769504772,1519
977.9511334225061,1579
980.153903180487,1519
982.3560790081052,1579
984.5576611348289,1574
986.7586497902058,1587
988.9590452038618,1553
991.158847605503,1482
993.3580572249133,1445
995.5566742919558,1441
997.7546990365728,1352
999.952131688785,1390
1002.1489724786926,1365
1004.3452216364743,1372
1006.5408793923874,1375
1008.7359459767691,1374
1010.9304216200343,1437
1013.1243065526781,1350
1015.3176010052733,1294
1017.510305208472,1346
1019.7024193930064,1319
1021.8939437896848,1301
1024.0848786293977,1272
1026.2752241431122,1370
1028.4649805618747,1365
1030.6541481168115,1360
1032.842727039127,1277
1035.0307175601051,1294
1037.2181199111074,1298
1039.4049343235752,1291
1041.591161029029,1291
1043.7768002590683,1290
1045.9618522453698,1342
1048.1463172196918,1261
1050.3301954138697,1301
1052.513487059818,1332
1054.69619238953,1318
1056.8783116350783,1265
1059.0598450286152,1311
1061.2407928023704,1250
1063.4211551886528,1327
1065.6009324198508,1288
1067.780124728432,1287
1069.9587323469414,1308
1072.1367555080046,1276
1074.314194444325,1242
1076.4910493886855,1271
1078.667320573947,1237
1080.843008233051,1225
1083.0181125990161,1258
1085.1926339049414,1218
1087.3665723840027,1243
1089.5399282694575,1234
1091.7127017946405,1279
1093.8848931929647,1243
1096.0565026979243,1259
1098.2275305430899,1253
1100.3979769621128,1272
1102.567842188722,1240
1104.737126456726,1234
1106.9058300000124,1255
1109.0739530525475,1241
1111.2414958483764,1223
1113.4084586216231,1207
1115.5748416064907,1161
1117.7406450372605,1210
1119.9058691482942,1217
1122.0705141740304,1193
1124.2345803489884,1220
1126.3980679077658,1206
1128.5609770850388,1212
1130.7233081155623,1200
1132.8850612341707,1252
1135.0462366757774,1234
1137.2068346753745,1167
1139.3668554680326,1187
1141.526299288901,1189
1143.68516637321,1184
1145.8434569562655,1131
1148.001171273455,1184
1150.158309560244,1197
1152.3148720521767,1188
1154.470858984876,1193
1156.626270594044,1242
1158.7811071154629,1292
1160.9353687849912,1240
1163.089055838569,1221
1165.242168512213,1247
1167.3947070420209,1202
1169.5466716641677,1157
1171.6980626149075,1174
1173.8488801305748,1202
1175.9991244475814,1201
1178.1487958024186,1204
1180.2978944316555,1186
1182.4464205719428,1176
1184.5943744600072,1222
1186.7417563326567,1201
1188.8885664267755,1233
1191.0348049793297,1246
1193.1804722273619,1233
1195.325568407995,1232
1197.4700937584303,1244
1199.614048515948,1180
1201.7574329179074,1225
1203.900247201746,1140
1206.042491604982,1210
1208.1841663652099,1166
1210.3252717201053,1220
1212.465807907422,1155
1214.6057751649923,1206
1216.7451737307279,1308
1218.8840038426192,1230
1221.0222657387353,1254
1223.1599596572241,1244
1225.2970858363137,1232
1227.4336445143094,1183
1229.5696359295966,1207
1231.705060320639,1236
1233.8399179259786,1266
1235.9742089842384,1234
1238.107933734118,1295
1240.2410924143974,1292
1242.373685263935,1304
1244.5057125216676,1243
1246.6371744266116,1255
1248.7680712178621,1295
1250.898403134593,1268
1253.028170416058,1201
1255.1573733015875,1217
1257.2860120305932,1276
1259.4140868425648,1269
1261.54159797707,1224
1263.6685456737569,1256
1265.7949301723515,1301
1267.9207517126597,1311
1270.046010534565,1245
1272.1707068780306,1336
1274.2948409830983,1297
1276.4184130898889,1272
1278.541423438603,1306
1280.6638722695184,1304
1282.785759822993,1278
1284.9070863394636,1270
1287.0278520594447,1335
1289.1480572235314,1324
1291.2677020723963,1329
1293.3867868467923,1321
1295.5053117875495,1402
1297.623277135579,1348
1299.740683131868,1414
1301.8575300174857,1347
1303.973818033578,1420
1306.0895474213703,1462
1308.2047184221678,1416
1310.3193312773528,1395
1312.4333862283888,1463
1314.5468835168163,1429
1316.659823384255,1412
1318.7722060724045,1427
1320.8840318230418,1451
1322.9953008780249,1425
1325.1060134792888,1446
1327.2161698688478,1508
1329.3257702887959,1505
1331.4348149813054,1495
1333.5433041886276,1529
1335.6512381530933,1456
1337.7586171171101,1518
1339.8654413231675,1486
1341.9717110138317,1438
1344.0774264317488,1443
1346.1825878196432,1478
1348.2871954203192,1432
1350.3912494766587,1427
1352.4947502316231,1440
1354.5976979282532,1455
1356.7000928096686,1411
1358.8019351190665,1392
1360.9032250997243,1384
1363.0039629949988,1333
1365.1041490483235,1378
1367.2037835032133,1384
1369.3028666032606,1371
1371.401398592137,1332
1373.4993797135926,1408
1375.5968102114575,1327
1377.6936903296396,1349
1379.7900203121262,1317
1381.8858004029835,1314
1383.9810308463561,1270
1386.075711886469,1368
1388.1698437676241,1282
1390.2634267342032,1359
1392.356461030667,1321
1394.4489469015557,1319
1396.5408845914872,1337
1398.6322743451592,1297
1400.7231164073469,1297
1402.813411022907,1304
1404.903158436773,1284
1406.9923588939578,1349
1409.0810126395531,1342
1411.1691199187303,1271
1413.2566809767386,1335
1415.343696058907,1371
1417.4301654106425,1307
1419.5160892774315,1327
1421.6014679048399,1321
1423.6863015385125,1325
1425.7705904241707,1393
1427.8543348076178,1321
1429.9375349347342,1354
1432.0201910514802,1350
1434.102303403894,1340
1436.1838722380944,1305
1438.2648978002767,1335
1440.3453803367174,1336
1442.4253200937692,1297
1444.5047173178677,1338
1446.5835722555234,1385
1448.6618851533285,1390
1450.739656257952,1295
1452.8168858161434,1320
1454.8935740747306,1371
1456.96972128062,1332
1459.045327680797,1345
1461.120393522327,1396
1463.1949190523528,1340
1465.2689045180973,1321
1467.3423501668608,1389
1469.415256246024,1342
1471.4876230030463,1344
1473.559450685465,1336
1475.6307395408976,1390
1477.7014898170391,1412
1479.771701761665,1434
1481.8413756226287,1347
1483.9105116478618,1438
1485.9791100853772,1389
1488.0471711832643,1381
1490.1146951896926,1427
1492.1816823529098,1448
1494.2481329212433,1365
1496.3140471430984,1392
1498.3794252669609,1387
1500.4442675413939,1417
1502.5085742150404,1460
1504.572345536622,1468
1506.6355817549388,1470
1508.6982831188702,1499
1510.7604498773744,1429
1512.8220822794883,1469
1514.8831805743293,1472
1516.9437450110909,1530
1519.003775839048,1461
1521.0632733075522,1489
1523.1222376660367,1484
1525.1806691640113,1559
1527.2385680510652,1524
1529.2959345768668,1514
1531.3527689911643,1553
1533.4090715437833,1503
1535.4648424846291,1571
1537.5200820636855,1588
1539.5747905310159,1666
1541.6289681367616,1647
1543.6826151311434,1600
1545.7357317644614,1655
1547.7883182870937,1671
1549.8403749494987,1773
1551.8919020022113,1747
1553.9428996958477,1731
1555.9933682811015,1822
1558.0433080087469,1806
1560.0927191296346,1762
1562.1416018946961,1848
1564.1899565549415,1843
1566.2377833614592,1876
1568.2850825654164,1805
1570.3318544180606,1795
1572.3780991707158,1905
1574.423817074788,1851
1576.4690083817595,1844
1578.5136733431923,1845
1580.5578122107272,1843
1582.601425236085,1723
1584.6445126710646,1749
1586.6870747675434,1700
1588.7291117774776,1680
1590.7706239529034,1638
1592.8116115459347,1594
1594.8520748087658,1594
1596.8920139936686,1576
1598.9314293529933,1511
1600.9703211391711,1541
1603.008689604711,1491
1605.0465350022005,1473
1607.0838575843068,1442
1609.1206576037753,1435
1611.1569353134305,1471
1613.1926909661765,1360
1615.2279248149953,1450
1617.2626371129481,1339
1619.2968281131757,1411
1621.3304980688963,1393
1623.3636472334088,1321
1625.39627586009,1337
1627.428384202396,1306
1629.459972513861,1328
1631.4910410480993,1312
1633.5215900588028,1231
1635.551619799744,1233
1637.5811305247717,1305
1639.6101224878166,1259
1641.6385959428862,1249
1643.6665511440683,1280
1645.693988345528,1248
1647.7209078015112,1245
1649.7473097663405,1219
1651.7731944944203,1250
1653.7985622402307,1247
1655.823413258333,1269
1657.847747803366,1173
1659.8715661300494,1199
1661.8948684931793,1183
1663.9176551476316,1237
1665.9399263483624,1199
1667.9616823504057,1229
1669.982923408873,1203
1672.0036497789574,1198
1674.0238617159293,1204
1676.043559475138,1190
1678.0627433120121,1239
1680.081413482059,1180
1682.0995702408654,1186
1684.117213844096,1166
1686.134344547495,1223
1688.1509626068864,1155
1690.1670682781705,1218
1692.182661817329,1188
1694.1977434804217,1172
1696.2123135235875,1126
1698.226372203043,1129
1700.2399197750851,1259
1702.2529564960905,1216
1704.2654826225112,1206
1706.277498410882,1160
1708.2890041178139,1241
1710.2999999999988,1132
1712.3104863142066,1159
1714.3204633172854,1186
1716.329931266163,1236
1718.3388904178469,1167
1720.3473410294214,1167
1722.3552833580516,1195
1724.3627176609807,1215
1726.3696441955308,1207
1728.3760632191033,1211
1730.3819749891782,1142
1732.3873797633146,1237
1734.3922777991502,1240
1736.3966693544012,1164
1738.4005546868639,1121
1740.4039340544127,1156
1742.406807715001,1135
1744.4091759266616,1200
1746.4110389475054,1144
1748.4123970357223,1172
1750.413250449582,1176
1752.4135994474318,1165
1754.4134442876993,1143
1756.4127852288902,1166
1758.4116225295893,1214
1760.4099564484595,1162
1762.407787244244,1140
1764.405115175764,1218
1766.4019405019203,1174
1768.3982634816916,1140
1770.3940843741357,1224
1772.3894034383907,1197
1774.3842209336717,1161
1776.378537119274,1167
1778.372352254571,1177
1780.3656665990156,1133
1782.3584804121397,1150
1784.3507939535534,1155
1786.3426074829463,1168
1788.3339212600863,1162
1790.3247355448211,1228
1792.3150505970766,1150
1794.3048666768573,1162
1796.2941840442477,1169
1798.2830029594106,1188
1800.2713236825884,1132
1802.2591464741004,1211
1804.2464715943465,1204
1806.2332993038058,1193
1808.2196298630352,1214
1810.2054635326708,1134
1812.190800573428,1190
1814.175641246101,1184
1816.1599858115628,1169
1818.1438345307652,1187
1820.127187664738,1197
1822.1100454745924,1188
1824.092408221516,1140
1826.0742761667766,1139
1828.055649571721,1181
1830.0365286977735,1182
1832.0169138064398,1151
1833.9968051593014,1204
1835.9762030180214,1182
1837.9551076443408,1143
1839.9335193000788,1175
1841.9114382471344,1155
1843.888864747485,1194
1845.8657990631878,1177
1847.842241456378,1165
1849.8181921892697,1178
1851.7936515241558,1136
1853.7686197234098,1170
1855.7430970494815,1133
1857.7170837649014,1132
1859.6905801322787,1126
1861.6635864143004,1156
1863.6361028737338,1158
1865.608129773424,1153
1867.5796673762961,1173
1869.5507159453537,1162
1871.521275743678,1163
1873.4913470344313,1180
1875.4609300808534,1214
1877.4300251462632,1172
1879.3986324940588,1201
1881.366752387717,1217
1883.3343850907936,1155
1885.3015308669228,1158
1887.268189979819,1169
1889.2343626932739,1193
1891.2000492711595,1190
1893.1652499774254,1179
1895.1299650761011,1198
1897.0941948312952,1174
1899.0579395071945,1142
1901.0211993680641,1125
1902.98397467825,1144
1904.9462657021745,1198
1906.9080727043415,1141
1908.869395949332,1144
1910.8302357018065,1178
1912.790592226504,1204
1914.7504657882428,1176
1916.7098566519212,1192
1918.6687650825133,1155
1920.6271913450764,1123
1922.5851357047422,1180
1924.5425984267245,1137
1926.499579776314,1153
1928.4560800188833,1180
1930.4120994198802,1209
1932.367638244833,1169
1934.32269675935,1163
1936.2772752291175,1160
1938.231373919899,1182
1940.1849930975404,1152
1942.1381330279637,1174
1944.0907939771696,1206
1946.0429762112412,1193
1947.9946799963363,1197
1949.9459055986945,1180
1951.896653284633,1175
1953.8469233205478,1194
1955.7967159729142,1154
1957.7460315082863,1205
1959.6948701932974,1220
1961.6432322946594,1200
1963.5911180791632,1153
1965.5385278136787,1132
1967.4854617651545,1232
1969.4319202006182,1175
1971.377903387176,1126
1973.3234115920136,1192
1975.268445082395,1186
1977.2130041256642,1217
1979.1570889892423,1173
1981.1006999406304,1151
1983.04383724741,1153
1984.986501177238,1115
1986.928691997853,1157
1988.8704099770712,1173
1990.811655382789,1190
1992.7524284829801,1143
1994.692729545698,1140
1996.6325588390755,1140
1998.5719166313224,1154
2000.5108031907307,1189
2002.4492187856677,1212
2004.387163684583,1132
2006.3246381560011,1163
2008.2616424685298,1198
2010.1981768908527,1132
2012.1342416917332,1151
2014.069837140014,1210
2016.0049635046162,1175
2017.9396210545406,1177
2019.8738100588666,1154
2021.8075307867502,1198
2023.740783507431,1195
2025.6735684902228,1153
2027.6058860045214,1203
2029.5377363198004,1212
2031.4691197056118,1164
2033.4000364315875,1198
2035.3304867674374,1137
2037.260470982952,1125
2039.189989347998,1153
2041.1190421325232,1156
2043.047629606554,1132
2044.9757520401945,1154
2046.9034097036288,1148
2048.8306028671195,1129
2050.7573318010086,1174
2052.683596775716,1174
2054.609398061742,1159
2056.5347359296647,1160
2058.4596106501403,1127
2060.384022493906,1151
2062.3079717317764,1196
2064.231458634646,1170
2066.1544834734873,1116
2068.077046519352,1139
2069.99914804337,1094
2071.9207883167524,1147
2073.8419676107865,1184
2075.7626861968406,1153
2077.6829443463607,1126
2079.6027423308715,1154
2081.522080421977,1168
2083.440958891362,1117
2085.359378010786,1180
2087.2773380520907,1170
2089.194839287196,1105
2091.111881988101,1112
2093.0284664268825,1140
2094.9445928756973,1142
2096.86026160678,1176
2098.775472892446,1139
2100.690227005088,1123
2102.604524217178,1144
2104.5183648012676,1160
2106.431749029985,1114
2108.34467717604,1174
2110.2571495122206,1180
2112.169166311393,1186
2114.080727846503,1215
2115.9918343905747,1165
2117.902486216711,1165
2119.8126835980956,1181
2121.722426807987,1171
2123.6317161197285,1156
2125.5405518067364,1179
2127.448934142509,1195
2129.356863400624,1205
2131.264339854737,1160
2133.1713637785815,1207
2135.077935445972,1207
2136.9840551308002,1188
2138.889723107037,1182
2140.7949396487334,1123
2142.699705030018,1139
2144.6040195250994,1161
2146.507883408264,1166
2148.4112969538774,1185
2150.3142604363848,1173
2152.2167741303097,1217
2154.1188383102535,1162
2156.0204532508997,1192
2157.9216192270064,1168
2159.822336513414,1165
2161.7226053850413,1129
2163.622426116884,1159
2165.5217989840185,1180
2167.4207242616,1162
2169.319202224862,1163
2171.2172331491165,1140
2173.1148173097563,1132
2175.0119549822507,1177
2176.90864644215,1098
2178.8048919650823,1198
2180.7006918267534,1163
2182.596046302952,1161
2184.4909556695407,1152
2186.3854202024645,1183
2188.279440177746,1171
2190.173015871487,1161
2192.066147559868,1212
2193.958835519149,1178
2195.851080025667,1157
2197.7428813558417,1206
2199.6342397861667,1190
2201.5251555932186,1171
2203.415629053651,1202
2205.3056604441986,1155
2207.19525004167,1214
2209.084398122958,1176
2210.9731049650327,1249
2212.861370844941,1210
2214.749196039812,1194
2216.636580826851,1173
2218.523525483344,1235
2220.410030286655,1169
2222.296095514226,1201
2224.1817214435805,1187
2226.066908352319,1189
2227.951656518121,1191
2229.835966218746,1209
2231.71983773203,1170
2233.6032713358913,1192
2235.486267308324,1197
2237.3688259274036,1204
2239.2509474712824,1216
2241.132632218193,1175
2243.013880446447,1229
2244.8946924344323,1196
2246.7750684606203,1216
2248.6550088035574,1264
2250.534513741871,1255
2252.413583554265,1214
2254.292218519526,1193
2256.170418916517,1191
2258.0481850241786,1203
2259.925517121534,1201
2261.8024154876825,1208
2263.678880401803,1249
2265.5549121431536,1240
2267.430510991071,1240
2269.305677224971,1176
2271.180411124348,1209
2273.0547129687766,1187
2274.9285830379076,1211
2276.8020216114737,1157
2278.6750289692845,1197
2280.5476053912294,1237
2282.4197511572766,1212
2284.2914665474727,1286
2286.162751841943,1205
2288.0336073208937,1176
2289.904033264608,1233
2291.774029953448,1233
2293.6435976678554,1201
2295.5127366883517,1218
2297.381447295534,1135
2299.2497297700825,1215
2301.1175843927526,1132
2302.9850114443825,1122
2304.852011205885,1116
2306.7185839582553,1106
2308.5847299825664,1138
2310.4504495599676,1156
2312.3157429716925,1145
2314.1806104990483,1113
2316.0450524234247,1082
2317.9090690262888,1091
2319.772660589186,1118
2321.635827393742,1118
2323.498569721661,1114
2325.3608878547248,1072
2327.2227820747967,1087
2329.0842526638157,1132
2330.945299903803,1092
2332.805924076857,1044
2334.6661254651535,1041
2336.525904350951,1061
2338.3852610165827,1105
2340.244195744464,1102
2342.102708817088,1064
2343.9608005170253,1147
2345.8184711269287,1082
2347.675720929526,1031
2349.532550207628,1093
2351.38895924412,1111
2353.24494832197,1089
2355.100517724223,1129
2356.955667734004,1102
2358.810398634514,1150
2360.664710709037,1141
2362.5186042409337,1125
2364.3720795136437,1108
2366.225136810686,1140
2368.0777764156583,1122
2369.929998612237,1130
2371.7818036841777,1073
2373.633191915315,1104
2375.484163589562,1161
2377.3347189909114,1090
2379.184858403434,1087
2381.03458211128,1101
2382.8838903986775,1111
2384.732783549936,1074
2386.5812618494406,1109
2388.4293255816588,1085
2390.2769750311327,1071
2392.1242104824883,1119
2393.971032220427,1121
2395.8174405297295,1072
2397.6634356952563,1090
2399.509018001947,1127
2401.3541877348193,1135
2403.1989451789705,1136
2405.043290619576,1094
2406.8872243418905,1055
2408.730746631247,1108
2410.5738577730594,1105
2412.4165580528183,1084
2414.258847756095,1126
2416.100727168537,1136
2417.9421965758734,1137
2419.783256263912,1088
2421.623906518538,1086
2423.4641476257157,1090
2425.303979871491,1136
2427.143403541984,1130
2428.9824189233977,1131
2430.821026302012,1114
2432.6592259641866,1112
2434.497018196361,1100
2436.33440328505,1123
2438.171381516851,1102
2440.00795317844,1153
2441.844118556569,1126
2443.6798779380724,1093
2445.5152316098606,1114
2447.3501798589255,1132
2449.1847229723357,1133
2451.0188612372403,1118
2452.8525949408663,1136
2454.6859243705203,1091
2456.518849813587,1118
2458.3513715575314,1117
2460.183489889895,1124
2462.015205098301,1131
2463.8465174704493,1088
2465.67742729412,1144
2467.5079348571717,1102
2469.338040447542,1056
2471.1677443532476,1100
2472.9970468623833,1079
2474.825948263123,1115
2476.6544488437207,1075
2478.482548892508,1112
2480.310248697896,1111
2482.137548548374,1102
2483.9644487325118,1103
2485.790949538956,1097
2487.617051256433,1054
2489.44275417375,1082
2491.26805857979,1137
2493.0929647635157,1154
2494.917473013971,1163
2496.741583620276,1149
2498.5652968716304,1124
2500.3886130573137,1137
2502.2115324666834,1140
2504.0340553891765,1104
2505.856182114308,1121
2507.6779129316733,1126
2509.499248130945,1152
2511.3201880018764,1135
2513.140732834298,1108
2514.9608829181198,1092
2516.780638543331,1141
2518.6,1122
2520.418967578273,1103
2522.237541568376,1152
2524.0557222606144,1123
2525.8735099453706,1099
2527.6909049131086,1159
2529.507907454368,1134
2531.32451785977,1157
2533.140736420014,1089
2534.9565634258774,1157
2536.771999168218,1115
2538.5870439379714,1151
2540.4016980261526,1120
2542.2159617238544,1161
2544.02983532225,1142
2545.8433191125914,1113
2547.656413386209,1123
2549.4691184345115,1139
2551.2814345489874,1187
2553.093362021204,1136
2554.904901142808,1160
2556.716052205523,1150
2558.526815501153,1157
2560.3371913215824,1164
2562.147179958771,1136
2563.956781704761,1217
2565.7659968516705,1154
2567.5748256916986,1137
2569.3832685171224,1178
2571.1913256202984,1097
2572.9989972936614,1158
2574.806283829725,1167
2576.613185521084,1164
2578.4197026604074,1156
2580.2258355404483,1253
2582.031584454035,1147
2583.836949694077,1153
2585.6419315535613,1168
2587.4465303255533,1196
2589.2507463032002,1153
2591.0545797797245,1241
2592.8580310484303,1169
2594.6611004026995,1145
2596.463788135992,1158
2598.266094541849,1191
2600.0680199138874,1212
2601.869564545807,1201
2603.670728731383,1189
2605.4715127644704,1153
2607.2719169390048,1242
2609.071941548998,1201
2610.8715868885433,1186
2612.670853251811,1228
2614.469740933052,1218
2616.268250226594,1240
2618.0663814268455,1185
2619.864134828292,1197
2621.6615107255006,1158
2623.458509413115,1183
2625.2551311858597,1210
2627.0513763385347,1200
2628.8472451660223,1221
2630.6427379632833,1182
2632.4378550253564,1238
2634.232596647359,1142
2636.026963124488,1202
2637.8209547520187,1200
2639.6145718253065,1199
2641.407814639785,1173
2643.200683490966,1213
2644.9931786744414,1199
2646.7853004858807,1143
2648.577049221034,1180
2650.3684251757277,1147
2652.1594286458712,1199
2653.9500599274484,1212
2655.740319316525,1180
2657.5302071092437,1210
2659.3197236018286,1176
2661.10886909058,1194
2662.8976438718782,1160
2664.686048242183,1174
2666.4740824980327,1139
2668.2617469360443,1193
2670.0490418529134,1178
2671.8359675454153,1166
2673.622524310403,1133
2675.408712444811,1147
2677.1945322456495,1150
2678.979984010009,1151
2680.76506803506,1119
2682.5497846180497,1141
2684.334134056306,1150
2686.1181166472343,1118
2687.9017326883213,1175
2689.6849824771293,1138
2691.4678663113013,1162
2693.2503844885596,1115
2695.032537306705,1120
2696.8143250636167,1131
2698.5957480572542,1161
2700.3768065856534,1144
2702.1575009469316,1090
2703.937831439283,1119
2705.717798360982,1143
2707.4974020103837,1143
2709.276642685917,1107
2711.055520686095,1110
2712.834036309506,1089
2714.612189854819,1119
2716.389981620782,1042
2718.1674119062204,1157
2719.944481010041,1123
2721.721189231226,1098
2723.4975368688415,1146
2725.273524222027,1086
2727.0491515900053,1077
2728.824419272075,1103
2730.5993275676146,1120
2732.3738767760838,1103
2734.148067197016,1071
2735.921899130031,1124
2737.6953728748194,1059
2739.468488731156,1091
2741.2412469988926,1130
2743.0136479779617,1100
2744.785691968372,1077
2746.5573792702116,1141
2748.3287101836504,1144
2750.099685008934,1075
2751.870304046388,1110
2753.640567596418,1087
2755.4104759595057,1099
2757.1800294362156,1085
2758.949228327187,1039
2760.7180729331412,1113
2762.486563554877,1055
2764.254700493272,1037
2766.022484049284,1069
2767.789914523947,1123
2769.5569922183786,1076
2771.3237174337705,1089
2773.090090471394,1058
2774.8561116326036,1088
2776.6217812188274,1096
2778.3870995315756,1059
2780.1520668724356,1086
2781.9166835430747,1054
2783.6809498452394,1044
2785.444866080754,1093
2787.2084325515225,1091
2788.971649559527,1077
2790.73451740683,1067
2792.4970363955713,1083
2794.2592068279705,1061
2796.0210290063264,1085
2797.7825032330147,1100
2799.543629810493,1073
2801.304409041296,1090
2803.0648412280366,1081
2804.8249266734088,1044
2806.5846656801846,1137
2808.344058551212,1070
2810.1031055894246,1094
2811.8618070978273,1099
2813.6201633795085,1099
2815.378174737636,1071
2817.1358414754536,1092
2818.893163896285,1106
2820.6501423035334,1056
2822.4067770006814,1104
2824.1630682912883,1079
2825.9190164789957,1104
2827.6746218675207,1113
2829.429884760661,1111
2831.184805462294,1093
2832.9393842763743,1114
2834.693621506936,1123
2836.4475174580916,1072
2838.201072434034,1103
2839.954286739034,1100
2841.707160677441,1107
2843.459694553685,1137
2845.2118886722724,1095
2846.96374333779,1141
2848.7152588549034,1061
2850.4664355283567,1089
2852.217273662973,1073
2853.9677735636546,1068
2855.7179355353833,1150
2857.4677598832186,1149
2859.217246912299,1081
2860.9663969278427,1055
2862.715210235146,1110
2864.4636871395846,1075
2866.211827946614,1064
2867.9596329617652,1068
2869.7071024906536,1098
2871.4542368389684,1073
2873.20103631248,1123
2874.947501217038,1078
2876.6936318585695,1076
2878.4394285430812,1081
2880.1848915766604,1108
2881.9300212654707,1043
2883.6748179157553,1079
2885.4192818338374,1076
2887.1634133261173,1097
2888.907212699077,1115
2890.6506802592744,1110
2892.393816313348,1063
2894.1366211680142,1119
2895.8790951300693,1077
2897.621238506388,1107
2899.363051603925,1114
2901.1045347297118,1059
2902.8456881908596,1105
2904.58651229456,1108
2906.327007348081,1082
2908.067173658772,1097
2909.8070115340597,1046
2911.5465212814497,1091
2913.285703208527,1062
2915.0245576229563,1077
2916.7630848324807,1069
2918.5012851449196,1029
2920.2391588681758,1101
2921.976706310227,1090
2923.7139277791334,1071
2925.4508235830313,1101
2927.187394030137,1124
2928.923639428745,1100
2930.6595600872306,1098
2932.395156314046,1102
2934.1304284177218,1074
2935.8653767068713,1064
2937.6000014901815,1059
2939.3343030764227,1118
2941.068281774442,1081
2942.8019378931644,1132
2944.5352717415976,1107
2946.2682836288236,1091
2948.0009738640065,1074
2949.7333427563885,1108
2951.465390615289,1090
2953.1971177501086,1086
2954.9285244703265,1100
2956.6596110855,1067
2958.3903779052657,1070
2960.1208252393385,1152
2961.8509533975125,1053
2963.5807626896617,1062
2965.3102534257378,1073
2967.0394259157715,1088
2968.768280469873,1069
2970.496817398232,1140
2972.2250370111146,1109
2973.952939618869,1092
2975.6805255319196,1085
2977.4077950607707,1119
2979.134748516006,1084
2980.861386208289,1121
2982.587708448359,1085
2984.313715547037,1102
2986.039407815222,1063
2987.764785563891,1049
2989.489849104102,1122
2991.2145987469908,1125
2992.9390348037705,1061
2994.6631575857346,1064
2996.3869674042576,1072
2998.1104645707887,1028
2999.83364939686,1064
3001.5565221940783,1070
3003.2790832741334,1085
3005.0013329487924,1049
3006.7232715298996,1049
3008.4448993293804,1105
3010.166216659239,1057
3011.887223831558,1072
3013.607921158498,1071
3015.3283089522993,1070
3017.0483875252826,1073
3018.7681571898443,1099
3020.4876182584626,1045
3022.2067710436927,1038
3023.9256158581707,1109
3025.644153014609,1081
3027.362382825801,1073
3029.0803056046193,1099
3030.797921664012,1054
3032.5152313170106,1068
3034.2322348767225,1066
3035.9489326563353,1078
3037.665324969115,1013
3039.3814121284063,1100
3041.097194447633,1064
3042.812672240299,1079
3044.5278458199855,1128
3046.2427155003525,1094
3047.9572815951406,1084
3049.671544418167,1073
3051.38550428333,1062
3053.0991615046073,1070
3054.812516396051,1004
3056.5255692717974,1072
3058.2383204460575,1018
3059.9507702331257,1097
3061.662918947372,1043
3063.3747669032446,1050
3065.0863144152736,1065
3066.7975617980674,1093
3068.508509366309,1076
3070.219157434767,1032
3071.9295063182844,1020
3073.639556331785,1067
3075.3493077902704,1088
3077.058761008821,1060
3078.7679163025964,1050
3080.476773986837,1042
3082.1853343768594,1057
3083.89359778806,1043
3085.6015645359153,1062
3087.3092349359786,1047
3089.016609303884,1077
3090.7236879553434,1056
3092.4304712061476,1066
3094.136959372166,1071
3095.843152769349,1058
3097.5490517137237,1029
3099.2546565213966,1021
3100.959967508554,1067
3102.66498499146,1076
3104.3697092864577,1057
3106.0741407099695,1051
3107.778279578498,1075
3109.482126208622,1040
3111.1856809170004,1087
3112.8889440203716,1060
3114.5919158355528,1077
3116.294596679439,1111
3117.996986869006,1108
3119.6990867213062,1059
3121.4008965534726,1113
3123.102416682717,1081
3124.803647426329,1048
3126.5045891016784,1044
3128.205242026213,1072
3129.90560651746,1064
3131.605682893025,1071
3133.3054714705922,1101
3135.0049725679282,1102
3136.7041865028714,1077
3138.4031135933465,1100
3140.101754157353,1085
3141.800108512971,1088
3143.498176978357,1062
3145.1959598717494,1092
3146.8934575114636,1077
3148.5906702158954,1057
3150.2875983035183,1057
3151.9842420928853,1081
3153.680601902627,1065
3155.376678051456,1031
3157.07247085816,1058
3158.767980641609,1015
3160.463207720748,998
3162.158152414606,1069
3163.8528150422862,1008
3165.5471959229726,1038
3167.2412953759303,1044
3168.9351137204976,1050
3170.628651276098,1019
3172.3219083622307,1032
3174.014885298474,1030
3175.707582404485,1117
3177.4000000000005,1073
3179.092138404835,1084
3180.7839979388846,1040
3182.47557892212,1005
3184.166881674594,1090
3185.8579065164386,1052
3187.5486537678626,1045
3189.2391237491547,1002
3190.9293167806827,1051
3192.6192331828934,1033
3194.3088732763117,1079
3195.998237381542,1020
3197.687325819268,1061
3199.376138910251,1062
3201.064676975334,1044
3202.7529403354347,1043
3204.4409293115523,1012
3206.1286442247647,1043
3207.816085396229,1053
3209.5032531471825,1076
3211.190147798936,1090
3212.8767696728846,1059
3214.5631190905015,1090
3216.2491963733373,1027
3217.9350018430214,1030
3219.6205358212637,1038
3221.305798629851,1034
3222.990790590651,987
3224.6755120256103,1021
3226.359963256751,1067
3228.0441446061795,1048
3229.7280563960758,1031
3231.411698948703,1033
3233.0950725863995,1045
3234.778177631587,1076
3236.461014406761,1078
3238.1435832345005,1018
3239.8258844374595,1034
3241.507918338374,1043
3243.1896852600576,1036
3244.8711855254023,1090
3246.552419457381,1044
3248.233387379042,1072
3249.914089613516,1058
3251.59452648401,1072
3253.274698313813,1092
3254.95460542629,989
3256.6342481448855,1094
3258.313626793125,1079
3259.9927416946084,1050
3261.6715931730196,1041
3263.3501815521176,1031
3265.0285071557437,1021
3266.706570307815,980
3268.3843713323286,1031
3270.0619105533615,1017
3271.739188295068,1074
3273.4162048816834,1011
3275.0929606375184,1064
3276.769455886966,1039
3278.445690954498,1116
3280.1216661646613,1066
3281.797381842087,1079
3283.4728383114807,1080
3285.1480358976296,1085
3286.8229749253996,1049
3288.4976557197333,1075
3290.172078605655,1106
3291.846243908266,1050
3293.5201519527463,1068
3295.193803064357,1045
3296.8671975684374,1055
3298.5403357904024,1028
3300.21321805575,1061
3301.8858446900567,1017
3303.558216018975,1019
3305.23033236824,1016
3306.9021940636603,1054
3308.57380143113,1113
3310.2451547966184,1109
3311.916254486174,1081
3313.5871008259246,1070
3315.2576941420766,1079
3316.9280347609147,1035
3318.5981230088046,1058
3320.2679592121895,1020
3321.9375436975924,972
3323.606876791612,1077
3325.27595882093,979
3326.944790112305,1069
3328.6133709925753,1023
3330.2817017886573,1032
3331.949782827547,1006
3333.617614436319,1073
3335.2851969421245,1117
3336.952530672199,1087
3338.619615953853,1061
3340.286453114475,1074
3341.9530424815357,1035
3343.619384382583,1036
3345.2854791452437,1041
3346.951327097224,1038
3348.6169285663073,1012
3350.2822838803577,1058
3351.947393367319,1044
3353.61225735521,1004
3355.2768761721345,1043
3356.9412501462693,1050
3358.605379605873,1037
3360.2692648792827,1043
3361.9329062949146,1023
3363.596304181263,1077
