CollectionTime,9/25/2024 10:34:44 AM
ExposureUsed,3
CalibratedSpectrum
-962.7078968117929,532
-959.9714848408522,534
-957.2358232597828,547
-954.5009119013725,562
-951.7667505983302,579
-949.0333391832855,584
-946.3006774887896,576
-943.5687653473143,542
-940.837602591253,568
-938.1071890529199,556
-935.3775245645503,567
-932.6486089583007,573
-929.9204420662485,582
-927.1930237203925,583
-924.4663537526524,594
-921.7404319948689,604
-919.0152582788041,570
-916.2908324361409,599
-913.5671542984834,598
-910.8442236973568,573
-908.1220404642074,566
-905.4006044304027,564
-902.679915427231,604
-899.959973285902,571
-897.2407778375464,567
-894.5223289132158,589
-891.8046263438832,593
-889.0876699604426,586
-886.3714595937089,578
-883.6559950744183,570
-880.9412762332282,536
-878.2273029007168,562
-875.5140749073835,558
-872.8015920836489,559
-870.0898542598545,577
-867.3788612662631,573
-864.6686129330585,543
-861.9591090903457,547
-859.2503495681506,541
-856.5423341964203,559
-853.8350628050229,540
-851.1285352237478,571
-848.4227512823054,612
-845.7177108103272,584
-843.0134136373656,576
-840.3098595928943,583
-837.6070485063082,577
-834.9049802069229,596
-832.2036545239757,589
-829.5030712866244,590
-826.8032303239481,569
-824.1041314649472,557
-821.4057745385428,595
-818.7081593735775,619
-816.0112857988148,595
-813.3151536429393,569
-810.6197627345566,571
-807.9251129021936,602
-805.2312039742981,605
-802.5380357792392,548
-799.8456081453069,572
-797.1539209007124,604
-794.462973873588,585
-791.772766891987,569
-789.083299783884,588
-786.3945723771743,576
-783.7065844996748,596
-781.0193359791231,585
-778.3328266431781,607
-775.6470563194197,598
-772.9620248353489,558
-770.2777320183878,586
-767.5941776958798,586
-764.9113616950891,616
-762.2292838432011,607
-759.5479439673222,577
-756.8673418944801,598
-754.1874774516235,628
-751.5083504656222,619
-748.8299607632671,584
-746.15230817127,616
-743.475392516264,605
-740.7992136248035,574
-738.1237713233636,590
-735.4490654383407,596
-732.7750957960521,625
-730.1018622227365,597
-727.4293645445534,590
-724.7576025875837,599
-722.0865761778291,581
-719.4162851412126,596
-716.7467293035781,623
-714.0779084906909,646
-711.409822528237,652
-708.7424712418238,627
-706.0758544569796,610
-703.4099719991541,635
-700.7448236937178,638
-698.0804093659622,664
-695.4167288411002,622
-692.7537819442656,696
-690.0915685005134,650
-687.4300883348199,610
-684.7693412720819,619
-682.1093271371178,637
-679.4500457546669,628
-676.7914969493897,613
-674.1336805458676,661
-671.4765963686034,635
-668.8202442420206,677
-666.1646239904642,660
-663.5097354382001,647
-660.8555784094151,650
-658.2021527282176,666
-655.5494582186366,645
-652.8974947046223,662
-650.2462620100463,648
-647.5957599587009,642
-644.9459883742998,689
-642.2969470804776,634
-639.6486359007902,630
-637.0010546587141,666
-634.3542031776476,668
-631.7080812809096,664
-629.0626887917401,648
-626.4180255333008,666
-623.7740913286734,728
-621.1308860008619,725
-618.4884093727904,690
-615.8466612673046,660
-613.2056415071715,662
-610.5653499150785,671
-607.9257863136347,703
-605.28695052537,677
-602.6488423727357,687
-600.0114616781036,723
-597.3748082637674,683
-594.7388819519412,692
-592.1036825647604,771
-589.4692099242818,741
-586.8354638524829,730
-584.2024441712624,702
-581.5701507024403,687
-578.9385832677575,737
-576.3077416888759,703
-573.6776257873787,685
-571.0482353847704,699
-568.4195703024757,678
-565.7916303618415,729
-563.164415384135,703
-560.5379251905453,703
-557.9121596021815,745
-555.2871184400748,698
-552.6628015251767,720
-550.0392086783606,729
-547.4163397204204,697
-544.794194472071,764
-542.1727727539491,773
-539.5520743866118,756
-536.9320991905377,787
-534.3128469861261,884
-531.6943175936979,822
-529.0765108334947,827
-526.4594265256793,868
-523.8430644903358,1025
-521.2274245474689,1123
-518.612506517005,1126
-515.9983102187913,1192
-513.3848354725959,1271
-510.77208209810846,1362
-508.16004991493924,1478
-505.5487387426199,1571
-502.9381484006032,1607
-500.3282787082628,1524
-497.71912948489364,1435
-495.1107005497117,1263
-492.5029917218539,1086
-489.8960028203786,1057
-487.28973366426493,960
-484.68418407241325,872
-482.07935386364494,839
-479.47524285670266,818
-476.87185087025,861
-474.2691777228715,875
-471.66722323307334,860
-469.0659872192821,879
-466.4654694998459,840
-463.86566989303384,891
-461.26658821703614,846
-458.66822428996414,918
-456.07057792985,900
-453.4736489546475,870
-450.877437182231,839
-448.28194243039627,823
-445.68716451686,808
-443.09310325926003,831
-440.49975847515555,797
-437.9071299820263,854
-435.31521759727354,883
-432.72402113821954,898
-430.13354042210767,963
-427.5437752661022,933
-424.95472548728867,903
-422.36639090267386,873
-419.7787713291855,906
-417.1918665836721,948
-414.60567648290385,895
-412.0202008435715,881
-409.4354394822874,934
-406.8513922155845,926
-404.26805885991723,938
-401.685439231661,937
-399.103533147112,889
-396.522340422488,932
-393.9418608739278,917
-391.3620943174908,898
-388.7830405691583,839
-386.2046994448317,898
-383.6270707603344,841
-381.05015433141045,785
-378.473949973725,736
-375.8984575028645,664
-373.32367673433623,672
-370.74960748356875,675
-368.1762495659117,606
-365.60360279663576,592
-363.03166699093265,551
-360.4604419639154,547
-357.8899275306178,530
-355.32012350599507,554
-352.7510297049233,516
-350.1826459421999,512
-347.61497203254316,508
-345.04800779059235,483
-342.4817530309082,488
-339.91620756797226,536
-337.35137121618743,567
-334.7872437898774,589
-332.22382510328725,517
-329.66111497058273,532
-327.09911320585127,506
-324.53781962310075,490
-321.9772340362607,512
-319.4173562591816,545
-316.8581861056348,497
-314.2997233893127,505
-311.7419679238294,520
-309.1849195227194,614
-306.62857799943856,594
-304.0729431673641,607
-301.51801483979375,569
-298.963792829947,613
-296.41027695096386,623
-293.85746701590574,631
-291.3053628377552,628
-288.7539642294155,537
-286.2032710037115,588
-283.65328297338897,613
-281.1039999511146,690
-278.5554217494762,681
-276.007548180983,624
-273.4603790580651,590
-270.9139141930734,616
-268.3681533982807,625
-265.8230964858798,637
-263.27874326798565,666
-260.7350935566336,594
-258.1921471637804,629
-255.6499039013039,635
-253.10836358100266,717
-250.56752601459698,688
-248.02739101372765,695
-245.48795838995704,687
-242.94922795476816,710
-240.41119951956557,743
-237.8738728956746,683
-235.33724789434166,693
-232.80132432673452,753
-230.2661020039418,679
-227.73158073697357,651
-225.19776033676033,751
-222.66464061415422,832
-220.1322213799284,822
-217.60050244477725,741
-215.06948361931552,696
-212.53916471408013,832
-210.00954553952818,851
-207.48062590603843,774
-204.9524056239104,786
-202.4248845033651,792
-199.8980623545441,857
-197.37193898751036,836
-194.84651421224817,878
-192.32178783866232,810
-189.79775967657952,903
-187.27442953574644,919
-184.7517972258321,1028
-182.2298625564256,957
-179.7086253370378,893
-177.18808537710026,857
-174.66824248596583,1008
-172.14909647290835,954
-169.6306471471229,921
-167.11289431772548,816
-164.59583779375328,876
-162.07947738416453,953
-159.5638128978386,1058
-157.04884414357605,1115
-154.53457093009854,1051
-152.02099306604828,940
-149.50811035998936,943
-146.99592262040665,891
-144.48442965570587,1062
-141.97363127421409,1146
-139.46352728417958,1237
-136.95411749377126,1280
-134.44540171107985,1092
-131.93737974411636,1069
-129.43005140081357,1123
-126.92341648902493,1398
-124.41747481652521,1678
-121.91222619101006,2200
-119.40767042009657,2636
-116.90380731132257,2883
-114.40063667214702,3015
-111.8981583099503,3402
-109.3963720320337,3972
-106.89527764561933,4811
-104.39487495785067,5023
-101.89516377579241,6526
-99.39614390642998,8780
-96.89781515667039,12644
-94.40017733334128,15623
-91.90323024319173,13960
-89.40697369289148,9280
-86.91140748903172,5998
-84.41653143812482,5770
-81.92234534660395,9744
-79.42884902082358,13697
-76.93604226705907,17218
-74.4439248915071,21245
-71.95249670028534,24227
-69.46175749943245,26606
-66.97170709490854,24870
-64.48234529259423,19003
-61.99367189829195,12803
-59.50568671772464,11387
-57.01838955653636,14047
-54.53178022029283,14521
-52.045858514480074,14245
-49.560624244506016,14804
-47.07607721569923,12443
-44.59221723330904,10300
-42.10904410250669,11087
-39.62655762838392,14159
-37.14475761595372,18761
-34.66364387015028,19452
-32.18321619582866,22838
-29.70347439776515,26040
-27.224418280657005,23518
-24.74604764912317,25803
-22.26836230770266,38786
-19.7913620608565,65040
-17.315046712966478,65040
-14.83941606833514,65040
-12.36446993118659,65040
-9.89020810566592,65040
-7.416630395839093,65040
-4.94373660569363,65040
-2.471526539137585,65040
-6.821210263296962E-13,65040
2.47084320796705,65040
4.941003281093458,65040
7.410480415786196,65040
9.879274808531363,65040
12.347386655893956,65040
14.814816154518212,65040
17.28156350112681,65040
19.74762889252179,65040
22.21301252558385,22822
24.67771459727237,5091
27.141735304626195,3668
29.605074844762612,4403
32.06773341487792,4573
34.52971121224755,4274
36.99100843422559,4095
39.45162527824516,4440
41.91156194181792,3161
44.370818622535126,2731
46.82939551806646,2402
49.287292826160524,3111
51.74451074464503,3591
54.201049471426245,3192
56.65690920448981,2415
59.112090141899785,2526
61.56659248179983,2478
64.02041642241159,2208
66.4735621620365,2383
68.92602989905402,2549
71.37781983192338,2373
73.82893215918205,1942
76.27936707944684,1849
78.72912479141326,2124
81.17820549385567,1931
83.62660938562783,1925
86.07433666566146,1554
88.5213875329681,1690
90.96776218663751,1661
93.41346082583925,1579
95.85848364982041,1920
98.30283085790859,1787
100.7465026495089,1378
103.18949922410604,1429
105.63182078126385,1532
108.07346752062438,1417
110.51443964190923,1314
112.95473734491827,1356
115.39436082953114,1170
117.83331029570547,1170
120.27158594347827,1239
122.7091879729652,1255
125.1461165843615,1164
127.58237197794062,1171
130.01795435405518,1085
132.4528639131364,1076
134.88710085569494,1176
137.32066538231982,1195
139.75355769367923,1255
142.1857779905207,1193
144.61732647366978,1056
147.04820334403132,1076
149.47840880258934,1260
151.90794305040674,1390
154.33680628862487,1187
156.76499871846443,1303
159.19252054122433,1307
161.61937195828352,1391
164.04555317109896,1437
166.47106438120693,1477
168.89590579022217,1590
171.320077599839,1648
173.7435800118302,1803
176.16641322804742,2061
178.58857745042144,2113
181.01007288096173,2033
183.43089972175687,2036
185.85105817497413,2168
188.27054844285988,2033
190.6893707277394,2064
193.10752523201643,2107
195.5250121581745,2124
197.9418317087751,2103
200.3579840864594,2107
202.7734694939469,2122
205.18828813403627,2263
207.6024402096051,2223
210.01592592360964,2157
212.42874547908548,2215
214.84089907914665,2226
217.2523869269868,2133
219.66320922587727,2229
222.0733661791695,2202
224.48285799029293,2189
226.8916848627572,2173
229.29984700014882,2250
231.7073446061355,2310
234.11417788446204,2242
236.520347038953,2181
238.92585227351185,2149
241.33069379212054,2283
243.73487179884035,2362
246.1383864978112,2285
248.541238093252,2231
250.9434267894609,2193
253.34495279081432,2190
255.74581630176783,2281
258.1460175268563,2217
260.54555667069314,2294
262.9444339379703,2265
265.3426495334594,2219
267.7402036620107,2348
270.1370965285529,2309
272.53332833809407,2265
274.9288992957214,2182
277.32380960660055,2166
279.718059475976,2251
282.1116491091717,2188
284.5045787115897,2136
286.89684848871195,2207
289.2884586460981,2196
291.67940938938807,2296
294.0697009242996,2247
296.4593334566299,2292
298.84830719225477,2356
301.23662233712923,2199
303.6242790972866,2126
306.01127767884,2139
308.39761828798066,2154
310.78330113097934,2134
313.16832641418534,2020
315.5526943440269,2016
317.9364051270112,2067
320.3194589697242,2037
322.70185607883093,2101
325.0835966610754,1995
327.4646809232805,1920
329.8451090723478,1967
332.2248813152577,2019
334.6039978590701,1947
336.9824589109231,1929
339.36026467803447,1962
341.7374153677,1891
344.113911187295,1872
346.48975234427337,1841
348.8649390461686,1850
351.2394715005918,1882
353.61334991523415,1887
355.9865744978655,1913
358.35914545633375,2013
360.73106299856715,1902
363.10232733257146,1914
365.47293866643247,1937
367.84289720831396,1833
370.2122031664593,1805
372.5808567491905,1767
374.9488581649083,1782
377.31620762209275,1776
379.6829053293021,1830
382.0489514951745,1802
384.4143463284262,1788
386.7790900378528,1781
389.14318283232853,1779
391.50662492080653,1793
393.86941651231916,1749
396.23155781597745,1737
398.5930490409713,1829
400.9538903965696,1831
403.3140820921202,1886
405.6736243370498,1814
408.03251734086336,1705
410.3907613131465,1735
412.74835646356166,1774
415.10530300185144,1725
417.4616011378372,1702
419.81725108141893,1737
422.1722530425758,1812
424.5266072313656,1779
426.880313857925,1720
429.2333731324701,1774
431.58578526529516,1773
433.9375504667738,1720
436.2886689473588,1732
438.63914091758113,1721
440.9889665880513,1713
443.33814616945835,1673
445.68667987257015,1772
448.03456790823395,1728
450.3818104873759,1736
452.72840782100013,1639
455.07436012019105,1636
457.41966759611057,1685
459.7643304600007,1629
462.10834892318155,1634
464.4517231970525,1661
466.79445349309174,1685
469.1365400228566,1687
471.4779829979826,1710
473.81878263018564,1706
476.15893913125876,1695
478.4984527130747,1832
480.8373235875855,1784
483.17555196682144,1795
485.5131380628919,1798
487.8500820879857,1835
490.1863842543697,1940
492.52204477439034,2010
494.8570638604725,2103
497.1914417251204,2410
499.52517858091653,2757
501.85827464052306,3073
504.19073011668036,3302
506.5225452222086,3403
508.85372017000566,3518
511.18425517304956,3528
513.514150444396,3863
515.8434061971808,4657
518.1720226446176,5271
520.4999999999999,5255
522.8273384766991,4862
525.1540382881666,4475
527.480099647932,4011
529.8055227696037,3191
532.1303078668694,2465
534.454455153496,2049
536.777964843328,1889
539.1008371502907,1768
541.4230722883866,1723
543.744670471698,1694
546.0656319143858,1708
548.3859568306899,1685
550.7056454349294,1660
553.0246979415016,1655
555.3431145648834,1684
557.6608955196306,1739
559.978041020377,1712
562.2945512818363,1693
564.6104265188006,1576
566.9256669461412,1680
569.2402727788082,1656
571.5542442318302,1718
573.8675815203156,1646
576.1802848594508,1730
578.4923544645015,1672
580.8037905508126,1668
583.114593333807,1681
585.4247630289875,1654
587.7342998519354,1641
590.0432040183106,1695
592.3514757438526,1790
594.6591152443794,1750
596.9661227357875,1640
599.2724984340531,1675
601.578242555231,1729
603.8833553154542,1694
606.1878369309362,1665
608.4916876179676,1670
610.7949075929192,1653
613.0974970722403,1621
615.3994562724587,1688
617.7007854101818,1584
620.0014847020951,1680
622.3015543649641,1707
624.6009946156324,1650
626.8998056710224,1612
629.1979877481361,1663
631.4955410640538,1656
633.7924658359349,1642
636.0887622810175,1738
638.3844306166192,1663
640.6794710601358,1695
642.9738838290426,1714
645.2676691408932,1637
647.5608272133207,1692
649.853358264037,1718
652.1452625108324,1740
654.4365401715764,1710
656.7271914642178,1706
659.0172166067838,1727
661.3066158173809,1748
663.5953893141935,1735
665.8835373154867,1693
668.1710600396028,1657
670.4579577049639,1707
672.7442305300709,1686
675.0298787335033,1745
677.3149025339197,1701
679.599302150058,1734
681.8830778007342,1676
684.1662297048437,1700
686.4487580813608,1773
688.7306631493387,1720
691.0119451279091,1697
693.2926042362834,1703
695.5726406937516,1717
697.8520547196814,1697
700.1308465335215,1743
702.4090163547982,1781
704.6865644031171,1699
706.9634908981619,1746
709.2397960596965,1708
711.5154801075631,1687
713.7905432616823,1759
716.0649857420548,1673
718.3388077687592,1708
720.612009561953,1762
722.8845913418733,1686
725.1565533288352,1685
727.427895743234,1687
729.6986188055427,1668
731.9687227363137,1678
734.238207756178,1690
736.5070740858458,1702
738.7753219461066,1691
741.0429515578281,1661
743.3099631419569,1724
745.5763569195191,1703
747.8421331116193,1703
750.1072919394409,1649
752.3718336242467,1699
754.6357583873777,1736
756.8990664502545,1672
759.1617580343765,1708
761.423833361321,1715
763.6852926527457,1699
765.9461361303862,1685
768.206364016058,1695
770.4659765316536,1694
772.7249738991469,1704
774.9833563405886,1670
777.2411240781092,1753
779.4982773339183,1647
781.7548163303044,1687
784.010741289634,1675
786.2660524343538,1662
788.5207499869881,1664
790.7748341701416,1720
793.0283052064964,1725
795.2811633188143,1704
797.5334087299362,1720
799.7850416627813,1771
802.0360623403484,1739
804.2864709857143,1737
806.5362678220353,1773
808.7854530725468,1692
811.0340269605625,1759
813.2819897094754,1736
815.5293415427581,1704
817.77608268396,1708
820.0222133567116,1736
822.2677337847211,1748
824.5126441917765,1672
826.7569448017433,1725
829.0006358385675,1667
831.2437175262731,1668
833.4861900889629,1723
835.7280537508192,1777
837.9693087361026,1743
840.2099552691533,1758
842.4499935743896,1771
844.689423876309,1710
846.9282463994886,1678
849.1664613685833,1661
851.4040690083276,1783
853.6410695435349,1736
855.877463199097,1623
858.1132501999847,1690
860.3484307712487,1683
862.5830051380175,1755
864.8169735254988,1734
867.0503361589791,1788
869.2830932638243,1727
871.5152450654786,1782
873.7467917894654,1703
875.9777336613873,1708
878.2080709069252,1717
880.4378037518389,1697
882.666932421968,1745
884.8954571432301,1749
887.1233781416219,1679
889.3506956432192,1722
891.5774098741766,1724
893.803521060728,1669
896.0290294291852,1754
898.2539352059397,1764
900.4782386174619,1699
902.7019398903011,1669
904.925039251085,1714
907.147536926521,1743
909.3694331433943,1733
911.59072812857,1769
913.8114221089921,1784
916.0315153116827,1791
918.2510079637437,1780
920.4699002923547,1725
922.6881925247761,1729
924.905884888345,1747
927.1229776104793,1729
929.3394709186747,1666
931.555365040506,1673
933.7706602036275,1751
935.9853566357709,1742
938.1994545647489,1763
940.4129542184515,1746
942.6258558248488,1757
944.8381596119883,1765
947.0498658079974,1760
949.2609746410825,1738
951.4714863395287,1753
953.6814011316998,1682
955.8907192460387,1720
958.0994409110671,1722
960.3075663553858,1747
962.5150958076741,1737
964.7220294966913,1778
966.928367651274,1718
969.1341105003388,1717
971.3392582728806,1675
973.5438111979742,1717
975.747769504772,1734
977.9511334225061,1688
980.153903180487,1655
982.3560790081052,1611
984.5576611348289,1672
986.7586497902058,1645
988.9590452038618,1629
991.158847605503,1621
993.3580572249133,1636
995.5566742919558,1607
997.7546990365728,1518
999.952131688785,1592
1002.1489724786926,1542
1004.3452216364743,1511
1006.5408793923874,1502
1008.7359459767691,1519
1010.9304216200343,1524
1013.1243065526781,1470
1015.3176010052733,1475
1017.510305208472,1462
1019.7024193930064,1458
1021.8939437896848,1451
1024.0848786293977,1475
1026.2752241431122,1404
1028.4649805618747,1439
1030.6541481168115,1437
1032.842727039127,1404
1035.0307175601051,1429
1037.2181199111074,1471
1039.4049343235752,1408
1041.591161029029,1432
1043.7768002590683,1459
1045.9618522453698,1446
1048.1463172196918,1424
1050.3301954138697,1469
1052.513487059818,1411
1054.69619238953,1407
1056.8783116350783,1418
1059.0598450286152,1374
1061.2407928023704,1391
1063.4211551886528,1363
1065.6009324198508,1325
1067.780124728432,1439
1069.9587323469414,1366
1072.1367555080046,1335
1074.314194444325,1389
1076.4910493886855,1371
1078.667320573947,1314
1080.843008233051,1401
1083.0181125990161,1325
1085.1926339049414,1356
1087.3665723840027,1372
1089.5399282694575,1307
1091.7127017946405,1323
1093.8848931929647,1405
1096.0565026979243,1387
1098.2275305430899,1409
1100.3979769621128,1378
1102.567842188722,1384
1104.737126456726,1335
1106.9058300000124,1317
1109.0739530525475,1317
1111.2414958483764,1356
1113.4084586216231,1368
1115.5748416064907,1320
1117.7406450372605,1328
1119.9058691482942,1292
1122.0705141740304,1331
1124.2345803489884,1340
1126.3980679077658,1335
1128.5609770850388,1370
1130.7233081155623,1350
1132.8850612341707,1339
1135.0462366757774,1321
1137.2068346753745,1324
1139.3668554680326,1316
1141.526299288901,1343
1143.68516637321,1314
1145.8434569562655,1308
1148.001171273455,1248
1150.158309560244,1325
1152.3148720521767,1363
1154.470858984876,1331
1156.626270594044,1328
1158.7811071154629,1358
1160.9353687849912,1332
1163.089055838569,1278
1165.242168512213,1306
1167.3947070420209,1371
1169.5466716641677,1311
1171.6980626149075,1349
1173.8488801305748,1337
1175.9991244475814,1356
1178.1487958024186,1320
1180.2978944316555,1315
1182.4464205719428,1356
1184.5943744600072,1315
1186.7417563326567,1371
1188.8885664267755,1271
1191.0348049793297,1275
1193.1804722273619,1312
1195.325568407995,1338
1197.4700937584303,1329
1199.614048515948,1321
1201.7574329179074,1319
1203.900247201746,1349
1206.042491604982,1338
1208.1841663652099,1305
1210.3252717201053,1312
1212.465807907422,1320
1214.6057751649923,1337
1216.7451737307279,1337
1218.8840038426192,1295
1221.0222657387353,1304
1223.1599596572241,1383
1225.2970858363137,1388
1227.4336445143094,1347
1229.5696359295966,1310
1231.705060320639,1297
1233.8399179259786,1356
1235.9742089842384,1378
1238.107933734118,1347
1240.2410924143974,1363
1242.373685263935,1350
1244.5057125216676,1354
1246.6371744266116,1367
1248.7680712178621,1319
1250.898403134593,1338
1253.028170416058,1323
1255.1573733015875,1412
1257.2860120305932,1335
1259.4140868425648,1383
1261.54159797707,1401
1263.6685456737569,1375
1265.7949301723515,1391
1267.9207517126597,1409
1270.046010534565,1369
1272.1707068780306,1429
1274.2948409830983,1434
1276.4184130898889,1405
1278.541423438603,1419
1280.6638722695184,1392
1282.785759822993,1416
1284.9070863394636,1516
1287.0278520594447,1430
1289.1480572235314,1453
1291.2677020723963,1489
1293.3867868467923,1480
1295.5053117875495,1484
1297.623277135579,1416
1299.740683131868,1483
1301.8575300174857,1555
1303.973818033578,1558
1306.0895474213703,1541
1308.2047184221678,1580
1310.3193312773528,1557
1312.4333862283888,1484
1314.5468835168163,1556
1316.659823384255,1473
1318.7722060724045,1556
1320.8840318230418,1555
1322.9953008780249,1546
1325.1060134792888,1562
1327.2161698688478,1556
1329.3257702887959,1607
1331.4348149813054,1529
1333.5433041886276,1560
1335.6512381530933,1518
1337.7586171171101,1524
1339.8654413231675,1613
1341.9717110138317,1553
1344.0774264317488,1544
1346.1825878196432,1544
1348.2871954203192,1566
1350.3912494766587,1529
1352.4947502316231,1494
1354.5976979282532,1497
1356.7000928096686,1516
1358.8019351190665,1516
1360.9032250997243,1442
1363.0039629949988,1504
1365.1041490483235,1438
1367.2037835032133,1459
1369.3028666032606,1431
1371.401398592137,1415
1373.4993797135926,1448
1375.5968102114575,1491
1377.6936903296396,1440
1379.7900203121262,1486
1381.8858004029835,1468
1383.9810308463561,1412
1386.075711886469,1442
1388.1698437676241,1487
1390.2634267342032,1449
1392.356461030667,1436
1394.4489469015557,1411
1396.5408845914872,1403
1398.6322743451592,1481
1400.7231164073469,1383
1402.813411022907,1403
1404.903158436773,1382
1406.9923588939578,1390
1409.0810126395531,1436
1411.1691199187303,1383
1413.2566809767386,1472
1415.343696058907,1406
1417.4301654106425,1393
1419.5160892774315,1381
1421.6014679048399,1426
1423.6863015385125,1414
1425.7705904241707,1379
1427.8543348076178,1372
1429.9375349347342,1405
1432.0201910514802,1363
1434.102303403894,1401
1436.1838722380944,1447
1438.2648978002767,1447
1440.3453803367174,1467
1442.4253200937692,1390
1444.5047173178677,1425
1446.5835722555234,1426
1448.6618851533285,1460
1450.739656257952,1453
1452.8168858161434,1464
1454.8935740747306,1428
1456.96972128062,1440
1459.045327680797,1427
1461.120393522327,1429
1463.1949190523528,1465
1465.2689045180973,1475
1467.3423501668608,1449
1469.415256246024,1477
1471.4876230030463,1478
1473.559450685465,1538
1475.6307395408976,1461
1477.7014898170391,1489
1479.771701761665,1493
1481.8413756226287,1483
1483.9105116478618,1509
1485.9791100853772,1506
1488.0471711832643,1510
1490.1146951896926,1510
1492.1816823529098,1519
1494.2481329212433,1500
1496.3140471430984,1521
1498.3794252669609,1579
1500.4442675413939,1540
1502.5085742150404,1568
1504.572345536622,1560
1506.6355817549388,1534
1508.6982831188702,1521
1510.7604498773744,1560
1512.8220822794883,1562
1514.8831805743293,1616
1516.9437450110909,1570
1519.003775839048,1612
1521.0632733075522,1564
1523.1222376660367,1547
1525.1806691640113,1631
1527.2385680510652,1600
1529.2959345768668,1602
1531.3527689911643,1682
1533.4090715437833,1699
1535.4648424846291,1689
1537.5200820636855,1802
1539.5747905310159,1672
1541.6289681367616,1740
1543.6826151311434,1750
1545.7357317644614,1791
1547.7883182870937,1778
1549.8403749494987,1857
1551.8919020022113,1833
1553.9428996958477,1801
1555.9933682811015,1849
1558.0433080087469,1920
1560.0927191296346,1864
1562.1416018946961,1833
1564.1899565549415,1886
1566.2377833614592,1881
1568.2850825654164,1915
1570.3318544180606,1918
1572.3780991707158,2003
1574.423817074788,1871
1576.4690083817595,1908
1578.5136733431923,1877
1580.5578122107272,1800
1582.601425236085,1810
1584.6445126710646,1838
1586.6870747675434,1795
1588.7291117774776,1745
1590.7706239529034,1748
1592.8116115459347,1652
1594.8520748087658,1651
1596.8920139936686,1640
1598.9314293529933,1587
1600.9703211391711,1579
1603.008689604711,1584
1605.0465350022005,1552
1607.0838575843068,1549
1609.1206576037753,1532
1611.1569353134305,1445
1613.1926909661765,1510
1615.2279248149953,1461
1617.2626371129481,1451
1619.2968281131757,1423
1621.3304980688963,1417
1623.3636472334088,1419
1625.39627586009,1370
1627.428384202396,1375
1629.459972513861,1365
1631.4910410480993,1389
1633.5215900588028,1335
1635.551619799744,1337
1637.5811305247717,1362
1639.6101224878166,1335
1641.6385959428862,1302
1643.6665511440683,1321
1645.693988345528,1321
1647.7209078015112,1274
1649.7473097663405,1308
1651.7731944944203,1314
1653.7985622402307,1250
1655.823413258333,1275
1657.847747803366,1328
1659.8715661300494,1293
1661.8948684931793,1254
1663.9176551476316,1239
1665.9399263483624,1226
1667.9616823504057,1276
1669.982923408873,1294
1672.0036497789574,1285
1674.0238617159293,1239
1676.043559475138,1249
1678.0627433120121,1272
1680.081413482059,1258
1682.0995702408654,1249
1684.117213844096,1261
1686.134344547495,1293
1688.1509626068864,1314
1690.1670682781705,1208
1692.182661817329,1278
1694.1977434804217,1240
1696.2123135235875,1251
1698.226372203043,1307
1700.2399197750851,1259
1702.2529564960905,1260
1704.2654826225112,1294
1706.277498410882,1239
1708.2890041178139,1237
1710.2999999999988,1256
1712.3104863142066,1241
1714.3204633172854,1224
1716.329931266163,1265
1718.3388904178469,1289
1720.3473410294214,1197
1722.3552833580516,1250
1724.3627176609807,1253
1726.3696441955308,1266
1728.3760632191033,1206
1730.3819749891782,1216
1732.3873797633146,1218
1734.3922777991502,1269
1736.3966693544012,1272
1738.4005546868639,1252
1740.4039340544127,1204
1742.406807715001,1247
1744.4091759266616,1290
1746.4110389475054,1261
1748.4123970357223,1286
1750.413250449582,1219
1752.4135994474318,1248
1754.4134442876993,1184
1756.4127852288902,1239
1758.4116225295893,1236
1760.4099564484595,1248
1762.407787244244,1219
1764.405115175764,1260
1766.4019405019203,1265
1768.3982634816916,1232
1770.3940843741357,1246
1772.3894034383907,1246
1774.3842209336717,1209
1776.378537119274,1220
1778.372352254571,1235
1780.3656665990156,1193
1782.3584804121397,1174
1784.3507939535534,1200
1786.3426074829463,1223
1788.3339212600863,1224
1790.3247355448211,1292
1792.3150505970766,1285
1794.3048666768573,1231
1796.2941840442477,1222
1798.2830029594106,1212
1800.2713236825884,1257
1802.2591464741004,1219
1804.2464715943465,1236
1806.2332993038058,1231
1808.2196298630352,1206
1810.2054635326708,1209
1812.190800573428,1258
1814.175641246101,1267
1816.1599858115628,1243
1818.1438345307652,1213
1820.127187664738,1223
1822.1100454745924,1241
1824.092408221516,1228
1826.0742761667766,1219
1828.055649571721,1209
1830.0365286977735,1196
1832.0169138064398,1233
1833.9968051593014,1243
1835.9762030180214,1248
1837.9551076443408,1268
1839.9335193000788,1242
1841.9114382471344,1236
1843.888864747485,1200
1845.8657990631878,1256
1847.842241456378,1236
1849.8181921892697,1185
1851.7936515241558,1262
1853.7686197234098,1226
1855.7430970494815,1181
1857.7170837649014,1259
1859.6905801322787,1276
1861.6635864143004,1255
1863.6361028737338,1233
1865.608129773424,1219
1867.5796673762961,1237
1869.5507159453537,1186
1871.521275743678,1269
1873.4913470344313,1239
1875.4609300808534,1246
1877.4300251462632,1264
1879.3986324940588,1264
1881.366752387717,1252
1883.3343850907936,1236
1885.3015308669228,1194
1887.268189979819,1284
1889.2343626932739,1247
1891.2000492711595,1258
1893.1652499774254,1289
1895.1299650761011,1250
1897.0941948312952,1248
1899.0579395071945,1292
1901.0211993680641,1275
1902.98397467825,1240
1904.9462657021745,1274
1906.9080727043415,1276
1908.869395949332,1234
1910.8302357018065,1223
1912.790592226504,1221
1914.7504657882428,1226
1916.7098566519212,1198
1918.6687650825133,1219
1920.6271913450764,1197
1922.5851357047422,1245
1924.5425984267245,1175
1926.499579776314,1282
1928.4560800188833,1238
1930.4120994198802,1224
1932.367638244833,1250
1934.32269675935,1260
1936.2772752291175,1226
1938.231373919899,1213
1940.1849930975404,1242
1942.1381330279637,1245
1944.0907939771696,1237
1946.0429762112412,1254
1947.9946799963363,1237
1949.9459055986945,1212
1951.896653284633,1230
1953.8469233205478,1268
1955.7967159729142,1207
1957.7460315082863,1219
1959.6948701932974,1189
1961.6432322946594,1186
1963.5911180791632,1251
1965.5385278136787,1212
1967.4854617651545,1210
1969.4319202006182,1291
1971.377903387176,1254
1973.3234115920136,1229
1975.268445082395,1252
1977.2130041256642,1228
1979.1570889892423,1210
1981.1006999406304,1223
1983.04383724741,1209
1984.986501177238,1238
1986.928691997853,1218
1988.8704099770712,1263
1990.811655382789,1288
1992.7524284829801,1262
1994.692729545698,1252
1996.6325588390755,1249
1998.5719166313224,1190
2000.5108031907307,1244
2002.4492187856677,1253
2004.387163684583,1196
2006.3246381560011,1248
2008.2616424685298,1197
2010.1981768908527,1195
2012.1342416917332,1212
2014.069837140014,1229
2016.0049635046162,1178
2017.9396210545406,1283
2019.8738100588666,1241
2021.8075307867502,1243
2023.740783507431,1181
2025.6735684902228,1228
2027.6058860045214,1239
2029.5377363198004,1208
2031.4691197056118,1249
2033.4000364315875,1256
2035.3304867674374,1165
2037.260470982952,1181
2039.189989347998,1206
2041.1190421325232,1212
2043.047629606554,1191
2044.9757520401945,1240
2046.9034097036288,1266
2048.8306028671195,1189
2050.7573318010086,1245
2052.683596775716,1238
2054.609398061742,1203
2056.5347359296647,1204
2058.4596106501403,1260
2060.384022493906,1195
2062.3079717317764,1213
2064.231458634646,1223
2066.1544834734873,1189
2068.077046519352,1256
2069.99914804337,1192
2071.9207883167524,1186
2073.8419676107865,1252
2075.7626861968406,1281
2077.6829443463607,1258
2079.6027423308715,1245
2081.522080421977,1235
2083.440958891362,1215
2085.359378010786,1199
2087.2773380520907,1190
2089.194839287196,1221
2091.111881988101,1287
2093.0284664268825,1257
2094.9445928756973,1258
2096.86026160678,1260
2098.775472892446,1283
2100.690227005088,1276
2102.604524217178,1213
2104.5183648012676,1224
2106.431749029985,1226
2108.34467717604,1215
2110.2571495122206,1182
2112.169166311393,1267
2114.080727846503,1185
2115.9918343905747,1174
2117.902486216711,1244
2119.8126835980956,1230
2121.722426807987,1215
2123.6317161197285,1259
2125.5405518067364,1246
2127.448934142509,1239
2129.356863400624,1216
2131.264339854737,1243
2133.1713637785815,1164
2135.077935445972,1199
2136.9840551308002,1183
2138.889723107037,1210
2140.7949396487334,1220
2142.699705030018,1214
2144.6040195250994,1243
2146.507883408264,1262
2148.4112969538774,1235
2150.3142604363848,1239
2152.2167741303097,1223
2154.1188383102535,1240
2156.0204532508997,1217
2157.9216192270064,1209
2159.822336513414,1185
2161.7226053850413,1185
2163.622426116884,1226
2165.5217989840185,1251
2167.4207242616,1273
2169.319202224862,1205
2171.2172331491165,1237
2173.1148173097563,1280
2175.0119549822507,1251
2176.90864644215,1229
2178.8048919650823,1268
2180.7006918267534,1274
2182.596046302952,1208
2184.4909556695407,1190
2186.3854202024645,1245
2188.279440177746,1263
2190.173015871487,1246
2192.066147559868,1246
2193.958835519149,1193
2195.851080025667,1207
2197.7428813558417,1279
2199.6342397861667,1289
2201.5251555932186,1251
2203.415629053651,1236
2205.3056604441986,1216
2207.19525004167,1205
2209.084398122958,1269
2210.9731049650327,1242
2212.861370844941,1281
2214.749196039812,1222
2216.636580826851,1300
2218.523525483344,1263
2220.410030286655,1233
2222.296095514226,1318
2224.1817214435805,1301
2226.066908352319,1274
2227.951656518121,1201
2229.835966218746,1296
2231.71983773203,1228
2233.6032713358913,1244
2235.486267308324,1298
2237.3688259274036,1256
2239.2509474712824,1262
2241.132632218193,1253
2243.013880446447,1298
2244.8946924344323,1293
2246.7750684606203,1229
2248.6550088035574,1262
2250.534513741871,1270
2252.413583554265,1256
2254.292218519526,1283
2256.170418916517,1252
2258.0481850241786,1266
2259.925517121534,1250
2261.8024154876825,1272
2263.678880401803,1262
2265.5549121431536,1290
2267.430510991071,1285
2269.305677224971,1232
2271.180411124348,1233
2273.0547129687766,1221
2274.9285830379076,1299
2276.8020216114737,1244
2278.6750289692845,1218
2280.5476053912294,1270
2282.4197511572766,1273
2284.2914665474727,1242
2286.162751841943,1288
2288.0336073208937,1316
2289.904033264608,1246
2291.774029953448,1273
2293.6435976678554,1272
2295.5127366883517,1246
2297.381447295534,1250
2299.2497297700825,1254
2301.1175843927526,1236
2302.9850114443825,1182
2304.852011205885,1224
2306.7185839582553,1250
2308.5847299825664,1190
2310.4504495599676,1183
2312.3157429716925,1178
2314.1806104990483,1198
2316.0450524234247,1149
2317.9090690262888,1209
2319.772660589186,1192
2321.635827393742,1131
2323.498569721661,1120
2325.3608878547248,1204
2327.2227820747967,1150
2329.0842526638157,1180
2330.945299903803,1127
2332.805924076857,1177
2334.6661254651535,1162
2336.525904350951,1129
2338.3852610165827,1160
2340.244195744464,1168
2342.102708817088,1166
2343.9608005170253,1165
2345.8184711269287,1188
2347.675720929526,1176
2349.532550207628,1225
2351.38895924412,1126
2353.24494832197,1190
2355.100517724223,1213
2356.955667734004,1154
2358.810398634514,1192
2360.664710709037,1159
2362.5186042409337,1202
2364.3720795136437,1136
2366.225136810686,1212
2368.0777764156583,1163
2369.929998612237,1190
2371.7818036841777,1175
2373.633191915315,1155
2375.484163589562,1206
2377.3347189909114,1196
2379.184858403434,1205
2381.03458211128,1230
2382.8838903986775,1133
2384.732783549936,1178
2386.5812618494406,1171
2388.4293255816588,1172
2390.2769750311327,1219
2392.1242104824883,1138
2393.971032220427,1193
2395.8174405297295,1156
2397.6634356952563,1181
2399.509018001947,1172
2401.3541877348193,1222
2403.1989451789705,1185
2405.043290619576,1152
2406.8872243418905,1176
2408.730746631247,1149
2410.5738577730594,1204
2412.4165580528183,1174
2414.258847756095,1197
2416.100727168537,1187
2417.9421965758734,1202
2419.783256263912,1177
2421.623906518538,1218
2423.4641476257157,1205
2425.303979871491,1178
2427.143403541984,1213
2428.9824189233977,1235
2430.821026302012,1176
2432.6592259641866,1225
2434.497018196361,1203
2436.33440328505,1214
2438.171381516851,1226
2440.00795317844,1233
2441.844118556569,1141
2443.6798779380724,1195
2445.5152316098606,1189
2447.3501798589255,1213
2449.1847229723357,1184
2451.0188612372403,1282
2452.8525949408663,1260
2454.6859243705203,1203
2456.518849813587,1192
2458.3513715575314,1199
2460.183489889895,1183
2462.015205098301,1180
2463.8465174704493,1169
2465.67742729412,1212
2467.5079348571717,1174
2469.338040447542,1185
2471.1677443532476,1157
2472.9970468623833,1194
2474.825948263123,1188
2476.6544488437207,1193
2478.482548892508,1212
2480.310248697896,1150
2482.137548548374,1218
2483.9644487325118,1165
2485.790949538956,1150
2487.617051256433,1150
2489.44275417375,1181
2491.26805857979,1168
2493.0929647635157,1232
2494.917473013971,1221
2496.741583620276,1166
2498.5652968716304,1170
2500.3886130573137,1207
2502.2115324666834,1184
2504.0340553891765,1235
2505.856182114308,1250
2507.6779129316733,1234
2509.499248130945,1254
2511.3201880018764,1249
2513.140732834298,1167
2514.9608829181198,1179
2516.780638543331,1198
2518.6,1219
2520.418967578273,1210
2522.237541568376,1197
2524.0557222606144,1191
2525.8735099453706,1247
2527.6909049131086,1212
2529.507907454368,1228
2531.32451785977,1222
2533.140736420014,1273
2534.9565634258774,1221
2536.771999168218,1210
2538.5870439379714,1245
2540.4016980261526,1228
2542.2159617238544,1238
2544.02983532225,1251
2545.8433191125914,1198
2547.656413386209,1263
2549.4691184345115,1232
2551.2814345489874,1208
2553.093362021204,1235
2554.904901142808,1221
2556.716052205523,1230
2558.526815501153,1264
2560.3371913215824,1175
2562.147179958771,1257
2563.956781704761,1215
2565.7659968516705,1229
2567.5748256916986,1270
2569.3832685171224,1273
2571.1913256202984,1291
2572.9989972936614,1278
2574.806283829725,1280
2576.613185521084,1249
2578.4197026604074,1316
2580.2258355404483,1297
2582.031584454035,1311
2583.836949694077,1236
2585.6419315535613,1314
2587.4465303255533,1318
2589.2507463032002,1335
2591.0545797797245,1283
2592.8580310484303,1264
2594.6611004026995,1274
2596.463788135992,1319
2598.266094541849,1290
2600.0680199138874,1347
2601.869564545807,1328
2603.670728731383,1309
2605.4715127644704,1328
2607.2719169390048,1368
2609.071941548998,1313
2610.8715868885433,1311
2612.670853251811,1327
2614.469740933052,1299
2616.268250226594,1297
2618.0663814268455,1316
2619.864134828292,1337
2621.6615107255006,1315
2623.458509413115,1322
2625.2551311858597,1310
2627.0513763385347,1354
2628.8472451660223,1358
2630.6427379632833,1307
2632.4378550253564,1313
2634.232596647359,1311
2636.026963124488,1283
2637.8209547520187,1298
2639.6145718253065,1309
2641.407814639785,1351
2643.200683490966,1288
2644.9931786744414,1265
2646.7853004858807,1317
2648.577049221034,1300
2650.3684251757277,1266
2652.1594286458712,1298
2653.9500599274484,1252
2655.740319316525,1241
2657.5302071092437,1319
2659.3197236018286,1324
2661.10886909058,1274
2662.8976438718782,1320
2664.686048242183,1282
2666.4740824980327,1251
2668.2617469360443,1201
2670.0490418529134,1272
2671.8359675454153,1280
2673.622524310403,1295
2675.408712444811,1262
2677.1945322456495,1236
2678.979984010009,1297
2680.76506803506,1294
2682.5497846180497,1294
2684.334134056306,1231
2686.1181166472343,1252
2687.9017326883213,1243
2689.6849824771293,1315
2691.4678663113013,1223
2693.2503844885596,1270
2695.032537306705,1268
2696.8143250636167,1280
2698.5957480572542,1217
2700.3768065856534,1191
2702.1575009469316,1219
2703.937831439283,1190
2705.717798360982,1249
2707.4974020103837,1192
2709.276642685917,1194
2711.055520686095,1217
2712.834036309506,1242
2714.612189854819,1216
2716.389981620782,1219
2718.1674119062204,1195
2719.944481010041,1182
2721.721189231226,1204
2723.4975368688415,1185
2725.273524222027,1251
2727.0491515900053,1173
2728.824419272075,1214
2730.5993275676146,1179
2732.3738767760838,1211
2734.148067197016,1218
2735.921899130031,1189
2737.6953728748194,1190
2739.468488731156,1171
2741.2412469988926,1176
2743.0136479779617,1232
2744.785691968372,1195
2746.5573792702116,1222
2748.3287101836504,1253
2750.099685008934,1201
2751.870304046388,1230
2753.640567596418,1178
2755.4104759595057,1150
2757.1800294362156,1158
2758.949228327187,1248
2760.7180729331412,1183
2762.486563554877,1193
2764.254700493272,1176
2766.022484049284,1235
2767.789914523947,1244
2769.5569922183786,1216
2771.3237174337705,1206
2773.090090471394,1187
2774.8561116326036,1209
2776.6217812188274,1215
2778.3870995315756,1213
2780.1520668724356,1181
2781.9166835430747,1201
2783.6809498452394,1227
2785.444866080754,1166
2787.2084325515225,1167
2788.971649559527,1183
2790.73451740683,1165
2792.4970363955713,1123
2794.2592068279705,1216
2796.0210290063264,1201
2797.7825032330147,1202
2799.543629810493,1179
2801.304409041296,1225
2803.0648412280366,1176
2804.8249266734088,1196
2806.5846656801846,1181
2808.344058551212,1173
2810.1031055894246,1239
2811.8618070978273,1218
2813.6201633795085,1230
2815.378174737636,1186
2817.1358414754536,1253
2818.893163896285,1177
2820.6501423035334,1255
2822.4067770006814,1272
2824.1630682912883,1170
2825.9190164789957,1247
2827.6746218675207,1200
2829.429884760661,1212
2831.184805462294,1253
2832.9393842763743,1212
2834.693621506936,1209
2836.4475174580916,1186
2838.201072434034,1184
2839.954286739034,1217
2841.707160677441,1175
2843.459694553685,1220
2845.2118886722724,1183
2846.96374333779,1215
2848.7152588549034,1197
2850.4664355283567,1248
2852.217273662973,1199
2853.9677735636546,1202
2855.7179355353833,1205
2857.4677598832186,1252
2859.217246912299,1174
2860.9663969278427,1201
2862.715210235146,1167
2864.4636871395846,1245
2866.211827946614,1184
2867.9596329617652,1190
2869.7071024906536,1211
2871.4542368389684,1191
2873.20103631248,1191
2874.947501217038,1200
2876.6936318585695,1175
2878.4394285430812,1181
2880.1848915766604,1255
2881.9300212654707,1219
2883.6748179157553,1224
2885.4192818338374,1192
2887.1634133261173,1224
2888.907212699077,1232
2890.6506802592744,1188
2892.393816313348,1195
2894.1366211680142,1195
2895.8790951300693,1216
2897.621238506388,1145
2899.363051603925,1187
2901.1045347297118,1187
2902.8456881908596,1193
2904.58651229456,1151
2906.327007348081,1212
2908.067173658772,1153
2909.8070115340597,1164
2911.5465212814497,1163
2913.285703208527,1223
2915.0245576229563,1215
2916.7630848324807,1144
2918.5012851449196,1233
2920.2391588681758,1165
2921.976706310227,1188
2923.7139277791334,1174
2925.4508235830313,1190
2927.187394030137,1166
2928.923639428745,1187
2930.6595600872306,1198
2932.395156314046,1212
2934.1304284177218,1195
2935.8653767068713,1262
2937.6000014901815,1292
2939.3343030764227,1198
2941.068281774442,1218
2942.8019378931644,1229
2944.5352717415976,1196
2946.2682836288236,1228
2948.0009738640065,1222
2949.7333427563885,1216
2951.465390615289,1201
2953.1971177501086,1197
2954.9285244703265,1184
2956.6596110855,1199
2958.3903779052657,1154
2960.1208252393385,1166
2961.8509533975125,1179
2963.5807626896617,1200
2965.3102534257378,1177
2967.0394259157715,1226
2968.768280469873,1219
2970.496817398232,1188
2972.2250370111146,1194
2973.952939618869,1226
2975.6805255319196,1218
2977.4077950607707,1198
2979.134748516006,1217
2980.861386208289,1210
2982.587708448359,1180
2984.313715547037,1175
2986.039407815222,1171
2987.764785563891,1270
2989.489849104102,1218
2991.2145987469908,1228
2992.9390348037705,1211
2994.6631575857346,1203
2996.3869674042576,1149
2998.1104645707887,1155
2999.83364939686,1187
3001.5565221940783,1218
3003.2790832741334,1139
3005.0013329487924,1178
3006.7232715298996,1181
3008.4448993293804,1147
3010.166216659239,1157
3011.887223831558,1163
3013.607921158498,1173
3015.3283089522993,1181
3017.0483875252826,1149
3018.7681571898443,1141
3020.4876182584626,1174
3022.2067710436927,1169
3023.9256158581707,1155
3025.644153014609,1169
3027.362382825801,1119
3029.0803056046193,1153
3030.797921664012,1160
3032.5152313170106,1127
3034.2322348767225,1209
3035.9489326563353,1196
3037.665324969115,1172
3039.3814121284063,1174
3041.097194447633,1162
3042.812672240299,1161
3044.5278458199855,1211
3046.2427155003525,1154
3047.9572815951406,1147
3049.671544418167,1162
3051.38550428333,1151
3053.0991615046073,1194
3054.812516396051,1180
3056.5255692717974,1189
3058.2383204460575,1212
3059.9507702331257,1172
3061.662918947372,1182
3063.3747669032446,1218
3065.0863144152736,1119
3066.7975617980674,1135
3068.508509366309,1186
3070.219157434767,1116
3071.9295063182844,1158
3073.639556331785,1171
3075.3493077902704,1195
3077.058761008821,1196
3078.7679163025964,1175
3080.476773986837,1203
3082.1853343768594,1165
3083.89359778806,1224
3085.6015645359153,1153
3087.3092349359786,1185
3089.016609303884,1156
3090.7236879553434,1152
3092.4304712061476,1141
3094.136959372166,1160
3095.843152769349,1188
3097.5490517137237,1147
3099.2546565213966,1137
3100.959967508554,1138
3102.66498499146,1149
3104.3697092864577,1195
3106.0741407099695,1180
3107.778279578498,1136
3109.482126208622,1163
3111.1856809170004,1200
3112.8889440203716,1178
3114.5919158355528,1183
3116.294596679439,1163
3117.996986869006,1209
3119.6990867213062,1238
3121.4008965534726,1169
3123.102416682717,1227
3124.803647426329,1192
3126.5045891016784,1175
3128.205242026213,1132
3129.90560651746,1187
3131.605682893025,1212
3133.3054714705922,1188
3135.0049725679282,1232
3136.7041865028714,1193
3138.4031135933465,1158
3140.101754157353,1185
3141.800108512971,1188
3143.498176978357,1142
3145.1959598717494,1193
3146.8934575114636,1125
3148.5906702158954,1169
3150.2875983035183,1196
3151.9842420928853,1185
3153.680601902627,1174
3155.376678051456,1210
3157.07247085816,1123
3158.767980641609,1167
3160.463207720748,1173
3162.158152414606,1203
3163.8528150422862,1223
3165.5471959229726,1179
3167.2412953759303,1165
3168.9351137204976,1205
3170.628651276098,1214
3172.3219083622307,1152
3174.014885298474,1151
3175.707582404485,1156
3177.4000000000005,1171
3179.092138404835,1219
3180.7839979388846,1218
3182.47557892212,1160
3184.166881674594,1163
3185.8579065164386,1179
3187.5486537678626,1175
3189.2391237491547,1193
3190.9293167806827,1161
3192.6192331828934,1164
3194.3088732763117,1175
3195.998237381542,1124
3197.687325819268,1166
3199.376138910251,1197
3201.064676975334,1152
3202.7529403354347,1241
3204.4409293115523,1182
3206.1286442247647,1178
3207.816085396229,1177
3209.5032531471825,1177
3211.190147798936,1213
3212.8767696728846,1183
3214.5631190905015,1116
3216.2491963733373,1140
3217.9350018430214,1201
3219.6205358212637,1115
3221.305798629851,1126
3222.990790590651,1141
3224.6755120256103,1172
3226.359963256751,1179
3228.0441446061795,1163
3229.7280563960758,1126
3231.411698948703,1126
3233.0950725863995,1148
3234.778177631587,1169
3236.461014406761,1163
3238.1435832345005,1207
3239.8258844374595,1187
3241.507918338374,1145
3243.1896852600576,1168
3244.8711855254023,1191
3246.552419457381,1172
3248.233387379042,1211
3249.914089613516,1174
3251.59452648401,1171
3253.274698313813,1176
3254.95460542629,1161
3256.6342481448855,1176
3258.313626793125,1131
3259.9927416946084,1120
3261.6715931730196,1211
3263.3501815521176,1140
3265.0285071557437,1136
3266.706570307815,1143
3268.3843713323286,1115
3270.0619105533615,1191
3271.739188295068,1183
3273.4162048816834,1178
3275.0929606375184,1176
3276.769455886966,1162
3278.445690954498,1194
3280.1216661646613,1154
3281.797381842087,1193
3283.4728383114807,1193
3285.1480358976296,1214
3286.8229749253996,1220
3288.4976557197333,1206
3290.172078605655,1183
3291.846243908266,1181
3293.5201519527463,1188
3295.193803064357,1141
3296.8671975684374,1143
3298.5403357904024,1169
3300.21321805575,1138
3301.8858446900567,1173
3303.558216018975,1222
3305.23033236824,1156
3306.9021940636603,1162
3308.57380143113,1192
3310.2451547966184,1184
3311.916254486174,1215
3313.5871008259246,1185
3315.2576941420766,1158
3316.9280347609147,1227
3318.5981230088046,1236
3320.2679592121895,1191
3321.9375436975924,1142
3323.606876791612,1125
3325.27595882093,1122
3326.944790112305,1154
3328.6133709925753,1157
3330.2817017886573,1151
3331.949782827547,1145
3333.617614436319,1165
3335.2851969421245,1157
3336.952530672199,1185
3338.619615953853,1222
3340.286453114475,1151
3341.9530424815357,1191
3343.619384382583,1174
3345.2854791452437,1165
3346.951327097224,1149
3348.6169285663073,1188
3350.2822838803577,1201
3351.947393367319,1147
3353.61225735521,1158
3355.2768761721345,1209
3356.9412501462693,1185
3358.605379605873,1172
3360.2692648792827,1157
3361.9329062949146,1148
3363.596304181263,1201
