CollectionTime,9/25/2024 10:32:02 AM
ExposureUsed,3
CalibratedSpectrum
-962.7078968117929,524
-959.9714848408522,528
-957.2358232597828,569
-954.5009119013725,522
-951.7667505983302,559
-949.0333391832855,569
-946.3006774887896,558
-943.5687653473143,556
-940.837602591253,564
-938.1071890529199,547
-935.3775245645503,546
-932.6486089583007,564
-929.9204420662485,573
-927.1930237203925,611
-924.4663537526524,622
-921.7404319948689,605
-919.0152582788041,585
-916.2908324361409,641
-913.5671542984834,609
-910.8442236973568,616
-908.1220404642074,583
-905.4006044304027,565
-902.679915427231,566
-899.959973285902,535
-897.2407778375464,552
-894.5223289132158,575
-891.8046263438832,573
-889.0876699604426,556
-886.3714595937089,534
-883.6559950744183,547
-880.9412762332282,543
-878.2273029007168,527
-875.5140749073835,520
-872.8015920836489,534
-870.0898542598545,509
-867.3788612662631,530
-864.6686129330585,524
-861.9591090903457,524
-859.2503495681506,477
-856.5423341964203,489
-853.8350628050229,485
-851.1285352237478,495
-848.4227512823054,502
-845.7177108103272,533
-843.0134136373656,537
-840.3098595928943,563
-837.6070485063082,550
-834.9049802069229,565
-832.2036545239757,542
-829.5030712866244,552
-826.8032303239481,533
-824.1041314649472,551
-821.4057745385428,520
-818.7081593735775,510
-816.0112857988148,526
-813.3151536429393,533
-810.6197627345566,580
-807.9251129021936,540
-805.2312039742981,512
-802.5380357792392,512
-799.8456081453069,523
-797.1539209007124,547
-794.462973873588,576
-791.772766891987,565
-789.083299783884,545
-786.3945723771743,538
-783.7065844996748,516
-781.0193359791231,540
-778.3328266431781,566
-775.6470563194197,600
-772.9620248353489,545
-770.2777320183878,508
-767.5941776958798,544
-764.9113616950891,534
-762.2292838432011,548
-759.5479439673222,536
-756.8673418944801,546
-754.1874774516235,537
-751.5083504656222,492
-748.8299607632671,535
-746.15230817127,532
-743.475392516264,596
-740.7992136248035,554
-738.1237713233636,573
-735.4490654383407,553
-732.7750957960521,555
-730.1018622227365,524
-727.4293645445534,573
-724.7576025875837,555
-722.0865761778291,569
-719.4162851412126,544
-716.7467293035781,568
-714.0779084906909,575
-711.409822528237,586
-708.7424712418238,576
-706.0758544569796,549
-703.4099719991541,564
-700.7448236937178,595
-698.0804093659622,591
-695.4167288411002,580
-692.7537819442656,622
-690.0915685005134,600
-687.4300883348199,597
-684.7693412720819,587
-682.1093271371178,648
-679.4500457546669,564
-676.7914969493897,573
-674.1336805458676,555
-671.4765963686034,569
-668.8202442420206,575
-666.1646239904642,573
-663.5097354382001,572
-660.8555784094151,577
-658.2021527282176,572
-655.5494582186366,624
-652.8974947046223,644
-650.2462620100463,696
-647.5957599587009,636
-644.9459883742998,623
-642.2969470804776,677
-639.6486359007902,629
-637.0010546587141,607
-634.3542031776476,660
-631.7080812809096,661
-629.0626887917401,618
-626.4180255333008,665
-623.7740913286734,666
-621.1308860008619,728
-618.4884093727904,680
-615.8466612673046,647
-613.2056415071715,613
-610.5653499150785,618
-607.9257863136347,665
-605.28695052537,694
-602.6488423727357,660
-600.0114616781036,657
-597.3748082637674,729
-594.7388819519412,733
-592.1036825647604,664
-589.4692099242818,713
-586.8354638524829,753
-584.2024441712624,812
-581.5701507024403,703
-578.9385832677575,704
-576.3077416888759,693
-573.6776257873787,687
-571.0482353847704,691
-568.4195703024757,711
-565.7916303618415,712
-563.164415384135,732
-560.5379251905453,685
-557.9121596021815,670
-555.2871184400748,690
-552.6628015251767,689
-550.0392086783606,748
-547.4163397204204,760
-544.794194472071,725
-542.1727727539491,783
-539.5520743866118,724
-536.9320991905377,790
-534.3128469861261,829
-531.6943175936979,831
-529.0765108334947,873
-526.4594265256793,933
-523.8430644903358,1083
-521.2274245474689,1250
-518.612506517005,1331
-515.9983102187913,1410
-513.3848354725959,1790
-510.77208209810846,1993
-508.16004991493924,2236
-505.5487387426199,2349
-502.9381484006032,2353
-500.3282787082628,2184
-497.71912948489364,1960
-495.1107005497117,1694
-492.5029917218539,1372
-489.8960028203786,1189
-487.28973366426493,1023
-484.68418407241325,907
-482.07935386364494,874
-479.47524285670266,872
-476.87185087025,908
-474.2691777228715,920
-471.66722323307334,932
-469.0659872192821,874
-466.4654694998459,929
-463.86566989303384,937
-461.26658821703614,862
-458.66822428996414,856
-456.07057792985,852
-453.4736489546475,880
-450.877437182231,846
-448.28194243039627,847
-445.68716451686,780
-443.09310325926003,856
-440.49975847515555,820
-437.9071299820263,852
-435.31521759727354,822
-432.72402113821954,878
-430.13354042210767,871
-427.5437752661022,940
-424.95472548728867,918
-422.36639090267386,908
-419.7787713291855,948
-417.1918665836721,1052
-414.60567648290385,1076
-412.0202008435715,919
-409.4354394822874,909
-406.8513922155845,966
-404.26805885991723,1018
-401.685439231661,932
-399.103533147112,926
-396.522340422488,936
-393.9418608739278,923
-391.3620943174908,952
-388.7830405691583,912
-386.2046994448317,936
-383.6270707603344,862
-381.05015433141045,860
-378.473949973725,837
-375.8984575028645,801
-373.32367673433623,743
-370.74960748356875,739
-368.1762495659117,748
-365.60360279663576,677
-363.03166699093265,617
-360.4604419639154,675
-357.8899275306178,620
-355.32012350599507,622
-352.7510297049233,677
-350.1826459421999,638
-347.61497203254316,586
-345.04800779059235,600
-342.4817530309082,592
-339.91620756797226,651
-337.35137121618743,701
-334.7872437898774,794
-332.22382510328725,712
-329.66111497058273,717
-327.09911320585127,669
-324.53781962310075,600
-321.9772340362607,663
-319.4173562591816,610
-316.8581861056348,610
-314.2997233893127,661
-311.7419679238294,635
-309.1849195227194,618
-306.62857799943856,647
-304.0729431673641,695
-301.51801483979375,748
-298.963792829947,800
-296.41027695096386,761
-293.85746701590574,726
-291.3053628377552,832
-288.7539642294155,794
-286.2032710037115,860
-283.65328297338897,845
-281.1039999511146,905
-278.5554217494762,1070
-276.007548180983,1089
-273.4603790580651,885
-270.9139141930734,867
-268.3681533982807,795
-265.8230964858798,792
-263.27874326798565,887
-260.7350935566336,860
-258.1921471637804,994
-255.6499039013039,1144
-253.10836358100266,1023
-250.56752601459698,1007
-248.02739101372765,1131
-245.48795838995704,1169
-242.94922795476816,1021
-240.41119951956557,968
-237.8738728956746,1198
-235.33724789434166,1281
-232.80132432673452,1056
-230.2661020039418,962
-227.73158073697357,1096
-225.19776033676033,1386
-222.66464061415422,1356
-220.1322213799284,1075
-217.60050244477725,948
-215.06948361931552,1096
-212.53916471408013,1322
-210.00954553952818,1347
-207.48062590603843,1218
-204.9524056239104,1127
-202.4248845033651,1244
-199.8980623545441,1393
-197.37193898751036,1410
-194.84651421224817,1288
-192.32178783866232,1148
-189.79775967657952,1379
-187.27442953574644,1550
-184.7517972258321,1427
-182.2298625564256,1252
-179.7086253370378,1242
-177.18808537710026,1743
-174.66824248596583,2043
-172.14909647290835,1977
-169.6306471471229,1571
-167.11289431772548,1316
-164.59583779375328,1364
-162.07947738416453,1746
-159.5638128978386,2078
-157.04884414357605,2234
-154.53457093009854,2224
-152.02099306604828,1795
-149.50811035998936,1445
-146.99592262040665,1584
-144.48442965570587,1974
-141.97363127421409,2420
-139.46352728417958,2570
-136.95411749377126,2238
-134.44540171107985,1803
-131.93737974411636,1715
-129.43005140081357,1945
-126.92341648902493,2677
-124.41747481652521,3604
-121.91222619101006,4645
-119.40767042009657,5608
-116.90380731132257,5671
-114.40063667214702,5108
-111.8981583099503,4819
-109.3963720320337,5136
-106.89527764561933,5835
-104.39487495785067,6644
-101.89516377579241,10158
-99.39614390642998,13813
-96.89781515667039,15657
-94.40017733334128,13593
-91.90323024319173,10050
-89.40697369289148,7605
-86.91140748903172,6731
-84.41653143812482,8265
-81.92234534660395,10592
-79.42884902082358,13206
-76.93604226705907,13807
-74.4439248915071,15665
-71.95249670028534,25158
-69.46175749943245,35789
-66.97170709490854,42928
-64.48234529259423,45375
-61.99367189829195,43151
-59.50568671772464,38577
-57.01838955653636,35535
-54.53178022029283,40379
-52.045858514480074,43564
-49.560624244506016,38425
-47.07607721569923,29447
-44.59221723330904,23973
-42.10904410250669,22272
-39.62655762838392,21729
-37.14475761595372,25617
-34.66364387015028,33353
-32.18321619582866,34911
-29.70347439776515,43266
-27.224418280657005,51320
-24.74604764912317,62162
-22.26836230770266,65040
-19.7913620608565,65040
-17.315046712966478,65040
-14.83941606833514,65040
-12.36446993118659,65040
-9.89020810566592,65040
-7.416630395839093,65040
-4.94373660569363,65040
-2.471526539137585,65040
-6.821210263296962E-13,65040
2.47084320796705,65040
4.941003281093458,65040
7.410480415786196,65040
9.879274808531363,65040
12.347386655893956,65040
14.814816154518212,65040
17.28156350112681,65040
19.74762889252179,65040
22.21301252558385,65040
24.67771459727237,24745
27.141735304626195,7215
29.605074844762612,7401
32.06773341487792,8405
34.52971121224755,6973
36.99100843422559,6777
39.45162527824516,7669
41.91156194181792,6379
44.370818622535126,5770
46.82939551806646,5101
49.287292826160524,5074
51.74451074464503,4956
54.201049471426245,5170
56.65690920448981,4760
59.112090141899785,4555
61.56659248179983,4848
64.02041642241159,4252
66.4735621620365,4064
68.92602989905402,3631
71.37781983192338,3224
73.82893215918205,2821
76.27936707944684,3008
78.72912479141326,3148
81.17820549385567,3201
83.62660938562783,3132
86.07433666566146,2877
88.5213875329681,3362
90.96776218663751,3170
93.41346082583925,2564
95.85848364982041,2493
98.30283085790859,2433
100.7465026495089,2491
103.18949922410604,2671
105.63182078126385,3162
108.07346752062438,2351
110.51443964190923,2391
112.95473734491827,1849
115.39436082953114,1764
117.83331029570547,1982
120.27158594347827,2252
122.7091879729652,1999
125.1461165843615,1722
127.58237197794062,1694
130.01795435405518,1905
132.4528639131364,1835
134.88710085569494,1830
137.32066538231982,1977
139.75355769367923,2044
142.1857779905207,1768
144.61732647366978,1580
147.04820334403132,1633
149.47840880258934,1656
151.90794305040674,1635
154.33680628862487,1639
156.76499871846443,1904
159.19252054122433,1858
161.61937195828352,1981
164.04555317109896,1943
166.47106438120693,1939
168.89590579022217,1966
171.320077599839,2072
173.7435800118302,2326
176.16641322804742,2596
178.58857745042144,2712
181.01007288096173,2613
183.43089972175687,2830
185.85105817497413,2677
188.27054844285988,2356
190.6893707277394,2360
193.10752523201643,2399
195.5250121581745,2628
197.9418317087751,2632
200.3579840864594,2445
202.7734694939469,2487
205.18828813403627,2548
207.6024402096051,2522
210.01592592360964,2627
212.42874547908548,2846
214.84089907914665,2713
217.2523869269868,2538
219.66320922587727,2562
222.0733661791695,2581
224.48285799029293,2510
226.8916848627572,2537
229.29984700014882,2720
231.7073446061355,2716
234.11417788446204,2631
236.520347038953,2438
238.92585227351185,2470
241.33069379212054,2451
243.73487179884035,2544
246.1383864978112,2609
248.541238093252,2638
250.9434267894609,2513
253.34495279081432,2593
255.74581630176783,2626
258.1460175268563,2545
260.54555667069314,2407
262.9444339379703,2487
265.3426495334594,2555
267.7402036620107,2625
270.1370965285529,2673
272.53332833809407,2557
274.9288992957214,2460
277.32380960660055,2570
279.718059475976,2578
282.1116491091717,2479
284.5045787115897,2517
286.89684848871195,2564
289.2884586460981,2609
291.67940938938807,2587
294.0697009242996,2508
296.4593334566299,2628
298.84830719225477,2759
301.23662233712923,2697
303.6242790972866,2561
306.01127767884,2508
308.39761828798066,2387
310.78330113097934,2424
313.16832641418534,2310
315.5526943440269,2306
317.9364051270112,2277
320.3194589697242,2366
322.70185607883093,2300
325.0835966610754,2270
327.4646809232805,2243
329.8451090723478,2171
332.2248813152577,2187
334.6039978590701,2316
336.9824589109231,2255
339.36026467803447,2209
341.7374153677,2136
344.113911187295,2092
346.48975234427337,2044
348.8649390461686,2169
351.2394715005918,2059
353.61334991523415,2114
355.9865744978655,2129
358.35914545633375,2166
360.73106299856715,2124
363.10232733257146,2291
365.47293866643247,2062
367.84289720831396,2104
370.2122031664593,2106
372.5808567491905,2015
374.9488581649083,2050
377.31620762209275,2059
379.6829053293021,1988
382.0489514951745,2031
384.4143463284262,1949
386.7790900378528,1940
389.14318283232853,1908
391.50662492080653,2009
393.86941651231916,1941
396.23155781597745,2008
398.5930490409713,1975
400.9538903965696,1965
403.3140820921202,2033
405.6736243370498,2129
408.03251734086336,1908
410.3907613131465,2003
412.74835646356166,1955
415.10530300185144,1966
417.4616011378372,1877
419.81725108141893,1856
422.1722530425758,1868
424.5266072313656,1903
426.880313857925,1923
429.2333731324701,1914
431.58578526529516,1877
433.9375504667738,1849
436.2886689473588,1906
438.63914091758113,1775
440.9889665880513,1852
443.33814616945835,1836
445.68667987257015,1837
448.03456790823395,1849
450.3818104873759,1802
452.72840782100013,1836
455.07436012019105,1849
457.41966759611057,1828
459.7643304600007,1738
462.10834892318155,1748
464.4517231970525,1833
466.79445349309174,1865
469.1365400228566,1780
471.4779829979826,1852
473.81878263018564,1800
476.15893913125876,1848
478.4984527130747,1926
480.8373235875855,1964
483.17555196682144,1997
485.5131380628919,2101
487.8500820879857,2128
490.1863842543697,2183
492.52204477439034,2422
494.8570638604725,2669
497.1914417251204,3171
499.52517858091653,3657
501.85827464052306,4421
504.19073011668036,5180
506.5225452222086,5346
508.85372017000566,5262
511.18425517304956,5275
513.514150444396,5564
515.8434061971808,6209
518.1720226446176,6774
520.4999999999999,6428
522.8273384766991,5856
525.1540382881666,5444
527.480099647932,4737
529.8055227696037,3831
532.1303078668694,2817
534.454455153496,2286
536.777964843328,2126
539.1008371502907,1907
541.4230722883866,1962
543.744670471698,1893
546.0656319143858,1920
548.3859568306899,1881
550.7056454349294,1900
553.0246979415016,1952
555.3431145648834,1946
557.6608955196306,1936
559.978041020377,1857
562.2945512818363,1890
564.6104265188006,1864
566.9256669461412,1800
569.2402727788082,1827
571.5542442318302,1869
573.8675815203156,1908
576.1802848594508,1843
578.4923544645015,1837
580.8037905508126,1797
583.114593333807,1797
585.4247630289875,1850
587.7342998519354,1859
590.0432040183106,1860
592.3514757438526,1818
594.6591152443794,1892
596.9661227357875,1852
599.2724984340531,1793
601.578242555231,1880
603.8833553154542,1839
606.1878369309362,1779
608.4916876179676,1850
610.7949075929192,1877
613.0974970722403,1815
615.3994562724587,1824
617.7007854101818,1805
620.0014847020951,1815
622.3015543649641,1754
624.6009946156324,1855
626.8998056710224,1810
629.1979877481361,1848
631.4955410640538,1784
633.7924658359349,1872
636.0887622810175,1888
638.3844306166192,1825
640.6794710601358,1867
642.9738838290426,1839
645.2676691408932,1787
647.5608272133207,1776
649.853358264037,1873
652.1452625108324,1864
654.4365401715764,1863
656.7271914642178,1876
659.0172166067838,1877
661.3066158173809,1948
663.5953893141935,1844
665.8835373154867,1853
668.1710600396028,1844
670.4579577049639,1853
672.7442305300709,1954
675.0298787335033,1924
677.3149025339197,1866
679.599302150058,1892
681.8830778007342,1873
684.1662297048437,1920
686.4487580813608,1874
688.7306631493387,1878
691.0119451279091,1891
693.2926042362834,1893
695.5726406937516,1915
697.8520547196814,1880
700.1308465335215,1896
702.4090163547982,1837
704.6865644031171,1813
706.9634908981619,1832
709.2397960596965,1944
711.5154801075631,1878
713.7905432616823,1901
716.0649857420548,1788
718.3388077687592,1834
720.612009561953,1914
722.8845913418733,1828
725.1565533288352,1832
727.427895743234,1828
729.6986188055427,1862
731.9687227363137,1839
734.238207756178,1845
736.5070740858458,1884
738.7753219461066,1858
741.0429515578281,1833
743.3099631419569,1792
745.5763569195191,1877
747.8421331116193,1871
750.1072919394409,1901
752.3718336242467,1939
754.6357583873777,1882
756.8990664502545,1811
759.1617580343765,1858
761.423833361321,1893
763.6852926527457,1854
765.9461361303862,1943
768.206364016058,1920
770.4659765316536,1861
772.7249738991469,1894
774.9833563405886,1944
777.2411240781092,1919
779.4982773339183,1850
781.7548163303044,1821
784.010741289634,1931
786.2660524343538,1958
788.5207499869881,1893
790.7748341701416,1914
793.0283052064964,1901
795.2811633188143,1900
797.5334087299362,1920
799.7850416627813,1950
802.0360623403484,1890
804.2864709857143,1985
806.5362678220353,1875
808.7854530725468,1923
811.0340269605625,1929
813.2819897094754,1973
815.5293415427581,2004
817.77608268396,1869
820.0222133567116,1847
822.2677337847211,1909
824.5126441917765,1947
826.7569448017433,1885
829.0006358385675,1840
831.2437175262731,1845
833.4861900889629,1814
835.7280537508192,1877
837.9693087361026,1875
840.2099552691533,1939
842.4499935743896,1870
844.689423876309,1817
846.9282463994886,1867
849.1664613685833,1904
851.4040690083276,1805
853.6410695435349,1859
855.877463199097,1879
858.1132501999847,1904
860.3484307712487,1920
862.5830051380175,1957
864.8169735254988,1887
867.0503361589791,1862
869.2830932638243,1847
871.5152450654786,1878
873.7467917894654,1895
875.9777336613873,1856
878.2080709069252,1906
880.4378037518389,1931
882.666932421968,1970
884.8954571432301,1927
887.1233781416219,1922
889.3506956432192,1939
891.5774098741766,1913
893.803521060728,1908
896.0290294291852,1962
898.2539352059397,2008
900.4782386174619,1972
902.7019398903011,1939
904.925039251085,2035
907.147536926521,2048
909.3694331433943,2033
911.59072812857,2012
913.8114221089921,1980
916.0315153116827,2026
918.2510079637437,2020
920.4699002923547,1928
922.6881925247761,1990
924.905884888345,1962
927.1229776104793,1909
929.3394709186747,2042
931.555365040506,2009
933.7706602036275,2009
935.9853566357709,2018
938.1994545647489,2098
940.4129542184515,2001
942.6258558248488,1988
944.8381596119883,1978
947.0498658079974,2000
949.2609746410825,2042
951.4714863395287,2011
953.6814011316998,1976
955.8907192460387,1951
958.0994409110671,1910
960.3075663553858,1982
962.5150958076741,1915
964.7220294966913,1970
966.928367651274,1915
969.1341105003388,1908
971.3392582728806,1846
973.5438111979742,1889
975.747769504772,1954
977.9511334225061,1771
980.153903180487,1786
982.3560790081052,1846
984.5576611348289,1802
986.7586497902058,1836
988.9590452038618,1846
991.158847605503,1789
993.3580572249133,1731
995.5566742919558,1730
997.7546990365728,1693
999.952131688785,1692
1002.1489724786926,1612
1004.3452216364743,1658
1006.5408793923874,1589
1008.7359459767691,1646
1010.9304216200343,1625
1013.1243065526781,1582
1015.3176010052733,1530
1017.510305208472,1572
1019.7024193930064,1519
1021.8939437896848,1528
1024.0848786293977,1595
1026.2752241431122,1513
1028.4649805618747,1521
1030.6541481168115,1508
1032.842727039127,1463
1035.0307175601051,1468
1037.2181199111074,1485
1039.4049343235752,1472
1041.591161029029,1439
1043.7768002590683,1479
1045.9618522453698,1505
1048.1463172196918,1419
1050.3301954138697,1473
1052.513487059818,1502
1054.69619238953,1489
1056.8783116350783,1428
1059.0598450286152,1475
1061.2407928023704,1465
1063.4211551886528,1524
1065.6009324198508,1468
1067.780124728432,1444
1069.9587323469414,1408
1072.1367555080046,1448
1074.314194444325,1416
1076.4910493886855,1351
1078.667320573947,1405
1080.843008233051,1415
1083.0181125990161,1441
1085.1926339049414,1377
1087.3665723840027,1410
1089.5399282694575,1332
1091.7127017946405,1412
1093.8848931929647,1369
1096.0565026979243,1435
1098.2275305430899,1435
1100.3979769621128,1383
1102.567842188722,1368
1104.737126456726,1401
1106.9058300000124,1348
1109.0739530525475,1313
1111.2414958483764,1362
1113.4084586216231,1384
1115.5748416064907,1403
1117.7406450372605,1426
1119.9058691482942,1425
1122.0705141740304,1342
1124.2345803489884,1340
1126.3980679077658,1327
1128.5609770850388,1358
1130.7233081155623,1340
1132.8850612341707,1358
1135.0462366757774,1357
1137.2068346753745,1370
1139.3668554680326,1317
1141.526299288901,1341
1143.68516637321,1303
1145.8434569562655,1329
1148.001171273455,1336
1150.158309560244,1284
1152.3148720521767,1335
1154.470858984876,1381
1156.626270594044,1324
1158.7811071154629,1302
1160.9353687849912,1336
1163.089055838569,1303
1165.242168512213,1273
1167.3947070420209,1325
1169.5466716641677,1297
1171.6980626149075,1264
1173.8488801305748,1324
1175.9991244475814,1363
1178.1487958024186,1323
1180.2978944316555,1285
1182.4464205719428,1335
1184.5943744600072,1374
1186.7417563326567,1357
1188.8885664267755,1327
1191.0348049793297,1318
1193.1804722273619,1312
1195.325568407995,1348
1197.4700937584303,1312
1199.614048515948,1359
1201.7574329179074,1318
1203.900247201746,1348
1206.042491604982,1302
1208.1841663652099,1288
1210.3252717201053,1261
1212.465807907422,1303
1214.6057751649923,1314
1216.7451737307279,1309
1218.8840038426192,1306
1221.0222657387353,1383
1223.1599596572241,1339
1225.2970858363137,1287
1227.4336445143094,1322
1229.5696359295966,1323
1231.705060320639,1316
1233.8399179259786,1352
1235.9742089842384,1321
1238.107933734118,1312
1240.2410924143974,1329
1242.373685263935,1380
1244.5057125216676,1327
1246.6371744266116,1337
1248.7680712178621,1322
1250.898403134593,1379
1253.028170416058,1329
1255.1573733015875,1356
1257.2860120305932,1346
1259.4140868425648,1401
1261.54159797707,1356
1263.6685456737569,1347
1265.7949301723515,1383
1267.9207517126597,1367
1270.046010534565,1358
1272.1707068780306,1385
1274.2948409830983,1284
1276.4184130898889,1350
1278.541423438603,1403
1280.6638722695184,1376
1282.785759822993,1347
1284.9070863394636,1364
1287.0278520594447,1351
1289.1480572235314,1399
1291.2677020723963,1405
1293.3867868467923,1383
1295.5053117875495,1393
1297.623277135579,1358
1299.740683131868,1379
1301.8575300174857,1350
1303.973818033578,1378
1306.0895474213703,1406
1308.2047184221678,1433
1310.3193312773528,1405
1312.4333862283888,1371
1314.5468835168163,1332
1316.659823384255,1384
1318.7722060724045,1415
1320.8840318230418,1343
1322.9953008780249,1361
1325.1060134792888,1406
1327.2161698688478,1373
1329.3257702887959,1341
1331.4348149813054,1464
1333.5433041886276,1348
1335.6512381530933,1393
1337.7586171171101,1376
1339.8654413231675,1453
1341.9717110138317,1372
1344.0774264317488,1342
1346.1825878196432,1440
1348.2871954203192,1419
1350.3912494766587,1389
1352.4947502316231,1382
1354.5976979282532,1318
1356.7000928096686,1388
1358.8019351190665,1350
1360.9032250997243,1336
1363.0039629949988,1365
1365.1041490483235,1313
1367.2037835032133,1369
1369.3028666032606,1351
1371.401398592137,1338
1373.4993797135926,1397
1375.5968102114575,1472
1377.6936903296396,1392
1379.7900203121262,1455
1381.8858004029835,1429
1383.9810308463561,1351
1386.075711886469,1449
1388.1698437676241,1373
1390.2634267342032,1362
1392.356461030667,1416
1394.4489469015557,1439
1396.5408845914872,1406
1398.6322743451592,1421
1400.7231164073469,1356
1402.813411022907,1365
1404.903158436773,1403
1406.9923588939578,1428
1409.0810126395531,1390
1411.1691199187303,1419
1413.2566809767386,1388
1415.343696058907,1420
1417.4301654106425,1412
1419.5160892774315,1436
1421.6014679048399,1361
1423.6863015385125,1412
1425.7705904241707,1465
1427.8543348076178,1455
1429.9375349347342,1382
1432.0201910514802,1404
1434.102303403894,1409
1436.1838722380944,1392
1438.2648978002767,1385
1440.3453803367174,1430
1442.4253200937692,1436
1444.5047173178677,1376
1446.5835722555234,1405
1448.6618851533285,1387
1450.739656257952,1376
1452.8168858161434,1362
1454.8935740747306,1398
1456.96972128062,1358
1459.045327680797,1431
1461.120393522327,1408
1463.1949190523528,1402
1465.2689045180973,1365
1467.3423501668608,1366
1469.415256246024,1401
1471.4876230030463,1433
1473.559450685465,1515
1475.6307395408976,1484
1477.7014898170391,1420
1479.771701761665,1415
1481.8413756226287,1364
1483.9105116478618,1417
1485.9791100853772,1472
1488.0471711832643,1441
1490.1146951896926,1375
1492.1816823529098,1462
1494.2481329212433,1473
1496.3140471430984,1447
1498.3794252669609,1423
1500.4442675413939,1450
1502.5085742150404,1437
1504.572345536622,1435
1506.6355817549388,1441
1508.6982831188702,1414
1510.7604498773744,1448
1512.8220822794883,1500
1514.8831805743293,1462
1516.9437450110909,1369
1519.003775839048,1379
1521.0632733075522,1455
1523.1222376660367,1461
1525.1806691640113,1463
1527.2385680510652,1481
1529.2959345768668,1448
1531.3527689911643,1391
1533.4090715437833,1409
1535.4648424846291,1461
1537.5200820636855,1452
1539.5747905310159,1524
1541.6289681367616,1420
1543.6826151311434,1408
1545.7357317644614,1501
1547.7883182870937,1438
1549.8403749494987,1476
1551.8919020022113,1432
1553.9428996958477,1496
1555.9933682811015,1483
1558.0433080087469,1539
1560.0927191296346,1473
1562.1416018946961,1514
1564.1899565549415,1493
1566.2377833614592,1530
1568.2850825654164,1577
1570.3318544180606,1560
1572.3780991707158,1527
1574.423817074788,1571
1576.4690083817595,1567
1578.5136733431923,1521
1580.5578122107272,1520
1582.601425236085,1528
1584.6445126710646,1493
1586.6870747675434,1535
1588.7291117774776,1429
1590.7706239529034,1485
1592.8116115459347,1514
1594.8520748087658,1469
1596.8920139936686,1456
1598.9314293529933,1401
1600.9703211391711,1446
1603.008689604711,1407
1605.0465350022005,1380
1607.0838575843068,1364
1609.1206576037753,1464
1611.1569353134305,1440
1613.1926909661765,1396
1615.2279248149953,1406
1617.2626371129481,1417
1619.2968281131757,1328
1621.3304980688963,1388
1623.3636472334088,1348
1625.39627586009,1346
1627.428384202396,1342
1629.459972513861,1348
1631.4910410480993,1394
1633.5215900588028,1382
1635.551619799744,1370
1637.5811305247717,1324
1639.6101224878166,1373
1641.6385959428862,1388
1643.6665511440683,1310
1645.693988345528,1402
1647.7209078015112,1380
1649.7473097663405,1327
1651.7731944944203,1335
1653.7985622402307,1307
1655.823413258333,1349
1657.847747803366,1343
1659.8715661300494,1375
1661.8948684931793,1341
1663.9176551476316,1371
1665.9399263483624,1368
1667.9616823504057,1320
1669.982923408873,1301
1672.0036497789574,1330
1674.0238617159293,1316
1676.043559475138,1321
1678.0627433120121,1341
1680.081413482059,1318
1682.0995702408654,1331
1684.117213844096,1354
1686.134344547495,1282
1688.1509626068864,1358
1690.1670682781705,1314
1692.182661817329,1302
1694.1977434804217,1321
1696.2123135235875,1302
1698.226372203043,1312
1700.2399197750851,1338
1702.2529564960905,1367
1704.2654826225112,1340
1706.277498410882,1318
1708.2890041178139,1339
1710.2999999999988,1325
1712.3104863142066,1331
1714.3204633172854,1338
1716.329931266163,1409
1718.3388904178469,1389
1720.3473410294214,1350
1722.3552833580516,1339
1724.3627176609807,1398
1726.3696441955308,1321
1728.3760632191033,1363
1730.3819749891782,1309
1732.3873797633146,1358
1734.3922777991502,1347
1736.3966693544012,1343
1738.4005546868639,1381
1740.4039340544127,1266
1742.406807715001,1299
1744.4091759266616,1319
1746.4110389475054,1357
1748.4123970357223,1267
1750.413250449582,1309
1752.4135994474318,1361
1754.4134442876993,1345
1756.4127852288902,1348
1758.4116225295893,1321
1760.4099564484595,1331
1762.407787244244,1374
1764.405115175764,1268
1766.4019405019203,1323
1768.3982634816916,1342
1770.3940843741357,1417
1772.3894034383907,1382
1774.3842209336717,1342
1776.378537119274,1310
1778.372352254571,1313
1780.3656665990156,1345
1782.3584804121397,1348
1784.3507939535534,1270
1786.3426074829463,1351
1788.3339212600863,1375
1790.3247355448211,1357
1792.3150505970766,1331
1794.3048666768573,1338
1796.2941840442477,1353
1798.2830029594106,1366
1800.2713236825884,1343
1802.2591464741004,1332
1804.2464715943465,1398
1806.2332993038058,1359
1808.2196298630352,1289
1810.2054635326708,1302
1812.190800573428,1338
1814.175641246101,1362
1816.1599858115628,1364
1818.1438345307652,1367
1820.127187664738,1279
1822.1100454745924,1348
1824.092408221516,1364
1826.0742761667766,1341
1828.055649571721,1321
1830.0365286977735,1320
1832.0169138064398,1263
1833.9968051593014,1331
1835.9762030180214,1313
1837.9551076443408,1373
1839.9335193000788,1325
1841.9114382471344,1359
1843.888864747485,1362
1845.8657990631878,1353
1847.842241456378,1334
1849.8181921892697,1368
1851.7936515241558,1359
1853.7686197234098,1303
1855.7430970494815,1346
1857.7170837649014,1352
1859.6905801322787,1348
1861.6635864143004,1328
1863.6361028737338,1307
1865.608129773424,1323
1867.5796673762961,1327
1869.5507159453537,1329
1871.521275743678,1332
1873.4913470344313,1347
1875.4609300808534,1362
1877.4300251462632,1355
1879.3986324940588,1277
1881.366752387717,1308
1883.3343850907936,1323
1885.3015308669228,1334
1887.268189979819,1369
1889.2343626932739,1288
1891.2000492711595,1330
1893.1652499774254,1349
1895.1299650761011,1356
1897.0941948312952,1302
1899.0579395071945,1355
1901.0211993680641,1366
1902.98397467825,1314
1904.9462657021745,1382
1906.9080727043415,1372
1908.869395949332,1380
1910.8302357018065,1305
1912.790592226504,1320
1914.7504657882428,1275
1916.7098566519212,1318
1918.6687650825133,1349
1920.6271913450764,1351
1922.5851357047422,1333
1924.5425984267245,1338
1926.499579776314,1328
1928.4560800188833,1349
1930.4120994198802,1308
1932.367638244833,1322
1934.32269675935,1309
1936.2772752291175,1344
1938.231373919899,1370
1940.1849930975404,1318
1942.1381330279637,1359
1944.0907939771696,1338
1946.0429762112412,1352
1947.9946799963363,1281
1949.9459055986945,1358
1951.896653284633,1354
1953.8469233205478,1336
1955.7967159729142,1313
1957.7460315082863,1326
1959.6948701932974,1270
1961.6432322946594,1320
1963.5911180791632,1323
1965.5385278136787,1339
1967.4854617651545,1352
1969.4319202006182,1371
1971.377903387176,1289
1973.3234115920136,1336
1975.268445082395,1410
1977.2130041256642,1393
1979.1570889892423,1370
1981.1006999406304,1307
1983.04383724741,1351
1984.986501177238,1335
1986.928691997853,1303
1988.8704099770712,1292
1990.811655382789,1292
1992.7524284829801,1346
1994.692729545698,1357
1996.6325588390755,1396
1998.5719166313224,1341
2000.5108031907307,1314
2002.4492187856677,1338
2004.387163684583,1284
2006.3246381560011,1350
2008.2616424685298,1348
2010.1981768908527,1367
2012.1342416917332,1324
2014.069837140014,1302
2016.0049635046162,1363
2017.9396210545406,1340
2019.8738100588666,1306
2021.8075307867502,1371
2023.740783507431,1318
2025.6735684902228,1285
2027.6058860045214,1324
2029.5377363198004,1390
2031.4691197056118,1297
2033.4000364315875,1335
2035.3304867674374,1332
2037.260470982952,1317
2039.189989347998,1315
2041.1190421325232,1366
2043.047629606554,1337
2044.9757520401945,1322
2046.9034097036288,1336
2048.8306028671195,1329
2050.7573318010086,1325
2052.683596775716,1363
2054.609398061742,1339
2056.5347359296647,1354
2058.4596106501403,1325
2060.384022493906,1327
2062.3079717317764,1285
2064.231458634646,1313
2066.1544834734873,1342
2068.077046519352,1303
2069.99914804337,1306
2071.9207883167524,1294
2073.8419676107865,1333
2075.7626861968406,1283
2077.6829443463607,1340
2079.6027423308715,1303
2081.522080421977,1326
2083.440958891362,1284
2085.359378010786,1319
2087.2773380520907,1297
2089.194839287196,1357
2091.111881988101,1301
2093.0284664268825,1368
2094.9445928756973,1313
2096.86026160678,1391
2098.775472892446,1334
2100.690227005088,1300
2102.604524217178,1359
2104.5183648012676,1376
2106.431749029985,1333
2108.34467717604,1388
2110.2571495122206,1378
2112.169166311393,1355
2114.080727846503,1412
2115.9918343905747,1350
2117.902486216711,1305
2119.8126835980956,1324
2121.722426807987,1391
2123.6317161197285,1332
2125.5405518067364,1392
2127.448934142509,1323
2129.356863400624,1417
2131.264339854737,1363
2133.1713637785815,1359
2135.077935445972,1328
2136.9840551308002,1400
2138.889723107037,1385
2140.7949396487334,1352
2142.699705030018,1385
2144.6040195250994,1340
2146.507883408264,1344
2148.4112969538774,1362
2150.3142604363848,1382
2152.2167741303097,1373
2154.1188383102535,1378
2156.0204532508997,1395
2157.9216192270064,1389
2159.822336513414,1347
2161.7226053850413,1429
2163.622426116884,1429
2165.5217989840185,1407
2167.4207242616,1398
2169.319202224862,1368
2171.2172331491165,1408
2173.1148173097563,1388
2175.0119549822507,1461
2176.90864644215,1359
2178.8048919650823,1397
2180.7006918267534,1489
2182.596046302952,1395
2184.4909556695407,1409
2186.3854202024645,1411
2188.279440177746,1384
2190.173015871487,1411
2192.066147559868,1436
2193.958835519149,1354
2195.851080025667,1406
2197.7428813558417,1375
2199.6342397861667,1380
2201.5251555932186,1354
2203.415629053651,1407
2205.3056604441986,1390
2207.19525004167,1422
2209.084398122958,1390
2210.9731049650327,1398
2212.861370844941,1388
2214.749196039812,1434
2216.636580826851,1416
2218.523525483344,1435
2220.410030286655,1361
2222.296095514226,1465
2224.1817214435805,1424
2226.066908352319,1495
2227.951656518121,1440
2229.835966218746,1359
2231.71983773203,1394
2233.6032713358913,1374
2235.486267308324,1383
2237.3688259274036,1439
2239.2509474712824,1455
2241.132632218193,1399
2243.013880446447,1485
2244.8946924344323,1389
2246.7750684606203,1430
2248.6550088035574,1464
2250.534513741871,1429
2252.413583554265,1398
2254.292218519526,1443
2256.170418916517,1403
2258.0481850241786,1417
2259.925517121534,1420
2261.8024154876825,1406
2263.678880401803,1421
2265.5549121431536,1469
2267.430510991071,1426
2269.305677224971,1470
2271.180411124348,1443
2273.0547129687766,1420
2274.9285830379076,1371
2276.8020216114737,1348
2278.6750289692845,1378
2280.5476053912294,1444
2282.4197511572766,1437
2284.2914665474727,1448
2286.162751841943,1487
2288.0336073208937,1444
2289.904033264608,1468
2291.774029953448,1434
2293.6435976678554,1385
2295.5127366883517,1416
2297.381447295534,1406
2299.2497297700825,1399
2301.1175843927526,1335
2302.9850114443825,1361
2304.852011205885,1308
2306.7185839582553,1210
2308.5847299825664,1232
2310.4504495599676,1247
2312.3157429716925,1244
2314.1806104990483,1196
2316.0450524234247,1241
2317.9090690262888,1256
2319.772660589186,1222
2321.635827393742,1234
2323.498569721661,1254
2325.3608878547248,1231
2327.2227820747967,1205
2329.0842526638157,1209
2330.945299903803,1178
2332.805924076857,1133
2334.6661254651535,1155
2336.525904350951,1205
2338.3852610165827,1191
2340.244195744464,1212
2342.102708817088,1197
2343.9608005170253,1295
2345.8184711269287,1172
2347.675720929526,1150
2349.532550207628,1166
2351.38895924412,1148
2353.24494832197,1176
2355.100517724223,1189
2356.955667734004,1238
2358.810398634514,1250
2360.664710709037,1183
2362.5186042409337,1265
2364.3720795136437,1220
2366.225136810686,1178
2368.0777764156583,1236
2369.929998612237,1209
2371.7818036841777,1204
2373.633191915315,1251
2375.484163589562,1223
2377.3347189909114,1216
2379.184858403434,1230
2381.03458211128,1216
2382.8838903986775,1232
2384.732783549936,1224
2386.5812618494406,1264
2388.4293255816588,1187
2390.2769750311327,1230
2392.1242104824883,1245
2393.971032220427,1263
2395.8174405297295,1192
2397.6634356952563,1170
2399.509018001947,1218
2401.3541877348193,1224
2403.1989451789705,1210
2405.043290619576,1242
2406.8872243418905,1207
2408.730746631247,1211
2410.5738577730594,1206
2412.4165580528183,1215
2414.258847756095,1194
2416.100727168537,1209
2417.9421965758734,1244
2419.783256263912,1214
2421.623906518538,1221
2423.4641476257157,1197
2425.303979871491,1259
2427.143403541984,1158
2428.9824189233977,1154
2430.821026302012,1159
2432.6592259641866,1149
2434.497018196361,1237
2436.33440328505,1157
2438.171381516851,1154
2440.00795317844,1262
2441.844118556569,1257
2443.6798779380724,1210
2445.5152316098606,1203
2447.3501798589255,1202
2449.1847229723357,1253
2451.0188612372403,1220
2452.8525949408663,1184
2454.6859243705203,1186
2456.518849813587,1181
2458.3513715575314,1171
2460.183489889895,1213
2462.015205098301,1270
2463.8465174704493,1184
2465.67742729412,1200
2467.5079348571717,1193
2469.338040447542,1226
2471.1677443532476,1147
2472.9970468623833,1202
2474.825948263123,1203
2476.6544488437207,1195
2478.482548892508,1208
2480.310248697896,1244
2482.137548548374,1180
2483.9644487325118,1182
2485.790949538956,1179
2487.617051256433,1194
2489.44275417375,1280
2491.26805857979,1205
2493.0929647635157,1221
2494.917473013971,1212
2496.741583620276,1240
2498.5652968716304,1154
2500.3886130573137,1201
2502.2115324666834,1231
2504.0340553891765,1219
2505.856182114308,1224
2507.6779129316733,1201
2509.499248130945,1243
2511.3201880018764,1187
2513.140732834298,1182
2514.9608829181198,1170
2516.780638543331,1189
2518.6,1163
2520.418967578273,1179
2522.237541568376,1240
2524.0557222606144,1180
2525.8735099453706,1199
2527.6909049131086,1248
2529.507907454368,1213
2531.32451785977,1200
2533.140736420014,1182
2534.9565634258774,1165
2536.771999168218,1183
2538.5870439379714,1186
2540.4016980261526,1217
2542.2159617238544,1254
2544.02983532225,1200
2545.8433191125914,1194
2547.656413386209,1216
2549.4691184345115,1190
2551.2814345489874,1198
2553.093362021204,1195
2554.904901142808,1264
2556.716052205523,1228
2558.526815501153,1215
2560.3371913215824,1209
2562.147179958771,1230
2563.956781704761,1220
2565.7659968516705,1279
2567.5748256916986,1220
2569.3832685171224,1250
2571.1913256202984,1239
2572.9989972936614,1213
2574.806283829725,1249
2576.613185521084,1222
2578.4197026604074,1163
2580.2258355404483,1265
2582.031584454035,1240
2583.836949694077,1229
2585.6419315535613,1240
2587.4465303255533,1242
2589.2507463032002,1252
2591.0545797797245,1304
2592.8580310484303,1280
2594.6611004026995,1234
2596.463788135992,1281
2598.266094541849,1252
2600.0680199138874,1228
2601.869564545807,1227
2603.670728731383,1251
2605.4715127644704,1279
2607.2719169390048,1240
2609.071941548998,1191
2610.8715868885433,1229
2612.670853251811,1202
2614.469740933052,1250
2616.268250226594,1272
2618.0663814268455,1219
2619.864134828292,1188
2621.6615107255006,1232
2623.458509413115,1245
2625.2551311858597,1208
2627.0513763385347,1162
2628.8472451660223,1284
2630.6427379632833,1201
2632.4378550253564,1211
2634.232596647359,1198
2636.026963124488,1201
2637.8209547520187,1219
2639.6145718253065,1259
2641.407814639785,1260
2643.200683490966,1256
2644.9931786744414,1216
2646.7853004858807,1249
2648.577049221034,1215
2650.3684251757277,1256
2652.1594286458712,1202
2653.9500599274484,1188
2655.740319316525,1180
2657.5302071092437,1235
2659.3197236018286,1198
2661.10886909058,1189
2662.8976438718782,1280
2664.686048242183,1196
2666.4740824980327,1201
2668.2617469360443,1228
2670.0490418529134,1150
2671.8359675454153,1185
2673.622524310403,1230
2675.408712444811,1221
2677.1945322456495,1204
2678.979984010009,1210
2680.76506803506,1261
2682.5497846180497,1181
2684.334134056306,1172
2686.1181166472343,1154
2687.9017326883213,1206
2689.6849824771293,1185
2691.4678663113013,1257
2693.2503844885596,1249
2695.032537306705,1209
2696.8143250636167,1214
2698.5957480572542,1217
2700.3768065856534,1203
2702.1575009469316,1190
2703.937831439283,1197
2705.717798360982,1197
2707.4974020103837,1196
2709.276642685917,1232
2711.055520686095,1231
2712.834036309506,1195
2714.612189854819,1192
2716.389981620782,1152
2718.1674119062204,1241
2719.944481010041,1230
2721.721189231226,1151
2723.4975368688415,1228
2725.273524222027,1207
2727.0491515900053,1165
2728.824419272075,1215
2730.5993275676146,1189
2732.3738767760838,1167
2734.148067197016,1139
2735.921899130031,1152
2737.6953728748194,1162
2739.468488731156,1192
2741.2412469988926,1218
2743.0136479779617,1194
2744.785691968372,1220
2746.5573792702116,1177
2748.3287101836504,1247
2750.099685008934,1228
2751.870304046388,1212
2753.640567596418,1213
2755.4104759595057,1159
2757.1800294362156,1174
2758.949228327187,1179
2760.7180729331412,1257
2762.486563554877,1190
2764.254700493272,1164
2766.022484049284,1190
2767.789914523947,1150
2769.5569922183786,1149
2771.3237174337705,1214
2773.090090471394,1247
2774.8561116326036,1146
2776.6217812188274,1192
2778.3870995315756,1187
2780.1520668724356,1207
2781.9166835430747,1202
2783.6809498452394,1146
2785.444866080754,1194
2787.2084325515225,1190
2788.971649559527,1194
2790.73451740683,1172
2792.4970363955713,1168
2794.2592068279705,1208
2796.0210290063264,1178
2797.7825032330147,1188
2799.543629810493,1103
2801.304409041296,1190
2803.0648412280366,1204
2804.8249266734088,1174
2806.5846656801846,1189
2808.344058551212,1188
2810.1031055894246,1220
2811.8618070978273,1203
2813.6201633795085,1217
2815.378174737636,1200
2817.1358414754536,1216
2818.893163896285,1270
2820.6501423035334,1238
2822.4067770006814,1212
2824.1630682912883,1240
2825.9190164789957,1226
2827.6746218675207,1217
2829.429884760661,1224
2831.184805462294,1209
2832.9393842763743,1160
2834.693621506936,1181
2836.4475174580916,1147
2838.201072434034,1220
2839.954286739034,1180
2841.707160677441,1230
2843.459694553685,1231
2845.2118886722724,1247
2846.96374333779,1187
2848.7152588549034,1202
2850.4664355283567,1229
2852.217273662973,1246
2853.9677735636546,1177
2855.7179355353833,1212
2857.4677598832186,1125
2859.217246912299,1213
2860.9663969278427,1157
2862.715210235146,1163
2864.4636871395846,1181
2866.211827946614,1168
2867.9596329617652,1194
2869.7071024906536,1218
2871.4542368389684,1182
2873.20103631248,1214
2874.947501217038,1215
2876.6936318585695,1193
2878.4394285430812,1240
2880.1848915766604,1214
2881.9300212654707,1223
2883.6748179157553,1233
2885.4192818338374,1256
2887.1634133261173,1212
2888.907212699077,1188
2890.6506802592744,1203
2892.393816313348,1273
2894.1366211680142,1226
2895.8790951300693,1205
2897.621238506388,1116
2899.363051603925,1228
2901.1045347297118,1210
2902.8456881908596,1200
2904.58651229456,1202
2906.327007348081,1205
2908.067173658772,1203
2909.8070115340597,1215
2911.5465212814497,1217
2913.285703208527,1194
2915.0245576229563,1226
2916.7630848324807,1179
2918.5012851449196,1237
2920.2391588681758,1235
2921.976706310227,1213
2923.7139277791334,1233
2925.4508235830313,1174
2927.187394030137,1235
2928.923639428745,1214
2930.6595600872306,1238
2932.395156314046,1220
2934.1304284177218,1227
2935.8653767068713,1203
2937.6000014901815,1230
2939.3343030764227,1216
2941.068281774442,1231
2942.8019378931644,1221
2944.5352717415976,1231
2946.2682836288236,1218
2948.0009738640065,1248
2949.7333427563885,1243
2951.465390615289,1232
2953.1971177501086,1214
2954.9285244703265,1242
2956.6596110855,1220
2958.3903779052657,1206
2960.1208252393385,1175
2961.8509533975125,1172
2963.5807626896617,1165
2965.3102534257378,1209
2967.0394259157715,1210
2968.768280469873,1251
2970.496817398232,1183
2972.2250370111146,1219
2973.952939618869,1272
2975.6805255319196,1230
2977.4077950607707,1231
2979.134748516006,1200
2980.861386208289,1231
2982.587708448359,1204
2984.313715547037,1247
2986.039407815222,1188
2987.764785563891,1215
2989.489849104102,1209
2991.2145987469908,1170
2992.9390348037705,1190
2994.6631575857346,1200
2996.3869674042576,1215
2998.1104645707887,1186
2999.83364939686,1158
3001.5565221940783,1193
3003.2790832741334,1123
3005.0013329487924,1238
3006.7232715298996,1126
3008.4448993293804,1238
3010.166216659239,1182
3011.887223831558,1197
3013.607921158498,1203
3015.3283089522993,1211
3017.0483875252826,1232
3018.7681571898443,1198
3020.4876182584626,1203
3022.2067710436927,1174
3023.9256158581707,1167
3025.644153014609,1135
3027.362382825801,1201
3029.0803056046193,1170
3030.797921664012,1259
3032.5152313170106,1189
3034.2322348767225,1152
3035.9489326563353,1170
3037.665324969115,1174
3039.3814121284063,1186
3041.097194447633,1164
3042.812672240299,1201
3044.5278458199855,1220
3046.2427155003525,1196
3047.9572815951406,1226
3049.671544418167,1143
3051.38550428333,1208
3053.0991615046073,1217
3054.812516396051,1188
3056.5255692717974,1183
3058.2383204460575,1211
3059.9507702331257,1195
3061.662918947372,1222
3063.3747669032446,1221
3065.0863144152736,1229
3066.7975617980674,1172
3068.508509366309,1220
3070.219157434767,1205
3071.9295063182844,1155
3073.639556331785,1194
3075.3493077902704,1177
3077.058761008821,1132
3078.7679163025964,1170
3080.476773986837,1185
3082.1853343768594,1225
3083.89359778806,1162
3085.6015645359153,1194
3087.3092349359786,1199
3089.016609303884,1190
3090.7236879553434,1259
3092.4304712061476,1160
3094.136959372166,1147
3095.843152769349,1169
3097.5490517137237,1225
3099.2546565213966,1219
3100.959967508554,1212
3102.66498499146,1163
3104.3697092864577,1210
3106.0741407099695,1220
3107.778279578498,1146
3109.482126208622,1156
3111.1856809170004,1138
3112.8889440203716,1189
3114.5919158355528,1234
3116.294596679439,1193
3117.996986869006,1201
3119.6990867213062,1201
3121.4008965534726,1207
3123.102416682717,1208
3124.803647426329,1189
3126.5045891016784,1177
3128.205242026213,1155
3129.90560651746,1171
3131.605682893025,1188
3133.3054714705922,1204
3135.0049725679282,1171
3136.7041865028714,1184
3138.4031135933465,1192
3140.101754157353,1191
3141.800108512971,1198
3143.498176978357,1184
3145.1959598717494,1171
3146.8934575114636,1165
3148.5906702158954,1173
3150.2875983035183,1212
3151.9842420928853,1128
3153.680601902627,1171
3155.376678051456,1182
3157.07247085816,1204
3158.767980641609,1160
3160.463207720748,1230
3162.158152414606,1180
3163.8528150422862,1154
3165.5471959229726,1191
3167.2412953759303,1214
3168.9351137204976,1188
3170.628651276098,1176
3172.3219083622307,1189
3174.014885298474,1178
3175.707582404485,1213
3177.4000000000005,1176
3179.092138404835,1157
3180.7839979388846,1165
3182.47557892212,1146
3184.166881674594,1149
3185.8579065164386,1145
3187.5486537678626,1226
3189.2391237491547,1175
3190.9293167806827,1144
3192.6192331828934,1183
3194.3088732763117,1161
3195.998237381542,1182
3197.687325819268,1154
3199.376138910251,1197
3201.064676975334,1175
3202.7529403354347,1179
3204.4409293115523,1146
3206.1286442247647,1202
3207.816085396229,1151
3209.5032531471825,1173
3211.190147798936,1169
3212.8767696728846,1151
3214.5631190905015,1250
3216.2491963733373,1078
3217.9350018430214,1128
3219.6205358212637,1112
3221.305798629851,1132
3222.990790590651,1152
3224.6755120256103,1124
3226.359963256751,1141
3228.0441446061795,1110
3229.7280563960758,1207
3231.411698948703,1120
3233.0950725863995,1156
3234.778177631587,1193
3236.461014406761,1191
3238.1435832345005,1211
3239.8258844374595,1217
3241.507918338374,1198
3243.1896852600576,1182
3244.8711855254023,1175
3246.552419457381,1220
3248.233387379042,1199
3249.914089613516,1124
3251.59452648401,1156
3253.274698313813,1172
3254.95460542629,1142
3256.6342481448855,1111
3258.313626793125,1131
3259.9927416946084,1134
3261.6715931730196,1080
3263.3501815521176,1145
3265.0285071557437,1108
3266.706570307815,1132
3268.3843713323286,1151
3270.0619105533615,1181
3271.739188295068,1158
3273.4162048816834,1217
3275.0929606375184,1177
3276.769455886966,1166
3278.445690954498,1223
3280.1216661646613,1184
3281.797381842087,1205
3283.4728383114807,1190
3285.1480358976296,1132
3286.8229749253996,1135
3288.4976557197333,1217
3290.172078605655,1206
3291.846243908266,1125
3293.5201519527463,1163
3295.193803064357,1148
3296.8671975684374,1161
3298.5403357904024,1157
3300.21321805575,1176
3301.8858446900567,1134
3303.558216018975,1164
3305.23033236824,1234
3306.9021940636603,1152
3308.57380143113,1180
3310.2451547966184,1208
3311.916254486174,1237
3313.5871008259246,1219
3315.2576941420766,1186
3316.9280347609147,1217
3318.5981230088046,1143
3320.2679592121895,1192
3321.9375436975924,1157
3323.606876791612,1145
3325.27595882093,1125
3326.944790112305,1120
3328.6133709925753,1164
3330.2817017886573,1127
3331.949782827547,1165
3333.617614436319,1157
3335.2851969421245,1200
3336.952530672199,1229
3338.619615953853,1232
3340.286453114475,1199
3341.9530424815357,1215
3343.619384382583,1167
3345.2854791452437,1169
3346.951327097224,1147
3348.6169285663073,1139
3350.2822838803577,1223
3351.947393367319,1182
3353.61225735521,1165
3355.2768761721345,1123
3356.9412501462693,1179
3358.605379605873,1150
3360.2692648792827,1194
3361.9329062949146,1174
3363.596304181263,1196
