CollectionTime,9/25/2024 10:32:49 AM
ExposureUsed,3
CalibratedSpectrum
-962.7078968117929,503
-959.9714848408522,499
-957.2358232597828,526
-954.5009119013725,561
-951.7667505983302,572
-949.0333391832855,541
-946.3006774887896,541
-943.5687653473143,560
-940.837602591253,526
-938.1071890529199,524
-935.3775245645503,556
-932.6486089583007,553
-929.9204420662485,554
-927.1930237203925,572
-924.4663537526524,540
-921.7404319948689,556
-919.0152582788041,531
-916.2908324361409,614
-913.5671542984834,593
-910.8442236973568,532
-908.1220404642074,539
-905.4006044304027,553
-902.679915427231,569
-899.959973285902,539
-897.2407778375464,556
-894.5223289132158,592
-891.8046263438832,536
-889.0876699604426,544
-886.3714595937089,519
-883.6559950744183,540
-880.9412762332282,536
-878.2273029007168,533
-875.5140749073835,517
-872.8015920836489,534
-870.0898542598545,504
-867.3788612662631,517
-864.6686129330585,522
-861.9591090903457,509
-859.2503495681506,508
-856.5423341964203,473
-853.8350628050229,458
-851.1285352237478,486
-848.4227512823054,526
-845.7177108103272,498
-843.0134136373656,508
-840.3098595928943,533
-837.6070485063082,564
-834.9049802069229,593
-832.2036545239757,555
-829.5030712866244,561
-826.8032303239481,537
-824.1041314649472,530
-821.4057745385428,509
-818.7081593735775,518
-816.0112857988148,540
-813.3151536429393,534
-810.6197627345566,535
-807.9251129021936,529
-805.2312039742981,548
-802.5380357792392,553
-799.8456081453069,549
-797.1539209007124,544
-794.462973873588,537
-791.772766891987,534
-789.083299783884,499
-786.3945723771743,540
-783.7065844996748,582
-781.0193359791231,547
-778.3328266431781,578
-775.6470563194197,548
-772.9620248353489,505
-770.2777320183878,518
-767.5941776958798,526
-764.9113616950891,525
-762.2292838432011,541
-759.5479439673222,523
-756.8673418944801,534
-754.1874774516235,553
-751.5083504656222,555
-748.8299607632671,504
-746.15230817127,535
-743.475392516264,576
-740.7992136248035,529
-738.1237713233636,557
-735.4490654383407,531
-732.7750957960521,542
-730.1018622227365,577
-727.4293645445534,554
-724.7576025875837,558
-722.0865761778291,562
-719.4162851412126,548
-716.7467293035781,569
-714.0779084906909,574
-711.409822528237,571
-708.7424712418238,572
-706.0758544569796,565
-703.4099719991541,556
-700.7448236937178,587
-698.0804093659622,617
-695.4167288411002,533
-692.7537819442656,599
-690.0915685005134,547
-687.4300883348199,563
-684.7693412720819,570
-682.1093271371178,569
-679.4500457546669,590
-676.7914969493897,557
-674.1336805458676,546
-671.4765963686034,571
-668.8202442420206,597
-666.1646239904642,614
-663.5097354382001,566
-660.8555784094151,586
-658.2021527282176,559
-655.5494582186366,562
-652.8974947046223,562
-650.2462620100463,617
-647.5957599587009,597
-644.9459883742998,603
-642.2969470804776,607
-639.6486359007902,621
-637.0010546587141,612
-634.3542031776476,609
-631.7080812809096,627
-629.0626887917401,627
-626.4180255333008,625
-623.7740913286734,637
-621.1308860008619,693
-618.4884093727904,653
-615.8466612673046,650
-613.2056415071715,601
-610.5653499150785,638
-607.9257863136347,662
-605.28695052537,640
-602.6488423727357,655
-600.0114616781036,675
-597.3748082637674,687
-594.7388819519412,703
-592.1036825647604,714
-589.4692099242818,716
-586.8354638524829,715
-584.2024441712624,730
-581.5701507024403,676
-578.9385832677575,678
-576.3077416888759,692
-573.6776257873787,690
-571.0482353847704,677
-568.4195703024757,678
-565.7916303618415,688
-563.164415384135,704
-560.5379251905453,694
-557.9121596021815,704
-555.2871184400748,664
-552.6628015251767,664
-550.0392086783606,717
-547.4163397204204,720
-544.794194472071,684
-542.1727727539491,726
-539.5520743866118,717
-536.9320991905377,771
-534.3128469861261,818
-531.6943175936979,754
-529.0765108334947,831
-526.4594265256793,928
-523.8430644903358,1058
-521.2274245474689,1175
-518.612506517005,1306
-515.9983102187913,1382
-513.3848354725959,1499
-510.77208209810846,1760
-508.16004991493924,2094
-505.5487387426199,2150
-502.9381484006032,2189
-500.3282787082628,1945
-497.71912948489364,1804
-495.1107005497117,1574
-492.5029917218539,1297
-489.8960028203786,1143
-487.28973366426493,1017
-484.68418407241325,901
-482.07935386364494,868
-479.47524285670266,874
-476.87185087025,883
-474.2691777228715,944
-471.66722323307334,934
-469.0659872192821,892
-466.4654694998459,898
-463.86566989303384,882
-461.26658821703614,875
-458.66822428996414,862
-456.07057792985,891
-453.4736489546475,893
-450.877437182231,840
-448.28194243039627,846
-445.68716451686,811
-443.09310325926003,790
-440.49975847515555,768
-437.9071299820263,770
-435.31521759727354,867
-432.72402113821954,881
-430.13354042210767,905
-427.5437752661022,862
-424.95472548728867,855
-422.36639090267386,924
-419.7787713291855,928
-417.1918665836721,1057
-414.60567648290385,986
-412.0202008435715,961
-409.4354394822874,890
-406.8513922155845,881
-404.26805885991723,906
-401.685439231661,911
-399.103533147112,916
-396.522340422488,899
-393.9418608739278,902
-391.3620943174908,865
-388.7830405691583,860
-386.2046994448317,874
-383.6270707603344,856
-381.05015433141045,827
-378.473949973725,771
-375.8984575028645,704
-373.32367673433623,739
-370.74960748356875,774
-368.1762495659117,737
-365.60360279663576,643
-363.03166699093265,584
-360.4604419639154,615
-357.8899275306178,590
-355.32012350599507,600
-352.7510297049233,619
-350.1826459421999,612
-347.61497203254316,555
-345.04800779059235,550
-342.4817530309082,574
-339.91620756797226,610
-337.35137121618743,618
-334.7872437898774,717
-332.22382510328725,704
-329.66111497058273,704
-327.09911320585127,619
-324.53781962310075,580
-321.9772340362607,613
-319.4173562591816,607
-316.8581861056348,589
-314.2997233893127,607
-311.7419679238294,561
-309.1849195227194,630
-306.62857799943856,621
-304.0729431673641,633
-301.51801483979375,696
-298.963792829947,757
-296.41027695096386,724
-293.85746701590574,685
-291.3053628377552,747
-288.7539642294155,734
-286.2032710037115,792
-283.65328297338897,773
-281.1039999511146,886
-278.5554217494762,986
-276.007548180983,875
-273.4603790580651,722
-270.9139141930734,777
-268.3681533982807,697
-265.8230964858798,654
-263.27874326798565,740
-260.7350935566336,717
-258.1921471637804,807
-255.6499039013039,907
-253.10836358100266,873
-250.56752601459698,821
-248.02739101372765,998
-245.48795838995704,1046
-242.94922795476816,883
-240.41119951956557,925
-237.8738728956746,1019
-235.33724789434166,1023
-232.80132432673452,893
-230.2661020039418,872
-227.73158073697357,912
-225.19776033676033,1109
-222.66464061415422,1099
-220.1322213799284,905
-217.60050244477725,842
-215.06948361931552,938
-212.53916471408013,1137
-210.00954553952818,1151
-207.48062590603843,953
-204.9524056239104,1008
-202.4248845033651,1136
-199.8980623545441,1188
-197.37193898751036,1229
-194.84651421224817,1063
-192.32178783866232,984
-189.79775967657952,1222
-187.27442953574644,1418
-184.7517972258321,1357
-182.2298625564256,1183
-179.7086253370378,1091
-177.18808537710026,1541
-174.66824248596583,1660
-172.14909647290835,1542
-169.6306471471229,1404
-167.11289431772548,1198
-164.59583779375328,1217
-162.07947738416453,1395
-159.5638128978386,1649
-157.04884414357605,1775
-154.53457093009854,1840
-152.02099306604828,1529
-149.50811035998936,1336
-146.99592262040665,1260
-144.48442965570587,1499
-141.97363127421409,1784
-139.46352728417958,2007
-136.95411749377126,1851
-134.44540171107985,1700
-131.93737974411636,1562
-129.43005140081357,1671
-126.92341648902493,2329
-124.41747481652521,3286
-121.91222619101006,4230
-119.40767042009657,5054
-116.90380731132257,4946
-114.40063667214702,4648
-111.8981583099503,4195
-109.3963720320337,4278
-106.89527764561933,4501
-104.39487495785067,5514
-101.89516377579241,8540
-99.39614390642998,12453
-96.89781515667039,13576
-94.40017733334128,13077
-91.90323024319173,10406
-89.40697369289148,7757
-86.91140748903172,6700
-84.41653143812482,7383
-81.92234534660395,9799
-79.42884902082358,12312
-76.93604226705907,13316
-74.4439248915071,16877
-71.95249670028534,25922
-69.46175749943245,33579
-66.97170709490854,38321
-64.48234529259423,38990
-61.99367189829195,35234
-59.50568671772464,29727
-57.01838955653636,30324
-54.53178022029283,38976
-52.045858514480074,41771
-49.560624244506016,39232
-47.07607721569923,34060
-44.59221723330904,29565
-42.10904410250669,26798
-39.62655762838392,25476
-37.14475761595372,25192
-34.66364387015028,27278
-32.18321619582866,26308
-29.70347439776515,31529
-27.224418280657005,35674
-24.74604764912317,41291
-22.26836230770266,65039
-19.7913620608565,65039
-17.315046712966478,65039
-14.83941606833514,65039
-12.36446993118659,65039
-9.89020810566592,65039
-7.416630395839093,65039
-4.94373660569363,65039
-2.471526539137585,65039
-6.821210263296962E-13,65039
2.47084320796705,65039
4.941003281093458,65039
7.410480415786196,65039
9.879274808531363,65039
12.347386655893956,65039
14.814816154518212,65039
17.28156350112681,65039
19.74762889252179,65039
22.21301252558385,65039
24.67771459727237,23164
27.141735304626195,5931
29.605074844762612,5505
32.06773341487792,6463
34.52971121224755,5262
36.99100843422559,5994
39.45162527824516,6788
41.91156194181792,5144
44.370818622535126,4401
46.82939551806646,3891
49.287292826160524,4043
51.74451074464503,3845
54.201049471426245,4271
56.65690920448981,4212
59.112090141899785,4640
61.56659248179983,4912
64.02041642241159,3904
66.4735621620365,3543
68.92602989905402,3046
71.37781983192338,2936
73.82893215918205,2531
76.27936707944684,2595
78.72912479141326,2635
81.17820549385567,2627
83.62660938562783,2496
86.07433666566146,2415
88.5213875329681,3001
90.96776218663751,2772
93.41346082583925,2391
95.85848364982041,2364
98.30283085790859,2316
100.7465026495089,2046
103.18949922410604,2102
105.63182078126385,2657
108.07346752062438,2284
110.51443964190923,2177
112.95473734491827,1821
115.39436082953114,1737
117.83331029570547,1826
120.27158594347827,2016
122.7091879729652,1830
125.1461165843615,1587
127.58237197794062,1338
130.01795435405518,1498
132.4528639131364,1600
134.88710085569494,1650
137.32066538231982,1618
139.75355769367923,1453
142.1857779905207,1463
144.61732647366978,1383
147.04820334403132,1461
149.47840880258934,1401
151.90794305040674,1373
154.33680628862487,1429
156.76499871846443,1743
159.19252054122433,1709
161.61937195828352,1764
164.04555317109896,1730
166.47106438120693,1844
168.89590579022217,1892
171.320077599839,2010
173.7435800118302,2275
176.16641322804742,2445
178.58857745042144,2457
181.01007288096173,2483
183.43089972175687,2509
185.85105817497413,2539
188.27054844285988,2240
190.6893707277394,2188
193.10752523201643,2307
195.5250121581745,2397
197.9418317087751,2394
200.3579840864594,2292
202.7734694939469,2353
205.18828813403627,2513
207.6024402096051,2542
210.01592592360964,2442
212.42874547908548,2670
214.84089907914665,2573
217.2523869269868,2366
219.66320922587727,2473
222.0733661791695,2489
224.48285799029293,2515
226.8916848627572,2496
229.29984700014882,2627
231.7073446061355,2610
234.11417788446204,2496
236.520347038953,2347
238.92585227351185,2327
241.33069379212054,2373
243.73487179884035,2491
246.1383864978112,2550
248.541238093252,2441
250.9434267894609,2419
253.34495279081432,2350
255.74581630176783,2389
258.1460175268563,2277
260.54555667069314,2301
262.9444339379703,2321
265.3426495334594,2430
267.7402036620107,2543
270.1370965285529,2514
272.53332833809407,2418
274.9288992957214,2395
277.32380960660055,2531
279.718059475976,2592
282.1116491091717,2477
284.5045787115897,2413
286.89684848871195,2530
289.2884586460981,2551
291.67940938938807,2505
294.0697009242996,2484
296.4593334566299,2497
298.84830719225477,2624
301.23662233712923,2525
303.6242790972866,2360
306.01127767884,2424
308.39761828798066,2300
310.78330113097934,2214
313.16832641418534,2224
315.5526943440269,2201
317.9364051270112,2166
320.3194589697242,2249
322.70185607883093,2181
325.0835966610754,2112
327.4646809232805,2226
329.8451090723478,2191
332.2248813152577,2171
334.6039978590701,2153
336.9824589109231,2166
339.36026467803447,2073
341.7374153677,2057
344.113911187295,2003
346.48975234427337,2013
348.8649390461686,2046
351.2394715005918,2012
353.61334991523415,2009
355.9865744978655,2025
358.35914545633375,2021
360.73106299856715,2029
363.10232733257146,2056
365.47293866643247,2062
367.84289720831396,2023
370.2122031664593,1943
372.5808567491905,2028
374.9488581649083,1975
377.31620762209275,1849
379.6829053293021,1923
382.0489514951745,1960
384.4143463284262,1908
386.7790900378528,1915
389.14318283232853,1951
391.50662492080653,1901
393.86941651231916,1851
396.23155781597745,1915
398.5930490409713,1868
400.9538903965696,1861
403.3140820921202,1944
405.6736243370498,2046
408.03251734086336,1916
410.3907613131465,1884
412.74835646356166,1923
415.10530300185144,1835
417.4616011378372,1765
419.81725108141893,1836
422.1722530425758,1881
424.5266072313656,1819
426.880313857925,1801
429.2333731324701,1807
431.58578526529516,1822
433.9375504667738,1812
436.2886689473588,1822
438.63914091758113,1826
440.9889665880513,1728
443.33814616945835,1825
445.68667987257015,1772
448.03456790823395,1786
450.3818104873759,1722
452.72840782100013,1705
455.07436012019105,1698
457.41966759611057,1744
459.7643304600007,1736
462.10834892318155,1726
464.4517231970525,1735
466.79445349309174,1763
469.1365400228566,1762
471.4779829979826,1820
473.81878263018564,1783
476.15893913125876,1807
478.4984527130747,1817
480.8373235875855,1898
483.17555196682144,1930
485.5131380628919,2006
487.8500820879857,2109
490.1863842543697,2142
492.52204477439034,2249
494.8570638604725,2506
497.1914417251204,2925
499.52517858091653,3492
501.85827464052306,4198
504.19073011668036,4681
506.5225452222086,5014
508.85372017000566,5001
511.18425517304956,5047
513.514150444396,5331
515.8434061971808,6001
518.1720226446176,6402
520.4999999999999,6229
522.8273384766991,5784
525.1540382881666,5169
527.480099647932,4642
529.8055227696037,3613
532.1303078668694,2674
534.454455153496,2167
536.777964843328,2109
539.1008371502907,1927
541.4230722883866,1937
543.744670471698,1901
546.0656319143858,1823
548.3859568306899,1816
550.7056454349294,1867
553.0246979415016,1904
555.3431145648834,1842
557.6608955196306,1769
559.978041020377,1833
562.2945512818363,1875
564.6104265188006,1801
566.9256669461412,1745
569.2402727788082,1709
571.5542442318302,1762
573.8675815203156,1835
576.1802848594508,1775
578.4923544645015,1804
580.8037905508126,1733
583.114593333807,1758
585.4247630289875,1842
587.7342998519354,1818
590.0432040183106,1820
592.3514757438526,1755
594.6591152443794,1772
596.9661227357875,1857
599.2724984340531,1792
601.578242555231,1764
603.8833553154542,1786
606.1878369309362,1779
608.4916876179676,1835
610.7949075929192,1691
613.0974970722403,1724
615.3994562724587,1769
617.7007854101818,1735
620.0014847020951,1698
622.3015543649641,1734
624.6009946156324,1774
626.8998056710224,1715
629.1979877481361,1792
631.4955410640538,1782
633.7924658359349,1777
636.0887622810175,1791
638.3844306166192,1820
640.6794710601358,1734
642.9738838290426,1720
645.2676691408932,1784
647.5608272133207,1723
649.853358264037,1730
652.1452625108324,1724
654.4365401715764,1815
656.7271914642178,1771
659.0172166067838,1805
661.3066158173809,1877
663.5953893141935,1824
665.8835373154867,1715
668.1710600396028,1794
670.4579577049639,1813
672.7442305300709,1840
675.0298787335033,1811
677.3149025339197,1806
679.599302150058,1733
681.8830778007342,1823
684.1662297048437,1742
686.4487580813608,1905
688.7306631493387,1859
691.0119451279091,1819
693.2926042362834,1823
695.5726406937516,1837
697.8520547196814,1810
700.1308465335215,1772
702.4090163547982,1744
704.6865644031171,1704
706.9634908981619,1759
709.2397960596965,1783
711.5154801075631,1731
713.7905432616823,1809
716.0649857420548,1855
718.3388077687592,1778
720.612009561953,1923
722.8845913418733,1773
725.1565533288352,1780
727.427895743234,1834
729.6986188055427,1767
731.9687227363137,1728
734.238207756178,1793
736.5070740858458,1729
738.7753219461066,1716
741.0429515578281,1709
743.3099631419569,1777
745.5763569195191,1700
747.8421331116193,1802
750.1072919394409,1786
752.3718336242467,1779
754.6357583873777,1784
756.8990664502545,1751
759.1617580343765,1755
761.423833361321,1808
763.6852926527457,1826
765.9461361303862,1765
768.206364016058,1835
770.4659765316536,1810
772.7249738991469,1772
774.9833563405886,1920
777.2411240781092,1890
779.4982773339183,1834
781.7548163303044,1813
784.010741289634,1877
786.2660524343538,1840
788.5207499869881,1872
790.7748341701416,1813
793.0283052064964,1857
795.2811633188143,1902
797.5334087299362,1928
799.7850416627813,1875
802.0360623403484,1874
804.2864709857143,1809
806.5362678220353,1915
808.7854530725468,1866
811.0340269605625,1817
813.2819897094754,1917
815.5293415427581,1912
817.77608268396,1873
820.0222133567116,1843
822.2677337847211,1860
824.5126441917765,1920
826.7569448017433,1856
829.0006358385675,1816
831.2437175262731,1751
833.4861900889629,1830
835.7280537508192,1883
837.9693087361026,1934
840.2099552691533,1884
842.4499935743896,1804
844.689423876309,1880
846.9282463994886,1826
849.1664613685833,1776
851.4040690083276,1822
853.6410695435349,1734
855.877463199097,1791
858.1132501999847,1841
860.3484307712487,1869
862.5830051380175,1881
864.8169735254988,1787
867.0503361589791,1807
869.2830932638243,1838
871.5152450654786,1820
873.7467917894654,1842
875.9777336613873,1805
878.2080709069252,1866
880.4378037518389,1858
882.666932421968,1817
884.8954571432301,1830
887.1233781416219,1864
889.3506956432192,1911
891.5774098741766,1841
893.803521060728,1929
896.0290294291852,1821
898.2539352059397,1927
900.4782386174619,1874
902.7019398903011,1938
904.925039251085,1831
907.147536926521,1910
909.3694331433943,1937
911.59072812857,1970
913.8114221089921,1970
916.0315153116827,1921
918.2510079637437,1869
920.4699002923547,1871
922.6881925247761,1914
924.905884888345,1864
927.1229776104793,1904
929.3394709186747,1911
931.555365040506,1916
933.7706602036275,1935
935.9853566357709,1857
938.1994545647489,1964
940.4129542184515,1936
942.6258558248488,1951
944.8381596119883,1923
947.0498658079974,1931
949.2609746410825,1947
951.4714863395287,1924
953.6814011316998,1855
955.8907192460387,1866
958.0994409110671,1881
960.3075663553858,1949
962.5150958076741,1949
964.7220294966913,1885
966.928367651274,1828
969.1341105003388,1830
971.3392582728806,1814
973.5438111979742,1831
975.747769504772,1816
977.9511334225061,1794
980.153903180487,1796
982.3560790081052,1801
984.5576611348289,1765
986.7586497902058,1715
988.9590452038618,1696
991.158847605503,1732
993.3580572249133,1704
995.5566742919558,1714
997.7546990365728,1674
999.952131688785,1608
1002.1489724786926,1619
1004.3452216364743,1604
1006.5408793923874,1594
1008.7359459767691,1549
1010.9304216200343,1514
1013.1243065526781,1540
1015.3176010052733,1503
1017.510305208472,1492
1019.7024193930064,1509
1021.8939437896848,1459
1024.0848786293977,1511
1026.2752241431122,1436
1028.4649805618747,1511
1030.6541481168115,1517
1032.842727039127,1410
1035.0307175601051,1458
1037.2181199111074,1410
1039.4049343235752,1393
1041.591161029029,1466
1043.7768002590683,1451
1045.9618522453698,1449
1048.1463172196918,1426
1050.3301954138697,1450
1052.513487059818,1466
1054.69619238953,1473
1056.8783116350783,1394
1059.0598450286152,1407
1061.2407928023704,1442
1063.4211551886528,1462
1065.6009324198508,1453
1067.780124728432,1387
1069.9587323469414,1440
1072.1367555080046,1424
1074.314194444325,1383
1076.4910493886855,1427
1078.667320573947,1351
1080.843008233051,1403
1083.0181125990161,1382
1085.1926339049414,1372
1087.3665723840027,1441
1089.5399282694575,1361
1091.7127017946405,1376
1093.8848931929647,1326
1096.0565026979243,1369
1098.2275305430899,1349
1100.3979769621128,1358
1102.567842188722,1306
1104.737126456726,1339
1106.9058300000124,1321
1109.0739530525475,1302
1111.2414958483764,1331
1113.4084586216231,1296
1115.5748416064907,1322
1117.7406450372605,1356
1119.9058691482942,1299
1122.0705141740304,1340
1124.2345803489884,1315
1126.3980679077658,1292
1128.5609770850388,1343
1130.7233081155623,1331
1132.8850612341707,1320
1135.0462366757774,1297
1137.2068346753745,1289
1139.3668554680326,1308
1141.526299288901,1319
1143.68516637321,1246
1145.8434569562655,1290
1148.001171273455,1280
1150.158309560244,1337
1152.3148720521767,1295
1154.470858984876,1268
1156.626270594044,1310
1158.7811071154629,1287
1160.9353687849912,1296
1163.089055838569,1304
1165.242168512213,1330
1167.3947070420209,1265
1169.5466716641677,1252
1171.6980626149075,1324
1173.8488801305748,1337
1175.9991244475814,1349
1178.1487958024186,1269
1180.2978944316555,1288
1182.4464205719428,1277
1184.5943744600072,1365
1186.7417563326567,1307
1188.8885664267755,1298
1191.0348049793297,1327
1193.1804722273619,1273
1195.325568407995,1292
1197.4700937584303,1328
1199.614048515948,1276
1201.7574329179074,1265
1203.900247201746,1319
1206.042491604982,1286
1208.1841663652099,1303
1210.3252717201053,1302
1212.465807907422,1325
1214.6057751649923,1265
1216.7451737307279,1305
1218.8840038426192,1342
1221.0222657387353,1339
1223.1599596572241,1314
1225.2970858363137,1323
1227.4336445143094,1311
1229.5696359295966,1308
1231.705060320639,1342
1233.8399179259786,1326
1235.9742089842384,1293
1238.107933734118,1352
1240.2410924143974,1323
1242.373685263935,1337
1244.5057125216676,1376
1246.6371744266116,1349
1248.7680712178621,1351
1250.898403134593,1362
1253.028170416058,1307
1255.1573733015875,1366
1257.2860120305932,1303
1259.4140868425648,1323
1261.54159797707,1345
1263.6685456737569,1339
1265.7949301723515,1284
1267.9207517126597,1339
1270.046010534565,1372
1272.1707068780306,1357
1274.2948409830983,1331
1276.4184130898889,1295
1278.541423438603,1360
1280.6638722695184,1411
1282.785759822993,1348
1284.9070863394636,1382
1287.0278520594447,1344
1289.1480572235314,1356
1291.2677020723963,1380
1293.3867868467923,1400
1295.5053117875495,1345
1297.623277135579,1381
1299.740683131868,1373
1301.8575300174857,1384
1303.973818033578,1375
1306.0895474213703,1413
1308.2047184221678,1411
1310.3193312773528,1393
1312.4333862283888,1367
1314.5468835168163,1390
1316.659823384255,1438
1318.7722060724045,1391
1320.8840318230418,1459
1322.9953008780249,1400
1325.1060134792888,1438
1327.2161698688478,1344
1329.3257702887959,1432
1331.4348149813054,1412
1333.5433041886276,1429
1335.6512381530933,1456
1337.7586171171101,1412
1339.8654413231675,1397
1341.9717110138317,1354
1344.0774264317488,1431
1346.1825878196432,1388
1348.2871954203192,1414
1350.3912494766587,1474
1352.4947502316231,1381
1354.5976979282532,1422
1356.7000928096686,1418
1358.8019351190665,1443
1360.9032250997243,1352
1363.0039629949988,1364
1365.1041490483235,1385
1367.2037835032133,1377
1369.3028666032606,1348
1371.401398592137,1347
1373.4993797135926,1382
1375.5968102114575,1404
1377.6936903296396,1393
1379.7900203121262,1362
1381.8858004029835,1362
1383.9810308463561,1397
1386.075711886469,1350
1388.1698437676241,1373
1390.2634267342032,1367
1392.356461030667,1441
1394.4489469015557,1480
1396.5408845914872,1367
1398.6322743451592,1402
1400.7231164073469,1417
1402.813411022907,1369
1404.903158436773,1388
1406.9923588939578,1416
1409.0810126395531,1409
1411.1691199187303,1367
1413.2566809767386,1366
1415.343696058907,1369
1417.4301654106425,1442
1419.5160892774315,1480
1421.6014679048399,1431
1423.6863015385125,1450
1425.7705904241707,1393
1427.8543348076178,1419
1429.9375349347342,1396
1432.0201910514802,1414
1434.102303403894,1425
1436.1838722380944,1403
1438.2648978002767,1342
1440.3453803367174,1380
1442.4253200937692,1382
1444.5047173178677,1432
1446.5835722555234,1379
1448.6618851533285,1410
1450.739656257952,1388
1452.8168858161434,1395
1454.8935740747306,1383
1456.96972128062,1370
1459.045327680797,1449
1461.120393522327,1399
1463.1949190523528,1367
1465.2689045180973,1413
1467.3423501668608,1402
1469.415256246024,1387
1471.4876230030463,1398
1473.559450685465,1443
1475.6307395408976,1417
1477.7014898170391,1399
1479.771701761665,1401
1481.8413756226287,1472
1483.9105116478618,1440
1485.9791100853772,1373
1488.0471711832643,1476
1490.1146951896926,1401
1492.1816823529098,1398
1494.2481329212433,1459
1496.3140471430984,1404
1498.3794252669609,1374
1500.4442675413939,1433
1502.5085742150404,1435
1504.572345536622,1431
1506.6355817549388,1413
1508.6982831188702,1410
1510.7604498773744,1440
1512.8220822794883,1479
1514.8831805743293,1473
1516.9437450110909,1440
1519.003775839048,1506
1521.0632733075522,1402
1523.1222376660367,1424
1525.1806691640113,1448
1527.2385680510652,1423
1529.2959345768668,1443
1531.3527689911643,1416
1533.4090715437833,1475
1535.4648424846291,1478
1537.5200820636855,1498
1539.5747905310159,1500
1541.6289681367616,1474
1543.6826151311434,1415
1545.7357317644614,1482
1547.7883182870937,1510
1549.8403749494987,1475
1551.8919020022113,1541
1553.9428996958477,1602
1555.9933682811015,1538
1558.0433080087469,1498
1560.0927191296346,1534
1562.1416018946961,1541
1564.1899565549415,1555
1566.2377833614592,1585
1568.2850825654164,1566
1570.3318544180606,1658
1572.3780991707158,1532
1574.423817074788,1593
1576.4690083817595,1569
1578.5136733431923,1575
1580.5578122107272,1544
1582.601425236085,1561
1584.6445126710646,1532
1586.6870747675434,1456
1588.7291117774776,1512
1590.7706239529034,1486
1592.8116115459347,1503
1594.8520748087658,1512
1596.8920139936686,1527
1598.9314293529933,1459
1600.9703211391711,1459
1603.008689604711,1383
1605.0465350022005,1478
1607.0838575843068,1419
1609.1206576037753,1424
1611.1569353134305,1453
1613.1926909661765,1480
1615.2279248149953,1450
1617.2626371129481,1378
1619.2968281131757,1403
1621.3304980688963,1474
1623.3636472334088,1433
1625.39627586009,1421
1627.428384202396,1415
1629.459972513861,1440
1631.4910410480993,1372
1633.5215900588028,1353
1635.551619799744,1316
1637.5811305247717,1376
1639.6101224878166,1449
1641.6385959428862,1372
1643.6665511440683,1370
1645.693988345528,1347
1647.7209078015112,1285
1649.7473097663405,1404
1651.7731944944203,1384
1653.7985622402307,1373
1655.823413258333,1365
1657.847747803366,1369
1659.8715661300494,1356
1661.8948684931793,1380
1663.9176551476316,1335
1665.9399263483624,1314
1667.9616823504057,1315
1669.982923408873,1347
1672.0036497789574,1328
1674.0238617159293,1339
1676.043559475138,1311
1678.0627433120121,1329
1680.081413482059,1360
1682.0995702408654,1329
1684.117213844096,1330
1686.134344547495,1314
1688.1509626068864,1246
1690.1670682781705,1294
1692.182661817329,1292
1694.1977434804217,1321
1696.2123135235875,1321
1698.226372203043,1347
1700.2399197750851,1406
1702.2529564960905,1353
1704.2654826225112,1371
1706.277498410882,1360
1708.2890041178139,1351
1710.2999999999988,1350
1712.3104863142066,1326
1714.3204633172854,1345
1716.329931266163,1341
1718.3388904178469,1334
1720.3473410294214,1337
1722.3552833580516,1292
1724.3627176609807,1349
1726.3696441955308,1332
1728.3760632191033,1314
1730.3819749891782,1291
1732.3873797633146,1294
1734.3922777991502,1333
1736.3966693544012,1349
1738.4005546868639,1290
1740.4039340544127,1315
1742.406807715001,1340
1744.4091759266616,1322
1746.4110389475054,1300
1748.4123970357223,1355
1750.413250449582,1381
1752.4135994474318,1299
1754.4134442876993,1320
1756.4127852288902,1329
1758.4116225295893,1387
1760.4099564484595,1323
1762.407787244244,1299
1764.405115175764,1326
1766.4019405019203,1261
1768.3982634816916,1358
1770.3940843741357,1354
1772.3894034383907,1317
1774.3842209336717,1296
1776.378537119274,1304
1778.372352254571,1286
1780.3656665990156,1334
1782.3584804121397,1309
1784.3507939535534,1275
1786.3426074829463,1278
1788.3339212600863,1317
1790.3247355448211,1317
1792.3150505970766,1322
1794.3048666768573,1343
1796.2941840442477,1322
1798.2830029594106,1283
1800.2713236825884,1387
1802.2591464741004,1386
1804.2464715943465,1287
1806.2332993038058,1307
1808.2196298630352,1338
1810.2054635326708,1320
1812.190800573428,1339
1814.175641246101,1320
1816.1599858115628,1394
1818.1438345307652,1333
1820.127187664738,1287
1822.1100454745924,1295
1824.092408221516,1356
1826.0742761667766,1312
1828.055649571721,1312
1830.0365286977735,1320
1832.0169138064398,1315
1833.9968051593014,1351
1835.9762030180214,1327
1837.9551076443408,1330
1839.9335193000788,1316
1841.9114382471344,1322
1843.888864747485,1312
1845.8657990631878,1307
1847.842241456378,1349
1849.8181921892697,1334
1851.7936515241558,1308
1853.7686197234098,1322
1855.7430970494815,1278
1857.7170837649014,1260
1859.6905801322787,1309
1861.6635864143004,1341
1863.6361028737338,1322
1865.608129773424,1379
1867.5796673762961,1317
1869.5507159453537,1329
1871.521275743678,1367
1873.4913470344313,1286
1875.4609300808534,1360
1877.4300251462632,1339
1879.3986324940588,1330
1881.366752387717,1328
1883.3343850907936,1361
1885.3015308669228,1287
1887.268189979819,1379
1889.2343626932739,1307
1891.2000492711595,1353
1893.1652499774254,1386
1895.1299650761011,1336
1897.0941948312952,1345
1899.0579395071945,1370
1901.0211993680641,1296
1902.98397467825,1322
1904.9462657021745,1307
1906.9080727043415,1339
1908.869395949332,1344
1910.8302357018065,1345
1912.790592226504,1326
1914.7504657882428,1311
1916.7098566519212,1320
1918.6687650825133,1275
1920.6271913450764,1330
1922.5851357047422,1322
1924.5425984267245,1330
1926.499579776314,1323
1928.4560800188833,1294
1930.4120994198802,1380
1932.367638244833,1352
1934.32269675935,1309
1936.2772752291175,1315
1938.231373919899,1359
1940.1849930975404,1279
1942.1381330279637,1400
1944.0907939771696,1317
1946.0429762112412,1317
1947.9946799963363,1281
1949.9459055986945,1293
1951.896653284633,1306
1953.8469233205478,1322
1955.7967159729142,1292
1957.7460315082863,1309
1959.6948701932974,1296
1961.6432322946594,1278
1963.5911180791632,1281
1965.5385278136787,1264
1967.4854617651545,1323
1969.4319202006182,1343
1971.377903387176,1321
1973.3234115920136,1349
1975.268445082395,1295
1977.2130041256642,1314
1979.1570889892423,1308
1981.1006999406304,1324
1983.04383724741,1289
1984.986501177238,1306
1986.928691997853,1320
1988.8704099770712,1287
1990.811655382789,1361
1992.7524284829801,1348
1994.692729545698,1324
1996.6325588390755,1343
1998.5719166313224,1282
2000.5108031907307,1284
2002.4492187856677,1356
2004.387163684583,1336
2006.3246381560011,1325
2008.2616424685298,1323
2010.1981768908527,1314
2012.1342416917332,1275
2014.069837140014,1284
2016.0049635046162,1302
2017.9396210545406,1267
2019.8738100588666,1299
2021.8075307867502,1307
2023.740783507431,1303
2025.6735684902228,1314
2027.6058860045214,1287
2029.5377363198004,1307
2031.4691197056118,1337
2033.4000364315875,1299
2035.3304867674374,1287
2037.260470982952,1284
2039.189989347998,1299
2041.1190421325232,1293
2043.047629606554,1332
2044.9757520401945,1271
2046.9034097036288,1369
2048.8306028671195,1307
2050.7573318010086,1285
2052.683596775716,1274
2054.609398061742,1290
2056.5347359296647,1260
2058.4596106501403,1317
2060.384022493906,1291
2062.3079717317764,1266
2064.231458634646,1301
2066.1544834734873,1303
2068.077046519352,1244
2069.99914804337,1270
2071.9207883167524,1308
2073.8419676107865,1291
2075.7626861968406,1250
2077.6829443463607,1294
2079.6027423308715,1285
2081.522080421977,1305
2083.440958891362,1283
2085.359378010786,1271
2087.2773380520907,1272
2089.194839287196,1330
2091.111881988101,1286
2093.0284664268825,1322
2094.9445928756973,1282
2096.86026160678,1312
2098.775472892446,1338
2100.690227005088,1308
2102.604524217178,1303
2104.5183648012676,1276
2106.431749029985,1342
2108.34467717604,1359
2110.2571495122206,1280
2112.169166311393,1362
2114.080727846503,1272
2115.9918343905747,1312
2117.902486216711,1318
2119.8126835980956,1339
2121.722426807987,1367
2123.6317161197285,1341
2125.5405518067364,1339
2127.448934142509,1336
2129.356863400624,1328
2131.264339854737,1335
2133.1713637785815,1330
2135.077935445972,1351
2136.9840551308002,1317
2138.889723107037,1294
2140.7949396487334,1322
2142.699705030018,1315
2144.6040195250994,1320
2146.507883408264,1333
2148.4112969538774,1381
2150.3142604363848,1309
2152.2167741303097,1364
2154.1188383102535,1355
2156.0204532508997,1350
2157.9216192270064,1364
2159.822336513414,1403
2161.7226053850413,1354
2163.622426116884,1343
2165.5217989840185,1328
2167.4207242616,1336
2169.319202224862,1373
2171.2172331491165,1407
2173.1148173097563,1338
2175.0119549822507,1355
2176.90864644215,1352
2178.8048919650823,1396
2180.7006918267534,1386
2182.596046302952,1357
2184.4909556695407,1355
2186.3854202024645,1348
2188.279440177746,1394
2190.173015871487,1369
2192.066147559868,1385
2193.958835519149,1417
2195.851080025667,1355
2197.7428813558417,1360
2199.6342397861667,1428
2201.5251555932186,1321
2203.415629053651,1392
2205.3056604441986,1385
2207.19525004167,1314
2209.084398122958,1352
2210.9731049650327,1320
2212.861370844941,1361
2214.749196039812,1428
2216.636580826851,1417
2218.523525483344,1464
2220.410030286655,1429
2222.296095514226,1429
2224.1817214435805,1407
2226.066908352319,1412
2227.951656518121,1394
2229.835966218746,1389
2231.71983773203,1427
2233.6032713358913,1395
2235.486267308324,1371
2237.3688259274036,1402
2239.2509474712824,1414
2241.132632218193,1399
2243.013880446447,1380
2244.8946924344323,1384
2246.7750684606203,1400
2248.6550088035574,1362
2250.534513741871,1419
2252.413583554265,1430
2254.292218519526,1396
2256.170418916517,1415
2258.0481850241786,1346
2259.925517121534,1420
2261.8024154876825,1397
2263.678880401803,1474
2265.5549121431536,1383
2267.430510991071,1429
2269.305677224971,1361
2271.180411124348,1424
2273.0547129687766,1387
2274.9285830379076,1347
2276.8020216114737,1377
2278.6750289692845,1367
2280.5476053912294,1403
2282.4197511572766,1419
2284.2914665474727,1380
2286.162751841943,1431
2288.0336073208937,1498
2289.904033264608,1427
2291.774029953448,1473
2293.6435976678554,1416
2295.5127366883517,1447
2297.381447295534,1373
2299.2497297700825,1352
2301.1175843927526,1327
2302.9850114443825,1291
2304.852011205885,1267
2306.7185839582553,1216
2308.5847299825664,1261
2310.4504495599676,1234
2312.3157429716925,1189
2314.1806104990483,1183
2316.0450524234247,1233
2317.9090690262888,1183
2319.772660589186,1191
2321.635827393742,1194
2323.498569721661,1217
2325.3608878547248,1209
2327.2227820747967,1185
2329.0842526638157,1250
2330.945299903803,1234
2332.805924076857,1192
2334.6661254651535,1201
2336.525904350951,1154
2338.3852610165827,1186
2340.244195744464,1160
2342.102708817088,1190
2343.9608005170253,1203
2345.8184711269287,1241
2347.675720929526,1149
2349.532550207628,1194
2351.38895924412,1181
2353.24494832197,1159
2355.100517724223,1149
2356.955667734004,1248
2358.810398634514,1178
2360.664710709037,1212
2362.5186042409337,1250
2364.3720795136437,1181
2366.225136810686,1178
2368.0777764156583,1157
2369.929998612237,1164
2371.7818036841777,1175
2373.633191915315,1233
2375.484163589562,1158
2377.3347189909114,1144
2379.184858403434,1200
2381.03458211128,1175
2382.8838903986775,1188
2384.732783549936,1206
2386.5812618494406,1199
2388.4293255816588,1212
2390.2769750311327,1139
2392.1242104824883,1151
2393.971032220427,1175
2395.8174405297295,1178
2397.6634356952563,1195
2399.509018001947,1184
2401.3541877348193,1155
2403.1989451789705,1187
2405.043290619576,1194
2406.8872243418905,1162
2408.730746631247,1211
2410.5738577730594,1168
2412.4165580528183,1140
2414.258847756095,1185
2416.100727168537,1131
2417.9421965758734,1230
2419.783256263912,1196
2421.623906518538,1221
2423.4641476257157,1159
2425.303979871491,1211
2427.143403541984,1213
2428.9824189233977,1148
2430.821026302012,1237
2432.6592259641866,1189
2434.497018196361,1242
2436.33440328505,1241
2438.171381516851,1239
2440.00795317844,1190
2441.844118556569,1198
2443.6798779380724,1169
2445.5152316098606,1204
2447.3501798589255,1187
2449.1847229723357,1213
2451.0188612372403,1196
2452.8525949408663,1178
2454.6859243705203,1182
2456.518849813587,1125
2458.3513715575314,1191
2460.183489889895,1173
2462.015205098301,1184
2463.8465174704493,1197
2465.67742729412,1216
2467.5079348571717,1226
2469.338040447542,1214
2471.1677443532476,1150
2472.9970468623833,1155
2474.825948263123,1179
2476.6544488437207,1207
2478.482548892508,1168
2480.310248697896,1221
2482.137548548374,1196
2483.9644487325118,1188
2485.790949538956,1173
2487.617051256433,1147
2489.44275417375,1146
2491.26805857979,1172
2493.0929647635157,1191
2494.917473013971,1215
2496.741583620276,1178
2498.5652968716304,1131
2500.3886130573137,1220
2502.2115324666834,1097
2504.0340553891765,1198
2505.856182114308,1184
2507.6779129316733,1213
2509.499248130945,1196
2511.3201880018764,1191
2513.140732834298,1165
2514.9608829181198,1194
2516.780638543331,1204
2518.6,1166
2520.418967578273,1154
2522.237541568376,1139
2524.0557222606144,1201
2525.8735099453706,1193
2527.6909049131086,1180
2529.507907454368,1218
2531.32451785977,1202
2533.140736420014,1205
2534.9565634258774,1179
2536.771999168218,1205
2538.5870439379714,1164
2540.4016980261526,1183
2542.2159617238544,1202
2544.02983532225,1204
2545.8433191125914,1222
2547.656413386209,1181
2549.4691184345115,1165
2551.2814345489874,1158
2553.093362021204,1187
2554.904901142808,1202
2556.716052205523,1196
2558.526815501153,1185
2560.3371913215824,1208
2562.147179958771,1178
2563.956781704761,1182
2565.7659968516705,1195
2567.5748256916986,1196
2569.3832685171224,1140
2571.1913256202984,1188
2572.9989972936614,1191
2574.806283829725,1222
2576.613185521084,1214
2578.4197026604074,1223
2580.2258355404483,1221
2582.031584454035,1236
2583.836949694077,1179
2585.6419315535613,1201
2587.4465303255533,1237
2589.2507463032002,1230
2591.0545797797245,1218
2592.8580310484303,1205
2594.6611004026995,1242
2596.463788135992,1192
2598.266094541849,1216
2600.0680199138874,1242
2601.869564545807,1228
2603.670728731383,1229
2605.4715127644704,1208
2607.2719169390048,1223
2609.071941548998,1226
2610.8715868885433,1155
2612.670853251811,1212
2614.469740933052,1242
2616.268250226594,1212
2618.0663814268455,1213
2619.864134828292,1180
2621.6615107255006,1215
2623.458509413115,1197
2625.2551311858597,1225
2627.0513763385347,1268
2628.8472451660223,1221
2630.6427379632833,1209
2632.4378550253564,1236
2634.232596647359,1170
2636.026963124488,1179
2637.8209547520187,1163
2639.6145718253065,1199
2641.407814639785,1239
2643.200683490966,1209
2644.9931786744414,1228
2646.7853004858807,1268
2648.577049221034,1260
2650.3684251757277,1271
2652.1594286458712,1236
2653.9500599274484,1197
2655.740319316525,1169
2657.5302071092437,1208
2659.3197236018286,1191
2661.10886909058,1191
2662.8976438718782,1248
2664.686048242183,1185
2666.4740824980327,1224
2668.2617469360443,1222
2670.0490418529134,1189
2671.8359675454153,1190
2673.622524310403,1232
2675.408712444811,1175
2677.1945322456495,1271
2678.979984010009,1190
2680.76506803506,1193
2682.5497846180497,1196
2684.334134056306,1172
2686.1181166472343,1214
2687.9017326883213,1159
2689.6849824771293,1215
2691.4678663113013,1239
2693.2503844885596,1153
2695.032537306705,1216
2696.8143250636167,1184
2698.5957480572542,1175
2700.3768065856534,1178
2702.1575009469316,1180
2703.937831439283,1203
2705.717798360982,1160
2707.4974020103837,1227
2709.276642685917,1179
2711.055520686095,1160
2712.834036309506,1193
2714.612189854819,1143
2716.389981620782,1195
2718.1674119062204,1160
2719.944481010041,1204
2721.721189231226,1187
2723.4975368688415,1156
2725.273524222027,1175
2727.0491515900053,1183
2728.824419272075,1166
2730.5993275676146,1115
2732.3738767760838,1153
2734.148067197016,1253
2735.921899130031,1234
2737.6953728748194,1211
2739.468488731156,1171
2741.2412469988926,1143
2743.0136479779617,1185
2744.785691968372,1227
2746.5573792702116,1150
2748.3287101836504,1143
2750.099685008934,1204
2751.870304046388,1174
2753.640567596418,1191
2755.4104759595057,1190
2757.1800294362156,1190
2758.949228327187,1247
2760.7180729331412,1213
2762.486563554877,1165
2764.254700493272,1128
2766.022484049284,1167
2767.789914523947,1184
2769.5569922183786,1162
2771.3237174337705,1133
2773.090090471394,1145
2774.8561116326036,1119
2776.6217812188274,1160
2778.3870995315756,1196
2780.1520668724356,1173
2781.9166835430747,1201
2783.6809498452394,1181
2785.444866080754,1195
2787.2084325515225,1215
2788.971649559527,1162
2790.73451740683,1170
2792.4970363955713,1166
2794.2592068279705,1189
2796.0210290063264,1169
2797.7825032330147,1195
2799.543629810493,1152
2801.304409041296,1179
2803.0648412280366,1173
2804.8249266734088,1194
2806.5846656801846,1206
2808.344058551212,1201
2810.1031055894246,1196
2811.8618070978273,1199
2813.6201633795085,1167
2815.378174737636,1202
2817.1358414754536,1183
2818.893163896285,1210
2820.6501423035334,1208
2822.4067770006814,1178
2824.1630682912883,1146
2825.9190164789957,1176
2827.6746218675207,1215
2829.429884760661,1171
2831.184805462294,1245
2832.9393842763743,1197
2834.693621506936,1224
2836.4475174580916,1172
2838.201072434034,1179
2839.954286739034,1191
2841.707160677441,1213
2843.459694553685,1174
2845.2118886722724,1195
2846.96374333779,1182
2848.7152588549034,1216
2850.4664355283567,1146
2852.217273662973,1189
2853.9677735636546,1168
2855.7179355353833,1184
2857.4677598832186,1179
2859.217246912299,1259
2860.9663969278427,1187
2862.715210235146,1217
2864.4636871395846,1158
2866.211827946614,1136
2867.9596329617652,1173
2869.7071024906536,1209
2871.4542368389684,1163
2873.20103631248,1216
2874.947501217038,1205
2876.6936318585695,1144
2878.4394285430812,1172
2880.1848915766604,1188
2881.9300212654707,1151
2883.6748179157553,1178
2885.4192818338374,1206
2887.1634133261173,1246
2888.907212699077,1160
2890.6506802592744,1225
2892.393816313348,1161
2894.1366211680142,1161
2895.8790951300693,1192
2897.621238506388,1159
2899.363051603925,1158
2901.1045347297118,1213
2902.8456881908596,1170
2904.58651229456,1187
2906.327007348081,1212
2908.067173658772,1177
2909.8070115340597,1189
2911.5465212814497,1195
2913.285703208527,1200
2915.0245576229563,1163
2916.7630848324807,1184
2918.5012851449196,1163
2920.2391588681758,1223
2921.976706310227,1173
2923.7139277791334,1163
2925.4508235830313,1159
2927.187394030137,1208
2928.923639428745,1173
2930.6595600872306,1164
2932.395156314046,1234
2934.1304284177218,1144
2935.8653767068713,1187
2937.6000014901815,1245
2939.3343030764227,1184
2941.068281774442,1160
2942.8019378931644,1217
2944.5352717415976,1208
2946.2682836288236,1283
2948.0009738640065,1267
2949.7333427563885,1182
2951.465390615289,1268
2953.1971177501086,1176
2954.9285244703265,1210
2956.6596110855,1222
2958.3903779052657,1219
2960.1208252393385,1167
2961.8509533975125,1191
2963.5807626896617,1121
2965.3102534257378,1182
2967.0394259157715,1155
2968.768280469873,1209
2970.496817398232,1194
2972.2250370111146,1159
2973.952939618869,1197
2975.6805255319196,1158
2977.4077950607707,1161
2979.134748516006,1210
2980.861386208289,1242
2982.587708448359,1201
2984.313715547037,1193
2986.039407815222,1224
2987.764785563891,1152
2989.489849104102,1189
2991.2145987469908,1175
2992.9390348037705,1149
2994.6631575857346,1126
2996.3869674042576,1161
2998.1104645707887,1251
2999.83364939686,1183
3001.5565221940783,1164
3003.2790832741334,1176
3005.0013329487924,1162
3006.7232715298996,1159
3008.4448993293804,1162
3010.166216659239,1187
3011.887223831558,1209
3013.607921158498,1224
3015.3283089522993,1219
3017.0483875252826,1174
3018.7681571898443,1221
3020.4876182584626,1155
3022.2067710436927,1158
3023.9256158581707,1152
3025.644153014609,1120
3027.362382825801,1161
3029.0803056046193,1160
3030.797921664012,1148
3032.5152313170106,1177
3034.2322348767225,1196
3035.9489326563353,1159
3037.665324969115,1174
3039.3814121284063,1142
3041.097194447633,1176
3042.812672240299,1172
3044.5278458199855,1169
3046.2427155003525,1149
3047.9572815951406,1154
3049.671544418167,1136
3051.38550428333,1170
3053.0991615046073,1184
3054.812516396051,1151
3056.5255692717974,1130
3058.2383204460575,1168
3059.9507702331257,1177
3061.662918947372,1162
3063.3747669032446,1176
3065.0863144152736,1148
3066.7975617980674,1141
3068.508509366309,1182
3070.219157434767,1168
3071.9295063182844,1131
3073.639556331785,1170
3075.3493077902704,1159
3077.058761008821,1208
3078.7679163025964,1198
3080.476773986837,1141
3082.1853343768594,1167
3083.89359778806,1147
3085.6015645359153,1184
3087.3092349359786,1189
3089.016609303884,1126
3090.7236879553434,1130
3092.4304712061476,1139
3094.136959372166,1118
3095.843152769349,1163
3097.5490517137237,1142
3099.2546565213966,1126
3100.959967508554,1152
3102.66498499146,1140
3104.3697092864577,1146
3106.0741407099695,1176
3107.778279578498,1192
3109.482126208622,1151
3111.1856809170004,1188
3112.8889440203716,1207
3114.5919158355528,1173
3116.294596679439,1189
3117.996986869006,1186
3119.6990867213062,1133
3121.4008965534726,1180
3123.102416682717,1161
3124.803647426329,1155
3126.5045891016784,1155
3128.205242026213,1194
3129.90560651746,1156
3131.605682893025,1204
3133.3054714705922,1161
3135.0049725679282,1198
3136.7041865028714,1117
3138.4031135933465,1179
3140.101754157353,1148
3141.800108512971,1155
3143.498176978357,1163
3145.1959598717494,1178
3146.8934575114636,1163
3148.5906702158954,1133
3150.2875983035183,1103
3151.9842420928853,1124
3153.680601902627,1175
3155.376678051456,1157
3157.07247085816,1161
3158.767980641609,1206
3160.463207720748,1163
3162.158152414606,1164
3163.8528150422862,1167
3165.5471959229726,1148
3167.2412953759303,1144
3168.9351137204976,1148
3170.628651276098,1198
3172.3219083622307,1192
3174.014885298474,1206
3175.707582404485,1119
3177.4000000000005,1144
3179.092138404835,1148
3180.7839979388846,1148
3182.47557892212,1200
3184.166881674594,1135
3185.8579065164386,1196
3187.5486537678626,1165
3189.2391237491547,1126
3190.9293167806827,1138
3192.6192331828934,1096
3194.3088732763117,1082
3195.998237381542,1099
3197.687325819268,1176
3199.376138910251,1113
3201.064676975334,1133
3202.7529403354347,1139
3204.4409293115523,1165
3206.1286442247647,1145
3207.816085396229,1143
3209.5032531471825,1188
3211.190147798936,1129
3212.8767696728846,1139
3214.5631190905015,1168
3216.2491963733373,1194
3217.9350018430214,1106
3219.6205358212637,1117
3221.305798629851,1110
3222.990790590651,1123
3224.6755120256103,1139
3226.359963256751,1167
3228.0441446061795,1166
3229.7280563960758,1135
3231.411698948703,1134
3233.0950725863995,1160
3234.778177631587,1132
3236.461014406761,1195
3238.1435832345005,1148
3239.8258844374595,1218
3241.507918338374,1154
3243.1896852600576,1221
3244.8711855254023,1120
3246.552419457381,1169
3248.233387379042,1110
3249.914089613516,1177
3251.59452648401,1151
3253.274698313813,1176
3254.95460542629,1201
3256.6342481448855,1197
3258.313626793125,1110
3259.9927416946084,1157
3261.6715931730196,1173
3263.3501815521176,1140
3265.0285071557437,1170
3266.706570307815,1150
3268.3843713323286,1126
3270.0619105533615,1113
3271.739188295068,1113
3273.4162048816834,1155
3275.0929606375184,1170
3276.769455886966,1134
3278.445690954498,1174
3280.1216661646613,1162
3281.797381842087,1151
3283.4728383114807,1196
3285.1480358976296,1153
3286.8229749253996,1132
3288.4976557197333,1132
3290.172078605655,1132
3291.846243908266,1150
3293.5201519527463,1127
3295.193803064357,1157
3296.8671975684374,1118
3298.5403357904024,1138
3300.21321805575,1170
3301.8858446900567,1167
3303.558216018975,1115
3305.23033236824,1107
3306.9021940636603,1173
3308.57380143113,1143
3310.2451547966184,1214
3311.916254486174,1183
3313.5871008259246,1173
3315.2576941420766,1179
3316.9280347609147,1138
3318.5981230088046,1158
3320.2679592121895,1134
3321.9375436975924,1137
3323.606876791612,1113
3325.27595882093,1170
3326.944790112305,1083
3328.6133709925753,1140
3330.2817017886573,1107
3331.949782827547,1119
3333.617614436319,1181
3335.2851969421245,1272
3336.952530672199,1235
3338.619615953853,1148
3340.286453114475,1170
3341.9530424815357,1138
3343.619384382583,1192
3345.2854791452437,1090
3346.951327097224,1170
3348.6169285663073,1169
3350.2822838803577,1146
3351.947393367319,1207
3353.61225735521,1117
3355.2768761721345,1165
3356.9412501462693,1125
3358.605379605873,1123
3360.2692648792827,1168
3361.9329062949146,1126
3363.596304181263,1094
