CollectionTime,9/25/2024 10:36:38 AM
ExposureUsed,30
CalibratedSpectrum
-962.7078968117929,639
-959.9714848408522,672
-957.2358232597828,680
-954.5009119013725,678
-951.7667505983302,709
-949.0333391832855,664
-946.3006774887896,690
-943.5687653473143,691
-940.837602591253,655
-938.1071890529199,663
-935.3775245645503,669
-932.6486089583007,655
-929.9204420662485,647
-927.1930237203925,700
-924.4663537526524,631
-921.7404319948689,651
-919.0152582788041,685
-916.2908324361409,739
-913.5671542984834,696
-910.8442236973568,682
-908.1220404642074,654
-905.4006044304027,671
-902.679915427231,681
-899.959973285902,639
-897.2407778375464,714
-894.5223289132158,728
-891.8046263438832,696
-889.0876699604426,654
-886.3714595937089,677
-883.6559950744183,709
-880.9412762332282,722
-878.2273029007168,671
-875.5140749073835,648
-872.8015920836489,663
-870.0898542598545,665
-867.3788612662631,695
-864.6686129330585,726
-861.9591090903457,725
-859.2503495681506,719
-856.5423341964203,678
-853.8350628050229,671
-851.1285352237478,691
-848.4227512823054,752
-845.7177108103272,747
-843.0134136373656,736
-840.3098595928943,752
-837.6070485063082,801
-834.9049802069229,772
-832.2036545239757,732
-829.5030712866244,748
-826.8032303239481,762
-824.1041314649472,695
-821.4057745385428,758
-818.7081593735775,697
-816.0112857988148,694
-813.3151536429393,700
-810.6197627345566,760
-807.9251129021936,738
-805.2312039742981,716
-802.5380357792392,756
-799.8456081453069,801
-797.1539209007124,746
-794.462973873588,739
-791.772766891987,788
-789.083299783884,780
-786.3945723771743,774
-783.7065844996748,762
-781.0193359791231,717
-778.3328266431781,843
-775.6470563194197,799
-772.9620248353489,768
-770.2777320183878,772
-767.5941776958798,794
-764.9113616950891,776
-762.2292838432011,760
-759.5479439673222,750
-756.8673418944801,748
-754.1874774516235,784
-751.5083504656222,752
-748.8299607632671,798
-746.15230817127,747
-743.475392516264,832
-740.7992136248035,761
-738.1237713233636,756
-735.4490654383407,779
-732.7750957960521,773
-730.1018622227365,751
-727.4293645445534,805
-724.7576025875837,795
-722.0865761778291,759
-719.4162851412126,791
-716.7467293035781,817
-714.0779084906909,837
-711.409822528237,863
-708.7424712418238,816
-706.0758544569796,748
-703.4099719991541,812
-700.7448236937178,810
-698.0804093659622,812
-695.4167288411002,804
-692.7537819442656,878
-690.0915685005134,809
-687.4300883348199,813
-684.7693412720819,812
-682.1093271371178,786
-679.4500457546669,826
-676.7914969493897,835
-674.1336805458676,788
-671.4765963686034,815
-668.8202442420206,887
-666.1646239904642,901
-663.5097354382001,854
-660.8555784094151,833
-658.2021527282176,792
-655.5494582186366,785
-652.8974947046223,830
-650.2462620100463,843
-647.5957599587009,866
-644.9459883742998,854
-642.2969470804776,886
-639.6486359007902,848
-637.0010546587141,864
-634.3542031776476,860
-631.7080812809096,868
-629.0626887917401,876
-626.4180255333008,852
-623.7740913286734,902
-621.1308860008619,895
-618.4884093727904,901
-615.8466612673046,939
-613.2056415071715,916
-610.5653499150785,938
-607.9257863136347,893
-605.28695052537,874
-602.6488423727357,948
-600.0114616781036,927
-597.3748082637674,911
-594.7388819519412,906
-592.1036825647604,938
-589.4692099242818,890
-586.8354638524829,879
-584.2024441712624,966
-581.5701507024403,956
-578.9385832677575,989
-576.3077416888759,937
-573.6776257873787,922
-571.0482353847704,890
-568.4195703024757,926
-565.7916303618415,886
-563.164415384135,900
-560.5379251905453,924
-557.9121596021815,893
-555.2871184400748,942
-552.6628015251767,908
-550.0392086783606,949
-547.4163397204204,983
-544.794194472071,940
-542.1727727539491,961
-539.5520743866118,1001
-536.9320991905377,1046
-534.3128469861261,1163
-531.6943175936979,1173
-529.0765108334947,1197
-526.4594265256793,1372
-523.8430644903358,1828
-521.2274245474689,2293
-518.612506517005,2751
-515.9983102187913,2669
-513.3848354725959,2557
-510.77208209810846,2141
-508.16004991493924,1902
-505.5487387426199,1532
-502.9381484006032,1279
-500.3282787082628,1209
-497.71912948489364,1189
-495.1107005497117,1087
-492.5029917218539,1114
-489.8960028203786,1188
-487.28973366426493,1105
-484.68418407241325,1090
-482.07935386364494,1079
-479.47524285670266,1102
-476.87185087025,1152
-474.2691777228715,1251
-471.66722323307334,1297
-469.0659872192821,1223
-466.4654694998459,1296
-463.86566989303384,1258
-461.26658821703614,1185
-458.66822428996414,1170
-456.07057792985,1206
-453.4736489546475,1287
-450.877437182231,1261
-448.28194243039627,1206
-445.68716451686,1174
-443.09310325926003,1186
-440.49975847515555,1131
-437.9071299820263,1180
-435.31521759727354,1242
-432.72402113821954,1278
-430.13354042210767,1274
-427.5437752661022,1375
-424.95472548728867,1336
-422.36639090267386,1316
-419.7787713291855,1291
-417.1918665836721,1307
-414.60567648290385,1328
-412.0202008435715,1316
-409.4354394822874,1315
-406.8513922155845,1335
-404.26805885991723,1357
-401.685439231661,1337
-399.103533147112,1333
-396.522340422488,1321
-393.9418608739278,1290
-391.3620943174908,1269
-388.7830405691583,1186
-386.2046994448317,1260
-383.6270707603344,1302
-381.05015433141045,1246
-378.473949973725,1176
-375.8984575028645,1037
-373.32367673433623,992
-370.74960748356875,960
-368.1762495659117,923
-365.60360279663576,828
-363.03166699093265,850
-360.4604419639154,878
-357.8899275306178,814
-355.32012350599507,863
-352.7510297049233,810
-350.1826459421999,776
-347.61497203254316,796
-345.04800779059235,750
-342.4817530309082,786
-339.91620756797226,734
-337.35137121618743,771
-334.7872437898774,851
-332.22382510328725,796
-329.66111497058273,821
-327.09911320585127,823
-324.53781962310075,758
-321.9772340362607,818
-319.4173562591816,770
-316.8581861056348,812
-314.2997233893127,769
-311.7419679238294,863
-309.1849195227194,897
-306.62857799943856,917
-304.0729431673641,883
-301.51801483979375,851
-298.963792829947,955
-296.41027695096386,880
-293.85746701590574,918
-291.3053628377552,944
-288.7539642294155,886
-286.2032710037115,921
-283.65328297338897,948
-281.1039999511146,1035
-278.5554217494762,1153
-276.007548180983,1084
-273.4603790580651,1018
-270.9139141930734,1005
-268.3681533982807,1080
-265.8230964858798,984
-263.27874326798565,1002
-260.7350935566336,991
-258.1921471637804,1032
-255.6499039013039,1247
-253.10836358100266,1234
-250.56752601459698,1089
-248.02739101372765,1234
-245.48795838995704,1168
-242.94922795476816,1092
-240.41119951956557,1176
-237.8738728956746,1313
-235.33724789434166,1422
-232.80132432673452,1328
-230.2661020039418,1185
-227.73158073697357,1197
-225.19776033676033,1297
-222.66464061415422,1412
-220.1322213799284,1307
-217.60050244477725,1137
-215.06948361931552,1183
-212.53916471408013,1618
-210.00954553952818,1594
-207.48062590603843,1366
-204.9524056239104,1309
-202.4248845033651,1503
-199.8980623545441,1689
-197.37193898751036,1675
-194.84651421224817,1415
-192.32178783866232,1282
-189.79775967657952,1476
-187.27442953574644,1595
-184.7517972258321,1742
-182.2298625564256,1499
-179.7086253370378,1383
-177.18808537710026,1575
-174.66824248596583,1856
-172.14909647290835,1790
-169.6306471471229,1687
-167.11289431772548,1567
-164.59583779375328,1594
-162.07947738416453,1838
-159.5638128978386,1882
-157.04884414357605,2063
-154.53457093009854,2095
-152.02099306604828,1966
-149.50811035998936,1680
-146.99592262040665,1702
-144.48442965570587,1921
-141.97363127421409,2159
-139.46352728417958,2495
-136.95411749377126,2370
-134.44540171107985,2239
-131.93737974411636,2144
-129.43005140081357,2133
-126.92341648902493,2764
-124.41747481652521,3449
-121.91222619101006,4379
-119.40767042009657,5438
-116.90380731132257,5669
-114.40063667214702,5348
-111.8981583099503,5038
-109.3963720320337,4524
-106.89527764561933,5436
-104.39487495785067,5882
-101.89516377579241,7837
-99.39614390642998,10721
-96.89781515667039,14139
-94.40017733334128,13703
-91.90323024319173,11124
-89.40697369289148,9017
-86.91140748903172,7443
-84.41653143812482,6189
-81.92234534660395,7345
-79.42884902082358,8690
-76.93604226705907,9877
-74.4439248915071,10487
-71.95249670028534,11686
-69.46175749943245,13756
-66.97170709490854,15301
-64.48234529259423,14377
-61.99367189829195,14856
-59.50568671772464,19277
-57.01838955653636,25850
-54.53178022029283,33197
-52.045858514480074,44265
-49.560624244506016,45241
-47.07607721569923,41553
-44.59221723330904,36131
-42.10904410250669,34824
-39.62655762838392,37695
-37.14475761595372,42189
-34.66364387015028,51156
-32.18321619582866,58574
-29.70347439776515,63938
-27.224418280657005,64646
-24.74604764912317,65043
-22.26836230770266,65043
-19.7913620608565,65043
-17.315046712966478,65043
-14.83941606833514,65043
-12.36446993118659,65043
-9.89020810566592,65043
-7.416630395839093,65043
-4.94373660569363,65043
-2.471526539137585,65043
-6.821210263296962E-13,65043
2.47084320796705,65043
4.941003281093458,65043
7.410480415786196,65043
9.879274808531363,65043
12.347386655893956,65043
14.814816154518212,65043
17.28156350112681,65043
19.74762889252179,65043
22.21301252558385,65043
24.67771459727237,25305
27.141735304626195,7657
29.605074844762612,6448
32.06773341487792,6818
34.52971121224755,6969
36.99100843422559,6523
39.45162527824516,6214
41.91156194181792,5354
44.370818622535126,5326
46.82939551806646,4631
49.287292826160524,5140
51.74451074464503,4899
54.201049471426245,4452
56.65690920448981,3614
59.112090141899785,4213
61.56659248179983,4677
64.02041642241159,4121
66.4735621620365,4291
68.92602989905402,4022
71.37781983192338,3660
73.82893215918205,3291
76.27936707944684,3217
78.72912479141326,3775
81.17820549385567,3570
83.62660938562783,2965
86.07433666566146,2678
88.5213875329681,2851
90.96776218663751,2996
93.41346082583925,2776
95.85848364982041,2791
98.30283085790859,2605
100.7465026495089,2217
103.18949922410604,2410
105.63182078126385,2811
108.07346752062438,2981
110.51443964190923,2838
112.95473734491827,2517
115.39436082953114,2385
117.83331029570547,2310
120.27158594347827,2442
122.7091879729652,2445
125.1461165843615,2154
127.58237197794062,1841
130.01795435405518,1921
132.4528639131364,1861
134.88710085569494,1881
137.32066538231982,1911
139.75355769367923,1937
142.1857779905207,2147
144.61732647366978,1922
147.04820334403132,1981
149.47840880258934,2060
151.90794305040674,2264
154.33680628862487,2230
156.76499871846443,2496
159.19252054122433,2684
161.61937195828352,2822
164.04555317109896,2964
166.47106438120693,3194
168.89590579022217,3218
171.320077599839,3365
173.7435800118302,3455
176.16641322804742,3714
178.58857745042144,3720
181.01007288096173,3793
183.43089972175687,4044
185.85105817497413,4189
188.27054844285988,4011
190.6893707277394,3903
193.10752523201643,4131
195.5250121581745,4265
197.9418317087751,4228
200.3579840864594,4143
202.7734694939469,4394
205.18828813403627,4512
207.6024402096051,4583
210.01592592360964,4568
212.42874547908548,4687
214.84089907914665,4759
217.2523869269868,4987
219.66320922587727,5361
222.0733661791695,5612
224.48285799029293,5815
226.8916848627572,6005
229.29984700014882,6122
231.7073446061355,6145
234.11417788446204,5735
236.520347038953,5361
238.92585227351185,4969
241.33069379212054,4788
243.73487179884035,4841
246.1383864978112,4578
248.541238093252,4512
250.9434267894609,4293
253.34495279081432,4312
255.74581630176783,4421
258.1460175268563,4498
260.54555667069314,4625
262.9444339379703,4774
265.3426495334594,4719
267.7402036620107,4986
270.1370965285529,4736
272.53332833809407,4518
274.9288992957214,4450
277.32380960660055,4407
279.718059475976,4378
282.1116491091717,4335
284.5045787115897,4126
286.89684848871195,4313
289.2884586460981,4162
291.67940938938807,4207
294.0697009242996,4161
296.4593334566299,4177
298.84830719225477,4393
301.23662233712923,4273
303.6242790972866,4269
306.01127767884,4373
308.39761828798066,4219
310.78330113097934,4183
313.16832641418534,4051
315.5526943440269,3896
317.9364051270112,3902
320.3194589697242,3888
322.70185607883093,3828
325.0835966610754,3802
327.4646809232805,3809
329.8451090723478,3815
332.2248813152577,3922
334.6039978590701,3835
336.9824589109231,3827
339.36026467803447,3690
341.7374153677,3586
344.113911187295,3681
346.48975234427337,3702
348.8649390461686,3681
351.2394715005918,3844
353.61334991523415,3751
355.9865744978655,3685
358.35914545633375,3683
360.73106299856715,3695
363.10232733257146,3633
365.47293866643247,3648
367.84289720831396,3460
370.2122031664593,3639
372.5808567491905,3601
374.9488581649083,3586
377.31620762209275,3491
379.6829053293021,3650
382.0489514951745,3596
384.4143463284262,3541
386.7790900378528,3519
389.14318283232853,3548
391.50662492080653,3579
393.86941651231916,3498
396.23155781597745,3553
398.5930490409713,3517
400.9538903965696,3491
403.3140820921202,3626
405.6736243370498,3572
408.03251734086336,3360
410.3907613131465,3466
412.74835646356166,3413
415.10530300185144,3405
417.4616011378372,3372
419.81725108141893,3400
422.1722530425758,3469
424.5266072313656,3379
426.880313857925,3482
429.2333731324701,3437
431.58578526529516,3512
433.9375504667738,3444
436.2886689473588,3376
438.63914091758113,3344
440.9889665880513,3402
443.33814616945835,3350
445.68667987257015,3397
448.03456790823395,3358
450.3818104873759,3408
452.72840782100013,3404
455.07436012019105,3320
457.41966759611057,3287
459.7643304600007,3164
462.10834892318155,3311
464.4517231970525,3246
466.79445349309174,3265
469.1365400228566,3198
471.4779829979826,3333
473.81878263018564,3226
476.15893913125876,3231
478.4984527130747,3354
480.8373235875855,3364
483.17555196682144,3333
485.5131380628919,3397
487.8500820879857,3424
490.1863842543697,3358
492.52204477439034,3452
494.8570638604725,3394
497.1914417251204,3319
499.52517858091653,3464
501.85827464052306,3595
504.19073011668036,3823
506.5225452222086,4030
508.85372017000566,4847
511.18425517304956,6588
513.514150444396,9538
515.8434061971808,13025
518.1720226446176,15158
520.4999999999999,15121
522.8273384766991,14179
525.1540382881666,12531
527.480099647932,10073
529.8055227696037,7207
532.1303078668694,5191
534.454455153496,4207
536.777964843328,3804
539.1008371502907,3705
541.4230722883866,3467
543.744670471698,3454
546.0656319143858,3443
548.3859568306899,3464
550.7056454349294,3380
553.0246979415016,3244
555.3431145648834,3294
557.6608955196306,3262
559.978041020377,3261
562.2945512818363,3253
564.6104265188006,3275
566.9256669461412,3276
569.2402727788082,3188
571.5542442318302,3231
573.8675815203156,3322
576.1802848594508,3299
578.4923544645015,3329
580.8037905508126,3243
583.114593333807,3272
585.4247630289875,3284
587.7342998519354,3264
590.0432040183106,3248
592.3514757438526,3285
594.6591152443794,3215
596.9661227357875,3211
599.2724984340531,3278
601.578242555231,3159
603.8833553154542,3222
606.1878369309362,3227
608.4916876179676,3176
610.7949075929192,3234
613.0974970722403,3288
615.3994562724587,3275
617.7007854101818,3209
620.0014847020951,3307
622.3015543649641,3175
624.6009946156324,3145
626.8998056710224,3222
629.1979877481361,3278
631.4955410640538,3349
633.7924658359349,3279
636.0887622810175,3261
638.3844306166192,3250
640.6794710601358,3268
642.9738838290426,3376
645.2676691408932,3253
647.5608272133207,3264
649.853358264037,3200
652.1452625108324,3360
654.4365401715764,3364
656.7271914642178,3323
659.0172166067838,3520
661.3066158173809,3435
663.5953893141935,3309
665.8835373154867,3295
668.1710600396028,3241
670.4579577049639,3325
672.7442305300709,3424
675.0298787335033,3371
677.3149025339197,3336
679.599302150058,3445
681.8830778007342,3346
684.1662297048437,3357
686.4487580813608,3405
688.7306631493387,3508
691.0119451279091,3397
693.2926042362834,3338
695.5726406937516,3495
697.8520547196814,3440
700.1308465335215,3494
702.4090163547982,3365
704.6865644031171,3389
706.9634908981619,3352
709.2397960596965,3400
711.5154801075631,3276
713.7905432616823,3395
716.0649857420548,3337
718.3388077687592,3422
720.612009561953,3550
722.8845913418733,3385
725.1565533288352,3472
727.427895743234,3420
729.6986188055427,3385
731.9687227363137,3367
734.238207756178,3354
736.5070740858458,3362
738.7753219461066,3377
741.0429515578281,3441
743.3099631419569,3439
745.5763569195191,3399
747.8421331116193,3460
750.1072919394409,3478
752.3718336242467,3362
754.6357583873777,3418
756.8990664502545,3377
759.1617580343765,3320
761.423833361321,3368
763.6852926527457,3446
765.9461361303862,3510
768.206364016058,3386
770.4659765316536,3460
772.7249738991469,3364
774.9833563405886,3536
777.2411240781092,3408
779.4982773339183,3353
781.7548163303044,3367
784.010741289634,3564
786.2660524343538,3762
788.5207499869881,3601
790.7748341701416,3457
793.0283052064964,3444
795.2811633188143,3497
797.5334087299362,3410
799.7850416627813,3512
802.0360623403484,3493
804.2864709857143,3463
806.5362678220353,3441
808.7854530725468,3367
811.0340269605625,3408
813.2819897094754,3467
815.5293415427581,3463
817.77608268396,3452
820.0222133567116,3445
822.2677337847211,3321
824.5126441917765,3478
826.7569448017433,3526
829.0006358385675,3393
831.2437175262731,3468
833.4861900889629,3402
835.7280537508192,3467
837.9693087361026,3374
840.2099552691533,3390
842.4499935743896,3497
844.689423876309,3515
846.9282463994886,3596
849.1664613685833,3423
851.4040690083276,3483
853.6410695435349,3435
855.877463199097,3474
858.1132501999847,3383
860.3484307712487,3469
862.5830051380175,3454
864.8169735254988,3463
867.0503361589791,3493
869.2830932638243,3475
871.5152450654786,3359
873.7467917894654,3438
875.9777336613873,3474
878.2080709069252,3437
880.4378037518389,3445
882.666932421968,3377
884.8954571432301,3492
887.1233781416219,3358
889.3506956432192,3422
891.5774098741766,3412
893.803521060728,3440
896.0290294291852,3409
898.2539352059397,3335
900.4782386174619,3371
902.7019398903011,3238
904.925039251085,3322
907.147536926521,3257
909.3694331433943,3368
911.59072812857,3373
913.8114221089921,3479
916.0315153116827,3250
918.2510079637437,3193
920.4699002923547,3227
922.6881925247761,3254
924.905884888345,3282
927.1229776104793,3387
929.3394709186747,3295
931.555365040506,3373
933.7706602036275,3396
935.9853566357709,3508
938.1994545647489,3545
940.4129542184515,3497
942.6258558248488,3509
944.8381596119883,3487
947.0498658079974,3531
949.2609746410825,3590
951.4714863395287,3527
953.6814011316998,3576
955.8907192460387,3557
958.0994409110671,3601
960.3075663553858,3622
962.5150958076741,3535
964.7220294966913,3618
966.928367651274,3538
969.1341105003388,3506
971.3392582728806,3631
973.5438111979742,3528
975.747769504772,3560
977.9511334225061,3557
980.153903180487,3474
982.3560790081052,3436
984.5576611348289,3362
986.7586497902058,3439
988.9590452038618,3410
991.158847605503,3257
993.3580572249133,3261
995.5566742919558,3155
997.7546990365728,3169
999.952131688785,3072
1002.1489724786926,3068
1004.3452216364743,3072
1006.5408793923874,3101
1008.7359459767691,3051
1010.9304216200343,2902
1013.1243065526781,2910
1015.3176010052733,2935
1017.510305208472,2961
1019.7024193930064,2843
1021.8939437896848,2864
1024.0848786293977,2852
1026.2752241431122,2907
1028.4649805618747,2896
1030.6541481168115,2848
1032.842727039127,2927
1035.0307175601051,2900
1037.2181199111074,2813
1039.4049343235752,2888
1041.591161029029,2877
1043.7768002590683,2867
1045.9618522453698,2844
1048.1463172196918,2904
1050.3301954138697,2927
1052.513487059818,2962
1054.69619238953,2914
1056.8783116350783,2894
1059.0598450286152,2845
1061.2407928023704,2929
1063.4211551886528,2807
1065.6009324198508,2880
1067.780124728432,2910
1069.9587323469414,2784
1072.1367555080046,2856
1074.314194444325,2841
1076.4910493886855,2815
1078.667320573947,2833
1080.843008233051,2787
1083.0181125990161,2693
1085.1926339049414,2717
1087.3665723840027,2731
1089.5399282694575,2769
1091.7127017946405,2716
1093.8848931929647,2709
1096.0565026979243,2716
1098.2275305430899,2713
1100.3979769621128,2711
1102.567842188722,2634
1104.737126456726,2707
1106.9058300000124,2699
1109.0739530525475,2724
1111.2414958483764,2618
1113.4084586216231,2550
1115.5748416064907,2630
1117.7406450372605,2715
1119.9058691482942,2657
1122.0705141740304,2701
1124.2345803489884,2620
1126.3980679077658,2682
1128.5609770850388,2691
1130.7233081155623,2656
1132.8850612341707,2695
1135.0462366757774,2692
1137.2068346753745,2741
1139.3668554680326,2675
1141.526299288901,2743
1143.68516637321,2626
1145.8434569562655,2676
1148.001171273455,2594
1150.158309560244,2677
1152.3148720521767,2703
1154.470858984876,2691
1156.626270594044,2720
1158.7811071154629,2668
1160.9353687849912,2698
1163.089055838569,2644
1165.242168512213,2702
1167.3947070420209,2600
1169.5466716641677,2678
1171.6980626149075,2696
1173.8488801305748,2702
1175.9991244475814,2642
1178.1487958024186,2688
1180.2978944316555,2627
1182.4464205719428,2693
1184.5943744600072,2730
1186.7417563326567,2645
1188.8885664267755,2722
1191.0348049793297,2691
1193.1804722273619,2617
1195.325568407995,2712
1197.4700937584303,2706
1199.614048515948,2682
1201.7574329179074,2783
1203.900247201746,2682
1206.042491604982,2733
1208.1841663652099,2736
1210.3252717201053,2726
1212.465807907422,2673
1214.6057751649923,2727
1216.7451737307279,2753
1218.8840038426192,2642
1221.0222657387353,2795
1223.1599596572241,2786
1225.2970858363137,2739
1227.4336445143094,2697
1229.5696359295966,2825
1231.705060320639,2844
1233.8399179259786,2804
1235.9742089842384,2814
1238.107933734118,2828
1240.2410924143974,2863
1242.373685263935,2833
1244.5057125216676,2909
1246.6371744266116,2805
1248.7680712178621,2803
1250.898403134593,2847
1253.028170416058,2896
1255.1573733015875,2873
1257.2860120305932,2891
1259.4140868425648,2928
1261.54159797707,2912
1263.6685456737569,2999
1265.7949301723515,2962
1267.9207517126597,2978
1270.046010534565,2918
1272.1707068780306,2920
1274.2948409830983,3046
1276.4184130898889,2980
1278.541423438603,2947
1280.6638722695184,3049
1282.785759822993,3047
1284.9070863394636,3094
1287.0278520594447,3234
1289.1480572235314,3131
1291.2677020723963,3095
1293.3867868467923,3269
1295.5053117875495,3163
1297.623277135579,3288
1299.740683131868,3328
1301.8575300174857,3375
1303.973818033578,3514
1306.0895474213703,3557
1308.2047184221678,3532
1310.3193312773528,3565
1312.4333862283888,3551
1314.5468835168163,3575
1316.659823384255,3570
1318.7722060724045,3714
1320.8840318230418,3732
1322.9953008780249,3829
1325.1060134792888,3777
1327.2161698688478,3973
1329.3257702887959,3865
1331.4348149813054,3859
1333.5433041886276,3983
1335.6512381530933,3996
1337.7586171171101,3940
1339.8654413231675,3932
1341.9717110138317,3962
1344.0774264317488,3909
1346.1825878196432,3908
1348.2871954203192,3772
1350.3912494766587,3788
1352.4947502316231,3741
1354.5976979282532,3791
1356.7000928096686,3672
1358.8019351190665,3710
1360.9032250997243,3605
1363.0039629949988,3635
1365.1041490483235,3476
1367.2037835032133,3660
1369.3028666032606,3474
1371.401398592137,3604
1373.4993797135926,3574
1375.5968102114575,3553
1377.6936903296396,3483
1379.7900203121262,3517
1381.8858004029835,3423
1383.9810308463561,3303
1386.075711886469,3442
1388.1698437676241,3326
1390.2634267342032,3302
1392.356461030667,3176
1394.4489469015557,3235
1396.5408845914872,3369
1398.6322743451592,3271
1400.7231164073469,3251
1402.813411022907,3203
1404.903158436773,3394
1406.9923588939578,3334
1409.0810126395531,3274
1411.1691199187303,3298
1413.2566809767386,3172
1415.343696058907,3141
1417.4301654106425,3208
1419.5160892774315,3283
1421.6014679048399,3312
1423.6863015385125,3327
1425.7705904241707,3253
1427.8543348076178,3211
1429.9375349347342,3237
1432.0201910514802,3303
1434.102303403894,3259
1436.1838722380944,3319
1438.2648978002767,3343
1440.3453803367174,3235
1442.4253200937692,3263
1444.5047173178677,3353
1446.5835722555234,3419
1448.6618851533285,3440
1450.739656257952,3377
1452.8168858161434,3380
1454.8935740747306,3455
1456.96972128062,3473
1459.045327680797,3439
1461.120393522327,3365
1463.1949190523528,3490
1465.2689045180973,3466
1467.3423501668608,3550
1469.415256246024,3514
1471.4876230030463,3566
1473.559450685465,3659
1475.6307395408976,3580
1477.7014898170391,3647
1479.771701761665,3569
1481.8413756226287,3587
1483.9105116478618,3819
1485.9791100853772,3790
1488.0471711832643,3764
1490.1146951896926,3877
1492.1816823529098,3744
1494.2481329212433,3774
1496.3140471430984,3755
1498.3794252669609,3902
1500.4442675413939,3790
1502.5085742150404,3867
1504.572345536622,3916
1506.6355817549388,3970
1508.6982831188702,3988
1510.7604498773744,3964
1512.8220822794883,4068
1514.8831805743293,4176
1516.9437450110909,4236
1519.003775839048,4191
1521.0632733075522,4149
1523.1222376660367,4250
1525.1806691640113,4155
1527.2385680510652,4203
1529.2959345768668,4339
1531.3527689911643,4240
1533.4090715437833,4435
1535.4648424846291,4589
1537.5200820636855,4577
1539.5747905310159,4650
1541.6289681367616,4539
1543.6826151311434,4656
1545.7357317644614,4873
1547.7883182870937,4628
1549.8403749494987,4605
1551.8919020022113,4738
1553.9428996958477,4783
1555.9933682811015,4943
1558.0433080087469,4980
1560.0927191296346,4972
1562.1416018946961,5089
1564.1899565549415,5364
1566.2377833614592,5522
1568.2850825654164,5551
1570.3318544180606,5750
1572.3780991707158,5867
1574.423817074788,6166
1576.4690083817595,6491
1578.5136733431923,6771
1580.5578122107272,7027
1582.601425236085,7427
1584.6445126710646,7576
1586.6870747675434,7542
1588.7291117774776,7460
1590.7706239529034,7339
1592.8116115459347,7054
1594.8520748087658,6832
1596.8920139936686,6377
1598.9314293529933,6213
1600.9703211391711,5854
1603.008689604711,5647
1605.0465350022005,5452
1607.0838575843068,5231
1609.1206576037753,5063
1611.1569353134305,4920
1613.1926909661765,4743
1615.2279248149953,4664
1617.2626371129481,4384
1619.2968281131757,4308
1621.3304980688963,4202
1623.3636472334088,4040
1625.39627586009,3969
1627.428384202396,3905
1629.459972513861,3777
1631.4910410480993,3709
1633.5215900588028,3545
1635.551619799744,3423
1637.5811305247717,3397
1639.6101224878166,3320
1641.6385959428862,3267
1643.6665511440683,3205
1645.693988345528,3217
1647.7209078015112,3124
1649.7473097663405,3120
1651.7731944944203,2965
1653.7985622402307,3045
1655.823413258333,3004
1657.847747803366,2918
1659.8715661300494,2923
1661.8948684931793,2854
1663.9176551476316,2827
1665.9399263483624,2827
1667.9616823504057,2838
1669.982923408873,2810
1672.0036497789574,2809
1674.0238617159293,2758
1676.043559475138,2735
1678.0627433120121,2802
1680.081413482059,2752
1682.0995702408654,2730
1684.117213844096,2657
1686.134344547495,2695
1688.1509626068864,2806
1690.1670682781705,2793
1692.182661817329,2813
1694.1977434804217,2814
1696.2123135235875,2875
1698.226372203043,2795
1700.2399197750851,2872
1702.2529564960905,2797
1704.2654826225112,2827
1706.277498410882,2809
1708.2890041178139,2936
1710.2999999999988,2770
1712.3104863142066,2738
1714.3204633172854,2850
1716.329931266163,2768
1718.3388904178469,2824
1720.3473410294214,2898
1722.3552833580516,2788
1724.3627176609807,2848
1726.3696441955308,2901
1728.3760632191033,2824
1730.3819749891782,2831
1732.3873797633146,2814
1734.3922777991502,2736
1736.3966693544012,2761
1738.4005546868639,2765
1740.4039340544127,2694
1742.406807715001,2773
1744.4091759266616,2698
1746.4110389475054,2773
1748.4123970357223,2702
1750.413250449582,2693
1752.4135994474318,2706
1754.4134442876993,2743
1756.4127852288902,2701
1758.4116225295893,2687
1760.4099564484595,2664
1762.407787244244,2727
1764.405115175764,2659
1766.4019405019203,2715
1768.3982634816916,2708
1770.3940843741357,2662
1772.3894034383907,2719
1774.3842209336717,2634
1776.378537119274,2649
1778.372352254571,2673
1780.3656665990156,2592
1782.3584804121397,2587
1784.3507939535534,2639
1786.3426074829463,2629
1788.3339212600863,2612
1790.3247355448211,2648
1792.3150505970766,2651
1794.3048666768573,2571
1796.2941840442477,2571
1798.2830029594106,2624
1800.2713236825884,2622
1802.2591464741004,2567
1804.2464715943465,2635
1806.2332993038058,2644
1808.2196298630352,2602
1810.2054635326708,2631
1812.190800573428,2590
1814.175641246101,2656
1816.1599858115628,2584
1818.1438345307652,2602
1820.127187664738,2604
1822.1100454745924,2623
1824.092408221516,2539
1826.0742761667766,2628
1828.055649571721,2630
1830.0365286977735,2526
1832.0169138064398,2572
1833.9968051593014,2573
1835.9762030180214,2564
1837.9551076443408,2576
1839.9335193000788,2524
1841.9114382471344,2595
1843.888864747485,2507
1845.8657990631878,2540
1847.842241456378,2587
1849.8181921892697,2536
1851.7936515241558,2612
1853.7686197234098,2636
1855.7430970494815,2592
1857.7170837649014,2563
1859.6905801322787,2504
1861.6635864143004,2564
1863.6361028737338,2546
1865.608129773424,2572
1867.5796673762961,2515
1869.5507159453537,2543
1871.521275743678,2661
1873.4913470344313,2539
1875.4609300808534,2608
1877.4300251462632,2584
1879.3986324940588,2619
1881.366752387717,2637
1883.3343850907936,2637
1885.3015308669228,2733
1887.268189979819,2672
1889.2343626932739,2624
1891.2000492711595,2621
1893.1652499774254,2675
1895.1299650761011,2551
1897.0941948312952,2703
1899.0579395071945,2708
1901.0211993680641,2690
1902.98397467825,2686
1904.9462657021745,2701
1906.9080727043415,2667
1908.869395949332,2750
1910.8302357018065,2719
1912.790592226504,2779
1914.7504657882428,2779
1916.7098566519212,2736
1918.6687650825133,2695
1920.6271913450764,2753
1922.5851357047422,2769
1924.5425984267245,2854
1926.499579776314,2821
1928.4560800188833,2720
1930.4120994198802,2759
1932.367638244833,2755
1934.32269675935,2785
1936.2772752291175,2689
1938.231373919899,2790
1940.1849930975404,2758
1942.1381330279637,2660
1944.0907939771696,2722
1946.0429762112412,2681
1947.9946799963363,2617
1949.9459055986945,2663
1951.896653284633,2661
1953.8469233205478,2591
1955.7967159729142,2586
1957.7460315082863,2646
1959.6948701932974,2660
1961.6432322946594,2603
1963.5911180791632,2611
1965.5385278136787,2667
1967.4854617651545,2655
1969.4319202006182,2670
1971.377903387176,2652
1973.3234115920136,2608
1975.268445082395,2583
1977.2130041256642,2561
1979.1570889892423,2668
1981.1006999406304,2645
1983.04383724741,2578
1984.986501177238,2561
1986.928691997853,2526
1988.8704099770712,2557
1990.811655382789,2555
1992.7524284829801,2546
1994.692729545698,2488
1996.6325588390755,2461
1998.5719166313224,2580
2000.5108031907307,2610
2002.4492187856677,2536
2004.387163684583,2519
2006.3246381560011,2483
2008.2616424685298,2572
2010.1981768908527,2510
2012.1342416917332,2595
2014.069837140014,2494
2016.0049635046162,2501
2017.9396210545406,2557
2019.8738100588666,2488
2021.8075307867502,2478
2023.740783507431,2490
2025.6735684902228,2481
2027.6058860045214,2425
2029.5377363198004,2639
2031.4691197056118,2573
2033.4000364315875,2501
2035.3304867674374,2525
2037.260470982952,2562
2039.189989347998,2465
2041.1190421325232,2499
2043.047629606554,2567
2044.9757520401945,2507
2046.9034097036288,2520
2048.8306028671195,2485
2050.7573318010086,2506
2052.683596775716,2527
2054.609398061742,2520
2056.5347359296647,2553
2058.4596106501403,2536
2060.384022493906,2467
2062.3079717317764,2480
2064.231458634646,2446
2066.1544834734873,2469
2068.077046519352,2572
2069.99914804337,2528
2071.9207883167524,2514
2073.8419676107865,2472
2075.7626861968406,2519
2077.6829443463607,2547
2079.6027423308715,2539
2081.522080421977,2546
2083.440958891362,2439
2085.359378010786,2458
2087.2773380520907,2542
2089.194839287196,2516
2091.111881988101,2502
2093.0284664268825,2555
2094.9445928756973,2467
2096.86026160678,2490
2098.775472892446,2499
2100.690227005088,2471
2102.604524217178,2476
2104.5183648012676,2530
2106.431749029985,2544
2108.34467717604,2515
2110.2571495122206,2473
2112.169166311393,2530
2114.080727846503,2546
2115.9918343905747,2543
2117.902486216711,2542
2119.8126835980956,2475
2121.722426807987,2514
2123.6317161197285,2540
2125.5405518067364,2562
2127.448934142509,2532
2129.356863400624,2555
2131.264339854737,2554
2133.1713637785815,2511
2135.077935445972,2497
2136.9840551308002,2546
2138.889723107037,2549
2140.7949396487334,2498
2142.699705030018,2550
2144.6040195250994,2608
2146.507883408264,2546
2148.4112969538774,2525
2150.3142604363848,2516
2152.2167741303097,2666
2154.1188383102535,2560
2156.0204532508997,2543
2157.9216192270064,2483
2159.822336513414,2579
2161.7226053850413,2569
2163.622426116884,2523
2165.5217989840185,2501
2167.4207242616,2466
2169.319202224862,2508
2171.2172331491165,2558
2173.1148173097563,2540
2175.0119549822507,2573
2176.90864644215,2547
2178.8048919650823,2488
2180.7006918267534,2523
2182.596046302952,2597
2184.4909556695407,2572
2186.3854202024645,2538
2188.279440177746,2472
2190.173015871487,2565
2192.066147559868,2515
2193.958835519149,2508
2195.851080025667,2552
2197.7428813558417,2517
2199.6342397861667,2545
2201.5251555932186,2525
2203.415629053651,2616
2205.3056604441986,2572
2207.19525004167,2647
2209.084398122958,2669
2210.9731049650327,2409
2212.861370844941,2510
2214.749196039812,2552
2216.636580826851,2575
2218.523525483344,2548
2220.410030286655,2587
2222.296095514226,2527
2224.1817214435805,2609
2226.066908352319,2556
2227.951656518121,2608
2229.835966218746,2584
2231.71983773203,2607
2233.6032713358913,2604
2235.486267308324,2548
2237.3688259274036,2579
2239.2509474712824,2563
2241.132632218193,2562
2243.013880446447,2582
2244.8946924344323,2553
2246.7750684606203,2581
2248.6550088035574,2552
2250.534513741871,2506
2252.413583554265,2536
2254.292218519526,2512
2256.170418916517,2598
2258.0481850241786,2582
2259.925517121534,2535
2261.8024154876825,2565
2263.678880401803,2550
2265.5549121431536,2588
2267.430510991071,2535
2269.305677224971,2540
2271.180411124348,2556
2273.0547129687766,2609
2274.9285830379076,2499
2276.8020216114737,2546
2278.6750289692845,2455
2280.5476053912294,2533
2282.4197511572766,2575
2284.2914665474727,2641
2286.162751841943,2517
2288.0336073208937,2578
2289.904033264608,2623
2291.774029953448,2614
2293.6435976678554,2538
2295.5127366883517,2555
2297.381447295534,2562
2299.2497297700825,2552
2301.1175843927526,2426
2302.9850114443825,2475
2304.852011205885,2531
2306.7185839582553,2482
2308.5847299825664,2474
2310.4504495599676,2399
2312.3157429716925,2398
2314.1806104990483,2459
2316.0450524234247,2351
2317.9090690262888,2338
2319.772660589186,2367
2321.635827393742,2440
2323.498569721661,2393
2325.3608878547248,2436
2327.2227820747967,2463
2329.0842526638157,2400
2330.945299903803,2440
2332.805924076857,2352
2334.6661254651535,2374
2336.525904350951,2443
2338.3852610165827,2342
2340.244195744464,2412
2342.102708817088,2431
2343.9608005170253,2358
2345.8184711269287,2359
2347.675720929526,2356
2349.532550207628,2421
2351.38895924412,2481
2353.24494832197,2374
2355.100517724223,2388
2356.955667734004,2399
2358.810398634514,2395
2360.664710709037,2408
2362.5186042409337,2329
2364.3720795136437,2432
2366.225136810686,2490
2368.0777764156583,2428
2369.929998612237,2466
2371.7818036841777,2482
2373.633191915315,2406
2375.484163589562,2451
2377.3347189909114,2431
2379.184858403434,2461
2381.03458211128,2493
2382.8838903986775,2391
2384.732783549936,2471
2386.5812618494406,2443
2388.4293255816588,2446
2390.2769750311327,2483
2392.1242104824883,2495
2393.971032220427,2467
2395.8174405297295,2475
2397.6634356952563,2420
2399.509018001947,2440
2401.3541877348193,2456
2403.1989451789705,2536
2405.043290619576,2478
2406.8872243418905,2498
2408.730746631247,2551
2410.5738577730594,2530
2412.4165580528183,2506
2414.258847756095,2595
2416.100727168537,2463
2417.9421965758734,2540
2419.783256263912,2560
2421.623906518538,2592
2423.4641476257157,2549
2425.303979871491,2685
2427.143403541984,2604
2428.9824189233977,2600
2430.821026302012,2671
2432.6592259641866,2641
2434.497018196361,2694
2436.33440328505,2592
2438.171381516851,2529
2440.00795317844,2646
2441.844118556569,2623
2443.6798779380724,2652
2445.5152316098606,2592
2447.3501798589255,2607
2449.1847229723357,2587
2451.0188612372403,2593
2452.8525949408663,2574
2454.6859243705203,2575
2456.518849813587,2567
2458.3513715575314,2553
2460.183489889895,2523
2462.015205098301,2532
2463.8465174704493,2466
2465.67742729412,2644
2467.5079348571717,2581
2469.338040447542,2549
2471.1677443532476,2533
2472.9970468623833,2537
2474.825948263123,2562
2476.6544488437207,2541
2478.482548892508,2497
2480.310248697896,2651
2482.137548548374,2618
2483.9644487325118,2546
2485.790949538956,2510
2487.617051256433,2533
2489.44275417375,2523
2491.26805857979,2571
2493.0929647635157,2524
2494.917473013971,2568
2496.741583620276,2602
2498.5652968716304,2594
2500.3886130573137,2511
2502.2115324666834,2590
2504.0340553891765,2685
2505.856182114308,2602
2507.6779129316733,2544
2509.499248130945,2627
2511.3201880018764,2615
2513.140732834298,2567
2514.9608829181198,2597
2516.780638543331,2576
2518.6,2535
2520.418967578273,2571
2522.237541568376,2601
2524.0557222606144,2610
2525.8735099453706,2590
2527.6909049131086,2560
2529.507907454368,2635
2531.32451785977,2626
2533.140736420014,2606
2534.9565634258774,2597
2536.771999168218,2580
2538.5870439379714,2578
2540.4016980261526,2675
2542.2159617238544,2709
2544.02983532225,2682
2545.8433191125914,2703
2547.656413386209,2723
2549.4691184345115,2689
2551.2814345489874,2733
2553.093362021204,2714
2554.904901142808,2744
2556.716052205523,2761
2558.526815501153,2688
2560.3371913215824,2741
2562.147179958771,2825
2563.956781704761,2803
2565.7659968516705,2777
2567.5748256916986,2856
2569.3832685171224,2837
2571.1913256202984,2823
2572.9989972936614,2772
2574.806283829725,2948
2576.613185521084,2878
2578.4197026604074,2968
2580.2258355404483,3095
2582.031584454035,3074
2583.836949694077,3062
2585.6419315535613,3080
2587.4465303255533,3134
2589.2507463032002,3185
2591.0545797797245,3246
2592.8580310484303,3301
2594.6611004026995,3274
2596.463788135992,3347
2598.266094541849,3422
2600.0680199138874,3335
2601.869564545807,3437
2603.670728731383,3511
2605.4715127644704,3491
2607.2719169390048,3590
2609.071941548998,3523
2610.8715868885433,3461
2612.670853251811,3501
2614.469740933052,3529
2616.268250226594,3416
2618.0663814268455,3576
2619.864134828292,3568
2621.6615107255006,3492
2623.458509413115,3571
2625.2551311858597,3459
2627.0513763385347,3432
2628.8472451660223,3365
2630.6427379632833,3364
2632.4378550253564,3403
2634.232596647359,3438
2636.026963124488,3311
2637.8209547520187,3375
2639.6145718253065,3395
2641.407814639785,3316
2643.200683490966,3432
2644.9931786744414,3291
2646.7853004858807,3291
2648.577049221034,3352
2650.3684251757277,3300
2652.1594286458712,3247
2653.9500599274484,3225
2655.740319316525,3245
2657.5302071092437,3156
2659.3197236018286,3161
2661.10886909058,3146
2662.8976438718782,3204
2664.686048242183,3257
2666.4740824980327,3149
2668.2617469360443,3148
2670.0490418529134,3122
2671.8359675454153,3092
2673.622524310403,3110
2675.408712444811,3010
2677.1945322456495,3064
2678.979984010009,3066
2680.76506803506,3057
2682.5497846180497,3126
2684.334134056306,3037
2686.1181166472343,2956
2687.9017326883213,2963
2689.6849824771293,2848
2691.4678663113013,2871
2693.2503844885596,2827
2695.032537306705,2839
2696.8143250636167,2787
2698.5957480572542,2848
2700.3768065856534,2768
2702.1575009469316,2806
2703.937831439283,2803
2705.717798360982,2722
2707.4974020103837,2739
2709.276642685917,2636
2711.055520686095,2706
2712.834036309506,2778
2714.612189854819,2633
2716.389981620782,2591
2718.1674119062204,2634
2719.944481010041,2654
2721.721189231226,2670
2723.4975368688415,2687
2725.273524222027,2602
2727.0491515900053,2563
2728.824419272075,2585
2730.5993275676146,2599
2732.3738767760838,2598
2734.148067197016,2552
2735.921899130031,2534
2737.6953728748194,2548
2739.468488731156,2538
2741.2412469988926,2596
2743.0136479779617,2443
2744.785691968372,2481
2746.5573792702116,2501
2748.3287101836504,2489
2750.099685008934,2474
2751.870304046388,2503
2753.640567596418,2482
2755.4104759595057,2438
2757.1800294362156,2444
2758.949228327187,2493
2760.7180729331412,2441
2762.486563554877,2445
2764.254700493272,2417
2766.022484049284,2430
2767.789914523947,2449
2769.5569922183786,2412
2771.3237174337705,2390
2773.090090471394,2410
2774.8561116326036,2459
2776.6217812188274,2420
2778.3870995315756,2412
2780.1520668724356,2497
2781.9166835430747,2496
2783.6809498452394,2309
2785.444866080754,2527
2787.2084325515225,2494
2788.971649559527,2372
2790.73451740683,2364
2792.4970363955713,2472
2794.2592068279705,2429
2796.0210290063264,2451
2797.7825032330147,2451
2799.543629810493,2489
2801.304409041296,2479
2803.0648412280366,2398
2804.8249266734088,2423
2806.5846656801846,2400
2808.344058551212,2474
2810.1031055894246,2456
2811.8618070978273,2455
2813.6201633795085,2488
2815.378174737636,2456
2817.1358414754536,2423
2818.893163896285,2373
2820.6501423035334,2363
2822.4067770006814,2491
2824.1630682912883,2457
2825.9190164789957,2433
2827.6746218675207,2470
2829.429884760661,2380
2831.184805462294,2460
2832.9393842763743,2394
2834.693621506936,2446
2836.4475174580916,2395
2838.201072434034,2465
2839.954286739034,2417
2841.707160677441,2409
2843.459694553685,2516
2845.2118886722724,2433
2846.96374333779,2419
2848.7152588549034,2407
2850.4664355283567,2427
2852.217273662973,2382
2853.9677735636546,2498
2855.7179355353833,2541
2857.4677598832186,2464
2859.217246912299,2487
2860.9663969278427,2491
2862.715210235146,2434
2864.4636871395846,2463
2866.211827946614,2456
2867.9596329617652,2404
2869.7071024906536,2374
2871.4542368389684,2439
2873.20103631248,2391
2874.947501217038,2362
2876.6936318585695,2362
2878.4394285430812,2429
2880.1848915766604,2465
2881.9300212654707,2333
2883.6748179157553,2324
2885.4192818338374,2389
2887.1634133261173,2402
2888.907212699077,2431
2890.6506802592744,2361
2892.393816313348,2417
2894.1366211680142,2410
2895.8790951300693,2437
2897.621238506388,2478
2899.363051603925,2367
2901.1045347297118,2478
2902.8456881908596,2450
2904.58651229456,2481
2906.327007348081,2458
2908.067173658772,2481
2909.8070115340597,2405
2911.5465212814497,2385
2913.285703208527,2464
2915.0245576229563,2465
2916.7630848324807,2376
2918.5012851449196,2460
2920.2391588681758,2411
2921.976706310227,2453
2923.7139277791334,2433
2925.4508235830313,2436
2927.187394030137,2360
2928.923639428745,2441
2930.6595600872306,2414
2932.395156314046,2489
2934.1304284177218,2374
2935.8653767068713,2361
2937.6000014901815,2462
2939.3343030764227,2415
2941.068281774442,2496
2942.8019378931644,2395
2944.5352717415976,2440
2946.2682836288236,2473
2948.0009738640065,2479
2949.7333427563885,2433
2951.465390615289,2439
2953.1971177501086,2450
2954.9285244703265,2454
2956.6596110855,2430
2958.3903779052657,2424
2960.1208252393385,2409
2961.8509533975125,2347
2963.5807626896617,2395
2965.3102534257378,2370
2967.0394259157715,2341
2968.768280469873,2411
2970.496817398232,2405
2972.2250370111146,2433
2973.952939618869,2460
2975.6805255319196,2383
2977.4077950607707,2386
2979.134748516006,2372
2980.861386208289,2477
2982.587708448359,2430
2984.313715547037,2383
2986.039407815222,2453
2987.764785563891,2360
2989.489849104102,2404
2991.2145987469908,2403
2992.9390348037705,2360
2994.6631575857346,2386
2996.3869674042576,2304
2998.1104645707887,2344
2999.83364939686,2323
3001.5565221940783,2396
3003.2790832741334,2334
3005.0013329487924,2341
3006.7232715298996,2305
3008.4448993293804,2191
3010.166216659239,2267
3011.887223831558,2287
3013.607921158498,2273
3015.3283089522993,2341
3017.0483875252826,2305
3018.7681571898443,2330
3020.4876182584626,2364
3022.2067710436927,2376
3023.9256158581707,2323
3025.644153014609,2313
3027.362382825801,2309
3029.0803056046193,2402
3030.797921664012,2311
3032.5152313170106,2316
3034.2322348767225,2342
3035.9489326563353,2319
3037.665324969115,2325
3039.3814121284063,2340
3041.097194447633,2396
3042.812672240299,2400
3044.5278458199855,2309
3046.2427155003525,2348
3047.9572815951406,2360
3049.671544418167,2322
3051.38550428333,2386
3053.0991615046073,2382
3054.812516396051,2281
3056.5255692717974,2422
3058.2383204460575,2368
3059.9507702331257,2341
3061.662918947372,2322
3063.3747669032446,2300
3065.0863144152736,2215
3066.7975617980674,2306
3068.508509366309,2353
3070.219157434767,2352
3071.9295063182844,2271
3073.639556331785,2338
3075.3493077902704,2287
3077.058761008821,2278
3078.7679163025964,2300
3080.476773986837,2267
3082.1853343768594,2379
3083.89359778806,2334
3085.6015645359153,2408
3087.3092349359786,2261
3089.016609303884,2335
3090.7236879553434,2370
3092.4304712061476,2335
3094.136959372166,2364
3095.843152769349,2281
3097.5490517137237,2306
3099.2546565213966,2263
3100.959967508554,2319
3102.66498499146,2348
3104.3697092864577,2329
3106.0741407099695,2321
3107.778279578498,2360
3109.482126208622,2370
3111.1856809170004,2411
3112.8889440203716,2320
3114.5919158355528,2442
3116.294596679439,2326
3117.996986869006,2383
3119.6990867213062,2344
3121.4008965534726,2421
3123.102416682717,2392
3124.803647426329,2409
3126.5045891016784,2362
3128.205242026213,2367
3129.90560651746,2385
3131.605682893025,2316
3133.3054714705922,2377
3135.0049725679282,2478
3136.7041865028714,2367
3138.4031135933465,2284
3140.101754157353,2344
3141.800108512971,2303
3143.498176978357,2299
3145.1959598717494,2297
3146.8934575114636,2342
3148.5906702158954,2308
3150.2875983035183,2356
3151.9842420928853,2330
3153.680601902627,2425
3155.376678051456,2382
3157.07247085816,2345
3158.767980641609,2350
3160.463207720748,2357
3162.158152414606,2281
3163.8528150422862,2304
3165.5471959229726,2295
3167.2412953759303,2409
3168.9351137204976,2329
3170.628651276098,2348
3172.3219083622307,2476
3174.014885298474,2423
3175.707582404485,2381
3177.4000000000005,2427
3179.092138404835,2298
3180.7839979388846,2403
3182.47557892212,2315
3184.166881674594,2519
3185.8579065164386,2316
3187.5486537678626,2319
3189.2391237491547,2279
3190.9293167806827,2347
3192.6192331828934,2342
3194.3088732763117,2389
3195.998237381542,2347
3197.687325819268,2357
3199.376138910251,2332
3201.064676975334,2423
3202.7529403354347,2380
3204.4409293115523,2247
3206.1286442247647,2287
3207.816085396229,2252
3209.5032531471825,2341
3211.190147798936,2351
3212.8767696728846,2237
3214.5631190905015,2202
3216.2491963733373,2329
3217.9350018430214,2318
3219.6205358212637,2224
3221.305798629851,2290
3222.990790590651,2234
3224.6755120256103,2239
3226.359963256751,2220
3228.0441446061795,2218
3229.7280563960758,2330
3231.411698948703,2274
3233.0950725863995,2258
3234.778177631587,2319
3236.461014406761,2335
3238.1435832345005,2316
3239.8258844374595,2306
3241.507918338374,2317
3243.1896852600576,2337
3244.8711855254023,2299
3246.552419457381,2270
3248.233387379042,2296
3249.914089613516,2325
3251.59452648401,2348
3253.274698313813,2255
3254.95460542629,2267
3256.6342481448855,2283
3258.313626793125,2265
3259.9927416946084,2235
3261.6715931730196,2205
3263.3501815521176,2278
3265.0285071557437,2203
3266.706570307815,2233
3268.3843713323286,2232
3270.0619105533615,2268
3271.739188295068,2210
3273.4162048816834,2302
3275.0929606375184,2385
3276.769455886966,2289
3278.445690954498,2340
3280.1216661646613,2303
3281.797381842087,2368
3283.4728383114807,2293
3285.1480358976296,2275
3286.8229749253996,2155
3288.4976557197333,2243
3290.172078605655,2229
3291.846243908266,2209
3293.5201519527463,2228
3295.193803064357,2252
3296.8671975684374,2240
3298.5403357904024,2265
3300.21321805575,2267
3301.8858446900567,2282
3303.558216018975,2263
3305.23033236824,2297
3306.9021940636603,2230
3308.57380143113,2248
3310.2451547966184,2343
3311.916254486174,2347
3313.5871008259246,2316
3315.2576941420766,2219
3316.9280347609147,2268
3318.5981230088046,2253
3320.2679592121895,2224
3321.9375436975924,2225
3323.606876791612,2245
3325.27595882093,2225
3326.944790112305,2175
3328.6133709925753,2169
3330.2817017886573,2255
3331.949782827547,2233
3333.617614436319,2252
3335.2851969421245,2193
3336.952530672199,2420
3338.619615953853,2358
3340.286453114475,2248
3341.9530424815357,2290
3343.619384382583,2368
3345.2854791452437,2214
3346.951327097224,2282
3348.6169285663073,2256
3350.2822838803577,2279
3351.947393367319,2223
3353.61225735521,2325
3355.2768761721345,2283
3356.9412501462693,2270
3358.605379605873,2221
3360.2692648792827,2209
3361.9329062949146,2279
3363.596304181263,2218
