CollectionTime,7/9/2024 11:54:22 AM
ExposureUsed,3
CalibratedSpectrum
-962.7078968117929,3345
-959.9714848408522,3546
-957.2358232597828,3663
-954.5009119013725,3627
-951.7667505983302,3589
-949.0333391832855,3615
-946.3006774887896,3656
-943.5687653473143,3609
-940.837602591253,3735
-938.1071890529199,3685
-935.3775245645503,3610
-932.6486089583007,3797
-929.9204420662485,3743
-927.1930237203925,3822
-924.4663537526524,3713
-921.7404319948689,3738
-919.0152582788041,3689
-916.2908324361409,3750
-913.5671542984834,3690
-910.8442236973568,3781
-908.1220404642074,3682
-905.4006044304027,3752
-902.679915427231,3796
-899.959973285902,3692
-897.2407778375464,3753
-894.5223289132158,3738
-891.8046263438832,3748
-889.0876699604426,3732
-886.3714595937089,3720
-883.6559950744183,3776
-880.9412762332282,3825
-878.2273029007168,3800
-875.5140749073835,3783
-872.8015920836489,3742
-870.0898542598545,3752
-867.3788612662631,3843
-864.6686129330585,3790
-861.9591090903457,3760
-859.2503495681506,3895
-856.5423341964203,3878
-853.8350628050229,4018
-851.1285352237478,3921
-848.4227512823054,3884
-845.7177108103272,3875
-843.0134136373656,3852
-840.3098595928943,3824
-837.6070485063082,3900
-834.9049802069229,3963
-832.2036545239757,3853
-829.5030712866244,3974
-826.8032303239481,4012
-824.1041314649472,3983
-821.4057745385428,3956
-818.7081593735775,3945
-816.0112857988148,3980
-813.3151536429393,3986
-810.6197627345566,3985
-807.9251129021936,3984
-805.2312039742981,3938
-802.5380357792392,3953
-799.8456081453069,3944
-797.1539209007124,4032
-794.462973873588,3905
-791.772766891987,4023
-789.083299783884,4039
-786.3945723771743,4017
-783.7065844996748,3991
-781.0193359791231,4117
-778.3328266431781,4168
-775.6470563194197,4045
-772.9620248353489,4056
-770.2777320183878,4174
-767.5941776958798,4045
-764.9113616950891,4061
-762.2292838432011,4067
-759.5479439673222,4075
-756.8673418944801,4104
-754.1874774516235,4038
-751.5083504656222,4070
-748.8299607632671,4214
-746.15230817127,4239
-743.475392516264,4139
-740.7992136248035,4089
-738.1237713233636,4132
-735.4490654383407,4156
-732.7750957960521,4201
-730.1018622227365,4136
-727.4293645445534,4116
-724.7576025875837,4173
-722.0865761778291,4237
-719.4162851412126,4157
-716.7467293035781,4113
-714.0779084906909,4231
-711.409822528237,4243
-708.7424712418238,4203
-706.0758544569796,4247
-703.4099719991541,4402
-700.7448236937178,4252
-698.0804093659622,4363
-695.4167288411002,4365
-692.7537819442656,4264
-690.0915685005134,4313
-687.4300883348199,4362
-684.7693412720819,4344
-682.1093271371178,4313
-679.4500457546669,4384
-676.7914969493897,4529
-674.1336805458676,4449
-671.4765963686034,4401
-668.8202442420206,4377
-666.1646239904642,4416
-663.5097354382001,4365
-660.8555784094151,4485
-658.2021527282176,4453
-655.5494582186366,4477
-652.8974947046223,4482
-650.2462620100463,4468
-647.5957599587009,4563
-644.9459883742998,4414
-642.2969470804776,4513
-639.6486359007902,4644
-637.0010546587141,4542
-634.3542031776476,4523
-631.7080812809096,4542
-629.0626887917401,4575
-626.4180255333008,4564
-623.7740913286734,4624
-621.1308860008619,4660
-618.4884093727904,4542
-615.8466612673046,4529
-613.2056415071715,4696
-610.5653499150785,4581
-607.9257863136347,4676
-605.28695052537,4641
-602.6488423727357,4611
-600.0114616781036,4697
-597.3748082637674,4723
-594.7388819519412,4685
-592.1036825647604,4547
-589.4692099242818,4825
-586.8354638524829,4654
-584.2024441712624,4812
-581.5701507024403,4729
-578.9385832677575,4771
-576.3077416888759,4778
-573.6776257873787,4644
-571.0482353847704,4716
-568.4195703024757,4849
-565.7916303618415,4769
-563.164415384135,4781
-560.5379251905453,4885
-557.9121596021815,4842
-555.2871184400748,4765
-552.6628015251767,4790
-550.0392086783606,4745
-547.4163397204204,4820
-544.794194472071,4752
-542.1727727539491,4808
-539.5520743866118,4950
-536.9320991905377,4849
-534.3128469861261,4969
-531.6943175936979,4869
-529.0765108334947,4925
-526.4594265256793,4959
-523.8430644903358,5048
-521.2274245474689,5243
-518.612506517005,5317
-515.9983102187913,5353
-513.3848354725959,5361
-510.77208209810846,5339
-508.16004991493924,5460
-505.5487387426199,5436
-502.9381484006032,5727
-500.3282787082628,5825
-497.71912948489364,5783
-495.1107005497117,5706
-492.5029917218539,5706
-489.8960028203786,5463
-487.28973366426493,5366
-484.68418407241325,5471
-482.07935386364494,5253
-479.47524285670266,5198
-476.87185087025,5011
-474.2691777228715,5126
-471.66722323307334,5254
-469.0659872192821,5168
-466.4654694998459,5136
-463.86566989303384,5289
-461.26658821703614,5231
-458.66822428996414,5286
-456.07057792985,5193
-453.4736489546475,5242
-450.877437182231,5121
-448.28194243039627,5172
-445.68716451686,5251
-443.09310325926003,5303
-440.49975847515555,5133
-437.9071299820263,5127
-435.31521759727354,5070
-432.72402113821954,5123
-430.13354042210767,5057
-427.5437752661022,5073
-424.95472548728867,5120
-422.36639090267386,5172
-419.7787713291855,5271
-417.1918665836721,5192
-414.60567648290385,5142
-412.0202008435715,5198
-409.4354394822874,5411
-406.8513922155845,5397
-404.26805885991723,5369
-401.685439231661,5417
-399.103533147112,5265
-396.522340422488,5283
-393.9418608739278,5204
-391.3620943174908,5149
-388.7830405691583,5086
-386.2046994448317,4746
-383.6270707603344,4518
-381.05015433141045,4108
-378.473949973725,3667
-375.8984575028645,3348
-373.32367673433623,2989
-370.74960748356875,2588
-368.1762495659117,2140
-365.60360279663576,1730
-363.03166699093265,1313
-360.4604419639154,1139
-357.8899275306178,898
-355.32012350599507,760
-352.7510297049233,654
-350.1826459421999,617
-347.61497203254316,533
-345.04800779059235,521
-342.4817530309082,552
-339.91620756797226,529
-337.35137121618743,508
-334.7872437898774,540
-332.22382510328725,570
-329.66111497058273,530
-327.09911320585127,504
-324.53781962310075,492
-321.9772340362607,518
-319.4173562591816,525
-316.8581861056348,506
-314.2997233893127,508
-311.7419679238294,510
-309.1849195227194,528
-306.62857799943856,567
-304.0729431673641,585
-301.51801483979375,596
-298.963792829947,547
-296.41027695096386,579
-293.85746701590574,626
-291.3053628377552,593
-288.7539642294155,589
-286.2032710037115,575
-283.65328297338897,594
-281.1039999511146,643
-278.5554217494762,659
-276.007548180983,583
-273.4603790580651,624
-270.9139141930734,629
-268.3681533982807,624
-265.8230964858798,701
-263.27874326798565,717
-260.7350935566336,638
-258.1921471637804,718
-255.6499039013039,744
-253.10836358100266,669
-250.56752601459698,655
-248.02739101372765,669
-245.48795838995704,738
-242.94922795476816,688
-240.41119951956557,667
-237.8738728956746,704
-235.33724789434166,731
-232.80132432673452,720
-230.2661020039418,653
-227.73158073697357,698
-225.19776033676033,772
-222.66464061415422,802
-220.1322213799284,704
-217.60050244477725,676
-215.06948361931552,697
-212.53916471408013,742
-210.00954553952818,760
-207.48062590603843,784
-204.9524056239104,742
-202.4248845033651,811
-199.8980623545441,807
-197.37193898751036,738
-194.84651421224817,778
-192.32178783866232,752
-189.79775967657952,900
-187.27442953574644,923
-184.7517972258321,896
-182.2298625564256,818
-179.7086253370378,798
-177.18808537710026,806
-174.66824248596583,803
-172.14909647290835,885
-169.6306471471229,901
-167.11289431772548,840
-164.59583779375328,860
-162.07947738416453,878
-159.5638128978386,1040
-157.04884414357605,1147
-154.53457093009854,1284
-152.02099306604828,1273
-149.50811035998936,1019
-146.99592262040665,1018
-144.48442965570587,1294
-141.97363127421409,1464
-139.46352728417958,1609
-136.95411749377126,1949
-134.44540171107985,1714
-131.93737974411636,1236
-129.43005140081357,950
-126.92341648902493,1194
-124.41747481652521,1957
-121.91222619101006,3242
-119.40767042009657,4319
-116.90380731132257,4470
-114.40063667214702,3959
-111.8981583099503,4140
-109.3963720320337,4159
-106.89527764561933,3640
-104.39487495785067,2443
-101.89516377579241,2474
-99.39614390642998,3732
-96.89781515667039,5508
-94.40017733334128,5944
-91.90323024319173,6080
-89.40697369289148,6849
-86.91140748903172,7586
-84.41653143812482,6858
-81.92234534660395,4475
-79.42884902082358,3206
-76.93604226705907,5286
-74.4439248915071,9708
-71.95249670028534,14430
-69.46175749943245,16325
-66.97170709490854,14923
-64.48234529259423,13050
-61.99367189829195,11935
-59.50568671772464,9677
-57.01838955653636,8204
-54.53178022029283,8794
-52.045858514480074,10468
-49.560624244506016,11774
-47.07607721569923,13177
-44.59221723330904,12633
-42.10904410250669,13380
-39.62655762838392,12596
-37.14475761595372,11968
-34.66364387015028,12428
-32.18321619582866,12101
-29.70347439776515,12278
-27.224418280657005,13155
-24.74604764912317,14337
-22.26836230770266,21273
-19.7913620608565,41367
-17.315046712966478,65040
-14.83941606833514,65040
-12.36446993118659,65040
-9.89020810566592,65040
-7.416630395839093,65040
-4.94373660569363,65040
-2.471526539137585,65040
-6.821210263296962E-13,65040
2.47084320796705,65040
4.941003281093458,65040
7.410480415786196,65040
9.879274808531363,65040
12.347386655893956,65040
14.814816154518212,65040
17.28156350112681,65040
19.74762889252179,65040
22.21301252558385,65040
24.67771459727237,21820
27.141735304626195,4623
29.605074844762612,3132
32.06773341487792,2971
34.52971121224755,3005
36.99100843422559,2783
39.45162527824516,2299
41.91156194181792,2127
44.370818622535126,1729
46.82939551806646,1488
49.287292826160524,1555
51.74451074464503,1575
54.201049471426245,1468
56.65690920448981,1534
59.112090141899785,1451
61.56659248179983,1275
64.02041642241159,1195
66.4735621620365,1214
68.92602989905402,1416
71.37781983192338,1529
73.82893215918205,1619
76.27936707944684,1630
78.72912479141326,1522
81.17820549385567,1409
83.62660938562783,1391
86.07433666566146,1384
88.5213875329681,1078
90.96776218663751,1045
93.41346082583925,1097
95.85848364982041,1157
98.30283085790859,1226
100.7465026495089,1387
103.18949922410604,1344
105.63182078126385,1299
108.07346752062438,1500
110.51443964190923,1301
112.95473734491827,1192
115.39436082953114,1119
117.83331029570547,1114
120.27158594347827,1115
122.7091879729652,1130
125.1461165843615,1181
127.58237197794062,1186
130.01795435405518,1103
132.4528639131364,1173
134.88710085569494,1261
137.32066538231982,1197
139.75355769367923,1028
142.1857779905207,987
144.61732647366978,1104
147.04820334403132,1117
149.47840880258934,1249
151.90794305040674,1333
154.33680628862487,1551
156.76499871846443,1819
159.19252054122433,2234
161.61937195828352,2700
164.04555317109896,3052
166.47106438120693,3693
168.89590579022217,4109
171.320077599839,4586
173.7435800118302,4935
176.16641322804742,5222
178.58857745042144,5655
181.01007288096173,6125
183.43089972175687,6491
185.85105817497413,6871
188.27054844285988,7158
190.6893707277394,7480
193.10752523201643,7812
195.5250121581745,8062
197.9418317087751,8188
200.3579840864594,8349
202.7734694939469,8433
205.18828813403627,8592
207.6024402096051,8625
210.01592592360964,8772
212.42874547908548,8774
214.84089907914665,8819
217.2523869269868,8730
219.66320922587727,8940
222.0733661791695,8867
224.48285799029293,8945
226.8916848627572,8956
229.29984700014882,9097
231.7073446061355,9105
234.11417788446204,9075
236.520347038953,9015
238.92585227351185,9093
241.33069379212054,9259
243.73487179884035,9351
246.1383864978112,9243
248.541238093252,9353
250.9434267894609,9286
253.34495279081432,9354
255.74581630176783,9326
258.1460175268563,9423
260.54555667069314,9338
262.9444339379703,9097
265.3426495334594,9192
267.7402036620107,9134
270.1370965285529,9194
272.53332833809407,9070
274.9288992957214,9096
277.32380960660055,8744
279.718059475976,8905
282.1116491091717,8975
284.5045787115897,8812
286.89684848871195,8777
289.2884586460981,8835
291.67940938938807,8941
294.0697009242996,9159
296.4593334566299,8999
298.84830719225477,8986
301.23662233712923,8898
303.6242790972866,8923
306.01127767884,8977
308.39761828798066,8815
310.78330113097934,9001
313.16832641418534,8919
315.5526943440269,8748
317.9364051270112,8762
320.3194589697242,8852
322.70185607883093,9149
325.0835966610754,8753
327.4646809232805,8793
329.8451090723478,8818
332.2248813152577,8593
334.6039978590701,8797
336.9824589109231,8726
339.36026467803447,8685
341.7374153677,8695
344.113911187295,8719
346.48975234427337,8836
348.8649390461686,8783
351.2394715005918,8841
353.61334991523415,8814
355.9865744978655,8713
358.35914545633375,8881
360.73106299856715,8838
363.10232733257146,8845
365.47293866643247,8878
367.84289720831396,8862
370.2122031664593,8934
372.5808567491905,8908
374.9488581649083,8969
377.31620762209275,8768
379.6829053293021,8872
382.0489514951745,8873
384.4143463284262,8807
386.7790900378528,8661
389.14318283232853,8718
391.50662492080653,8698
393.86941651231916,8837
396.23155781597745,8850
398.5930490409713,8752
400.9538903965696,8700
403.3140820921202,8822
405.6736243370498,8821
408.03251734086336,8942
410.3907613131465,8852
412.74835646356166,8874
415.10530300185144,8815
417.4616011378372,8956
419.81725108141893,8708
422.1722530425758,8852
424.5266072313656,8798
426.880313857925,8976
429.2333731324701,8849
431.58578526529516,8903
433.9375504667738,8847
436.2886689473588,8648
438.63914091758113,8856
440.9889665880513,8714
443.33814616945835,8765
445.68667987257015,8661
448.03456790823395,8622
450.3818104873759,8680
452.72840782100013,8655
455.07436012019105,8888
457.41966759611057,8894
459.7643304600007,9046
462.10834892318155,9042
464.4517231970525,8817
466.79445349309174,9041
469.1365400228566,8965
471.4779829979826,9049
473.81878263018564,8752
476.15893913125876,8757
478.4984527130747,8654
480.8373235875855,8873
483.17555196682144,9095
485.5131380628919,9145
487.8500820879857,9216
490.1863842543697,9291
492.52204477439034,9441
494.8570638604725,9713
497.1914417251204,9901
499.52517858091653,10339
501.85827464052306,10447
504.19073011668036,10484
506.5225452222086,10238
508.85372017000566,10204
511.18425517304956,10360
513.514150444396,10537
515.8434061971808,11199
518.1720226446176,12282
520.4999999999999,12275
522.8273384766991,12067
525.1540382881666,11541
527.480099647932,11144
529.8055227696037,10489
532.1303078668694,9769
534.454455153496,9442
536.777964843328,9386
539.1008371502907,9471
541.4230722883866,9207
543.744670471698,9307
546.0656319143858,9301
548.3859568306899,9282
550.7056454349294,9223
553.0246979415016,9273
555.3431145648834,9159
557.6608955196306,9185
559.978041020377,9051
562.2945512818363,9207
564.6104265188006,9386
566.9256669461412,9250
569.2402727788082,9322
571.5542442318302,9229
573.8675815203156,9445
576.1802848594508,9267
578.4923544645015,9356
580.8037905508126,9437
583.114593333807,9463
585.4247630289875,9484
587.7342998519354,9394
590.0432040183106,9416
592.3514757438526,9562
594.6591152443794,9438
596.9661227357875,9365
599.2724984340531,9537
601.578242555231,9493
603.8833553154542,9387
606.1878369309362,9502
608.4916876179676,9327
610.7949075929192,9341
613.0974970722403,9507
615.3994562724587,9622
617.7007854101818,9452
620.0014847020951,9476
622.3015543649641,9374
624.6009946156324,9451
626.8998056710224,9511
629.1979877481361,9499
631.4955410640538,9450
633.7924658359349,9571
636.0887622810175,9528
638.3844306166192,9359
640.6794710601358,9663
642.9738838290426,9576
645.2676691408932,9724
647.5608272133207,9386
649.853358264037,9707
652.1452625108324,9558
654.4365401715764,9411
656.7271914642178,9568
659.0172166067838,9685
661.3066158173809,9731
663.5953893141935,9844
665.8835373154867,9629
668.1710600396028,9741
670.4579577049639,9699
672.7442305300709,9778
675.0298787335033,9843
677.3149025339197,9838
679.599302150058,9698
681.8830778007342,9812
684.1662297048437,9717
686.4487580813608,9660
688.7306631493387,9964
691.0119451279091,9857
693.2926042362834,9708
695.5726406937516,9890
697.8520547196814,9866
700.1308465335215,9698
702.4090163547982,9924
704.6865644031171,9718
706.9634908981619,9722
709.2397960596965,9681
711.5154801075631,9695
713.7905432616823,9915
716.0649857420548,9909
718.3388077687592,9830
720.612009561953,9912
722.8845913418733,9836
725.1565533288352,9894
727.427895743234,10013
729.6986188055427,9772
731.9687227363137,9829
734.238207756178,9900
736.5070740858458,9917
738.7753219461066,9797
741.0429515578281,10057
743.3099631419569,9814
745.5763569195191,9935
747.8421331116193,10048
750.1072919394409,9913
752.3718336242467,9999
754.6357583873777,9946
756.8990664502545,9920
759.1617580343765,9866
761.423833361321,9952
763.6852926527457,9932
765.9461361303862,9952
768.206364016058,10013
770.4659765316536,9755
772.7249738991469,10002
774.9833563405886,10049
777.2411240781092,9925
779.4982773339183,9832
781.7548163303044,10068
784.010741289634,9979
786.2660524343538,10227
788.5207499869881,10260
790.7748341701416,9976
793.0283052064964,9991
795.2811633188143,10185
797.5334087299362,10069
799.7850416627813,10061
802.0360623403484,10356
804.2864709857143,10148
806.5362678220353,10234
808.7854530725468,10238
811.0340269605625,10206
813.2819897094754,10226
815.5293415427581,10243
817.77608268396,10281
820.0222133567116,10128
822.2677337847211,10255
824.5126441917765,10354
826.7569448017433,10204
829.0006358385675,10273
831.2437175262731,10139
833.4861900889629,10315
835.7280537508192,10134
837.9693087361026,10316
840.2099552691533,10136
842.4499935743896,10324
844.689423876309,10123
846.9282463994886,10353
849.1664613685833,10184
851.4040690083276,10215
853.6410695435349,10156
855.877463199097,10371
858.1132501999847,10282
860.3484307712487,10195
862.5830051380175,10299
864.8169735254988,10417
867.0503361589791,10403
869.2830932638243,10220
871.5152450654786,10353
873.7467917894654,10261
875.9777336613873,10643
878.2080709069252,10308
880.4378037518389,10337
882.666932421968,10625
884.8954571432301,10478
887.1233781416219,10515
889.3506956432192,10488
891.5774098741766,10479
893.803521060728,10590
896.0290294291852,10493
898.2539352059397,10564
900.4782386174619,10640
902.7019398903011,10602
904.925039251085,10520
907.147536926521,10468
909.3694331433943,10597
911.59072812857,10495
913.8114221089921,10446
916.0315153116827,10558
918.2510079637437,10544
920.4699002923547,10474
922.6881925247761,10292
924.905884888345,10421
927.1229776104793,10422
929.3394709186747,10425
931.555365040506,10200
933.7706602036275,10539
935.9853566357709,10293
938.1994545647489,10407
940.4129542184515,10489
942.6258558248488,10409
944.8381596119883,10294
947.0498658079974,10405
949.2609746410825,10541
951.4714863395287,10518
953.6814011316998,10561
955.8907192460387,10593
958.0994409110671,10574
960.3075663553858,10385
962.5150958076741,10391
964.7220294966913,10360
966.928367651274,10362
969.1341105003388,10639
971.3392582728806,10649
973.5438111979742,10577
975.747769504772,10519
977.9511334225061,10560
980.153903180487,10578
982.3560790081052,10479
984.5576611348289,10611
986.7586497902058,10285
988.9590452038618,10479
991.158847605503,10635
993.3580572249133,10441
995.5566742919558,10457
997.7546990365728,10364
999.952131688785,10589
1002.1489724786926,10413
1004.3452216364743,10295
1006.5408793923874,10376
1008.7359459767691,10347
1010.9304216200343,10219
1013.1243065526781,10359
1015.3176010052733,10300
1017.510305208472,10337
1019.7024193930064,10356
1021.8939437896848,10233
1024.0848786293977,10235
1026.2752241431122,10263
1028.4649805618747,10319
1030.6541481168115,10133
1032.842727039127,10376
1035.0307175601051,10320
1037.2181199111074,10281
1039.4049343235752,10197
1041.591161029029,10320
1043.7768002590683,10528
1045.9618522453698,10275
1048.1463172196918,10427
1050.3301954138697,10476
1052.513487059818,10624
1054.69619238953,10412
1056.8783116350783,10289
1059.0598450286152,10428
1061.2407928023704,10391
1063.4211551886528,10409
1065.6009324198508,10668
1067.780124728432,10528
1069.9587323469414,10609
1072.1367555080046,10424
1074.314194444325,10328
1076.4910493886855,10485
1078.667320573947,10268
1080.843008233051,10424
1083.0181125990161,10492
1085.1926339049414,10301
1087.3665723840027,10335
1089.5399282694575,10238
1091.7127017946405,10283
1093.8848931929647,10362
1096.0565026979243,10292
1098.2275305430899,10310
1100.3979769621128,10407
1102.567842188722,10331
1104.737126456726,10389
1106.9058300000124,10431
1109.0739530525475,10480
1111.2414958483764,10510
1113.4084586216231,10473
1115.5748416064907,10328
1117.7406450372605,10577
1119.9058691482942,10465
1122.0705141740304,10464
1124.2345803489884,10574
1126.3980679077658,10497
1128.5609770850388,10453
1130.7233081155623,10458
1132.8850612341707,10667
1135.0462366757774,10470
1137.2068346753745,10457
1139.3668554680326,10479
1141.526299288901,10261
1143.68516637321,10594
1145.8434569562655,10458
1148.001171273455,10519
1150.158309560244,10486
1152.3148720521767,10384
1154.470858984876,10569
1156.626270594044,10517
1158.7811071154629,10519
1160.9353687849912,10510
1163.089055838569,10416
1165.242168512213,10574
1167.3947070420209,10490
1169.5466716641677,10518
1171.6980626149075,10461
1173.8488801305748,10412
1175.9991244475814,10655
1178.1487958024186,10384
1180.2978944316555,10244
1182.4464205719428,10441
1184.5943744600072,10545
1186.7417563326567,10319
1188.8885664267755,10398
1191.0348049793297,10558
1193.1804722273619,10461
1195.325568407995,10399
1197.4700937584303,10481
1199.614048515948,10635
1201.7574329179074,10440
1203.900247201746,10503
1206.042491604982,10687
1208.1841663652099,10495
1210.3252717201053,10545
1212.465807907422,10611
1214.6057751649923,10691
1216.7451737307279,10706
1218.8840038426192,10814
1221.0222657387353,10687
1223.1599596572241,10652
1225.2970858363137,10688
1227.4336445143094,10804
1229.5696359295966,10767
1231.705060320639,10698
1233.8399179259786,10729
1235.9742089842384,10765
1238.107933734118,10757
1240.2410924143974,10926
1242.373685263935,10836
1244.5057125216676,10768
1246.6371744266116,10736
1248.7680712178621,10609
1250.898403134593,10769
1253.028170416058,10667
1255.1573733015875,10771
1257.2860120305932,10795
1259.4140868425648,10804
1261.54159797707,10639
1263.6685456737569,10753
1265.7949301723515,10801
1267.9207517126597,10783
1270.046010534565,10799
1272.1707068780306,10538
1274.2948409830983,10729
1276.4184130898889,10809
1278.541423438603,10677
1280.6638722695184,10845
1282.785759822993,10673
1284.9070863394636,10864
1287.0278520594447,10969
1289.1480572235314,10881
1291.2677020723963,11092
1293.3867868467923,10936
1295.5053117875495,10921
1297.623277135579,10981
1299.740683131868,11012
1301.8575300174857,11121
1303.973818033578,11097
1306.0895474213703,10987
1308.2047184221678,11187
1310.3193312773528,11100
1312.4333862283888,11184
1314.5468835168163,11027
1316.659823384255,11235
1318.7722060724045,11123
1320.8840318230418,11075
1322.9953008780249,11122
1325.1060134792888,11218
1327.2161698688478,10909
1329.3257702887959,11111
1331.4348149813054,11351
1333.5433041886276,11134
1335.6512381530933,11117
1337.7586171171101,10969
1339.8654413231675,11002
1341.9717110138317,11020
1344.0774264317488,10988
1346.1825878196432,11146
1348.2871954203192,11071
1350.3912494766587,11114
1352.4947502316231,11061
1354.5976979282532,11152
1356.7000928096686,11063
1358.8019351190665,11068
1360.9032250997243,10898
1363.0039629949988,11160
1365.1041490483235,11089
1367.2037835032133,11268
1369.3028666032606,11250
1371.401398592137,11277
1373.4993797135926,11197
1375.5968102114575,11333
1377.6936903296396,11115
1379.7900203121262,11423
1381.8858004029835,11220
1383.9810308463561,11503
1386.075711886469,11282
1388.1698437676241,11339
1390.2634267342032,11401
1392.356461030667,11271
1394.4489469015557,11347
1396.5408845914872,11372
1398.6322743451592,11418
1400.7231164073469,11327
1402.813411022907,11326
1404.903158436773,11415
1406.9923588939578,11507
1409.0810126395531,11473
1411.1691199187303,11331
1413.2566809767386,11368
1415.343696058907,11243
1417.4301654106425,11508
1419.5160892774315,11354
1421.6014679048399,11483
1423.6863015385125,11433
1425.7705904241707,11464
1427.8543348076178,11388
1429.9375349347342,11384
1432.0201910514802,11477
1434.102303403894,11366
1436.1838722380944,11349
1438.2648978002767,11767
1440.3453803367174,11585
1442.4253200937692,11682
1444.5047173178677,11626
1446.5835722555234,11793
1448.6618851533285,11656
1450.739656257952,11614
1452.8168858161434,11689
1454.8935740747306,11697
1456.96972128062,11865
1459.045327680797,11821
1461.120393522327,11942
1463.1949190523528,11926
1465.2689045180973,12094
1467.3423501668608,11889
1469.415256246024,12350
1471.4876230030463,12031
1473.559450685465,12176
1475.6307395408976,12193
1477.7014898170391,12374
1479.771701761665,12300
1481.8413756226287,12564
1483.9105116478618,12439
1485.9791100853772,12746
1488.0471711832643,12518
1490.1146951896926,12673
1492.1816823529098,12634
1494.2481329212433,12724
1496.3140471430984,12674
1498.3794252669609,12642
1500.4442675413939,12743
1502.5085742150404,12799
1504.572345536622,13018
1506.6355817549388,12896
1508.6982831188702,12916
1510.7604498773744,12809
1512.8220822794883,12953
1514.8831805743293,12852
1516.9437450110909,12865
1519.003775839048,13213
1521.0632733075522,13256
1523.1222376660367,13319
1525.1806691640113,13381
1527.2385680510652,13296
1529.2959345768668,13279
1531.3527689911643,13462
1533.4090715437833,13670
1535.4648424846291,13637
1537.5200820636855,13568
1539.5747905310159,13805
1541.6289681367616,13883
1543.6826151311434,13823
1545.7357317644614,13875
1547.7883182870937,14030
1549.8403749494987,13938
1551.8919020022113,14066
1553.9428996958477,14194
1555.9933682811015,14176
1558.0433080087469,14172
1560.0927191296346,14249
1562.1416018946961,14171
1564.1899565549415,14338
1566.2377833614592,14499
1568.2850825654164,13982
1570.3318544180606,14361
1572.3780991707158,13990
1574.423817074788,13915
1576.4690083817595,13651
1578.5136733431923,13647
1580.5578122107272,13571
1582.601425236085,13150
1584.6445126710646,12821
1586.6870747675434,12729
1588.7291117774776,12541
1590.7706239529034,12529
1592.8116115459347,12436
1594.8520748087658,12348
1596.8920139936686,11970
1598.9314293529933,12007
1600.9703211391711,11851
1603.008689604711,11985
1605.0465350022005,11881
1607.0838575843068,11930
1609.1206576037753,11844
1611.1569353134305,11903
1613.1926909661765,11647
1615.2279248149953,11561
1617.2626371129481,11663
1619.2968281131757,11525
1621.3304980688963,11580
1623.3636472334088,11567
1625.39627586009,11501
1627.428384202396,11652
1629.459972513861,11627
1631.4910410480993,11592
1633.5215900588028,11552
1635.551619799744,11496
1637.5811305247717,11597
1639.6101224878166,11315
1641.6385959428862,11370
1643.6665511440683,11430
1645.693988345528,11372
1647.7209078015112,11742
1649.7473097663405,11508
1651.7731944944203,11560
1653.7985622402307,11425
1655.823413258333,11362
1657.847747803366,11461
1659.8715661300494,11156
1661.8948684931793,11235
1663.9176551476316,11417
1665.9399263483624,11387
1667.9616823504057,11248
1669.982923408873,11380
1672.0036497789574,11450
1674.0238617159293,11375
1676.043559475138,11257
1678.0627433120121,11300
1680.081413482059,11257
1682.0995702408654,11345
1684.117213844096,11376
1686.134344547495,11264
1688.1509626068864,11140
1690.1670682781705,11374
1692.182661817329,11369
1694.1977434804217,11155
1696.2123135235875,11219
1698.226372203043,11206
1700.2399197750851,11246
1702.2529564960905,11368
1704.2654826225112,11378
1706.277498410882,11369
1708.2890041178139,11408
1710.2999999999988,11179
1712.3104863142066,11369
1714.3204633172854,11399
1716.329931266163,11313
1718.3388904178469,11301
1720.3473410294214,11227
1722.3552833580516,11167
1724.3627176609807,11314
1726.3696441955308,11548
1728.3760632191033,11440
1730.3819749891782,11279
1732.3873797633146,11218
1734.3922777991502,11384
1736.3966693544012,11225
1738.4005546868639,11257
1740.4039340544127,11234
1742.406807715001,11172
1744.4091759266616,11354
1746.4110389475054,11269
1748.4123970357223,10999
1750.413250449582,11367
1752.4135994474318,11196
1754.4134442876993,11265
1756.4127852288902,11333
1758.4116225295893,11032
1760.4099564484595,11307
1762.407787244244,11262
1764.405115175764,11289
1766.4019405019203,11193
1768.3982634816916,11388
1770.3940843741357,10943
1772.3894034383907,11115
1774.3842209336717,11081
1776.378537119274,11172
1778.372352254571,11182
1780.3656665990156,11331
1782.3584804121397,11083
1784.3507939535534,11427
1786.3426074829463,11153
1788.3339212600863,11147
1790.3247355448211,11299
1792.3150505970766,11244
1794.3048666768573,11044
1796.2941840442477,11055
1798.2830029594106,11081
1800.2713236825884,11138
1802.2591464741004,11094
1804.2464715943465,11210
1806.2332993038058,11285
1808.2196298630352,11464
1810.2054635326708,11256
1812.190800573428,11155
1814.175641246101,11396
1816.1599858115628,11122
1818.1438345307652,11212
1820.127187664738,11249
1822.1100454745924,11332
1824.092408221516,11292
1826.0742761667766,11141
1828.055649571721,11331
1830.0365286977735,11351
1832.0169138064398,11202
1833.9968051593014,11314
1835.9762030180214,11374
1837.9551076443408,10959
1839.9335193000788,11081
1841.9114382471344,11056
1843.888864747485,11126
1845.8657990631878,11295
1847.842241456378,11301
1849.8181921892697,10971
1851.7936515241558,11219
1853.7686197234098,11109
1855.7430970494815,11161
1857.7170837649014,11068
1859.6905801322787,11138
1861.6635864143004,11122
1863.6361028737338,11119
1865.608129773424,11254
1867.5796673762961,11197
1869.5507159453537,11186
1871.521275743678,11255
1873.4913470344313,11265
1875.4609300808534,11170
1877.4300251462632,11427
1879.3986324940588,11411
1881.366752387717,11188
1883.3343850907936,11435
1885.3015308669228,11269
1887.268189979819,11584
1889.2343626932739,11344
1891.2000492711595,11448
1893.1652499774254,11316
1895.1299650761011,11293
1897.0941948312952,11216
1899.0579395071945,11450
1901.0211993680641,11345
1902.98397467825,11460
1904.9462657021745,11358
1906.9080727043415,11424
1908.869395949332,11277
1910.8302357018065,11364
1912.790592226504,11348
1914.7504657882428,11486
1916.7098566519212,11336
1918.6687650825133,11165
1920.6271913450764,11293
1922.5851357047422,11152
1924.5425984267245,11196
1926.499579776314,11338
1928.4560800188833,11429
1930.4120994198802,11412
1932.367638244833,11306
1934.32269675935,11206
1936.2772752291175,11427
1938.231373919899,11379
1940.1849930975404,11376
1942.1381330279637,11209
1944.0907939771696,11420
1946.0429762112412,11587
1947.9946799963363,11355
1949.9459055986945,11371
1951.896653284633,11324
1953.8469233205478,11291
1955.7967159729142,11362
1957.7460315082863,11253
1959.6948701932974,11381
1961.6432322946594,11463
1963.5911180791632,11428
1965.5385278136787,11302
1967.4854617651545,11368
1969.4319202006182,11400
1971.377903387176,11337
1973.3234115920136,11460
1975.268445082395,11378
1977.2130041256642,11483
1979.1570889892423,11615
1981.1006999406304,11583
1983.04383724741,11440
1984.986501177238,11452
1986.928691997853,11431
1988.8704099770712,11368
1990.811655382789,11501
1992.7524284829801,11479
1994.692729545698,11297
1996.6325588390755,11481
1998.5719166313224,11417
2000.5108031907307,11242
2002.4492187856677,11421
2004.387163684583,11545
2006.3246381560011,11347
2008.2616424685298,11201
2010.1981768908527,11306
2012.1342416917332,11417
2014.069837140014,11317
2016.0049635046162,11430
2017.9396210545406,11252
2019.8738100588666,11447
2021.8075307867502,11451
2023.740783507431,11454
2025.6735684902228,11322
2027.6058860045214,11399
2029.5377363198004,11498
2031.4691197056118,11373
2033.4000364315875,11409
2035.3304867674374,11377
2037.260470982952,11420
2039.189989347998,11222
2041.1190421325232,11419
2043.047629606554,11412
2044.9757520401945,11244
2046.9034097036288,11487
2048.8306028671195,11504
2050.7573318010086,11443
2052.683596775716,11575
2054.609398061742,11512
2056.5347359296647,11661
2058.4596106501403,11591
2060.384022493906,11509
2062.3079717317764,11616
2064.231458634646,11603
2066.1544834734873,11608
2068.077046519352,11591
2069.99914804337,11587
2071.9207883167524,11657
2073.8419676107865,11686
2075.7626861968406,11731
2077.6829443463607,11567
2079.6027423308715,11688
2081.522080421977,11790
2083.440958891362,11685
2085.359378010786,11779
2087.2773380520907,11740
2089.194839287196,11568
2091.111881988101,11698
2093.0284664268825,11595
2094.9445928756973,11659
2096.86026160678,11535
2098.775472892446,11788
2100.690227005088,11563
2102.604524217178,11781
2104.5183648012676,11744
2106.431749029985,11673
2108.34467717604,11691
2110.2571495122206,11625
2112.169166311393,11747
2114.080727846503,11929
2115.9918343905747,11781
2117.902486216711,11607
2119.8126835980956,11963
2121.722426807987,11747
2123.6317161197285,11848
2125.5405518067364,11834
2127.448934142509,12006
2129.356863400624,11779
2131.264339854737,11901
2133.1713637785815,11831
2135.077935445972,11815
2136.9840551308002,11873
2138.889723107037,12104
2140.7949396487334,11867
2142.699705030018,11875
2144.6040195250994,11938
2146.507883408264,11996
2148.4112969538774,11927
2150.3142604363848,12164
2152.2167741303097,11914
2154.1188383102535,11947
2156.0204532508997,11923
2157.9216192270064,12106
2159.822336513414,12062
2161.7226053850413,12068
2163.622426116884,11968
2165.5217989840185,12143
2167.4207242616,12102
2169.319202224862,12097
2171.2172331491165,11972
2173.1148173097563,12165
2175.0119549822507,12129
2176.90864644215,12107
2178.8048919650823,12311
2180.7006918267534,12251
2182.596046302952,12167
2184.4909556695407,12196
2186.3854202024645,12094
2188.279440177746,12174
2190.173015871487,12135
2192.066147559868,12019
2193.958835519149,12122
2195.851080025667,12281
2197.7428813558417,12327
2199.6342397861667,12290
2201.5251555932186,12168
2203.415629053651,12216
2205.3056604441986,12261
2207.19525004167,12386
2209.084398122958,12272
2210.9731049650327,12336
2212.861370844941,12470
2214.749196039812,12289
2216.636580826851,12324
2218.523525483344,12385
2220.410030286655,12441
2222.296095514226,12439
2224.1817214435805,12403
2226.066908352319,12261
2227.951656518121,12343
2229.835966218746,12272
2231.71983773203,12136
2233.6032713358913,12399
2235.486267308324,12260
2237.3688259274036,12545
2239.2509474712824,12360
2241.132632218193,12316
2243.013880446447,12171
2244.8946924344323,12345
2246.7750684606203,12334
2248.6550088035574,12289
2250.534513741871,12312
2252.413583554265,12225
2254.292218519526,12346
2256.170418916517,12298
2258.0481850241786,12263
2259.925517121534,12307
2261.8024154876825,12370
2263.678880401803,12254
2265.5549121431536,12062
2267.430510991071,12271
2269.305677224971,12156
2271.180411124348,12389
2273.0547129687766,12251
2274.9285830379076,12178
2276.8020216114737,12362
2278.6750289692845,12240
2280.5476053912294,12055
2282.4197511572766,12193
2284.2914665474727,12399
2286.162751841943,12231
2288.0336073208937,12082
2289.904033264608,12015
2291.774029953448,12086
2293.6435976678554,12204
2295.5127366883517,11998
2297.381447295534,12206
2299.2497297700825,12074
2301.1175843927526,12060
2302.9850114443825,11947
2304.852011205885,11980
2306.7185839582553,11875
2308.5847299825664,12099
2310.4504495599676,12218
2312.3157429716925,11945
2314.1806104990483,12059
2316.0450524234247,12045
2317.9090690262888,11902
2319.772660589186,12013
2321.635827393742,11740
2323.498569721661,12016
2325.3608878547248,12004
2327.2227820747967,12149
2329.0842526638157,12078
2330.945299903803,12067
2332.805924076857,11837
2334.6661254651535,12079
2336.525904350951,11839
2338.3852610165827,11922
2340.244195744464,12051
2342.102708817088,12085
2343.9608005170253,11903
2345.8184711269287,12115
2347.675720929526,11985
2349.532550207628,11916
2351.38895924412,11911
2353.24494832197,12005
2355.100517724223,11977
2356.955667734004,11983
2358.810398634514,11848
2360.664710709037,11921
2362.5186042409337,12065
2364.3720795136437,11993
2366.225136810686,11917
2368.0777764156583,11731
2369.929998612237,11837
2371.7818036841777,12100
2373.633191915315,11979
2375.484163589562,11941
2377.3347189909114,11849
2379.184858403434,11970
2381.03458211128,11895
2382.8838903986775,12206
2384.732783549936,12013
2386.5812618494406,12182
2388.4293255816588,11891
2390.2769750311327,12005
2392.1242104824883,12041
2393.971032220427,12024
2395.8174405297295,11928
2397.6634356952563,12012
2399.509018001947,12145
2401.3541877348193,11973
2403.1989451789705,11860
2405.043290619576,11932
2406.8872243418905,12021
2408.730746631247,11950
2410.5738577730594,11976
2412.4165580528183,12145
2414.258847756095,12168
2416.100727168537,12209
2417.9421965758734,12009
2419.783256263912,12197
2421.623906518538,12146
2423.4641476257157,11970
2425.303979871491,11889
2427.143403541984,12021
2428.9824189233977,11807
2430.821026302012,12028
2432.6592259641866,11979
2434.497018196361,12043
2436.33440328505,12081
2438.171381516851,11966
2440.00795317844,11933
2441.844118556569,11957
2443.6798779380724,12160
2445.5152316098606,12157
2447.3501798589255,12183
2449.1847229723357,12150
2451.0188612372403,12197
2452.8525949408663,12148
2454.6859243705203,12072
2456.518849813587,12224
2458.3513715575314,12120
2460.183489889895,12291
2462.015205098301,12053
2463.8465174704493,12145
2465.67742729412,12217
2467.5079348571717,12102
2469.338040447542,11912
2471.1677443532476,11981
2472.9970468623833,12088
2474.825948263123,12018
2476.6544488437207,12335
2478.482548892508,12028
2480.310248697896,12048
2482.137548548374,12160
2483.9644487325118,12039
2485.790949538956,11992
2487.617051256433,12161
2489.44275417375,12103
2491.26805857979,12136
2493.0929647635157,12495
2494.917473013971,12276
2496.741583620276,12404
2498.5652968716304,12321
2500.3886130573137,12186
2502.2115324666834,12370
2504.0340553891765,12088
2505.856182114308,12248
2507.6779129316733,12378
2509.499248130945,12294
2511.3201880018764,12073
2513.140732834298,12137
2514.9608829181198,12090
2516.780638543331,12121
2518.6,12186
2520.418967578273,12130
2522.237541568376,12356
2524.0557222606144,12397
2525.8735099453706,12276
2527.6909049131086,12473
2529.507907454368,12347
2531.32451785977,12102
2533.140736420014,12360
2534.9565634258774,12284
2536.771999168218,12286
2538.5870439379714,12438
2540.4016980261526,12553
2542.2159617238544,12281
2544.02983532225,12630
2545.8433191125914,12414
2547.656413386209,12442
2549.4691184345115,12481
2551.2814345489874,12501
2553.093362021204,12345
2554.904901142808,12452
2556.716052205523,12630
2558.526815501153,12462
2560.3371913215824,12552
2562.147179958771,12403
2563.956781704761,12500
2565.7659968516705,12446
2567.5748256916986,12510
2569.3832685171224,12582
2571.1913256202984,12513
2572.9989972936614,12561
2574.806283829725,12364
2576.613185521084,12511
2578.4197026604074,12635
2580.2258355404483,12424
2582.031584454035,12640
2583.836949694077,12585
2585.6419315535613,12468
2587.4465303255533,12646
2589.2507463032002,12656
2591.0545797797245,12439
2592.8580310484303,12610
2594.6611004026995,12623
2596.463788135992,12569
2598.266094541849,12685
2600.0680199138874,12637
2601.869564545807,12639
2603.670728731383,12732
2605.4715127644704,12698
2607.2719169390048,12817
2609.071941548998,12910
2610.8715868885433,12764
2612.670853251811,12710
2614.469740933052,12776
2616.268250226594,12652
2618.0663814268455,12611
2619.864134828292,12723
2621.6615107255006,12727
2623.458509413115,12588
2625.2551311858597,12836
2627.0513763385347,12629
2628.8472451660223,12582
2630.6427379632833,12536
2632.4378550253564,12550
2634.232596647359,12481
2636.026963124488,12649
2637.8209547520187,12450
2639.6145718253065,12613
2641.407814639785,12534
2643.200683490966,12706
2644.9931786744414,12631
2646.7853004858807,12506
2648.577049221034,12407
2650.3684251757277,12507
2652.1594286458712,12573
2653.9500599274484,12435
2655.740319316525,12406
2657.5302071092437,12567
2659.3197236018286,12574
2661.10886909058,12464
2662.8976438718782,12354
2664.686048242183,12476
2666.4740824980327,12540
2668.2617469360443,12670
2670.0490418529134,12590
2671.8359675454153,12491
2673.622524310403,12445
2675.408712444811,12581
2677.1945322456495,12414
2678.979984010009,12457
2680.76506803506,12245
2682.5497846180497,12403
2684.334134056306,12305
2686.1181166472343,12386
2687.9017326883213,12442
2689.6849824771293,12129
2691.4678663113013,12250
2693.2503844885596,12270
2695.032537306705,12340
2696.8143250636167,12298
2698.5957480572542,12438
2700.3768065856534,12398
2702.1575009469316,12368
2703.937831439283,12395
2705.717798360982,12239
2707.4974020103837,12277
2709.276642685917,12390
2711.055520686095,12265
2712.834036309506,12335
2714.612189854819,12374
2716.389981620782,12407
2718.1674119062204,12253
2719.944481010041,12280
2721.721189231226,12348
2723.4975368688415,11991
2725.273524222027,12181
2727.0491515900053,12291
2728.824419272075,12145
2730.5993275676146,12306
2732.3738767760838,12527
2734.148067197016,12378
2735.921899130031,12383
2737.6953728748194,12349
2739.468488731156,12335
2741.2412469988926,12255
2743.0136479779617,12336
2744.785691968372,12449
2746.5573792702116,12169
2748.3287101836504,12341
2750.099685008934,12247
2751.870304046388,12430
2753.640567596418,12396
2755.4104759595057,12176
2757.1800294362156,12303
2758.949228327187,12385
2760.7180729331412,12185
2762.486563554877,12345
2764.254700493272,12397
2766.022484049284,12302
2767.789914523947,12202
2769.5569922183786,12275
2771.3237174337705,12478
2773.090090471394,12271
2774.8561116326036,12304
2776.6217812188274,12353
2778.3870995315756,12232
2780.1520668724356,12046
2781.9166835430747,12439
2783.6809498452394,12466
2785.444866080754,12572
2787.2084325515225,12294
2788.971649559527,12446
2790.73451740683,12270
2792.4970363955713,12554
2794.2592068279705,12283
2796.0210290063264,12449
2797.7825032330147,12306
2799.543629810493,12257
2801.304409041296,12226
2803.0648412280366,12343
2804.8249266734088,12509
2806.5846656801846,12312
2808.344058551212,12296
2810.1031055894246,12372
2811.8618070978273,12436
2813.6201633795085,12467
2815.378174737636,12422
2817.1358414754536,12528
2818.893163896285,12657
2820.6501423035334,12535
2822.4067770006814,12513
2824.1630682912883,12518
2825.9190164789957,12458
2827.6746218675207,12369
2829.429884760661,12379
2831.184805462294,12600
2832.9393842763743,12525
2834.693621506936,12662
2836.4475174580916,12680
2838.201072434034,12585
2839.954286739034,12584
2841.707160677441,12674
2843.459694553685,12586
2845.2118886722724,12610
2846.96374333779,12543
2848.7152588549034,12457
2850.4664355283567,12408
2852.217273662973,12471
2853.9677735636546,12521
2855.7179355353833,12606
2857.4677598832186,12494
2859.217246912299,12483
2860.9663969278427,12592
2862.715210235146,12617
2864.4636871395846,12514
2866.211827946614,12658
2867.9596329617652,12506
2869.7071024906536,12503
2871.4542368389684,12577
2873.20103631248,12402
2874.947501217038,12355
2876.6936318585695,12427
2878.4394285430812,12493
2880.1848915766604,12390
2881.9300212654707,12493
2883.6748179157553,12445
2885.4192818338374,12554
2887.1634133261173,12563
2888.907212699077,12761
2890.6506802592744,12738
2892.393816313348,12772
2894.1366211680142,12518
2895.8790951300693,12784
2897.621238506388,12599
2899.363051603925,12613
2901.1045347297118,12516
2902.8456881908596,12659
2904.58651229456,12529
2906.327007348081,12420
2908.067173658772,12280
2909.8070115340597,12372
2911.5465212814497,12341
2913.285703208527,12447
2915.0245576229563,12386
2916.7630848324807,12267
2918.5012851449196,12399
2920.2391588681758,12310
2921.976706310227,12280
2923.7139277791334,12499
2925.4508235830313,12421
2927.187394030137,12719
2928.923639428745,12589
2930.6595600872306,12688
2932.395156314046,12611
2934.1304284177218,12652
2935.8653767068713,12681
2937.6000014901815,12848
2939.3343030764227,12542
2941.068281774442,12881
2942.8019378931644,12746
2944.5352717415976,12905
2946.2682836288236,12870
2948.0009738640065,12918
2949.7333427563885,12636
2951.465390615289,12692
2953.1971177501086,12713
2954.9285244703265,12679
2956.6596110855,12411
2958.3903779052657,12888
2960.1208252393385,12696
2961.8509533975125,12806
2963.5807626896617,12372
2965.3102534257378,12623
2967.0394259157715,12457
2968.768280469873,12594
2970.496817398232,12652
2972.2250370111146,12687
2973.952939618869,12743
2975.6805255319196,12834
2977.4077950607707,12885
2979.134748516006,12775
2980.861386208289,13073
2982.587708448359,12771
2984.313715547037,12922
2986.039407815222,12912
2987.764785563891,12881
2989.489849104102,12907
2991.2145987469908,12796
2992.9390348037705,12933
2994.6631575857346,12857
2996.3869674042576,12738
2998.1104645707887,12757
2999.83364939686,12842
3001.5565221940783,12877
3003.2790832741334,12761
3005.0013329487924,12552
3006.7232715298996,12554
3008.4448993293804,12632
3010.166216659239,13008
3011.887223831558,12584
3013.607921158498,12529
3015.3283089522993,12789
3017.0483875252826,12610
3018.7681571898443,12659
3020.4876182584626,12775
3022.2067710436927,12609
3023.9256158581707,12865
3025.644153014609,12498
3027.362382825801,12610
3029.0803056046193,12866
3030.797921664012,12789
3032.5152313170106,12831
3034.2322348767225,12670
3035.9489326563353,12846
3037.665324969115,12615
3039.3814121284063,12725
3041.097194447633,12816
3042.812672240299,12500
3044.5278458199855,12724
3046.2427155003525,12881
3047.9572815951406,12845
3049.671544418167,12775
3051.38550428333,12639
3053.0991615046073,12698
3054.812516396051,12734
3056.5255692717974,12704
3058.2383204460575,12896
3059.9507702331257,12735
3061.662918947372,12763
3063.3747669032446,12819
3065.0863144152736,12994
3066.7975617980674,12941
3068.508509366309,12856
3070.219157434767,12872
3071.9295063182844,12824
3073.639556331785,13003
3075.3493077902704,13070
3077.058761008821,13099
3078.7679163025964,12959
3080.476773986837,12802
3082.1853343768594,12935
3083.89359778806,12856
3085.6015645359153,12977
3087.3092349359786,12772
3089.016609303884,12989
3090.7236879553434,12977
3092.4304712061476,12729
3094.136959372166,13015
3095.843152769349,12917
3097.5490517137237,12971
3099.2546565213966,13091
3100.959967508554,12948
3102.66498499146,13078
3104.3697092864577,12919
3106.0741407099695,12960
3107.778279578498,12941
3109.482126208622,13045
3111.1856809170004,12937
3112.8889440203716,13182
3114.5919158355528,13054
3116.294596679439,13125
3117.996986869006,13205
3119.6990867213062,13031
3121.4008965534726,13234
3123.102416682717,13137
3124.803647426329,13106
3126.5045891016784,13265
3128.205242026213,13080
3129.90560651746,13201
3131.605682893025,13213
3133.3054714705922,13134
3135.0049725679282,13042
3136.7041865028714,12997
3138.4031135933465,13256
3140.101754157353,13208
3141.800108512971,13297
3143.498176978357,13060
3145.1959598717494,13054
3146.8934575114636,13156
3148.5906702158954,13087
3150.2875983035183,12961
3151.9842420928853,13207
3153.680601902627,12892
3155.376678051456,13073
3157.07247085816,13063
3158.767980641609,13139
3160.463207720748,13123
3162.158152414606,13093
3163.8528150422862,13034
3165.5471959229726,13308
3167.2412953759303,13269
3168.9351137204976,13195
3170.628651276098,13393
3172.3219083622307,13381
3174.014885298474,13287
3175.707582404485,13360
3177.4000000000005,13445
3179.092138404835,13252
3180.7839979388846,13256
3182.47557892212,13467
3184.166881674594,13348
3185.8579065164386,13458
3187.5486537678626,13240
3189.2391237491547,13537
3190.9293167806827,13239
3192.6192331828934,13366
3194.3088732763117,13070
3195.998237381542,13040
3197.687325819268,13165
3199.376138910251,13308
3201.064676975334,13277
3202.7529403354347,13109
3204.4409293115523,13088
3206.1286442247647,13095
3207.816085396229,13089
3209.5032531471825,12971
3211.190147798936,12926
3212.8767696728846,12914
3214.5631190905015,13052
3216.2491963733373,12965
3217.9350018430214,12746
3219.6205358212637,13011
3221.305798629851,12747
3222.990790590651,12869
3224.6755120256103,12796
3226.359963256751,12984
3228.0441446061795,12919
3229.7280563960758,13001
3231.411698948703,13003
3233.0950725863995,12992
3234.778177631587,13068
3236.461014406761,13322
3238.1435832345005,13241
3239.8258844374595,13291
3241.507918338374,13337
3243.1896852600576,13416
3244.8711855254023,13242
3246.552419457381,13360
3248.233387379042,13154
3249.914089613516,13248
3251.59452648401,13025
3253.274698313813,13013
3254.95460542629,13268
3256.6342481448855,12884
3258.313626793125,12825
3259.9927416946084,13060
3261.6715931730196,12993
3263.3501815521176,12905
3265.0285071557437,12840
3266.706570307815,13015
3268.3843713323286,13016
3270.0619105533615,13107
3271.739188295068,13238
3273.4162048816834,13167
3275.0929606375184,13096
3276.769455886966,13272
3278.445690954498,13182
3280.1216661646613,13337
3281.797381842087,13169
3283.4728383114807,13246
3285.1480358976296,13283
3286.8229749253996,13329
3288.4976557197333,13068
3290.172078605655,12989
3291.846243908266,12964
3293.5201519527463,12898
3295.193803064357,12930
3296.8671975684374,12868
3298.5403357904024,12950
3300.21321805575,13057
3301.8858446900567,13081
3303.558216018975,13153
3305.23033236824,13040
3306.9021940636603,13255
3308.57380143113,13343
3310.2451547966184,13061
3311.916254486174,13261
3313.5871008259246,13175
3315.2576941420766,13120
3316.9280347609147,13036
3318.5981230088046,13036
3320.2679592121895,12962
3321.9375436975924,12991
3323.606876791612,12885
3325.27595882093,12958
3326.944790112305,13076
3328.6133709925753,13092
3330.2817017886573,13074
3331.949782827547,13015
3333.617614436319,13274
3335.2851969421245,13069
3336.952530672199,13061
3338.619615953853,13402
3340.286453114475,13651
3341.9530424815357,13241
3343.619384382583,13529
3345.2854791452437,13483
3346.951327097224,13327
3348.6169285663073,13433
3350.2822838803577,13445
3351.947393367319,13252
3353.61225735521,13426
3355.2768761721345,13459
3356.9412501462693,13435
3358.605379605873,13254
3360.2692648792827,13243
3361.9329062949146,13174
3363.596304181263,12927
