CollectionTime,7/9/2024 11:50:57 AM
ExposureUsed,3
CalibratedSpectrum
-962.7078968117929,545
-959.9714848408522,569
-957.2358232597828,587
-954.5009119013725,593
-951.7667505983302,591
-949.0333391832855,578
-946.3006774887896,618
-943.5687653473143,609
-940.837602591253,632
-938.1071890529199,604
-935.3775245645503,574
-932.6486089583007,589
-929.9204420662485,613
-927.1930237203925,624
-924.4663537526524,606
-921.7404319948689,592
-919.0152582788041,586
-916.2908324361409,626
-913.5671542984834,616
-910.8442236973568,603
-908.1220404642074,572
-905.4006044304027,622
-902.679915427231,624
-899.959973285902,623
-897.2407778375464,603
-894.5223289132158,597
-891.8046263438832,581
-889.0876699604426,586
-886.3714595937089,564
-883.6559950744183,573
-880.9412762332282,588
-878.2273029007168,570
-875.5140749073835,566
-872.8015920836489,578
-870.0898542598545,584
-867.3788612662631,594
-864.6686129330585,580
-861.9591090903457,585
-859.2503495681506,569
-856.5423341964203,602
-853.8350628050229,586
-851.1285352237478,596
-848.4227512823054,595
-845.7177108103272,583
-843.0134136373656,583
-840.3098595928943,591
-837.6070485063082,616
-834.9049802069229,613
-832.2036545239757,631
-829.5030712866244,598
-826.8032303239481,587
-824.1041314649472,601
-821.4057745385428,606
-818.7081593735775,568
-816.0112857988148,593
-813.3151536429393,587
-810.6197627345566,605
-807.9251129021936,596
-805.2312039742981,615
-802.5380357792392,622
-799.8456081453069,640
-797.1539209007124,642
-794.462973873588,618
-791.772766891987,601
-789.083299783884,605
-786.3945723771743,597
-783.7065844996748,578
-781.0193359791231,575
-778.3328266431781,603
-775.6470563194197,584
-772.9620248353489,596
-770.2777320183878,594
-767.5941776958798,579
-764.9113616950891,609
-762.2292838432011,619
-759.5479439673222,639
-756.8673418944801,617
-754.1874774516235,611
-751.5083504656222,682
-748.8299607632671,642
-746.15230817127,637
-743.475392516264,655
-740.7992136248035,619
-738.1237713233636,670
-735.4490654383407,615
-732.7750957960521,646
-730.1018622227365,632
-727.4293645445534,641
-724.7576025875837,618
-722.0865761778291,656
-719.4162851412126,644
-716.7467293035781,683
-714.0779084906909,688
-711.409822528237,697
-708.7424712418238,683
-706.0758544569796,664
-703.4099719991541,658
-700.7448236937178,666
-698.0804093659622,691
-695.4167288411002,694
-692.7537819442656,689
-690.0915685005134,659
-687.4300883348199,661
-684.7693412720819,657
-682.1093271371178,701
-679.4500457546669,674
-676.7914969493897,691
-674.1336805458676,738
-671.4765963686034,657
-668.8202442420206,729
-666.1646239904642,675
-663.5097354382001,678
-660.8555784094151,714
-658.2021527282176,740
-655.5494582186366,696
-652.8974947046223,695
-650.2462620100463,683
-647.5957599587009,727
-644.9459883742998,741
-642.2969470804776,754
-639.6486359007902,723
-637.0010546587141,768
-634.3542031776476,705
-631.7080812809096,696
-629.0626887917401,675
-626.4180255333008,706
-623.7740913286734,734
-621.1308860008619,726
-618.4884093727904,747
-615.8466612673046,734
-613.2056415071715,739
-610.5653499150785,707
-607.9257863136347,733
-605.28695052537,737
-602.6488423727357,775
-600.0114616781036,697
-597.3748082637674,726
-594.7388819519412,745
-592.1036825647604,717
-589.4692099242818,748
-586.8354638524829,743
-584.2024441712624,759
-581.5701507024403,757
-578.9385832677575,738
-576.3077416888759,769
-573.6776257873787,765
-571.0482353847704,770
-568.4195703024757,752
-565.7916303618415,695
-563.164415384135,736
-560.5379251905453,762
-557.9121596021815,742
-555.2871184400748,756
-552.6628015251767,756
-550.0392086783606,786
-547.4163397204204,760
-544.794194472071,757
-542.1727727539491,780
-539.5520743866118,745
-536.9320991905377,763
-534.3128469861261,810
-531.6943175936979,822
-529.0765108334947,852
-526.4594265256793,920
-523.8430644903358,1032
-521.2274245474689,1080
-518.612506517005,1218
-515.9983102187913,1203
-513.3848354725959,1160
-510.77208209810846,1140
-508.16004991493924,1268
-505.5487387426199,1420
-502.9381484006032,1580
-500.3282787082628,1727
-497.71912948489364,1714
-495.1107005497117,1639
-492.5029917218539,1458
-489.8960028203786,1318
-487.28973366426493,1186
-484.68418407241325,1076
-482.07935386364494,998
-479.47524285670266,1002
-476.87185087025,990
-474.2691777228715,958
-471.66722323307334,976
-469.0659872192821,928
-466.4654694998459,923
-463.86566989303384,973
-461.26658821703614,969
-458.66822428996414,893
-456.07057792985,960
-453.4736489546475,938
-450.877437182231,951
-448.28194243039627,902
-445.68716451686,913
-443.09310325926003,897
-440.49975847515555,938
-437.9071299820263,951
-435.31521759727354,920
-432.72402113821954,982
-430.13354042210767,1031
-427.5437752661022,1020
-424.95472548728867,998
-422.36639090267386,987
-419.7787713291855,1011
-417.1918665836721,1050
-414.60567648290385,1075
-412.0202008435715,1000
-409.4354394822874,1024
-406.8513922155845,1084
-404.26805885991723,1052
-401.685439231661,1095
-399.103533147112,1057
-396.522340422488,1041
-393.9418608739278,1024
-391.3620943174908,1053
-388.7830405691583,979
-386.2046994448317,938
-383.6270707603344,915
-381.05015433141045,891
-378.473949973725,827
-375.8984575028645,780
-373.32367673433623,715
-370.74960748356875,693
-368.1762495659117,697
-365.60360279663576,670
-363.03166699093265,612
-360.4604419639154,544
-357.8899275306178,528
-355.32012350599507,537
-352.7510297049233,504
-350.1826459421999,477
-347.61497203254316,486
-345.04800779059235,503
-342.4817530309082,522
-339.91620756797226,478
-337.35137121618743,467
-334.7872437898774,481
-332.22382510328725,568
-329.66111497058273,488
-327.09911320585127,478
-324.53781962310075,509
-321.9772340362607,521
-319.4173562591816,507
-316.8581861056348,492
-314.2997233893127,491
-311.7419679238294,499
-309.1849195227194,527
-306.62857799943856,515
-304.0729431673641,522
-301.51801483979375,538
-298.963792829947,574
-296.41027695096386,552
-293.85746701590574,528
-291.3053628377552,540
-288.7539642294155,568
-286.2032710037115,545
-283.65328297338897,540
-281.1039999511146,628
-278.5554217494762,680
-276.007548180983,613
-273.4603790580651,625
-270.9139141930734,584
-268.3681533982807,622
-265.8230964858798,705
-263.27874326798565,657
-260.7350935566336,662
-258.1921471637804,705
-255.6499039013039,729
-253.10836358100266,641
-250.56752601459698,616
-248.02739101372765,627
-245.48795838995704,628
-242.94922795476816,603
-240.41119951956557,614
-237.8738728956746,655
-235.33724789434166,692
-232.80132432673452,670
-230.2661020039418,660
-227.73158073697357,662
-225.19776033676033,660
-222.66464061415422,689
-220.1322213799284,654
-217.60050244477725,679
-215.06948361931552,699
-212.53916471408013,718
-210.00954553952818,702
-207.48062590603843,682
-204.9524056239104,726
-202.4248845033651,802
-199.8980623545441,779
-197.37193898751036,744
-194.84651421224817,789
-192.32178783866232,774
-189.79775967657952,803
-187.27442953574644,849
-184.7517972258321,831
-182.2298625564256,776
-179.7086253370378,724
-177.18808537710026,784
-174.66824248596583,828
-172.14909647290835,862
-169.6306471471229,867
-167.11289431772548,883
-164.59583779375328,850
-162.07947738416453,917
-159.5638128978386,976
-157.04884414357605,1083
-154.53457093009854,1256
-152.02099306604828,1249
-149.50811035998936,980
-146.99592262040665,956
-144.48442965570587,1116
-141.97363127421409,1106
-139.46352728417958,1210
-136.95411749377126,1336
-134.44540171107985,1301
-131.93737974411636,1035
-129.43005140081357,995
-126.92341648902493,1342
-124.41747481652521,1684
-121.91222619101006,1862
-119.40767042009657,2282
-116.90380731132257,2729
-114.40063667214702,2850
-111.8981583099503,2587
-109.3963720320337,2034
-106.89527764561933,1892
-104.39487495785067,1839
-101.89516377579241,2320
-99.39614390642998,3237
-96.89781515667039,4158
-94.40017733334128,4490
-91.90323024319173,4577
-89.40697369289148,5062
-86.91140748903172,5805
-84.41653143812482,5848
-81.92234534660395,4549
-79.42884902082358,3340
-76.93604226705907,4243
-74.4439248915071,7223
-71.95249670028534,11432
-69.46175749943245,13844
-66.97170709490854,14453
-64.48234529259423,13107
-61.99367189829195,12381
-59.50568671772464,11120
-57.01838955653636,8792
-54.53178022029283,8696
-52.045858514480074,11092
-49.560624244506016,12884
-47.07607721569923,14909
-44.59221723330904,15374
-42.10904410250669,15474
-39.62655762838392,14118
-37.14475761595372,13216
-34.66364387015028,12300
-32.18321619582866,11665
-29.70347439776515,11807
-27.224418280657005,13148
-24.74604764912317,13800
-22.26836230770266,17393
-19.7913620608565,28803
-17.315046712966478,50227
-14.83941606833514,65039
-12.36446993118659,65039
-9.89020810566592,65039
-7.416630395839093,65039
-4.94373660569363,65039
-2.471526539137585,65039
-6.821210263296962E-13,65039
2.47084320796705,65039
4.941003281093458,65039
7.410480415786196,65039
9.879274808531363,65039
12.347386655893956,65039
14.814816154518212,65039
17.28156350112681,65039
19.74762889252179,65039
22.21301252558385,65039
24.67771459727237,21876
27.141735304626195,4623
29.605074844762612,3202
32.06773341487792,3158
34.52971121224755,2991
36.99100843422559,2768
39.45162527824516,2266
41.91156194181792,2052
44.370818622535126,1869
46.82939551806646,1677
49.287292826160524,1569
51.74451074464503,1461
54.201049471426245,1416
56.65690920448981,1459
59.112090141899785,1379
61.56659248179983,1151
64.02041642241159,1110
66.4735621620365,1115
68.92602989905402,1320
71.37781983192338,1260
73.82893215918205,1441
76.27936707944684,1434
78.72912479141326,1533
81.17820549385567,1442
83.62660938562783,1355
86.07433666566146,1203
88.5213875329681,987
90.96776218663751,900
93.41346082583925,999
95.85848364982041,1084
98.30283085790859,1165
100.7465026495089,1328
103.18949922410604,1343
105.63182078126385,1219
108.07346752062438,1390
110.51443964190923,1151
112.95473734491827,1030
115.39436082953114,1049
117.83331029570547,1001
120.27158594347827,938
122.7091879729652,1065
125.1461165843615,1106
127.58237197794062,1056
130.01795435405518,1107
132.4528639131364,1247
134.88710085569494,1262
137.32066538231982,1132
139.75355769367923,991
142.1857779905207,1007
144.61732647366978,996
147.04820334403132,1029
149.47840880258934,1054
151.90794305040674,1101
154.33680628862487,1138
156.76499871846443,1355
159.19252054122433,1467
161.61937195828352,1576
164.04555317109896,1753
166.47106438120693,1902
168.89590579022217,2133
171.320077599839,2282
173.7435800118302,2487
176.16641322804742,2563
178.58857745042144,2779
181.01007288096173,3038
183.43089972175687,3105
185.85105817497413,2999
188.27054844285988,2876
190.6893707277394,2837
193.10752523201643,2890
195.5250121581745,2962
197.9418317087751,2992
200.3579840864594,3034
202.7734694939469,2955
205.18828813403627,3032
207.6024402096051,3135
210.01592592360964,3202
212.42874547908548,3145
214.84089907914665,3123
217.2523869269868,3059
219.66320922587727,3079
222.0733661791695,3050
224.48285799029293,3030
226.8916848627572,3061
229.29984700014882,2936
231.7073446061355,3085
234.11417788446204,3010
236.520347038953,3065
238.92585227351185,3103
241.33069379212054,3130
243.73487179884035,3191
246.1383864978112,3300
248.541238093252,3268
250.9434267894609,3248
253.34495279081432,3244
255.74581630176783,3428
258.1460175268563,3275
260.54555667069314,3276
262.9444339379703,3315
265.3426495334594,3192
267.7402036620107,3157
270.1370965285529,3038
272.53332833809407,3010
274.9288992957214,2862
277.32380960660055,2783
279.718059475976,2940
282.1116491091717,2809
284.5045787115897,2819
286.89684848871195,2871
289.2884586460981,2826
291.67940938938807,2906
294.0697009242996,2853
296.4593334566299,2703
298.84830719225477,2807
301.23662233712923,2807
303.6242790972866,2738
306.01127767884,2676
308.39761828798066,2670
310.78330113097934,2702
313.16832641418534,2576
315.5526943440269,2647
317.9364051270112,2560
320.3194589697242,2522
322.70185607883093,2569
325.0835966610754,2479
327.4646809232805,2482
329.8451090723478,2458
332.2248813152577,2457
334.6039978590701,2513
336.9824589109231,2475
339.36026467803447,2395
341.7374153677,2341
344.113911187295,2381
346.48975234427337,2389
348.8649390461686,2391
351.2394715005918,2471
353.61334991523415,2400
355.9865744978655,2320
358.35914545633375,2381
360.73106299856715,2375
363.10232733257146,2341
365.47293866643247,2280
367.84289720831396,2243
370.2122031664593,2229
372.5808567491905,2315
374.9488581649083,2155
377.31620762209275,2215
379.6829053293021,2259
382.0489514951745,2177
384.4143463284262,2194
386.7790900378528,2181
389.14318283232853,2245
391.50662492080653,2194
393.86941651231916,2208
396.23155781597745,2208
398.5930490409713,2216
400.9538903965696,2181
403.3140820921202,2210
405.6736243370498,2227
408.03251734086336,2186
410.3907613131465,2201
412.74835646356166,2158
415.10530300185144,2201
417.4616011378372,2115
419.81725108141893,2109
422.1722530425758,2169
424.5266072313656,2109
426.880313857925,2112
429.2333731324701,2157
431.58578526529516,2131
433.9375504667738,2153
436.2886689473588,2133
438.63914091758113,2185
440.9889665880513,2069
443.33814616945835,2053
445.68667987257015,2060
448.03456790823395,2085
450.3818104873759,2094
452.72840782100013,2069
455.07436012019105,2092
457.41966759611057,2065
459.7643304600007,2094
462.10834892318155,2051
464.4517231970525,2066
466.79445349309174,2059
469.1365400228566,2160
471.4779829979826,2123
473.81878263018564,2165
476.15893913125876,2106
478.4984527130747,2185
480.8373235875855,2208
483.17555196682144,2354
485.5131380628919,2388
487.8500820879857,2466
490.1863842543697,2571
492.52204477439034,2808
494.8570638604725,3016
497.1914417251204,3349
499.52517858091653,3638
501.85827464052306,3772
504.19073011668036,3789
506.5225452222086,3607
508.85372017000566,3580
511.18425517304956,3555
513.514150444396,3461
515.8434061971808,4192
518.1720226446176,5234
520.4999999999999,5533
522.8273384766991,5315
525.1540382881666,4808
527.480099647932,4223
529.8055227696037,3441
532.1303078668694,2854
534.454455153496,2518
536.777964843328,2329
539.1008371502907,2269
541.4230722883866,2194
543.744670471698,2245
546.0656319143858,2174
548.3859568306899,2199
550.7056454349294,2130
553.0246979415016,2145
555.3431145648834,2112
557.6608955196306,2158
559.978041020377,2145
562.2945512818363,2105
564.6104265188006,2219
566.9256669461412,2191
569.2402727788082,2219
571.5542442318302,2159
573.8675815203156,2182
576.1802848594508,2218
578.4923544645015,2211
580.8037905508126,2245
583.114593333807,2244
585.4247630289875,2196
587.7342998519354,2126
590.0432040183106,2131
592.3514757438526,2205
594.6591152443794,2153
596.9661227357875,2191
599.2724984340531,2177
601.578242555231,2170
603.8833553154542,2232
606.1878369309362,2157
608.4916876179676,2170
610.7949075929192,2143
613.0974970722403,2085
615.3994562724587,2191
617.7007854101818,2121
620.0014847020951,2266
622.3015543649641,2151
624.6009946156324,2113
626.8998056710224,2166
629.1979877481361,2150
631.4955410640538,2193
633.7924658359349,2186
636.0887622810175,2272
638.3844306166192,2147
640.6794710601358,2147
642.9738838290426,2277
645.2676691408932,2180
647.5608272133207,2224
649.853358264037,2241
652.1452625108324,2236
654.4365401715764,2204
656.7271914642178,2183
659.0172166067838,2223
661.3066158173809,2265
663.5953893141935,2191
665.8835373154867,2238
668.1710600396028,2188
670.4579577049639,2195
672.7442305300709,2262
675.0298787335033,2155
677.3149025339197,2090
679.599302150058,2124
681.8830778007342,2158
684.1662297048437,2202
686.4487580813608,2193
688.7306631493387,2256
691.0119451279091,2171
693.2926042362834,2200
695.5726406937516,2249
697.8520547196814,2264
700.1308465335215,2231
702.4090163547982,2184
704.6865644031171,2150
706.9634908981619,2057
709.2397960596965,2120
711.5154801075631,2271
713.7905432616823,2227
716.0649857420548,2160
718.3388077687592,2145
720.612009561953,2165
722.8845913418733,2182
725.1565533288352,2185
727.427895743234,2215
729.6986188055427,2122
731.9687227363137,2216
734.238207756178,2122
736.5070740858458,2123
738.7753219461066,2132
741.0429515578281,2164
743.3099631419569,2160
745.5763569195191,2185
747.8421331116193,2136
750.1072919394409,2230
752.3718336242467,2081
754.6357583873777,2150
756.8990664502545,2204
759.1617580343765,2192
761.423833361321,2211
763.6852926527457,2108
765.9461361303862,2166
768.206364016058,2151
770.4659765316536,2162
772.7249738991469,2155
774.9833563405886,2208
777.2411240781092,2283
779.4982773339183,2255
781.7548163303044,2246
784.010741289634,2175
786.2660524343538,2294
788.5207499869881,2212
790.7748341701416,2194
793.0283052064964,2239
795.2811633188143,2253
797.5334087299362,2240
799.7850416627813,2261
802.0360623403484,2206
804.2864709857143,2213
806.5362678220353,2266
808.7854530725468,2188
811.0340269605625,2219
813.2819897094754,2241
815.5293415427581,2136
817.77608268396,2289
820.0222133567116,2223
822.2677337847211,2228
824.5126441917765,2286
826.7569448017433,2205
829.0006358385675,2203
831.2437175262731,2268
833.4861900889629,2221
835.7280537508192,2242
837.9693087361026,2243
840.2099552691533,2142
842.4499935743896,2280
844.689423876309,2159
846.9282463994886,2309
849.1664613685833,2265
851.4040690083276,2206
853.6410695435349,2167
855.877463199097,2237
858.1132501999847,2135
860.3484307712487,2223
862.5830051380175,2221
864.8169735254988,2224
867.0503361589791,2263
869.2830932638243,2206
871.5152450654786,2262
873.7467917894654,2250
875.9777336613873,2275
878.2080709069252,2292
880.4378037518389,2278
882.666932421968,2319
884.8954571432301,2331
887.1233781416219,2295
889.3506956432192,2302
891.5774098741766,2356
893.803521060728,2313
896.0290294291852,2311
898.2539352059397,2276
900.4782386174619,2357
902.7019398903011,2320
904.925039251085,2353
907.147536926521,2271
909.3694331433943,2291
911.59072812857,2267
913.8114221089921,2322
916.0315153116827,2251
918.2510079637437,2220
920.4699002923547,2277
922.6881925247761,2241
924.905884888345,2300
927.1229776104793,2372
929.3394709186747,2265
931.555365040506,2156
933.7706602036275,2296
935.9853566357709,2322
938.1994545647489,2234
940.4129542184515,2318
942.6258558248488,2216
944.8381596119883,2220
947.0498658079974,2199
949.2609746410825,2264
951.4714863395287,2215
953.6814011316998,2174
955.8907192460387,2190
958.0994409110671,2108
960.3075663553858,2163
962.5150958076741,2223
964.7220294966913,2255
966.928367651274,2214
969.1341105003388,2211
971.3392582728806,2200
973.5438111979742,2110
975.747769504772,2090
977.9511334225061,2106
980.153903180487,2131
982.3560790081052,2176
984.5576611348289,2095
986.7586497902058,2151
988.9590452038618,2036
991.158847605503,2023
993.3580572249133,2047
995.5566742919558,2022
997.7546990365728,1927
999.952131688785,1945
1002.1489724786926,2009
1004.3452216364743,1915
1006.5408793923874,1931
1008.7359459767691,1930
1010.9304216200343,1842
1013.1243065526781,1939
1015.3176010052733,1895
1017.510305208472,1821
1019.7024193930064,1859
1021.8939437896848,1862
1024.0848786293977,1843
1026.2752241431122,1872
1028.4649805618747,1848
1030.6541481168115,1841
1032.842727039127,1798
1035.0307175601051,1808
1037.2181199111074,1891
1039.4049343235752,1798
1041.591161029029,1813
1043.7768002590683,1837
1045.9618522453698,1874
1048.1463172196918,1829
1050.3301954138697,1773
1052.513487059818,1861
1054.69619238953,1765
1056.8783116350783,1778
1059.0598450286152,1840
1061.2407928023704,1851
1063.4211551886528,1751
1065.6009324198508,1749
1067.780124728432,1763
1069.9587323469414,1870
1072.1367555080046,1747
1074.314194444325,1799
1076.4910493886855,1711
1078.667320573947,1824
1080.843008233051,1755
1083.0181125990161,1643
1085.1926339049414,1711
1087.3665723840027,1710
1089.5399282694575,1700
1091.7127017946405,1813
1093.8848931929647,1783
1096.0565026979243,1735
1098.2275305430899,1715
1100.3979769621128,1713
1102.567842188722,1722
1104.737126456726,1783
1106.9058300000124,1723
1109.0739530525475,1671
1111.2414958483764,1660
1113.4084586216231,1727
1115.5748416064907,1788
1117.7406450372605,1714
1119.9058691482942,1679
1122.0705141740304,1684
1124.2345803489884,1740
1126.3980679077658,1715
1128.5609770850388,1723
1130.7233081155623,1659
1132.8850612341707,1728
1135.0462366757774,1721
1137.2068346753745,1685
1139.3668554680326,1668
1141.526299288901,1717
1143.68516637321,1679
1145.8434569562655,1672
1148.001171273455,1656
1150.158309560244,1632
1152.3148720521767,1681
1154.470858984876,1653
1156.626270594044,1687
1158.7811071154629,1690
1160.9353687849912,1635
1163.089055838569,1642
1165.242168512213,1605
1167.3947070420209,1587
1169.5466716641677,1629
1171.6980626149075,1672
1173.8488801305748,1643
1175.9991244475814,1579
1178.1487958024186,1565
1180.2978944316555,1670
1182.4464205719428,1626
1184.5943744600072,1695
1186.7417563326567,1628
1188.8885664267755,1610
1191.0348049793297,1609
1193.1804722273619,1660
1195.325568407995,1676
1197.4700937584303,1661
1199.614048515948,1661
1201.7574329179074,1612
1203.900247201746,1652
1206.042491604982,1688
1208.1841663652099,1647
1210.3252717201053,1598
1212.465807907422,1655
1214.6057751649923,1682
1216.7451737307279,1731
1218.8840038426192,1627
1221.0222657387353,1688
1223.1599596572241,1688
1225.2970858363137,1659
1227.4336445143094,1669
1229.5696359295966,1690
1231.705060320639,1710
1233.8399179259786,1721
1235.9742089842384,1714
1238.107933734118,1703
1240.2410924143974,1621
1242.373685263935,1692
1244.5057125216676,1659
1246.6371744266116,1694
1248.7680712178621,1730
1250.898403134593,1713
1253.028170416058,1743
1255.1573733015875,1617
1257.2860120305932,1723
1259.4140868425648,1764
1261.54159797707,1753
1263.6685456737569,1744
1265.7949301723515,1691
1267.9207517126597,1767
1270.046010534565,1661
1272.1707068780306,1688
1274.2948409830983,1754
1276.4184130898889,1677
1278.541423438603,1721
1280.6638722695184,1768
1282.785759822993,1708
1284.9070863394636,1742
1287.0278520594447,1716
1289.1480572235314,1796
1291.2677020723963,1746
1293.3867868467923,1776
1295.5053117875495,1795
1297.623277135579,1809
1299.740683131868,1793
1301.8575300174857,1783
1303.973818033578,1873
1306.0895474213703,1804
1308.2047184221678,1820
1310.3193312773528,1868
1312.4333862283888,1829
1314.5468835168163,1810
1316.659823384255,1875
1318.7722060724045,1822
1320.8840318230418,1869
1322.9953008780249,1839
1325.1060134792888,1805
1327.2161698688478,1823
1329.3257702887959,1799
1331.4348149813054,1862
1333.5433041886276,1814
1335.6512381530933,1905
1337.7586171171101,1783
1339.8654413231675,1851
1341.9717110138317,1881
1344.0774264317488,1745
1346.1825878196432,1767
1348.2871954203192,1788
1350.3912494766587,1809
1352.4947502316231,1793
1354.5976979282532,1854
1356.7000928096686,1792
1358.8019351190665,1829
1360.9032250997243,1839
1363.0039629949988,1878
1365.1041490483235,1838
1367.2037835032133,1820
1369.3028666032606,1814
1371.401398592137,1870
1373.4993797135926,1866
1375.5968102114575,1884
1377.6936903296396,1881
1379.7900203121262,1826
1381.8858004029835,1877
1383.9810308463561,1886
1386.075711886469,1806
1388.1698437676241,1849
1390.2634267342032,1896
1392.356461030667,1854
1394.4489469015557,1906
1396.5408845914872,1866
1398.6322743451592,1950
1400.7231164073469,1924
1402.813411022907,1844
1404.903158436773,1932
1406.9923588939578,1904
1409.0810126395531,1946
1411.1691199187303,1934
1413.2566809767386,1972
1415.343696058907,1888
1417.4301654106425,1995
1419.5160892774315,1960
1421.6014679048399,1966
1423.6863015385125,2030
1425.7705904241707,2031
1427.8543348076178,2085
1429.9375349347342,2058
1432.0201910514802,2021
1434.102303403894,2123
1436.1838722380944,2089
1438.2648978002767,2097
1440.3453803367174,2097
1442.4253200937692,2119
1444.5047173178677,2119
1446.5835722555234,2184
1448.6618851533285,2219
1450.739656257952,2240
1452.8168858161434,2289
1454.8935740747306,2320
1456.96972128062,2322
1459.045327680797,2373
1461.120393522327,2282
1463.1949190523528,2442
1465.2689045180973,2466
1467.3423501668608,2512
1469.415256246024,2620
1471.4876230030463,2634
1473.559450685465,2523
1475.6307395408976,2614
1477.7014898170391,2553
1479.771701761665,2808
1481.8413756226287,2722
1483.9105116478618,2776
1485.9791100853772,2842
1488.0471711832643,2864
1490.1146951896926,2943
1492.1816823529098,3001
1494.2481329212433,2965
1496.3140471430984,3048
1498.3794252669609,3029
1500.4442675413939,3113
1502.5085742150404,3169
1504.572345536622,3179
1506.6355817549388,3110
1508.6982831188702,3199
1510.7604498773744,3208
1512.8220822794883,3290
1514.8831805743293,3281
1516.9437450110909,3338
1519.003775839048,3366
1521.0632733075522,3424
1523.1222376660367,3541
1525.1806691640113,3555
1527.2385680510652,3514
1529.2959345768668,3599
1531.3527689911643,3621
1533.4090715437833,3793
1535.4648424846291,3760
1537.5200820636855,3773
1539.5747905310159,3858
1541.6289681367616,3915
1543.6826151311434,4046
1545.7357317644614,4054
1547.7883182870937,3929
1549.8403749494987,4021
1551.8919020022113,4120
1553.9428996958477,4179
1555.9933682811015,4294
1558.0433080087469,4435
1560.0927191296346,4555
1562.1416018946961,4488
1564.1899565549415,4550
1566.2377833614592,4716
1568.2850825654164,4437
1570.3318544180606,4381
1572.3780991707158,4213
1574.423817074788,4068
1576.4690083817595,3983
1578.5136733431923,3654
1580.5578122107272,3580
1582.601425236085,3400
1584.6445126710646,3280
1586.6870747675434,3070
1588.7291117774776,3011
1590.7706239529034,2817
1592.8116115459347,2714
1594.8520748087658,2650
1596.8920139936686,2560
1598.9314293529933,2408
1600.9703211391711,2392
1603.008689604711,2375
1605.0465350022005,2308
1607.0838575843068,2206
1609.1206576037753,2136
1611.1569353134305,2118
1613.1926909661765,2040
1615.2279248149953,2004
1617.2626371129481,1993
1619.2968281131757,2011
1621.3304980688963,1995
1623.3636472334088,2007
1625.39627586009,1911
1627.428384202396,1846
1629.459972513861,1895
1631.4910410480993,1871
1633.5215900588028,1869
1635.551619799744,1860
1637.5811305247717,1840
1639.6101224878166,1777
1641.6385959428862,1846
1643.6665511440683,1769
1645.693988345528,1786
1647.7209078015112,1820
1649.7473097663405,1810
1651.7731944944203,1742
1653.7985622402307,1771
1655.823413258333,1793
1657.847747803366,1784
1659.8715661300494,1779
1661.8948684931793,1792
1663.9176551476316,1756
1665.9399263483624,1726
1667.9616823504057,1732
1669.982923408873,1749
1672.0036497789574,1744
1674.0238617159293,1751
1676.043559475138,1773
1678.0627433120121,1735
1680.081413482059,1706
1682.0995702408654,1806
1684.117213844096,1755
1686.134344547495,1730
1688.1509626068864,1746
1690.1670682781705,1762
1692.182661817329,1658
1694.1977434804217,1762
1696.2123135235875,1738
1698.226372203043,1772
1700.2399197750851,1775
1702.2529564960905,1724
1704.2654826225112,1674
1706.277498410882,1761
1708.2890041178139,1691
1710.2999999999988,1728
1712.3104863142066,1703
1714.3204633172854,1752
1716.329931266163,1716
1718.3388904178469,1688
1720.3473410294214,1731
1722.3552833580516,1692
1724.3627176609807,1666
1726.3696441955308,1711
1728.3760632191033,1686
1730.3819749891782,1658
1732.3873797633146,1632
1734.3922777991502,1677
1736.3966693544012,1661
1738.4005546868639,1659
1740.4039340544127,1663
1742.406807715001,1690
1744.4091759266616,1719
1746.4110389475054,1671
1748.4123970357223,1635
1750.413250449582,1604
1752.4135994474318,1626
1754.4134442876993,1712
1756.4127852288902,1637
1758.4116225295893,1609
1760.4099564484595,1619
1762.407787244244,1683
1764.405115175764,1664
1766.4019405019203,1580
1768.3982634816916,1615
1770.3940843741357,1603
1772.3894034383907,1604
1774.3842209336717,1596
1776.378537119274,1622
1778.372352254571,1650
1780.3656665990156,1618
1782.3584804121397,1608
1784.3507939535534,1629
1786.3426074829463,1573
1788.3339212600863,1570
1790.3247355448211,1624
1792.3150505970766,1607
1794.3048666768573,1603
1796.2941840442477,1608
1798.2830029594106,1551
1800.2713236825884,1534
1802.2591464741004,1557
1804.2464715943465,1606
1806.2332993038058,1629
1808.2196298630352,1551
1810.2054635326708,1611
1812.190800573428,1598
1814.175641246101,1603
1816.1599858115628,1616
1818.1438345307652,1646
1820.127187664738,1650
1822.1100454745924,1574
1824.092408221516,1588
1826.0742761667766,1580
1828.055649571721,1573
1830.0365286977735,1598
1832.0169138064398,1601
1833.9968051593014,1623
1835.9762030180214,1641
1837.9551076443408,1622
1839.9335193000788,1546
1841.9114382471344,1647
1843.888864747485,1572
1845.8657990631878,1540
1847.842241456378,1593
1849.8181921892697,1550
1851.7936515241558,1550
1853.7686197234098,1525
1855.7430970494815,1566
1857.7170837649014,1502
1859.6905801322787,1514
1861.6635864143004,1652
1863.6361028737338,1593
1865.608129773424,1561
1867.5796673762961,1544
1869.5507159453537,1596
1871.521275743678,1630
1873.4913470344313,1614
1875.4609300808534,1545
1877.4300251462632,1577
1879.3986324940588,1536
1881.366752387717,1622
1883.3343850907936,1545
1885.3015308669228,1633
1887.268189979819,1616
1889.2343626932739,1612
1891.2000492711595,1550
1893.1652499774254,1617
1895.1299650761011,1626
1897.0941948312952,1629
1899.0579395071945,1636
1901.0211993680641,1590
1902.98397467825,1660
1904.9462657021745,1593
1906.9080727043415,1569
1908.869395949332,1583
1910.8302357018065,1577
1912.790592226504,1507
1914.7504657882428,1580
1916.7098566519212,1565
1918.6687650825133,1528
1920.6271913450764,1620
1922.5851357047422,1576
1924.5425984267245,1616
1926.499579776314,1610
1928.4560800188833,1527
1930.4120994198802,1622
1932.367638244833,1595
1934.32269675935,1588
1936.2772752291175,1591
1938.231373919899,1549
1940.1849930975404,1601
1942.1381330279637,1525
1944.0907939771696,1587
1946.0429762112412,1589
1947.9946799963363,1532
1949.9459055986945,1529
1951.896653284633,1531
1953.8469233205478,1575
1955.7967159729142,1535
1957.7460315082863,1554
1959.6948701932974,1517
1961.6432322946594,1576
1963.5911180791632,1533
1965.5385278136787,1573
1967.4854617651545,1546
1969.4319202006182,1587
1971.377903387176,1654
1973.3234115920136,1621
1975.268445082395,1548
1977.2130041256642,1521
1979.1570889892423,1571
1981.1006999406304,1551
1983.04383724741,1567
1984.986501177238,1612
1986.928691997853,1530
1988.8704099770712,1582
1990.811655382789,1510
1992.7524284829801,1570
1994.692729545698,1549
1996.6325588390755,1595
1998.5719166313224,1550
2000.5108031907307,1587
2002.4492187856677,1573
2004.387163684583,1500
2006.3246381560011,1542
2008.2616424685298,1470
2010.1981768908527,1540
2012.1342416917332,1507
2014.069837140014,1539
2016.0049635046162,1500
2017.9396210545406,1495
2019.8738100588666,1560
2021.8075307867502,1499
2023.740783507431,1590
2025.6735684902228,1559
2027.6058860045214,1538
2029.5377363198004,1481
2031.4691197056118,1507
2033.4000364315875,1522
2035.3304867674374,1525
2037.260470982952,1474
2039.189989347998,1483
2041.1190421325232,1540
2043.047629606554,1522
2044.9757520401945,1474
2046.9034097036288,1499
2048.8306028671195,1463
2050.7573318010086,1539
2052.683596775716,1494
2054.609398061742,1459
2056.5347359296647,1482
2058.4596106501403,1542
2060.384022493906,1500
2062.3079717317764,1520
2064.231458634646,1507
2066.1544834734873,1545
2068.077046519352,1584
2069.99914804337,1551
2071.9207883167524,1544
2073.8419676107865,1546
2075.7626861968406,1567
2077.6829443463607,1506
2079.6027423308715,1481
2081.522080421977,1562
2083.440958891362,1486
2085.359378010786,1440
2087.2773380520907,1534
2089.194839287196,1525
2091.111881988101,1547
2093.0284664268825,1517
2094.9445928756973,1572
2096.86026160678,1565
2098.775472892446,1552
2100.690227005088,1499
2102.604524217178,1538
2104.5183648012676,1550
2106.431749029985,1543
2108.34467717604,1517
2110.2571495122206,1494
2112.169166311393,1522
2114.080727846503,1522
2115.9918343905747,1530
2117.902486216711,1520
2119.8126835980956,1524
2121.722426807987,1481
2123.6317161197285,1556
2125.5405518067364,1508
2127.448934142509,1489
2129.356863400624,1536
2131.264339854737,1548
2133.1713637785815,1566
2135.077935445972,1551
2136.9840551308002,1555
2138.889723107037,1544
2140.7949396487334,1501
2142.699705030018,1534
2144.6040195250994,1551
2146.507883408264,1548
2148.4112969538774,1625
2150.3142604363848,1585
2152.2167741303097,1586
2154.1188383102535,1584
2156.0204532508997,1623
2157.9216192270064,1571
2159.822336513414,1594
2161.7226053850413,1650
2163.622426116884,1613
2165.5217989840185,1555
2167.4207242616,1519
2169.319202224862,1641
2171.2172331491165,1614
2173.1148173097563,1641
2175.0119549822507,1687
2176.90864644215,1614
2178.8048919650823,1669
2180.7006918267534,1592
2182.596046302952,1648
2184.4909556695407,1611
2186.3854202024645,1648
2188.279440177746,1666
2190.173015871487,1653
2192.066147559868,1628
2193.958835519149,1643
2195.851080025667,1652
2197.7428813558417,1637
2199.6342397861667,1682
2201.5251555932186,1651
2203.415629053651,1680
2205.3056604441986,1689
2207.19525004167,1735
2209.084398122958,1643
2210.9731049650327,1700
2212.861370844941,1644
2214.749196039812,1709
2216.636580826851,1743
2218.523525483344,1721
2220.410030286655,1708
2222.296095514226,1690
2224.1817214435805,1706
2226.066908352319,1699
2227.951656518121,1676
2229.835966218746,1637
2231.71983773203,1701
2233.6032713358913,1656
2235.486267308324,1696
2237.3688259274036,1616
2239.2509474712824,1698
2241.132632218193,1725
2243.013880446447,1698
2244.8946924344323,1699
2246.7750684606203,1643
2248.6550088035574,1662
2250.534513741871,1640
2252.413583554265,1677
2254.292218519526,1642
2256.170418916517,1689
2258.0481850241786,1645
2259.925517121534,1707
2261.8024154876825,1653
2263.678880401803,1720
2265.5549121431536,1714
2267.430510991071,1687
2269.305677224971,1668
2271.180411124348,1696
2273.0547129687766,1657
2274.9285830379076,1633
2276.8020216114737,1619
2278.6750289692845,1685
2280.5476053912294,1630
2282.4197511572766,1687
2284.2914665474727,1719
2286.162751841943,1641
2288.0336073208937,1725
2289.904033264608,1742
2291.774029953448,1724
2293.6435976678554,1635
2295.5127366883517,1684
2297.381447295534,1695
2299.2497297700825,1585
2301.1175843927526,1594
2302.9850114443825,1534
2304.852011205885,1517
2306.7185839582553,1500
2308.5847299825664,1475
2310.4504495599676,1456
2312.3157429716925,1407
2314.1806104990483,1438
2316.0450524234247,1391
2317.9090690262888,1365
2319.772660589186,1446
2321.635827393742,1449
2323.498569721661,1417
2325.3608878547248,1420
2327.2227820747967,1440
2329.0842526638157,1426
2330.945299903803,1369
2332.805924076857,1361
2334.6661254651535,1399
2336.525904350951,1403
2338.3852610165827,1435
2340.244195744464,1445
2342.102708817088,1458
2343.9608005170253,1411
2345.8184711269287,1416
2347.675720929526,1445
2349.532550207628,1408
2351.38895924412,1419
2353.24494832197,1367
2355.100517724223,1422
2356.955667734004,1414
2358.810398634514,1423
2360.664710709037,1447
2362.5186042409337,1452
2364.3720795136437,1458
2366.225136810686,1430
2368.0777764156583,1442
2369.929998612237,1411
2371.7818036841777,1422
2373.633191915315,1411
2375.484163589562,1454
2377.3347189909114,1484
2379.184858403434,1463
2381.03458211128,1450
2382.8838903986775,1436
2384.732783549936,1421
2386.5812618494406,1468
2388.4293255816588,1489
2390.2769750311327,1483
2392.1242104824883,1478
2393.971032220427,1446
2395.8174405297295,1472
2397.6634356952563,1489
2399.509018001947,1552
2401.3541877348193,1525
2403.1989451789705,1438
2405.043290619576,1487
2406.8872243418905,1424
2408.730746631247,1463
2410.5738577730594,1464
2412.4165580528183,1398
2414.258847756095,1440
2416.100727168537,1469
2417.9421965758734,1466
2419.783256263912,1432
2421.623906518538,1454
2423.4641476257157,1500
2425.303979871491,1486
2427.143403541984,1466
2428.9824189233977,1432
2430.821026302012,1496
2432.6592259641866,1458
2434.497018196361,1456
2436.33440328505,1533
2438.171381516851,1443
2440.00795317844,1467
2441.844118556569,1520
2443.6798779380724,1505
2445.5152316098606,1464
2447.3501798589255,1443
2449.1847229723357,1482
2451.0188612372403,1486
2452.8525949408663,1489
2454.6859243705203,1474
2456.518849813587,1502
2458.3513715575314,1449
2460.183489889895,1446
2462.015205098301,1444
2463.8465174704493,1463
2465.67742729412,1426
2467.5079348571717,1468
2469.338040447542,1470
2471.1677443532476,1451
2472.9970468623833,1485
2474.825948263123,1518
2476.6544488437207,1469
2478.482548892508,1460
2480.310248697896,1496
2482.137548548374,1487
2483.9644487325118,1449
2485.790949538956,1463
2487.617051256433,1513
2489.44275417375,1474
2491.26805857979,1549
2493.0929647635157,1505
2494.917473013971,1518
2496.741583620276,1504
2498.5652968716304,1529
2500.3886130573137,1512
2502.2115324666834,1540
2504.0340553891765,1514
2505.856182114308,1513
2507.6779129316733,1574
2509.499248130945,1536
2511.3201880018764,1528
2513.140732834298,1520
2514.9608829181198,1524
2516.780638543331,1525
2518.6,1506
2520.418967578273,1505
2522.237541568376,1627
2524.0557222606144,1516
2525.8735099453706,1594
2527.6909049131086,1592
2529.507907454368,1549
2531.32451785977,1632
2533.140736420014,1634
2534.9565634258774,1595
2536.771999168218,1605
2538.5870439379714,1680
2540.4016980261526,1668
2542.2159617238544,1646
2544.02983532225,1610
2545.8433191125914,1721
2547.656413386209,1620
2549.4691184345115,1653
2551.2814345489874,1607
2553.093362021204,1701
2554.904901142808,1647
2556.716052205523,1674
2558.526815501153,1689
2560.3371913215824,1769
2562.147179958771,1719
2563.956781704761,1761
2565.7659968516705,1741
2567.5748256916986,1786
2569.3832685171224,1754
2571.1913256202984,1795
2572.9989972936614,1763
2574.806283829725,1739
2576.613185521084,1720
2578.4197026604074,1837
2580.2258355404483,1854
2582.031584454035,1795
2583.836949694077,1871
2585.6419315535613,1896
2587.4465303255533,1914
2589.2507463032002,1837
2591.0545797797245,1892
2592.8580310484303,1875
2594.6611004026995,1938
2596.463788135992,1942
2598.266094541849,1889
2600.0680199138874,1874
2601.869564545807,1922
2603.670728731383,1981
2605.4715127644704,1918
2607.2719169390048,1911
2609.071941548998,1898
2610.8715868885433,1933
2612.670853251811,1918
2614.469740933052,2020
2616.268250226594,1975
2618.0663814268455,1896
2619.864134828292,1975
2621.6615107255006,1947
2623.458509413115,1840
2625.2551311858597,1893
2627.0513763385347,1871
2628.8472451660223,1921
2630.6427379632833,1902
2632.4378550253564,1857
2634.232596647359,1872
2636.026963124488,1897
2637.8209547520187,1798
2639.6145718253065,1829
2641.407814639785,1733
2643.200683490966,1738
2644.9931786744414,1728
2646.7853004858807,1767
2648.577049221034,1724
2650.3684251757277,1700
2652.1594286458712,1691
2653.9500599274484,1703
2655.740319316525,1771
2657.5302071092437,1696
2659.3197236018286,1680
2661.10886909058,1741
2662.8976438718782,1660
2664.686048242183,1624
2666.4740824980327,1579
2668.2617469360443,1637
2670.0490418529134,1586
2671.8359675454153,1526
2673.622524310403,1610
2675.408712444811,1574
2677.1945322456495,1528
2678.979984010009,1643
2680.76506803506,1604
2682.5497846180497,1604
2684.334134056306,1523
2686.1181166472343,1571
2687.9017326883213,1569
2689.6849824771293,1603
2691.4678663113013,1599
2693.2503844885596,1503
2695.032537306705,1463
2696.8143250636167,1562
2698.5957480572542,1524
2700.3768065856534,1491
2702.1575009469316,1534
2703.937831439283,1523
2705.717798360982,1462
2707.4974020103837,1502
2709.276642685917,1452
2711.055520686095,1435
2712.834036309506,1490
2714.612189854819,1462
2716.389981620782,1466
2718.1674119062204,1494
2719.944481010041,1408
2721.721189231226,1474
2723.4975368688415,1400
2725.273524222027,1414
2727.0491515900053,1476
2728.824419272075,1439
2730.5993275676146,1473
2732.3738767760838,1479
2734.148067197016,1435
2735.921899130031,1436
2737.6953728748194,1449
2739.468488731156,1486
2741.2412469988926,1407
2743.0136479779617,1407
2744.785691968372,1401
2746.5573792702116,1414
2748.3287101836504,1419
2750.099685008934,1447
2751.870304046388,1410
2753.640567596418,1399
2755.4104759595057,1435
2757.1800294362156,1421
2758.949228327187,1441
2760.7180729331412,1388
2762.486563554877,1438
2764.254700493272,1457
2766.022484049284,1385
2767.789914523947,1394
2769.5569922183786,1420
2771.3237174337705,1400
2773.090090471394,1419
2774.8561116326036,1471
2776.6217812188274,1456
2778.3870995315756,1447
2780.1520668724356,1407
2781.9166835430747,1384
2783.6809498452394,1443
2785.444866080754,1407
2787.2084325515225,1411
2788.971649559527,1347
2790.73451740683,1355
2792.4970363955713,1427
2794.2592068279705,1359
2796.0210290063264,1381
2797.7825032330147,1409
2799.543629810493,1421
2801.304409041296,1450
2803.0648412280366,1381
2804.8249266734088,1381
2806.5846656801846,1421
2808.344058551212,1434
2810.1031055894246,1388
2811.8618070978273,1414
2813.6201633795085,1377
2815.378174737636,1484
2817.1358414754536,1410
2818.893163896285,1438
2820.6501423035334,1417
2822.4067770006814,1442
2824.1630682912883,1345
2825.9190164789957,1459
2827.6746218675207,1374
2829.429884760661,1404
2831.184805462294,1383
2832.9393842763743,1422
2834.693621506936,1388
2836.4475174580916,1404
2838.201072434034,1406
2839.954286739034,1502
2841.707160677441,1432
2843.459694553685,1425
2845.2118886722724,1432
2846.96374333779,1403
2848.7152588549034,1403
2850.4664355283567,1442
2852.217273662973,1419
2853.9677735636546,1406
2855.7179355353833,1407
2857.4677598832186,1418
2859.217246912299,1415
2860.9663969278427,1440
2862.715210235146,1378
2864.4636871395846,1359
2866.211827946614,1383
2867.9596329617652,1415
2869.7071024906536,1389
2871.4542368389684,1380
2873.20103631248,1380
2874.947501217038,1367
2876.6936318585695,1424
2878.4394285430812,1415
2880.1848915766604,1436
2881.9300212654707,1473
2883.6748179157553,1422
2885.4192818338374,1419
2887.1634133261173,1345
2888.907212699077,1407
2890.6506802592744,1416
2892.393816313348,1361
2894.1366211680142,1395
2895.8790951300693,1434
2897.621238506388,1428
2899.363051603925,1366
2901.1045347297118,1394
2902.8456881908596,1436
2904.58651229456,1362
2906.327007348081,1380
2908.067173658772,1385
2909.8070115340597,1373
2911.5465212814497,1376
2913.285703208527,1375
2915.0245576229563,1370
2916.7630848324807,1411
2918.5012851449196,1399
2920.2391588681758,1363
2921.976706310227,1316
2923.7139277791334,1422
2925.4508235830313,1400
2927.187394030137,1395
2928.923639428745,1369
2930.6595600872306,1372
2932.395156314046,1409
2934.1304284177218,1367
2935.8653767068713,1460
2937.6000014901815,1454
2939.3343030764227,1374
2941.068281774442,1365
2942.8019378931644,1354
2944.5352717415976,1374
2946.2682836288236,1404
2948.0009738640065,1445
2949.7333427563885,1413
2951.465390615289,1383
2953.1971177501086,1422
2954.9285244703265,1425
2956.6596110855,1436
2958.3903779052657,1387
2960.1208252393385,1402
2961.8509533975125,1441
2963.5807626896617,1416
2965.3102534257378,1302
2967.0394259157715,1384
2968.768280469873,1353
2970.496817398232,1361
2972.2250370111146,1402
2973.952939618869,1423
2975.6805255319196,1373
2977.4077950607707,1458
2979.134748516006,1487
2980.861386208289,1451
2982.587708448359,1447
2984.313715547037,1445
2986.039407815222,1413
2987.764785563891,1423
2989.489849104102,1407
2991.2145987469908,1380
2992.9390348037705,1411
2994.6631575857346,1427
2996.3869674042576,1372
2998.1104645707887,1384
2999.83364939686,1341
3001.5565221940783,1415
3003.2790832741334,1410
3005.0013329487924,1401
3006.7232715298996,1398
3008.4448993293804,1370
3010.166216659239,1392
3011.887223831558,1348
3013.607921158498,1392
3015.3283089522993,1428
3017.0483875252826,1414
3018.7681571898443,1417
3020.4876182584626,1388
3022.2067710436927,1412
3023.9256158581707,1366
3025.644153014609,1387
3027.362382825801,1434
3029.0803056046193,1422
3030.797921664012,1410
3032.5152313170106,1405
3034.2322348767225,1414
3035.9489326563353,1401
3037.665324969115,1465
3039.3814121284063,1444
3041.097194447633,1415
3042.812672240299,1459
3044.5278458199855,1396
3046.2427155003525,1444
3047.9572815951406,1434
3049.671544418167,1396
3051.38550428333,1390
3053.0991615046073,1348
3054.812516396051,1363
3056.5255692717974,1457
3058.2383204460575,1422
3059.9507702331257,1437
3061.662918947372,1488
3063.3747669032446,1372
3065.0863144152736,1440
3066.7975617980674,1374
3068.508509366309,1351
3070.219157434767,1356
3071.9295063182844,1426
3073.639556331785,1402
3075.3493077902704,1406
3077.058761008821,1382
3078.7679163025964,1400
3080.476773986837,1428
3082.1853343768594,1379
3083.89359778806,1411
3085.6015645359153,1413
3087.3092349359786,1452
3089.016609303884,1403
3090.7236879553434,1417
3092.4304712061476,1356
3094.136959372166,1454
3095.843152769349,1397
3097.5490517137237,1443
3099.2546565213966,1383
3100.959967508554,1430
3102.66498499146,1411
3104.3697092864577,1438
3106.0741407099695,1408
3107.778279578498,1438
3109.482126208622,1376
3111.1856809170004,1427
3112.8889440203716,1399
3114.5919158355528,1387
3116.294596679439,1457
3117.996986869006,1444
3119.6990867213062,1409
3121.4008965534726,1406
3123.102416682717,1436
3124.803647426329,1475
3126.5045891016784,1471
3128.205242026213,1502
3129.90560651746,1474
3131.605682893025,1406
3133.3054714705922,1448
3135.0049725679282,1470
3136.7041865028714,1456
3138.4031135933465,1388
3140.101754157353,1470
3141.800108512971,1385
3143.498176978357,1405
3145.1959598717494,1379
3146.8934575114636,1414
3148.5906702158954,1424
3150.2875983035183,1442
3151.9842420928853,1447
3153.680601902627,1400
3155.376678051456,1375
3157.07247085816,1344
3158.767980641609,1381
3160.463207720748,1385
3162.158152414606,1413
3163.8528150422862,1437
3165.5471959229726,1448
3167.2412953759303,1378
3168.9351137204976,1426
3170.628651276098,1382
3172.3219083622307,1384
3174.014885298474,1465
3175.707582404485,1396
3177.4000000000005,1438
3179.092138404835,1402
3180.7839979388846,1401
3182.47557892212,1417
3184.166881674594,1399
3185.8579065164386,1335
3187.5486537678626,1378
3189.2391237491547,1374
3190.9293167806827,1364
3192.6192331828934,1339
3194.3088732763117,1408
3195.998237381542,1424
3197.687325819268,1412
3199.376138910251,1360
3201.064676975334,1362
3202.7529403354347,1360
3204.4409293115523,1370
3206.1286442247647,1341
3207.816085396229,1359
3209.5032531471825,1367
3211.190147798936,1347
3212.8767696728846,1310
3214.5631190905015,1387
3216.2491963733373,1351
3217.9350018430214,1324
3219.6205358212637,1351
3221.305798629851,1334
3222.990790590651,1305
3224.6755120256103,1366
3226.359963256751,1306
3228.0441446061795,1366
3229.7280563960758,1362
3231.411698948703,1359
3233.0950725863995,1383
3234.778177631587,1416
3236.461014406761,1340
3238.1435832345005,1340
3239.8258844374595,1399
3241.507918338374,1366
3243.1896852600576,1399
3244.8711855254023,1269
3246.552419457381,1330
3248.233387379042,1377
3249.914089613516,1273
3251.59452648401,1382
3253.274698313813,1375
3254.95460542629,1397
3256.6342481448855,1398
3258.313626793125,1366
3259.9927416946084,1380
3261.6715931730196,1397
3263.3501815521176,1296
3265.0285071557437,1339
3266.706570307815,1388
3268.3843713323286,1315
3270.0619105533615,1335
3271.739188295068,1345
3273.4162048816834,1310
3275.0929606375184,1393
3276.769455886966,1408
3278.445690954498,1447
3280.1216661646613,1423
3281.797381842087,1413
3283.4728383114807,1407
3285.1480358976296,1377
3286.8229749253996,1339
3288.4976557197333,1420
3290.172078605655,1419
3291.846243908266,1374
3293.5201519527463,1326
3295.193803064357,1341
3296.8671975684374,1371
3298.5403357904024,1352
3300.21321805575,1389
3301.8858446900567,1372
3303.558216018975,1386
3305.23033236824,1367
3306.9021940636603,1321
3308.57380143113,1391
3310.2451547966184,1365
3311.916254486174,1344
3313.5871008259246,1357
3315.2576941420766,1382
3316.9280347609147,1309
3318.5981230088046,1420
3320.2679592121895,1352
3321.9375436975924,1356
3323.606876791612,1335
3325.27595882093,1401
3326.944790112305,1251
3328.6133709925753,1302
3330.2817017886573,1390
3331.949782827547,1301
3333.617614436319,1342
3335.2851969421245,1317
3336.952530672199,1342
3338.619615953853,1382
3340.286453114475,1362
3341.9530424815357,1367
3343.619384382583,1393
3345.2854791452437,1343
3346.951327097224,1348
3348.6169285663073,1404
3350.2822838803577,1339
3351.947393367319,1360
3353.61225735521,1379
3355.2768761721345,1310
3356.9412501462693,1346
3358.605379605873,1384
3360.2692648792827,1417
3361.9329062949146,1379
3363.596304181263,1316
