CollectionTime,6/28/2024 2:49:28 PM
ExposureUsed,3
CalibratedSpectrum
-962.7078968117929,1048
-959.9714848408522,1129
-957.2358232597828,1159
-954.5009119013725,1053
-951.7667505983302,1144
-949.0333391832855,1114
-946.3006774887896,1126
-943.5687653473143,1107
-940.837602591253,1119
-938.1071890529199,1165
-935.3775245645503,1156
-932.6486089583007,1123
-929.9204420662485,1111
-927.1930237203925,1087
-924.4663537526524,1129
-921.7404319948689,1092
-919.0152582788041,1129
-916.2908324361409,1133
-913.5671542984834,1116
-910.8442236973568,1125
-908.1220404642074,1125
-905.4006044304027,1139
-902.679915427231,1131
-899.959973285902,1189
-897.2407778375464,1091
-894.5223289132158,1152
-891.8046263438832,1146
-889.0876699604426,1086
-886.3714595937089,1019
-883.6559950744183,1086
-880.9412762332282,1125
-878.2273029007168,1059
-875.5140749073835,1056
-872.8015920836489,1072
-870.0898542598545,1117
-867.3788612662631,1078
-864.6686129330585,1052
-861.9591090903457,1086
-859.2503495681506,1085
-856.5423341964203,1088
-853.8350628050229,1084
-851.1285352237478,1091
-848.4227512823054,1075
-845.7177108103272,1069
-843.0134136373656,1071
-840.3098595928943,1087
-837.6070485063082,1106
-834.9049802069229,1037
-832.2036545239757,1055
-829.5030712866244,1045
-826.8032303239481,1045
-824.1041314649472,1051
-821.4057745385428,1065
-818.7081593735775,1051
-816.0112857988148,1080
-813.3151536429393,1098
-810.6197627345566,1067
-807.9251129021936,1096
-805.2312039742981,1055
-802.5380357792392,1036
-799.8456081453069,1104
-797.1539209007124,1076
-794.462973873588,1027
-791.772766891987,1038
-789.083299783884,1099
-786.3945723771743,1061
-783.7065844996748,1063
-781.0193359791231,1047
-778.3328266431781,1109
-775.6470563194197,1060
-772.9620248353489,1098
-770.2777320183878,1043
-767.5941776958798,1078
-764.9113616950891,1100
-762.2292838432011,1046
-759.5479439673222,1111
-756.8673418944801,1070
-754.1874774516235,1085
-751.5083504656222,1040
-748.8299607632671,1070
-746.15230817127,1073
-743.475392516264,1079
-740.7992136248035,1076
-738.1237713233636,1094
-735.4490654383407,1129
-732.7750957960521,1137
-730.1018622227365,1130
-727.4293645445534,1156
-724.7576025875837,1111
-722.0865761778291,1185
-719.4162851412126,1146
-716.7467293035781,1164
-714.0779084906909,1190
-711.409822528237,1159
-708.7424712418238,1177
-706.0758544569796,1163
-703.4099719991541,1213
-700.7448236937178,1147
-698.0804093659622,1187
-695.4167288411002,1149
-692.7537819442656,1159
-690.0915685005134,1225
-687.4300883348199,1164
-684.7693412720819,1222
-682.1093271371178,1208
-679.4500457546669,1176
-676.7914969493897,1182
-674.1336805458676,1212
-671.4765963686034,1165
-668.8202442420206,1202
-666.1646239904642,1234
-663.5097354382001,1218
-660.8555784094151,1271
-658.2021527282176,1232
-655.5494582186366,1216
-652.8974947046223,1208
-650.2462620100463,1290
-647.5957599587009,1290
-644.9459883742998,1252
-642.2969470804776,1274
-639.6486359007902,1263
-637.0010546587141,1318
-634.3542031776476,1251
-631.7080812809096,1244
-629.0626887917401,1214
-626.4180255333008,1249
-623.7740913286734,1248
-621.1308860008619,1259
-618.4884093727904,1186
-615.8466612673046,1256
-613.2056415071715,1198
-610.5653499150785,1283
-607.9257863136347,1193
-605.28695052537,1225
-602.6488423727357,1167
-600.0114616781036,1193
-597.3748082637674,1222
-594.7388819519412,1220
-592.1036825647604,1256
-589.4692099242818,1256
-586.8354638524829,1222
-584.2024441712624,1219
-581.5701507024403,1224
-578.9385832677575,1186
-576.3077416888759,1173
-573.6776257873787,1251
-571.0482353847704,1230
-568.4195703024757,1247
-565.7916303618415,1271
-563.164415384135,1251
-560.5379251905453,1237
-557.9121596021815,1267
-555.2871184400748,1232
-552.6628015251767,1203
-550.0392086783606,1238
-547.4163397204204,1254
-544.794194472071,1264
-542.1727727539491,1248
-539.5520743866118,1276
-536.9320991905377,1311
-534.3128469861261,1363
-531.6943175936979,1338
-529.0765108334947,1396
-526.4594265256793,1519
-523.8430644903358,1534
-521.2274245474689,1707
-518.612506517005,1828
-515.9983102187913,1881
-513.3848354725959,1959
-510.77208209810846,1993
-508.16004991493924,2020
-505.5487387426199,2137
-502.9381484006032,2279
-500.3282787082628,2372
-497.71912948489364,2417
-495.1107005497117,2409
-492.5029917218539,2288
-489.8960028203786,2114
-487.28973366426493,1987
-484.68418407241325,1819
-482.07935386364494,1626
-479.47524285670266,1567
-476.87185087025,1603
-474.2691777228715,1557
-471.66722323307334,1500
-469.0659872192821,1495
-466.4654694998459,1577
-463.86566989303384,1452
-461.26658821703614,1506
-458.66822428996414,1494
-456.07057792985,1468
-453.4736489546475,1499
-450.877437182231,1502
-448.28194243039627,1404
-445.68716451686,1447
-443.09310325926003,1400
-440.49975847515555,1461
-437.9071299820263,1408
-435.31521759727354,1411
-432.72402113821954,1454
-430.13354042210767,1486
-427.5437752661022,1523
-424.95472548728867,1449
-422.36639090267386,1469
-419.7787713291855,1535
-417.1918665836721,1459
-414.60567648290385,1519
-412.0202008435715,1519
-409.4354394822874,1555
-406.8513922155845,1516
-404.26805885991723,1484
-401.685439231661,1552
-399.103533147112,1477
-396.522340422488,1465
-393.9418608739278,1503
-391.3620943174908,1392
-388.7830405691583,1409
-386.2046994448317,1391
-383.6270707603344,1286
-381.05015433141045,1181
-378.473949973725,1074
-375.8984575028645,988
-373.32367673433623,890
-370.74960748356875,851
-368.1762495659117,806
-365.60360279663576,760
-363.03166699093265,675
-360.4604419639154,595
-357.8899275306178,554
-355.32012350599507,556
-352.7510297049233,526
-350.1826459421999,501
-347.61497203254316,542
-345.04800779059235,521
-342.4817530309082,477
-339.91620756797226,446
-337.35137121618743,481
-334.7872437898774,474
-332.22382510328725,513
-329.66111497058273,541
-327.09911320585127,560
-324.53781962310075,578
-321.9772340362607,592
-319.4173562591816,539
-316.8581861056348,496
-314.2997233893127,516
-311.7419679238294,559
-309.1849195227194,533
-306.62857799943856,492
-304.0729431673641,502
-301.51801483979375,518
-298.963792829947,521
-296.41027695096386,562
-293.85746701590574,582
-291.3053628377552,649
-288.7539642294155,606
-286.2032710037115,555
-283.65328297338897,587
-281.1039999511146,623
-278.5554217494762,619
-276.007548180983,614
-273.4603790580651,607
-270.9139141930734,576
-268.3681533982807,603
-265.8230964858798,617
-263.27874326798565,628
-260.7350935566336,653
-258.1921471637804,649
-255.6499039013039,625
-253.10836358100266,610
-250.56752601459698,604
-248.02739101372765,700
-245.48795838995704,782
-242.94922795476816,694
-240.41119951956557,745
-237.8738728956746,714
-235.33724789434166,831
-232.80132432673452,891
-230.2661020039418,838
-227.73158073697357,735
-225.19776033676033,664
-222.66464061415422,730
-220.1322213799284,723
-217.60050244477725,692
-215.06948361931552,726
-212.53916471408013,747
-210.00954553952818,731
-207.48062590603843,763
-204.9524056239104,717
-202.4248845033651,788
-199.8980623545441,694
-197.37193898751036,645
-194.84651421224817,743
-192.32178783866232,833
-189.79775967657952,803
-187.27442953574644,854
-184.7517972258321,824
-182.2298625564256,815
-179.7086253370378,792
-177.18808537710026,752
-174.66824248596583,815
-172.14909647290835,972
-169.6306471471229,957
-167.11289431772548,889
-164.59583779375328,807
-162.07947738416453,940
-159.5638128978386,969
-157.04884414357605,1025
-154.53457093009854,1012
-152.02099306604828,984
-149.50811035998936,1046
-146.99592262040665,953
-144.48442965570587,1029
-141.97363127421409,1042
-139.46352728417958,973
-136.95411749377126,1008
-134.44540171107985,1142
-131.93737974411636,1163
-129.43005140081357,1140
-126.92341648902493,1291
-124.41747481652521,1266
-121.91222619101006,1323
-119.40767042009657,1210
-116.90380731132257,1217
-114.40063667214702,1312
-111.8981583099503,1355
-109.3963720320337,1514
-106.89527764561933,1531
-104.39487495785067,1608
-101.89516377579241,1597
-99.39614390642998,1600
-96.89781515667039,1624
-94.40017733334128,2034
-91.90323024319173,1978
-89.40697369289148,1829
-86.91140748903172,1775
-84.41653143812482,1700
-81.92234534660395,1741
-79.42884902082358,1962
-76.93604226705907,2055
-74.4439248915071,1936
-71.95249670028534,1850
-69.46175749943245,2126
-66.97170709490854,2479
-64.48234529259423,2891
-61.99367189829195,2299
-59.50568671772464,2343
-57.01838955653636,2841
-54.53178022029283,2922
-52.045858514480074,2900
-49.560624244506016,3187
-47.07607721569923,3221
-44.59221723330904,3094
-42.10904410250669,3009
-39.62655762838392,3903
-37.14475761595372,5316
-34.66364387015028,5913
-32.18321619582866,6331
-29.70347439776515,7142
-27.224418280657005,8955
-24.74604764912317,13695
-22.26836230770266,23820
-19.7913620608565,40544
-17.315046712966478,52147
-14.83941606833514,56182
-12.36446993118659,65031
-9.89020810566592,65031
-7.416630395839093,65031
-4.94373660569363,65031
-2.471526539137585,65031
-6.821210263296962E-13,65031
2.47084320796705,65031
4.941003281093458,65031
7.410480415786196,65031
9.879274808531363,65031
12.347386655893956,65031
14.814816154518212,65031
17.28156350112681,65031
19.74762889252179,65031
22.21301252558385,65031
24.67771459727237,48355
27.141735304626195,21462
29.605074844762612,10964
32.06773341487792,7254
34.52971121224755,7534
36.99100843422559,7974
39.45162527824516,7460
41.91156194181792,6232
44.370818622535126,7121
46.82939551806646,8941
49.287292826160524,11945
51.74451074464503,11698
54.201049471426245,9086
56.65690920448981,7333
59.112090141899785,5481
61.56659248179983,4324
64.02041642241159,3434
66.4735621620365,3399
68.92602989905402,2658
71.37781983192338,2481
73.82893215918205,2794
76.27936707944684,2968
78.72912479141326,2461
81.17820549385567,2357
83.62660938562783,2191
86.07433666566146,2087
88.5213875329681,2127
90.96776218663751,2095
93.41346082583925,1982
95.85848364982041,1959
98.30283085790859,1906
100.7465026495089,1926
103.18949922410604,1837
105.63182078126385,1931
108.07346752062438,1908
110.51443964190923,1682
112.95473734491827,1411
115.39436082953114,1457
117.83331029570547,1612
120.27158594347827,1606
122.7091879729652,1462
125.1461165843615,1500
127.58237197794062,1544
130.01795435405518,1337
132.4528639131364,1406
134.88710085569494,1435
137.32066538231982,1387
139.75355769367923,1436
142.1857779905207,1464
144.61732647366978,1574
147.04820334403132,1566
149.47840880258934,1498
151.90794305040674,1624
154.33680628862487,1919
156.76499871846443,1960
159.19252054122433,2063
161.61937195828352,2226
164.04555317109896,2466
166.47106438120693,2674
168.89590579022217,2975
171.320077599839,3115
173.7435800118302,3196
176.16641322804742,3311
178.58857745042144,3447
181.01007288096173,3576
183.43089972175687,3662
185.85105817497413,3664
188.27054844285988,3821
190.6893707277394,3718
193.10752523201643,3671
195.5250121581745,3784
197.9418317087751,3915
200.3579840864594,3936
202.7734694939469,4008
205.18828813403627,3918
207.6024402096051,3808
210.01592592360964,3647
212.42874547908548,3615
214.84089907914665,3493
217.2523869269868,3616
219.66320922587727,3575
222.0733661791695,3559
224.48285799029293,3657
226.8916848627572,3650
229.29984700014882,3706
231.7073446061355,3803
234.11417788446204,3788
236.520347038953,3932
238.92585227351185,3964
241.33069379212054,4073
243.73487179884035,4040
246.1383864978112,4091
248.541238093252,4094
250.9434267894609,4076
253.34495279081432,4004
255.74581630176783,4048
258.1460175268563,4183
260.54555667069314,4144
262.9444339379703,3905
265.3426495334594,3922
267.7402036620107,3853
270.1370965285529,3691
272.53332833809407,3540
274.9288992957214,3489
277.32380960660055,3338
279.718059475976,3333
282.1116491091717,3213
284.5045787115897,3265
286.89684848871195,3252
289.2884586460981,3244
291.67940938938807,3224
294.0697009242996,3341
296.4593334566299,3103
298.84830719225477,3127
301.23662233712923,3107
303.6242790972866,3029
306.01127767884,3067
308.39761828798066,3110
310.78330113097934,3002
313.16832641418534,3089
315.5526943440269,2958
317.9364051270112,2873
320.3194589697242,2846
322.70185607883093,2870
325.0835966610754,2875
327.4646809232805,2788
329.8451090723478,2818
332.2248813152577,2737
334.6039978590701,2800
336.9824589109231,2766
339.36026467803447,2744
341.7374153677,2741
344.113911187295,2699
346.48975234427337,2689
348.8649390461686,2588
351.2394715005918,2613
353.61334991523415,2680
355.9865744978655,2626
358.35914545633375,2705
360.73106299856715,2575
363.10232733257146,2601
365.47293866643247,2628
367.84289720831396,2606
370.2122031664593,2625
372.5808567491905,2597
374.9488581649083,2690
377.31620762209275,2579
379.6829053293021,2538
382.0489514951745,2529
384.4143463284262,2450
386.7790900378528,2520
389.14318283232853,2509
391.50662492080653,2585
393.86941651231916,2430
396.23155781597745,2461
398.5930490409713,2418
400.9538903965696,2483
403.3140820921202,2385
405.6736243370498,2507
408.03251734086336,2436
410.3907613131465,2439
412.74835646356166,2371
415.10530300185144,2440
417.4616011378372,2479
419.81725108141893,2505
422.1722530425758,2443
424.5266072313656,2412
426.880313857925,2397
429.2333731324701,2381
431.58578526529516,2384
433.9375504667738,2452
436.2886689473588,2344
438.63914091758113,2400
440.9889665880513,2413
443.33814616945835,2444
445.68667987257015,2401
448.03456790823395,2320
450.3818104873759,2256
452.72840782100013,2379
455.07436012019105,2316
457.41966759611057,2340
459.7643304600007,2312
462.10834892318155,2405
464.4517231970525,2424
466.79445349309174,2416
469.1365400228566,2396
471.4779829979826,2455
473.81878263018564,2394
476.15893913125876,2471
478.4984527130747,2501
480.8373235875855,2556
483.17555196682144,2571
485.5131380628919,2584
487.8500820879857,2725
490.1863842543697,2862
492.52204477439034,3076
494.8570638604725,3249
497.1914417251204,3530
499.52517858091653,3654
501.85827464052306,3916
504.19073011668036,3950
506.5225452222086,3858
508.85372017000566,3817
511.18425517304956,3836
513.514150444396,3907
515.8434061971808,4562
518.1720226446176,5089
520.4999999999999,5314
522.8273384766991,5627
525.1540382881666,5743
527.480099647932,5363
529.8055227696037,4457
532.1303078668694,3158
534.454455153496,2641
536.777964843328,2490
539.1008371502907,2378
541.4230722883866,2284
543.744670471698,2309
546.0656319143858,2305
548.3859568306899,2283
550.7056454349294,2236
553.0246979415016,2214
555.3431145648834,2287
557.6608955196306,2256
559.978041020377,2190
562.2945512818363,2224
564.6104265188006,2151
566.9256669461412,2131
569.2402727788082,2104
571.5542442318302,2214
573.8675815203156,2193
576.1802848594508,2168
578.4923544645015,2119
580.8037905508126,2133
583.114593333807,2245
585.4247630289875,2168
587.7342998519354,2114
590.0432040183106,2144
592.3514757438526,2188
594.6591152443794,2153
596.9661227357875,2189
599.2724984340531,2177
601.578242555231,2127
603.8833553154542,2250
606.1878369309362,2186
608.4916876179676,2181
610.7949075929192,2182
613.0974970722403,2222
615.3994562724587,2204
617.7007854101818,2197
620.0014847020951,2307
622.3015543649641,2168
624.6009946156324,2213
626.8998056710224,2267
629.1979877481361,2224
631.4955410640538,2272
633.7924658359349,2218
636.0887622810175,2303
638.3844306166192,2260
640.6794710601358,2287
642.9738838290426,2339
645.2676691408932,2254
647.5608272133207,2246
649.853358264037,2288
652.1452625108324,2352
654.4365401715764,2296
656.7271914642178,2354
659.0172166067838,2377
661.3066158173809,2325
663.5953893141935,2279
665.8835373154867,2249
668.1710600396028,2344
670.4579577049639,2309
672.7442305300709,2332
675.0298787335033,2291
677.3149025339197,2342
679.599302150058,2328
681.8830778007342,2324
684.1662297048437,2304
686.4487580813608,2330
688.7306631493387,2272
691.0119451279091,2258
693.2926042362834,2309
695.5726406937516,2366
697.8520547196814,2314
700.1308465335215,2319
702.4090163547982,2360
704.6865644031171,2250
706.9634908981619,2311
709.2397960596965,2349
711.5154801075631,2287
713.7905432616823,2213
716.0649857420548,2277
718.3388077687592,2281
720.612009561953,2294
722.8845913418733,2291
725.1565533288352,2332
727.427895743234,2240
729.6986188055427,2251
731.9687227363137,2324
734.238207756178,2315
736.5070740858458,2235
738.7753219461066,2262
741.0429515578281,2300
743.3099631419569,2249
745.5763569195191,2230
747.8421331116193,2250
750.1072919394409,2293
752.3718336242467,2264
754.6357583873777,2184
756.8990664502545,2259
759.1617580343765,2209
761.423833361321,2217
763.6852926527457,2192
765.9461361303862,2254
768.206364016058,2224
770.4659765316536,2289
772.7249738991469,2295
774.9833563405886,2286
777.2411240781092,2257
779.4982773339183,2284
781.7548163303044,2295
784.010741289634,2284
786.2660524343538,2294
788.5207499869881,2286
790.7748341701416,2296
793.0283052064964,2324
795.2811633188143,2239
797.5334087299362,2287
799.7850416627813,2269
802.0360623403484,2323
804.2864709857143,2305
806.5362678220353,2300
808.7854530725468,2324
811.0340269605625,2374
813.2819897094754,2256
815.5293415427581,2334
817.77608268396,2334
820.0222133567116,2299
822.2677337847211,2335
824.5126441917765,2315
826.7569448017433,2267
829.0006358385675,2314
831.2437175262731,2325
833.4861900889629,2278
835.7280537508192,2385
837.9693087361026,2229
840.2099552691533,2287
842.4499935743896,2261
844.689423876309,2351
846.9282463994886,2231
849.1664613685833,2299
851.4040690083276,2235
853.6410695435349,2305
855.877463199097,2281
858.1132501999847,2331
860.3484307712487,2325
862.5830051380175,2354
864.8169735254988,2337
867.0503361589791,2293
869.2830932638243,2335
871.5152450654786,2342
873.7467917894654,2386
875.9777336613873,2378
878.2080709069252,2447
880.4378037518389,2388
882.666932421968,2315
884.8954571432301,2371
887.1233781416219,2375
889.3506956432192,2349
891.5774098741766,2405
893.803521060728,2408
896.0290294291852,2400
898.2539352059397,2437
900.4782386174619,2376
902.7019398903011,2360
904.925039251085,2390
907.147536926521,2441
909.3694331433943,2316
911.59072812857,2308
913.8114221089921,2304
916.0315153116827,2347
918.2510079637437,2437
920.4699002923547,2435
922.6881925247761,2289
924.905884888345,2321
927.1229776104793,2394
929.3394709186747,2307
931.555365040506,2351
933.7706602036275,2436
935.9853566357709,2379
938.1994545647489,2373
940.4129542184515,2398
942.6258558248488,2402
944.8381596119883,2393
947.0498658079974,2405
949.2609746410825,2291
951.4714863395287,2283
953.6814011316998,2333
955.8907192460387,2348
958.0994409110671,2330
960.3075663553858,2276
962.5150958076741,2365
964.7220294966913,2334
966.928367651274,2295
969.1341105003388,2305
971.3392582728806,2325
973.5438111979742,2293
975.747769504772,2233
977.9511334225061,2326
980.153903180487,2191
982.3560790081052,2229
984.5576611348289,2314
986.7586497902058,2180
988.9590452038618,2180
991.158847605503,2127
993.3580572249133,2166
995.5566742919558,2118
997.7546990365728,2077
999.952131688785,2096
1002.1489724786926,2082
1004.3452216364743,1981
1006.5408793923874,1981
1008.7359459767691,1989
1010.9304216200343,2046
1013.1243065526781,1978
1015.3176010052733,2032
1017.510305208472,2012
1019.7024193930064,1946
1021.8939437896848,1995
1024.0848786293977,1938
1026.2752241431122,2027
1028.4649805618747,1953
1030.6541481168115,1964
1032.842727039127,1960
1035.0307175601051,1929
1037.2181199111074,1959
1039.4049343235752,1956
1041.591161029029,1974
1043.7768002590683,2017
1045.9618522453698,1999
1048.1463172196918,1953
1050.3301954138697,1914
1052.513487059818,1959
1054.69619238953,1935
1056.8783116350783,1910
1059.0598450286152,1912
1061.2407928023704,1930
1063.4211551886528,1995
1065.6009324198508,1876
1067.780124728432,1912
1069.9587323469414,1936
1072.1367555080046,1999
1074.314194444325,1954
1076.4910493886855,1963
1078.667320573947,1899
1080.843008233051,1839
1083.0181125990161,1915
1085.1926339049414,1894
1087.3665723840027,1882
1089.5399282694575,1851
1091.7127017946405,1924
1093.8848931929647,1863
1096.0565026979243,1821
1098.2275305430899,1772
1100.3979769621128,1856
1102.567842188722,1821
1104.737126456726,1805
1106.9058300000124,1867
1109.0739530525475,1809
1111.2414958483764,1800
1113.4084586216231,1854
1115.5748416064907,1756
1117.7406450372605,1762
1119.9058691482942,1828
1122.0705141740304,1771
1124.2345803489884,1777
1126.3980679077658,1740
1128.5609770850388,1838
1130.7233081155623,1788
1132.8850612341707,1748
1135.0462366757774,1830
1137.2068346753745,1787
1139.3668554680326,1810
1141.526299288901,1783
1143.68516637321,1726
1145.8434569562655,1720
1148.001171273455,1740
1150.158309560244,1767
1152.3148720521767,1771
1154.470858984876,1789
1156.626270594044,1776
1158.7811071154629,1752
1160.9353687849912,1741
1163.089055838569,1772
1165.242168512213,1768
1167.3947070420209,1712
1169.5466716641677,1778
1171.6980626149075,1739
1173.8488801305748,1828
1175.9991244475814,1702
1178.1487958024186,1716
1180.2978944316555,1737
1182.4464205719428,1746
1184.5943744600072,1734
1186.7417563326567,1750
1188.8885664267755,1751
1191.0348049793297,1743
1193.1804722273619,1738
1195.325568407995,1836
1197.4700937584303,1782
1199.614048515948,1758
1201.7574329179074,1721
1203.900247201746,1683
1206.042491604982,1679
1208.1841663652099,1722
1210.3252717201053,1759
1212.465807907422,1732
1214.6057751649923,1748
1216.7451737307279,1817
1218.8840038426192,1700
1221.0222657387353,1736
1223.1599596572241,1801
1225.2970858363137,1750
1227.4336445143094,1743
1229.5696359295966,1790
1231.705060320639,1737
1233.8399179259786,1735
1235.9742089842384,1682
1238.107933734118,1796
1240.2410924143974,1756
1242.373685263935,1790
1244.5057125216676,1810
1246.6371744266116,1787
1248.7680712178621,1755
1250.898403134593,1732
1253.028170416058,1678
1255.1573733015875,1791
1257.2860120305932,1736
1259.4140868425648,1757
1261.54159797707,1762
1263.6685456737569,1758
1265.7949301723515,1767
1267.9207517126597,1719
1270.046010534565,1814
1272.1707068780306,1821
1274.2948409830983,1802
1276.4184130898889,1852
1278.541423438603,1799
1280.6638722695184,1821
1282.785759822993,1859
1284.9070863394636,1811
1287.0278520594447,1878
1289.1480572235314,1910
1291.2677020723963,1869
1293.3867868467923,1838
1295.5053117875495,1918
1297.623277135579,1939
1299.740683131868,1892
1301.8575300174857,1953
1303.973818033578,1907
1306.0895474213703,2016
1308.2047184221678,1928
1310.3193312773528,1930
1312.4333862283888,1915
1314.5468835168163,1907
1316.659823384255,1872
1318.7722060724045,1901
1320.8840318230418,1924
1322.9953008780249,1973
1325.1060134792888,1930
1327.2161698688478,1991
1329.3257702887959,1904
1331.4348149813054,2002
1333.5433041886276,1918
1335.6512381530933,1954
1337.7586171171101,1861
1339.8654413231675,1955
1341.9717110138317,1865
1344.0774264317488,1943
1346.1825878196432,1934
1348.2871954203192,1902
1350.3912494766587,1822
1352.4947502316231,1899
1354.5976979282532,1880
1356.7000928096686,1925
1358.8019351190665,1941
1360.9032250997243,1880
1363.0039629949988,1939
1365.1041490483235,1969
1367.2037835032133,1908
1369.3028666032606,1916
1371.401398592137,1906
1373.4993797135926,1958
1375.5968102114575,1874
1377.6936903296396,1803
1379.7900203121262,1949
1381.8858004029835,1926
1383.9810308463561,1948
1386.075711886469,1910
1388.1698437676241,1967
1390.2634267342032,1975
1392.356461030667,1959
1394.4489469015557,1988
1396.5408845914872,1927
1398.6322743451592,2035
1400.7231164073469,2024
1402.813411022907,1969
1404.903158436773,2005
1406.9923588939578,1978
1409.0810126395531,2035
1411.1691199187303,2021
1413.2566809767386,1964
1415.343696058907,2083
1417.4301654106425,2094
1419.5160892774315,2071
1421.6014679048399,2033
1423.6863015385125,2061
1425.7705904241707,2183
1427.8543348076178,2129
1429.9375349347342,2154
1432.0201910514802,2168
1434.102303403894,2094
1436.1838722380944,2158
1438.2648978002767,2175
1440.3453803367174,2286
1442.4253200937692,2288
1444.5047173178677,2228
1446.5835722555234,2382
1448.6618851533285,2426
1450.739656257952,2402
1452.8168858161434,2523
1454.8935740747306,2476
1456.96972128062,2412
1459.045327680797,2533
1461.120393522327,2568
1463.1949190523528,2611
1465.2689045180973,2586
1467.3423501668608,2676
1469.415256246024,2695
1471.4876230030463,2687
1473.559450685465,2852
1475.6307395408976,2892
1477.7014898170391,2985
1479.771701761665,2996
1481.8413756226287,3040
1483.9105116478618,2990
1485.9791100853772,3074
1488.0471711832643,3096
1490.1146951896926,3337
1492.1816823529098,3349
1494.2481329212433,3400
1496.3140471430984,3353
1498.3794252669609,3368
1500.4442675413939,3580
1502.5085742150404,3477
1504.572345536622,3507
1506.6355817549388,3614
1508.6982831188702,3620
1510.7604498773744,3691
1512.8220822794883,3739
1514.8831805743293,3757
1516.9437450110909,3823
1519.003775839048,3853
1521.0632733075522,4027
1523.1222376660367,3938
1525.1806691640113,4028
1527.2385680510652,4146
1529.2959345768668,4323
1531.3527689911643,4362
1533.4090715437833,4384
1535.4648424846291,4533
1537.5200820636855,4625
1539.5747905310159,4689
1541.6289681367616,4683
1543.6826151311434,4757
1545.7357317644614,4884
1547.7883182870937,4949
1549.8403749494987,5031
1551.8919020022113,5019
1553.9428996958477,5222
1555.9933682811015,5358
1558.0433080087469,5505
1560.0927191296346,5521
1562.1416018946961,5628
1564.1899565549415,5651
1566.2377833614592,5743
1568.2850825654164,5514
1570.3318544180606,5411
1572.3780991707158,5096
1574.423817074788,5010
1576.4690083817595,4786
1578.5136733431923,4589
1580.5578122107272,4350
1582.601425236085,4045
1584.6445126710646,3706
1586.6870747675434,3659
1588.7291117774776,3447
1590.7706239529034,3300
1592.8116115459347,3115
1594.8520748087658,3001
1596.8920139936686,2876
1598.9314293529933,2750
1600.9703211391711,2691
1603.008689604711,2576
1605.0465350022005,2560
1607.0838575843068,2360
1609.1206576037753,2316
1611.1569353134305,2349
1613.1926909661765,2312
1615.2279248149953,2223
1617.2626371129481,2162
1619.2968281131757,2133
1621.3304980688963,2111
1623.3636472334088,2132
1625.39627586009,2088
1627.428384202396,2000
1629.459972513861,2056
1631.4910410480993,2047
1633.5215900588028,1960
1635.551619799744,1951
1637.5811305247717,1976
1639.6101224878166,1936
1641.6385959428862,1907
1643.6665511440683,1894
1645.693988345528,1954
1647.7209078015112,1912
1649.7473097663405,1909
1651.7731944944203,1917
1653.7985622402307,1886
1655.823413258333,1810
1657.847747803366,1861
1659.8715661300494,1816
1661.8948684931793,1858
1663.9176551476316,1822
1665.9399263483624,1841
1667.9616823504057,1824
1669.982923408873,1825
1672.0036497789574,1806
1674.0238617159293,1750
1676.043559475138,1712
1678.0627433120121,1841
1680.081413482059,1834
1682.0995702408654,1730
1684.117213844096,1829
1686.134344547495,1774
1688.1509626068864,1756
1690.1670682781705,1806
1692.182661817329,1759
1694.1977434804217,1719
1696.2123135235875,1747
1698.226372203043,1811
1700.2399197750851,1724
1702.2529564960905,1777
1704.2654826225112,1811
1706.277498410882,1769
1708.2890041178139,1807
1710.2999999999988,1760
1712.3104863142066,1724
1714.3204633172854,1770
1716.329931266163,1751
1718.3388904178469,1744
1720.3473410294214,1783
1722.3552833580516,1714
1724.3627176609807,1728
1726.3696441955308,1708
1728.3760632191033,1690
1730.3819749891782,1673
1732.3873797633146,1682
1734.3922777991502,1689
1736.3966693544012,1726
1738.4005546868639,1688
1740.4039340544127,1666
1742.406807715001,1726
1744.4091759266616,1653
1746.4110389475054,1674
1748.4123970357223,1666
1750.413250449582,1641
1752.4135994474318,1620
1754.4134442876993,1632
1756.4127852288902,1682
1758.4116225295893,1634
1760.4099564484595,1666
1762.407787244244,1586
1764.405115175764,1638
1766.4019405019203,1631
1768.3982634816916,1595
1770.3940843741357,1616
1772.3894034383907,1586
1774.3842209336717,1590
1776.378537119274,1559
1778.372352254571,1668
1780.3656665990156,1584
1782.3584804121397,1589
1784.3507939535534,1559
1786.3426074829463,1644
1788.3339212600863,1573
1790.3247355448211,1530
1792.3150505970766,1539
1794.3048666768573,1580
1796.2941840442477,1565
1798.2830029594106,1591
1800.2713236825884,1519
1802.2591464741004,1611
1804.2464715943465,1582
1806.2332993038058,1540
1808.2196298630352,1585
1810.2054635326708,1579
1812.190800573428,1549
1814.175641246101,1518
1816.1599858115628,1575
1818.1438345307652,1528
1820.127187664738,1494
1822.1100454745924,1537
1824.092408221516,1520
1826.0742761667766,1547
1828.055649571721,1572
1830.0365286977735,1532
1832.0169138064398,1509
1833.9968051593014,1546
1835.9762030180214,1489
1837.9551076443408,1511
1839.9335193000788,1535
1841.9114382471344,1519
1843.888864747485,1523
1845.8657990631878,1556
1847.842241456378,1468
1849.8181921892697,1472
1851.7936515241558,1502
1853.7686197234098,1507
1855.7430970494815,1469
1857.7170837649014,1507
1859.6905801322787,1492
1861.6635864143004,1476
1863.6361028737338,1519
1865.608129773424,1481
1867.5796673762961,1547
1869.5507159453537,1484
1871.521275743678,1526
1873.4913470344313,1494
1875.4609300808534,1495
1877.4300251462632,1515
1879.3986324940588,1525
1881.366752387717,1479
1883.3343850907936,1508
1885.3015308669228,1521
1887.268189979819,1474
1889.2343626932739,1457
1891.2000492711595,1499
1893.1652499774254,1559
1895.1299650761011,1547
1897.0941948312952,1542
1899.0579395071945,1508
1901.0211993680641,1507
1902.98397467825,1565
1904.9462657021745,1482
1906.9080727043415,1536
1908.869395949332,1515
1910.8302357018065,1559
1912.790592226504,1486
1914.7504657882428,1505
1916.7098566519212,1557
1918.6687650825133,1481
1920.6271913450764,1470
1922.5851357047422,1532
1924.5425984267245,1546
1926.499579776314,1531
1928.4560800188833,1570
1930.4120994198802,1520
1932.367638244833,1457
1934.32269675935,1482
1936.2772752291175,1473
1938.231373919899,1506
1940.1849930975404,1581
1942.1381330279637,1544
1944.0907939771696,1559
1946.0429762112412,1582
1947.9946799963363,1545
1949.9459055986945,1495
1951.896653284633,1498
1953.8469233205478,1525
1955.7967159729142,1511
1957.7460315082863,1557
1959.6948701932974,1512
1961.6432322946594,1500
1963.5911180791632,1477
1965.5385278136787,1504
1967.4854617651545,1549
1969.4319202006182,1463
1971.377903387176,1490
1973.3234115920136,1539
1975.268445082395,1544
1977.2130041256642,1554
1979.1570889892423,1495
1981.1006999406304,1493
1983.04383724741,1540
1984.986501177238,1492
1986.928691997853,1505
1988.8704099770712,1496
1990.811655382789,1487
1992.7524284829801,1464
1994.692729545698,1435
1996.6325588390755,1427
1998.5719166313224,1502
2000.5108031907307,1495
2002.4492187856677,1510
2004.387163684583,1477
2006.3246381560011,1493
2008.2616424685298,1460
2010.1981768908527,1418
2012.1342416917332,1479
2014.069837140014,1513
2016.0049635046162,1478
2017.9396210545406,1496
2019.8738100588666,1452
2021.8075307867502,1451
2023.740783507431,1417
2025.6735684902228,1468
2027.6058860045214,1453
2029.5377363198004,1473
2031.4691197056118,1489
2033.4000364315875,1431
2035.3304867674374,1443
2037.260470982952,1430
2039.189989347998,1452
2041.1190421325232,1499
2043.047629606554,1455
2044.9757520401945,1425
2046.9034097036288,1473
2048.8306028671195,1459
2050.7573318010086,1419
2052.683596775716,1437
2054.609398061742,1435
2056.5347359296647,1508
2058.4596106501403,1419
2060.384022493906,1408
2062.3079717317764,1492
2064.231458634646,1440
2066.1544834734873,1477
2068.077046519352,1505
2069.99914804337,1431
2071.9207883167524,1452
2073.8419676107865,1465
2075.7626861968406,1455
2077.6829443463607,1444
2079.6027423308715,1358
2081.522080421977,1425
2083.440958891362,1409
2085.359378010786,1436
2087.2773380520907,1434
2089.194839287196,1428
2091.111881988101,1475
2093.0284664268825,1479
2094.9445928756973,1481
2096.86026160678,1490
2098.775472892446,1493
2100.690227005088,1487
2102.604524217178,1474
2104.5183648012676,1425
2106.431749029985,1444
2108.34467717604,1409
2110.2571495122206,1421
2112.169166311393,1411
2114.080727846503,1455
2115.9918343905747,1417
2117.902486216711,1411
2119.8126835980956,1501
2121.722426807987,1464
2123.6317161197285,1425
2125.5405518067364,1470
2127.448934142509,1436
2129.356863400624,1438
2131.264339854737,1482
2133.1713637785815,1427
2135.077935445972,1443
2136.9840551308002,1495
2138.889723107037,1478
2140.7949396487334,1491
2142.699705030018,1466
2144.6040195250994,1454
2146.507883408264,1460
2148.4112969538774,1438
2150.3142604363848,1466
2152.2167741303097,1388
2154.1188383102535,1440
2156.0204532508997,1451
2157.9216192270064,1473
2159.822336513414,1490
2161.7226053850413,1433
2163.622426116884,1425
2165.5217989840185,1393
2167.4207242616,1438
2169.319202224862,1426
2171.2172331491165,1504
2173.1148173097563,1350
2175.0119549822507,1391
2176.90864644215,1415
2178.8048919650823,1441
2180.7006918267534,1487
2182.596046302952,1459
2184.4909556695407,1396
2186.3854202024645,1443
2188.279440177746,1454
2190.173015871487,1452
2192.066147559868,1425
2193.958835519149,1425
2195.851080025667,1489
2197.7428813558417,1473
2199.6342397861667,1436
2201.5251555932186,1453
2203.415629053651,1449
2205.3056604441986,1414
2207.19525004167,1474
2209.084398122958,1362
2210.9731049650327,1412
2212.861370844941,1450
2214.749196039812,1478
2216.636580826851,1438
2218.523525483344,1429
2220.410030286655,1495
2222.296095514226,1430
2224.1817214435805,1426
2226.066908352319,1453
2227.951656518121,1465
2229.835966218746,1432
2231.71983773203,1407
2233.6032713358913,1428
2235.486267308324,1441
2237.3688259274036,1480
2239.2509474712824,1457
2241.132632218193,1412
2243.013880446447,1384
2244.8946924344323,1475
2246.7750684606203,1429
2248.6550088035574,1465
2250.534513741871,1418
2252.413583554265,1393
2254.292218519526,1375
2256.170418916517,1403
2258.0481850241786,1370
2259.925517121534,1425
2261.8024154876825,1454
2263.678880401803,1398
2265.5549121431536,1488
2267.430510991071,1470
2269.305677224971,1483
2271.180411124348,1425
2273.0547129687766,1428
2274.9285830379076,1447
2276.8020216114737,1442
2278.6750289692845,1492
2280.5476053912294,1441
2282.4197511572766,1423
2284.2914665474727,1449
2286.162751841943,1402
2288.0336073208937,1460
2289.904033264608,1501
2291.774029953448,1486
2293.6435976678554,1395
2295.5127366883517,1444
2297.381447295534,1469
2299.2497297700825,1476
2301.1175843927526,1469
2302.9850114443825,1416
2304.852011205885,1437
2306.7185839582553,1461
2308.5847299825664,1498
2310.4504495599676,1479
2312.3157429716925,1480
2314.1806104990483,1457
2316.0450524234247,1460
2317.9090690262888,1451
2319.772660589186,1464
2321.635827393742,1511
2323.498569721661,1466
2325.3608878547248,1496
2327.2227820747967,1536
2329.0842526638157,1484
2330.945299903803,1475
2332.805924076857,1458
2334.6661254651535,1434
2336.525904350951,1474
2338.3852610165827,1451
2340.244195744464,1488
2342.102708817088,1499
2343.9608005170253,1423
2345.8184711269287,1453
2347.675720929526,1465
2349.532550207628,1531
2351.38895924412,1476
2353.24494832197,1525
2355.100517724223,1443
2356.955667734004,1469
2358.810398634514,1455
2360.664710709037,1457
2362.5186042409337,1471
2364.3720795136437,1564
2366.225136810686,1533
2368.0777764156583,1516
2369.929998612237,1501
2371.7818036841777,1533
2373.633191915315,1509
2375.484163589562,1563
2377.3347189909114,1530
2379.184858403434,1532
2381.03458211128,1577
2382.8838903986775,1500
2384.732783549936,1481
2386.5812618494406,1525
2388.4293255816588,1508
2390.2769750311327,1539
2392.1242104824883,1523
2393.971032220427,1519
2395.8174405297295,1558
2397.6634356952563,1501
2399.509018001947,1551
2401.3541877348193,1526
2403.1989451789705,1536
2405.043290619576,1508
2406.8872243418905,1536
2408.730746631247,1521
2410.5738577730594,1523
2412.4165580528183,1533
2414.258847756095,1521
2416.100727168537,1520
2417.9421965758734,1554
2419.783256263912,1549
2421.623906518538,1479
2423.4641476257157,1555
2425.303979871491,1456
2427.143403541984,1573
2428.9824189233977,1510
2430.821026302012,1539
2432.6592259641866,1538
2434.497018196361,1589
2436.33440328505,1582
2438.171381516851,1536
2440.00795317844,1568
2441.844118556569,1564
2443.6798779380724,1613
2445.5152316098606,1548
2447.3501798589255,1492
2449.1847229723357,1568
2451.0188612372403,1589
2452.8525949408663,1497
2454.6859243705203,1512
2456.518849813587,1556
2458.3513715575314,1516
2460.183489889895,1553
2462.015205098301,1597
2463.8465174704493,1539
2465.67742729412,1559
2467.5079348571717,1599
2469.338040447542,1581
2471.1677443532476,1486
2472.9970468623833,1533
2474.825948263123,1510
2476.6544488437207,1571
2478.482548892508,1571
2480.310248697896,1535
2482.137548548374,1597
2483.9644487325118,1584
2485.790949538956,1611
2487.617051256433,1567
2489.44275417375,1531
2491.26805857979,1516
2493.0929647635157,1591
2494.917473013971,1591
2496.741583620276,1540
2498.5652968716304,1595
2500.3886130573137,1612
2502.2115324666834,1604
2504.0340553891765,1576
2505.856182114308,1563
2507.6779129316733,1566
2509.499248130945,1653
2511.3201880018764,1574
2513.140732834298,1627
2514.9608829181198,1569
2516.780638543331,1594
2518.6,1624
2520.418967578273,1618
2522.237541568376,1624
2524.0557222606144,1638
2525.8735099453706,1638
2527.6909049131086,1670
2529.507907454368,1650
2531.32451785977,1641
2533.140736420014,1688
2534.9565634258774,1655
2536.771999168218,1666
2538.5870439379714,1662
2540.4016980261526,1719
2542.2159617238544,1670
2544.02983532225,1708
2545.8433191125914,1672
2547.656413386209,1702
2549.4691184345115,1640
2551.2814345489874,1695
2553.093362021204,1761
2554.904901142808,1762
2556.716052205523,1738
2558.526815501153,1784
2560.3371913215824,1783
2562.147179958771,1736
2563.956781704761,1849
2565.7659968516705,1889
2567.5748256916986,1838
2569.3832685171224,1855
2571.1913256202984,1827
2572.9989972936614,1800
2574.806283829725,1846
2576.613185521084,1860
2578.4197026604074,1854
2580.2258355404483,1903
2582.031584454035,1879
2583.836949694077,1894
2585.6419315535613,1922
2587.4465303255533,1962
2589.2507463032002,1927
2591.0545797797245,1911
2592.8580310484303,1973
2594.6611004026995,1924
2596.463788135992,1962
2598.266094541849,1968
2600.0680199138874,2001
2601.869564545807,1957
2603.670728731383,1988
2605.4715127644704,1933
2607.2719169390048,2081
2609.071941548998,1990
2610.8715868885433,1972
2612.670853251811,2004
2614.469740933052,1996
2616.268250226594,1970
2618.0663814268455,2009
2619.864134828292,2026
2621.6615107255006,2001
2623.458509413115,2056
2625.2551311858597,2009
2627.0513763385347,1891
2628.8472451660223,1979
2630.6427379632833,1981
2632.4378550253564,1893
2634.232596647359,1894
2636.026963124488,1951
2637.8209547520187,1937
2639.6145718253065,1779
2641.407814639785,1856
2643.200683490966,1799
2644.9931786744414,1818
2646.7853004858807,1807
2648.577049221034,1858
2650.3684251757277,1790
2652.1594286458712,1808
2653.9500599274484,1801
2655.740319316525,1742
2657.5302071092437,1758
2659.3197236018286,1717
2661.10886909058,1803
2662.8976438718782,1748
2664.686048242183,1741
2666.4740824980327,1690
2668.2617469360443,1728
2670.0490418529134,1694
2671.8359675454153,1705
2673.622524310403,1635
2675.408712444811,1694
2677.1945322456495,1659
2678.979984010009,1691
2680.76506803506,1587
2682.5497846180497,1621
2684.334134056306,1638
2686.1181166472343,1575
2687.9017326883213,1605
2689.6849824771293,1644
2691.4678663113013,1577
2693.2503844885596,1577
2695.032537306705,1609
2696.8143250636167,1581
2698.5957480572542,1513
2700.3768065856534,1587
2702.1575009469316,1574
2703.937831439283,1556
2705.717798360982,1505
2707.4974020103837,1608
2709.276642685917,1539
2711.055520686095,1534
2712.834036309506,1508
2714.612189854819,1435
2716.389981620782,1525
2718.1674119062204,1539
2719.944481010041,1518
2721.721189231226,1563
2723.4975368688415,1523
2725.273524222027,1526
2727.0491515900053,1511
2728.824419272075,1550
2730.5993275676146,1497
2732.3738767760838,1486
2734.148067197016,1513
2735.921899130031,1474
2737.6953728748194,1430
2739.468488731156,1491
2741.2412469988926,1461
2743.0136479779617,1545
2744.785691968372,1464
2746.5573792702116,1467
2748.3287101836504,1487
2750.099685008934,1417
2751.870304046388,1427
2753.640567596418,1431
2755.4104759595057,1423
2757.1800294362156,1483
2758.949228327187,1501
2760.7180729331412,1435
2762.486563554877,1437
2764.254700493272,1464
2766.022484049284,1457
2767.789914523947,1441
2769.5569922183786,1435
2771.3237174337705,1456
2773.090090471394,1500
2774.8561116326036,1476
2776.6217812188274,1445
2778.3870995315756,1457
2780.1520668724356,1460
2781.9166835430747,1452
2783.6809498452394,1445
2785.444866080754,1472
2787.2084325515225,1503
2788.971649559527,1407
2790.73451740683,1416
2792.4970363955713,1418
2794.2592068279705,1437
2796.0210290063264,1478
2797.7825032330147,1440
2799.543629810493,1417
2801.304409041296,1470
2803.0648412280366,1468
2804.8249266734088,1463
2806.5846656801846,1435
2808.344058551212,1423
2810.1031055894246,1454
2811.8618070978273,1475
2813.6201633795085,1462
2815.378174737636,1456
2817.1358414754536,1412
2818.893163896285,1507
2820.6501423035334,1464
2822.4067770006814,1485
2824.1630682912883,1484
2825.9190164789957,1480
2827.6746218675207,1436
2829.429884760661,1450
2831.184805462294,1464
2832.9393842763743,1400
2834.693621506936,1435
2836.4475174580916,1452
2838.201072434034,1442
2839.954286739034,1422
2841.707160677441,1450
2843.459694553685,1411
2845.2118886722724,1440
2846.96374333779,1507
2848.7152588549034,1480
2850.4664355283567,1462
2852.217273662973,1421
2853.9677735636546,1429
2855.7179355353833,1451
2857.4677598832186,1441
2859.217246912299,1407
2860.9663969278427,1451
2862.715210235146,1439
2864.4636871395846,1442
2866.211827946614,1419
2867.9596329617652,1439
2869.7071024906536,1424
2871.4542368389684,1467
2873.20103631248,1423
2874.947501217038,1396
2876.6936318585695,1433
2878.4394285430812,1456
2880.1848915766604,1477
2881.9300212654707,1443
2883.6748179157553,1427
2885.4192818338374,1427
2887.1634133261173,1502
2888.907212699077,1411
2890.6506802592744,1417
2892.393816313348,1459
2894.1366211680142,1431
2895.8790951300693,1430
2897.621238506388,1423
2899.363051603925,1457
2901.1045347297118,1453
2902.8456881908596,1420
2904.58651229456,1501
2906.327007348081,1411
2908.067173658772,1403
2909.8070115340597,1440
2911.5465212814497,1479
2913.285703208527,1427
2915.0245576229563,1433
2916.7630848324807,1452
2918.5012851449196,1413
2920.2391588681758,1409
2921.976706310227,1381
2923.7139277791334,1450
2925.4508235830313,1432
2927.187394030137,1431
2928.923639428745,1451
2930.6595600872306,1468
2932.395156314046,1395
2934.1304284177218,1425
2935.8653767068713,1460
2937.6000014901815,1451
2939.3343030764227,1443
2941.068281774442,1426
2942.8019378931644,1451
2944.5352717415976,1506
2946.2682836288236,1464
2948.0009738640065,1477
2949.7333427563885,1379
2951.465390615289,1441
2953.1971177501086,1402
2954.9285244703265,1415
2956.6596110855,1409
2958.3903779052657,1402
2960.1208252393385,1375
2961.8509533975125,1380
2963.5807626896617,1431
2965.3102534257378,1398
2967.0394259157715,1418
2968.768280469873,1427
2970.496817398232,1415
2972.2250370111146,1383
2973.952939618869,1426
2975.6805255319196,1426
2977.4077950607707,1455
2979.134748516006,1442
2980.861386208289,1441
2982.587708448359,1444
2984.313715547037,1449
2986.039407815222,1370
2987.764785563891,1450
2989.489849104102,1466
2991.2145987469908,1446
2992.9390348037705,1437
2994.6631575857346,1417
2996.3869674042576,1398
2998.1104645707887,1423
2999.83364939686,1430
3001.5565221940783,1391
3003.2790832741334,1432
3005.0013329487924,1415
3006.7232715298996,1407
3008.4448993293804,1396
3010.166216659239,1398
3011.887223831558,1408
3013.607921158498,1387
3015.3283089522993,1445
3017.0483875252826,1456
3018.7681571898443,1478
3020.4876182584626,1389
3022.2067710436927,1369
3023.9256158581707,1428
3025.644153014609,1429
3027.362382825801,1418
3029.0803056046193,1469
3030.797921664012,1365
3032.5152313170106,1475
3034.2322348767225,1426
3035.9489326563353,1470
3037.665324969115,1441
3039.3814121284063,1461
3041.097194447633,1467
3042.812672240299,1365
3044.5278458199855,1448
3046.2427155003525,1381
3047.9572815951406,1441
3049.671544418167,1475
3051.38550428333,1451
3053.0991615046073,1454
3054.812516396051,1417
3056.5255692717974,1403
3058.2383204460575,1454
3059.9507702331257,1447
3061.662918947372,1437
3063.3747669032446,1421
3065.0863144152736,1444
3066.7975617980674,1405
3068.508509366309,1427
3070.219157434767,1420
3071.9295063182844,1460
3073.639556331785,1419
3075.3493077902704,1406
3077.058761008821,1431
3078.7679163025964,1442
3080.476773986837,1488
3082.1853343768594,1411
3083.89359778806,1438
3085.6015645359153,1351
3087.3092349359786,1420
3089.016609303884,1411
3090.7236879553434,1378
3092.4304712061476,1423
3094.136959372166,1435
3095.843152769349,1432
3097.5490517137237,1462
3099.2546565213966,1408
3100.959967508554,1454
3102.66498499146,1341
3104.3697092864577,1405
3106.0741407099695,1359
3107.778279578498,1437
3109.482126208622,1457
3111.1856809170004,1483
3112.8889440203716,1408
3114.5919158355528,1435
3116.294596679439,1480
3117.996986869006,1419
3119.6990867213062,1436
3121.4008965534726,1440
3123.102416682717,1428
3124.803647426329,1455
3126.5045891016784,1436
3128.205242026213,1474
3129.90560651746,1448
3131.605682893025,1410
3133.3054714705922,1414
3135.0049725679282,1420
3136.7041865028714,1434
3138.4031135933465,1486
3140.101754157353,1403
3141.800108512971,1400
3143.498176978357,1452
3145.1959598717494,1462
3146.8934575114636,1426
3148.5906702158954,1386
3150.2875983035183,1438
3151.9842420928853,1359
3153.680601902627,1485
3155.376678051456,1407
3157.07247085816,1422
3158.767980641609,1428
3160.463207720748,1447
3162.158152414606,1410
3163.8528150422862,1430
3165.5471959229726,1397
3167.2412953759303,1406
3168.9351137204976,1458
3170.628651276098,1447
3172.3219083622307,1426
3174.014885298474,1451
3175.707582404485,1390
3177.4000000000005,1433
3179.092138404835,1442
3180.7839979388846,1401
3182.47557892212,1389
3184.166881674594,1372
3185.8579065164386,1391
3187.5486537678626,1368
3189.2391237491547,1376
3190.9293167806827,1415
3192.6192331828934,1407
3194.3088732763117,1425
3195.998237381542,1370
3197.687325819268,1467
3199.376138910251,1392
3201.064676975334,1421
3202.7529403354347,1405
3204.4409293115523,1367
3206.1286442247647,1420
3207.816085396229,1436
3209.5032531471825,1399
3211.190147798936,1364
3212.8767696728846,1324
3214.5631190905015,1414
3216.2491963733373,1377
3217.9350018430214,1402
3219.6205358212637,1397
3221.305798629851,1336
3222.990790590651,1363
3224.6755120256103,1379
3226.359963256751,1315
3228.0441446061795,1351
3229.7280563960758,1351
3231.411698948703,1377
3233.0950725863995,1406
3234.778177631587,1343
3236.461014406761,1368
3238.1435832345005,1384
3239.8258844374595,1386
3241.507918338374,1395
3243.1896852600576,1357
3244.8711855254023,1411
3246.552419457381,1387
3248.233387379042,1416
3249.914089613516,1333
3251.59452648401,1371
3253.274698313813,1377
3254.95460542629,1375
3256.6342481448855,1410
3258.313626793125,1361
3259.9927416946084,1371
3261.6715931730196,1415
3263.3501815521176,1363
3265.0285071557437,1387
3266.706570307815,1374
3268.3843713323286,1383
3270.0619105533615,1358
3271.739188295068,1456
3273.4162048816834,1395
3275.0929606375184,1355
3276.769455886966,1340
3278.445690954498,1373
3280.1216661646613,1400
3281.797381842087,1371
3283.4728383114807,1342
3285.1480358976296,1329
3286.8229749253996,1392
3288.4976557197333,1309
3290.172078605655,1358
3291.846243908266,1370
3293.5201519527463,1320
3295.193803064357,1310
3296.8671975684374,1351
3298.5403357904024,1332
3300.21321805575,1388
3301.8858446900567,1345
3303.558216018975,1280
3305.23033236824,1378
3306.9021940636603,1358
3308.57380143113,1379
3310.2451547966184,1361
3311.916254486174,1362
3313.5871008259246,1361
3315.2576941420766,1366
3316.9280347609147,1331
3318.5981230088046,1352
3320.2679592121895,1353
3321.9375436975924,1317
3323.606876791612,1327
3325.27595882093,1350
3326.944790112305,1362
3328.6133709925753,1337
3330.2817017886573,1349
3331.949782827547,1340
3333.617614436319,1375
3335.2851969421245,1383
3336.952530672199,1385
3338.619615953853,1331
3340.286453114475,1286
3341.9530424815357,1358
3343.619384382583,1329
3345.2854791452437,1352
3346.951327097224,1362
3348.6169285663073,1368
3350.2822838803577,1413
3351.947393367319,1340
3353.61225735521,1350
3355.2768761721345,1309
3356.9412501462693,1392
3358.605379605873,1368
3360.2692648792827,1370
3361.9329062949146,1368
3363.596304181263,1271
