CollectionTime,6/28/2024 2:46:40 PM
ExposureUsed,3
CalibratedSpectrum
-962.7078968117929,762
-959.9714848408522,810
-957.2358232597828,797
-954.5009119013725,812
-951.7667505983302,796
-949.0333391832855,792
-946.3006774887896,814
-943.5687653473143,807
-940.837602591253,802
-938.1071890529199,786
-935.3775245645503,821
-932.6486089583007,831
-929.9204420662485,787
-927.1930237203925,796
-924.4663537526524,801
-921.7404319948689,820
-919.0152582788041,848
-916.2908324361409,828
-913.5671542984834,834
-910.8442236973568,826
-908.1220404642074,784
-905.4006044304027,807
-902.679915427231,846
-899.959973285902,819
-897.2407778375464,798
-894.5223289132158,794
-891.8046263438832,822
-889.0876699604426,791
-886.3714595937089,777
-883.6559950744183,767
-880.9412762332282,760
-878.2273029007168,787
-875.5140749073835,795
-872.8015920836489,776
-870.0898542598545,780
-867.3788612662631,754
-864.6686129330585,744
-861.9591090903457,745
-859.2503495681506,717
-856.5423341964203,775
-853.8350628050229,769
-851.1285352237478,769
-848.4227512823054,757
-845.7177108103272,738
-843.0134136373656,741
-840.3098595928943,755
-837.6070485063082,764
-834.9049802069229,777
-832.2036545239757,706
-829.5030712866244,735
-826.8032303239481,731
-824.1041314649472,731
-821.4057745385428,722
-818.7081593735775,762
-816.0112857988148,743
-813.3151536429393,729
-810.6197627345566,763
-807.9251129021936,736
-805.2312039742981,767
-802.5380357792392,729
-799.8456081453069,739
-797.1539209007124,779
-794.462973873588,740
-791.772766891987,715
-789.083299783884,743
-786.3945723771743,754
-783.7065844996748,748
-781.0193359791231,761
-778.3328266431781,765
-775.6470563194197,792
-772.9620248353489,758
-770.2777320183878,742
-767.5941776958798,767
-764.9113616950891,732
-762.2292838432011,745
-759.5479439673222,768
-756.8673418944801,810
-754.1874774516235,759
-751.5083504656222,758
-748.8299607632671,761
-746.15230817127,721
-743.475392516264,776
-740.7992136248035,744
-738.1237713233636,788
-735.4490654383407,803
-732.7750957960521,735
-730.1018622227365,774
-727.4293645445534,766
-724.7576025875837,805
-722.0865761778291,821
-719.4162851412126,772
-716.7467293035781,818
-714.0779084906909,819
-711.409822528237,844
-708.7424712418238,830
-706.0758544569796,803
-703.4099719991541,784
-700.7448236937178,823
-698.0804093659622,860
-695.4167288411002,831
-692.7537819442656,826
-690.0915685005134,874
-687.4300883348199,837
-684.7693412720819,797
-682.1093271371178,833
-679.4500457546669,881
-676.7914969493897,816
-674.1336805458676,845
-671.4765963686034,880
-668.8202442420206,895
-666.1646239904642,858
-663.5097354382001,861
-660.8555784094151,836
-658.2021527282176,854
-655.5494582186366,906
-652.8974947046223,950
-650.2462620100463,928
-647.5957599587009,863
-644.9459883742998,930
-642.2969470804776,968
-639.6486359007902,954
-637.0010546587141,927
-634.3542031776476,942
-631.7080812809096,920
-629.0626887917401,884
-626.4180255333008,889
-623.7740913286734,843
-621.1308860008619,828
-618.4884093727904,879
-615.8466612673046,865
-613.2056415071715,858
-610.5653499150785,863
-607.9257863136347,892
-605.28695052537,870
-602.6488423727357,853
-600.0114616781036,900
-597.3748082637674,890
-594.7388819519412,886
-592.1036825647604,888
-589.4692099242818,856
-586.8354638524829,883
-584.2024441712624,879
-581.5701507024403,837
-578.9385832677575,916
-576.3077416888759,875
-573.6776257873787,896
-571.0482353847704,916
-568.4195703024757,929
-565.7916303618415,895
-563.164415384135,928
-560.5379251905453,897
-557.9121596021815,907
-555.2871184400748,899
-552.6628015251767,918
-550.0392086783606,934
-547.4163397204204,891
-544.794194472071,960
-542.1727727539491,930
-539.5520743866118,969
-536.9320991905377,980
-534.3128469861261,989
-531.6943175936979,993
-529.0765108334947,1008
-526.4594265256793,1110
-523.8430644903358,1215
-521.2274245474689,1425
-518.612506517005,1479
-515.9983102187913,1560
-513.3848354725959,1663
-510.77208209810846,1692
-508.16004991493924,1700
-505.5487387426199,1846
-502.9381484006032,2042
-500.3282787082628,2124
-497.71912948489364,2203
-495.1107005497117,2187
-492.5029917218539,2049
-489.8960028203786,1911
-487.28973366426493,1621
-484.68418407241325,1500
-482.07935386364494,1375
-479.47524285670266,1244
-476.87185087025,1258
-474.2691777228715,1233
-471.66722323307334,1219
-469.0659872192821,1227
-466.4654694998459,1125
-463.86566989303384,1202
-461.26658821703614,1155
-458.66822428996414,1094
-456.07057792985,1139
-453.4736489546475,1163
-450.877437182231,1137
-448.28194243039627,1141
-445.68716451686,1126
-443.09310325926003,1131
-440.49975847515555,1111
-437.9071299820263,1062
-435.31521759727354,1101
-432.72402113821954,1042
-430.13354042210767,1167
-427.5437752661022,1165
-424.95472548728867,1111
-422.36639090267386,1164
-419.7787713291855,1249
-417.1918665836721,1143
-414.60567648290385,1173
-412.0202008435715,1192
-409.4354394822874,1177
-406.8513922155845,1152
-404.26805885991723,1231
-401.685439231661,1178
-399.103533147112,1171
-396.522340422488,1138
-393.9418608739278,1162
-391.3620943174908,1096
-388.7830405691583,1112
-386.2046994448317,1139
-383.6270707603344,1073
-381.05015433141045,986
-378.473949973725,890
-375.8984575028645,851
-373.32367673433623,818
-370.74960748356875,735
-368.1762495659117,734
-365.60360279663576,662
-363.03166699093265,616
-360.4604419639154,598
-357.8899275306178,565
-355.32012350599507,543
-352.7510297049233,551
-350.1826459421999,510
-347.61497203254316,517
-345.04800779059235,521
-342.4817530309082,501
-339.91620756797226,502
-337.35137121618743,542
-334.7872437898774,488
-332.22382510328725,556
-329.66111497058273,569
-327.09911320585127,553
-324.53781962310075,588
-321.9772340362607,573
-319.4173562591816,546
-316.8581861056348,556
-314.2997233893127,536
-311.7419679238294,589
-309.1849195227194,570
-306.62857799943856,516
-304.0729431673641,489
-301.51801483979375,493
-298.963792829947,531
-296.41027695096386,583
-293.85746701590574,612
-291.3053628377552,639
-288.7539642294155,599
-286.2032710037115,581
-283.65328297338897,598
-281.1039999511146,664
-278.5554217494762,645
-276.007548180983,661
-273.4603790580651,580
-270.9139141930734,602
-268.3681533982807,637
-265.8230964858798,636
-263.27874326798565,623
-260.7350935566336,696
-258.1921471637804,688
-255.6499039013039,648
-253.10836358100266,615
-250.56752601459698,653
-248.02739101372765,831
-245.48795838995704,845
-242.94922795476816,720
-240.41119951956557,754
-237.8738728956746,778
-235.33724789434166,876
-232.80132432673452,915
-230.2661020039418,869
-227.73158073697357,746
-225.19776033676033,747
-222.66464061415422,750
-220.1322213799284,748
-217.60050244477725,795
-215.06948361931552,774
-212.53916471408013,835
-210.00954553952818,835
-207.48062590603843,831
-204.9524056239104,849
-202.4248845033651,780
-199.8980623545441,731
-197.37193898751036,733
-194.84651421224817,801
-192.32178783866232,833
-189.79775967657952,869
-187.27442953574644,903
-184.7517972258321,883
-182.2298625564256,854
-179.7086253370378,868
-177.18808537710026,829
-174.66824248596583,875
-172.14909647290835,974
-169.6306471471229,955
-167.11289431772548,902
-164.59583779375328,873
-162.07947738416453,973
-159.5638128978386,989
-157.04884414357605,987
-154.53457093009854,1069
-152.02099306604828,1051
-149.50811035998936,1023
-146.99592262040665,1019
-144.48442965570587,1060
-141.97363127421409,1134
-139.46352728417958,1040
-136.95411749377126,1018
-134.44540171107985,1225
-131.93737974411636,1335
-129.43005140081357,1342
-126.92341648902493,1357
-124.41747481652521,1379
-121.91222619101006,1336
-119.40767042009657,1263
-116.90380731132257,1309
-114.40063667214702,1360
-111.8981583099503,1446
-109.3963720320337,1665
-106.89527764561933,1684
-104.39487495785067,1779
-101.89516377579241,1723
-99.39614390642998,1691
-96.89781515667039,1738
-94.40017733334128,2087
-91.90323024319173,2085
-89.40697369289148,2092
-86.91140748903172,1880
-84.41653143812482,1873
-81.92234534660395,2040
-79.42884902082358,2259
-76.93604226705907,2483
-74.4439248915071,2202
-71.95249670028534,2030
-69.46175749943245,2316
-66.97170709490854,2829
-64.48234529259423,3376
-61.99367189829195,2726
-59.50568671772464,2830
-57.01838955653636,3249
-54.53178022029283,3312
-52.045858514480074,3171
-49.560624244506016,3332
-47.07607721569923,3401
-44.59221723330904,3343
-42.10904410250669,3222
-39.62655762838392,4382
-37.14475761595372,5515
-34.66364387015028,6396
-32.18321619582866,6765
-29.70347439776515,7992
-27.224418280657005,10299
-24.74604764912317,15388
-22.26836230770266,26744
-19.7913620608565,46565
-17.315046712966478,60179
-14.83941606833514,62584
-12.36446993118659,65031
-9.89020810566592,65031
-7.416630395839093,65031
-4.94373660569363,65031
-2.471526539137585,65031
-6.821210263296962E-13,65031
2.47084320796705,65031
4.941003281093458,65031
7.410480415786196,65031
9.879274808531363,65031
12.347386655893956,65031
14.814816154518212,65031
17.28156350112681,65031
19.74762889252179,65031
22.21301252558385,65031
24.67771459727237,65031
27.141735304626195,42059
29.605074844762612,14179
32.06773341487792,8973
34.52971121224755,8029
36.99100843422559,8513
39.45162527824516,8243
41.91156194181792,6963
44.370818622535126,8592
46.82939551806646,11276
49.287292826160524,14712
51.74451074464503,13619
54.201049471426245,9939
56.65690920448981,8121
59.112090141899785,6066
61.56659248179983,4486
64.02041642241159,3626
66.4735621620365,3741
68.92602989905402,2856
71.37781983192338,2947
73.82893215918205,3300
76.27936707944684,3312
78.72912479141326,2683
81.17820549385567,2542
83.62660938562783,2253
86.07433666566146,2320
88.5213875329681,2448
90.96776218663751,2278
93.41346082583925,2128
95.85848364982041,2038
98.30283085790859,2026
100.7465026495089,1963
103.18949922410604,1943
105.63182078126385,1968
108.07346752062438,2036
110.51443964190923,2044
112.95473734491827,1580
115.39436082953114,1572
117.83331029570547,1710
120.27158594347827,1828
122.7091879729652,1660
125.1461165843615,1554
127.58237197794062,1568
130.01795435405518,1333
132.4528639131364,1344
134.88710085569494,1400
137.32066538231982,1609
139.75355769367923,1679
142.1857779905207,1611
144.61732647366978,1637
147.04820334403132,1621
149.47840880258934,1586
151.90794305040674,1708
154.33680628862487,1919
156.76499871846443,1835
159.19252054122433,1841
161.61937195828352,2126
164.04555317109896,2268
166.47106438120693,2406
168.89590579022217,2804
171.320077599839,2937
173.7435800118302,2952
176.16641322804742,3117
178.58857745042144,3232
181.01007288096173,3372
183.43089972175687,3373
185.85105817497413,3443
188.27054844285988,3459
190.6893707277394,3307
193.10752523201643,3354
195.5250121581745,3516
197.9418317087751,3560
200.3579840864594,3595
202.7734694939469,3559
205.18828813403627,3524
207.6024402096051,3475
210.01592592360964,3382
212.42874547908548,3427
214.84089907914665,3452
217.2523869269868,3245
219.66320922587727,3231
222.0733661791695,3269
224.48285799029293,3446
226.8916848627572,3391
229.29984700014882,3409
231.7073446061355,3416
234.11417788446204,3389
236.520347038953,3607
238.92585227351185,3728
241.33069379212054,3699
243.73487179884035,3751
246.1383864978112,3692
248.541238093252,3688
250.9434267894609,3714
253.34495279081432,3786
255.74581630176783,3732
258.1460175268563,3751
260.54555667069314,3728
262.9444339379703,3724
265.3426495334594,3620
267.7402036620107,3616
270.1370965285529,3433
272.53332833809407,3314
274.9288992957214,3276
277.32380960660055,3067
279.718059475976,3183
282.1116491091717,3106
284.5045787115897,3031
286.89684848871195,3040
289.2884586460981,3106
291.67940938938807,3057
294.0697009242996,3089
296.4593334566299,2928
298.84830719225477,2981
301.23662233712923,2977
303.6242790972866,2889
306.01127767884,2903
308.39761828798066,2841
310.78330113097934,2848
313.16832641418534,2799
315.5526943440269,2679
317.9364051270112,2639
320.3194589697242,2656
322.70185607883093,2534
325.0835966610754,2575
327.4646809232805,2622
329.8451090723478,2588
332.2248813152577,2570
334.6039978590701,2616
336.9824589109231,2547
339.36026467803447,2514
341.7374153677,2565
344.113911187295,2428
346.48975234427337,2447
348.8649390461686,2375
351.2394715005918,2535
353.61334991523415,2407
355.9865744978655,2321
358.35914545633375,2405
360.73106299856715,2298
363.10232733257146,2423
365.47293866643247,2354
367.84289720831396,2437
370.2122031664593,2330
372.5808567491905,2408
374.9488581649083,2372
377.31620762209275,2440
379.6829053293021,2310
382.0489514951745,2266
384.4143463284262,2301
386.7790900378528,2325
389.14318283232853,2284
391.50662492080653,2274
393.86941651231916,2231
396.23155781597745,2190
398.5930490409713,2215
400.9538903965696,2255
403.3140820921202,2212
405.6736243370498,2214
408.03251734086336,2243
410.3907613131465,2271
412.74835646356166,2231
415.10530300185144,2185
417.4616011378372,2336
419.81725108141893,2250
422.1722530425758,2289
424.5266072313656,2253
426.880313857925,2238
429.2333731324701,2138
431.58578526529516,2205
433.9375504667738,2143
436.2886689473588,2182
438.63914091758113,2156
440.9889665880513,2160
443.33814616945835,2153
445.68667987257015,2182
448.03456790823395,2175
450.3818104873759,2119
452.72840782100013,2095
455.07436012019105,2127
457.41966759611057,2129
459.7643304600007,2180
462.10834892318155,2181
464.4517231970525,2161
466.79445349309174,2091
469.1365400228566,2165
471.4779829979826,2178
473.81878263018564,2195
476.15893913125876,2187
478.4984527130747,2318
480.8373235875855,2289
483.17555196682144,2300
485.5131380628919,2479
487.8500820879857,2562
490.1863842543697,2638
492.52204477439034,2870
494.8570638604725,3217
497.1914417251204,3473
499.52517858091653,3706
501.85827464052306,3767
504.19073011668036,3847
506.5225452222086,3728
508.85372017000566,3712
511.18425517304956,3481
513.514150444396,3787
515.8434061971808,4446
518.1720226446176,4870
520.4999999999999,5248
522.8273384766991,5543
525.1540382881666,5767
527.480099647932,5352
529.8055227696037,4262
532.1303078668694,2955
534.454455153496,2432
536.777964843328,2253
539.1008371502907,2170
541.4230722883866,2177
543.744670471698,2029
546.0656319143858,2035
548.3859568306899,1980
550.7056454349294,2015
553.0246979415016,1960
555.3431145648834,1977
557.6608955196306,1971
559.978041020377,1966
562.2945512818363,1918
564.6104265188006,1888
566.9256669461412,1922
569.2402727788082,1945
571.5542442318302,1962
573.8675815203156,1975
576.1802848594508,1850
578.4923544645015,1880
580.8037905508126,1955
583.114593333807,1994
585.4247630289875,1938
587.7342998519354,1882
590.0432040183106,1877
592.3514757438526,1908
594.6591152443794,1891
596.9661227357875,1973
599.2724984340531,1948
601.578242555231,1905
603.8833553154542,1950
606.1878369309362,1980
608.4916876179676,2010
610.7949075929192,1995
613.0974970722403,1987
615.3994562724587,1966
617.7007854101818,1959
620.0014847020951,1929
622.3015543649641,1958
624.6009946156324,1952
626.8998056710224,1884
629.1979877481361,1965
631.4955410640538,1988
633.7924658359349,1936
636.0887622810175,1920
638.3844306166192,1972
640.6794710601358,2052
642.9738838290426,2008
645.2676691408932,2071
647.5608272133207,2027
649.853358264037,2038
652.1452625108324,2064
654.4365401715764,2055
656.7271914642178,2072
659.0172166067838,1995
661.3066158173809,2021
663.5953893141935,2031
665.8835373154867,2081
668.1710600396028,2050
670.4579577049639,2054
672.7442305300709,2101
675.0298787335033,2137
677.3149025339197,2047
679.599302150058,2066
681.8830778007342,2008
684.1662297048437,1945
686.4487580813608,2055
688.7306631493387,2025
691.0119451279091,2028
693.2926042362834,2063
695.5726406937516,2048
697.8520547196814,1988
700.1308465335215,2025
702.4090163547982,2059
704.6865644031171,2056
706.9634908981619,1949
709.2397960596965,2040
711.5154801075631,1939
713.7905432616823,1950
716.0649857420548,1967
718.3388077687592,1970
720.612009561953,1977
722.8845913418733,1947
725.1565533288352,2019
727.427895743234,2055
729.6986188055427,2061
731.9687227363137,2023
734.238207756178,1979
736.5070740858458,1979
738.7753219461066,2031
741.0429515578281,2039
743.3099631419569,2006
745.5763569195191,1947
747.8421331116193,2028
750.1072919394409,1991
752.3718336242467,2020
754.6357583873777,2005
756.8990664502545,2013
759.1617580343765,2005
761.423833361321,1986
763.6852926527457,2045
765.9461361303862,1984
768.206364016058,2047
770.4659765316536,2022
772.7249738991469,2030
774.9833563405886,2032
777.2411240781092,1993
779.4982773339183,1992
781.7548163303044,2043
784.010741289634,2085
786.2660524343538,2019
788.5207499869881,2105
790.7748341701416,2059
793.0283052064964,1989
795.2811633188143,1942
797.5334087299362,2082
799.7850416627813,2031
802.0360623403484,2076
804.2864709857143,2088
806.5362678220353,2035
808.7854530725468,2107
811.0340269605625,2040
813.2819897094754,2011
815.5293415427581,2064
817.77608268396,2030
820.0222133567116,2109
822.2677337847211,1966
824.5126441917765,2041
826.7569448017433,1979
829.0006358385675,2006
831.2437175262731,2055
833.4861900889629,2058
835.7280537508192,1982
837.9693087361026,2035
840.2099552691533,2030
842.4499935743896,2072
844.689423876309,1964
846.9282463994886,2007
849.1664613685833,2003
851.4040690083276,2019
853.6410695435349,2091
855.877463199097,2085
858.1132501999847,2056
860.3484307712487,2055
862.5830051380175,2042
864.8169735254988,2099
867.0503361589791,2055
869.2830932638243,2020
871.5152450654786,2104
873.7467917894654,2071
875.9777336613873,2120
878.2080709069252,2058
880.4378037518389,2068
882.666932421968,2083
884.8954571432301,2155
887.1233781416219,2111
889.3506956432192,2040
891.5774098741766,2135
893.803521060728,2046
896.0290294291852,2179
898.2539352059397,2055
900.4782386174619,2081
902.7019398903011,2140
904.925039251085,2178
907.147536926521,2062
909.3694331433943,2074
911.59072812857,2063
913.8114221089921,2127
916.0315153116827,2121
918.2510079637437,2112
920.4699002923547,2092
922.6881925247761,2059
924.905884888345,2091
927.1229776104793,2110
929.3394709186747,2077
931.555365040506,2021
933.7706602036275,2128
935.9853566357709,2083
938.1994545647489,2100
940.4129542184515,2087
942.6258558248488,2148
944.8381596119883,2089
947.0498658079974,2111
949.2609746410825,2084
951.4714863395287,2045
953.6814011316998,2093
955.8907192460387,2052
958.0994409110671,2045
960.3075663553858,2056
962.5150958076741,2093
964.7220294966913,2088
966.928367651274,2008
969.1341105003388,1958
971.3392582728806,1997
973.5438111979742,1947
975.747769504772,1927
977.9511334225061,1948
980.153903180487,1900
982.3560790081052,1927
984.5576611348289,1913
986.7586497902058,1869
988.9590452038618,1882
991.158847605503,1878
993.3580572249133,1842
995.5566742919558,1811
997.7546990365728,1854
999.952131688785,1847
1002.1489724786926,1764
1004.3452216364743,1770
1006.5408793923874,1714
1008.7359459767691,1728
1010.9304216200343,1710
1013.1243065526781,1703
1015.3176010052733,1730
1017.510305208472,1694
1019.7024193930064,1643
1021.8939437896848,1686
1024.0848786293977,1682
1026.2752241431122,1633
1028.4649805618747,1655
1030.6541481168115,1622
1032.842727039127,1613
1035.0307175601051,1662
1037.2181199111074,1671
1039.4049343235752,1653
1041.591161029029,1665
1043.7768002590683,1680
1045.9618522453698,1604
1048.1463172196918,1602
1050.3301954138697,1642
1052.513487059818,1602
1054.69619238953,1641
1056.8783116350783,1684
1059.0598450286152,1632
1061.2407928023704,1667
1063.4211551886528,1647
1065.6009324198508,1578
1067.780124728432,1588
1069.9587323469414,1564
1072.1367555080046,1660
1074.314194444325,1604
1076.4910493886855,1595
1078.667320573947,1560
1080.843008233051,1530
1083.0181125990161,1539
1085.1926339049414,1537
1087.3665723840027,1539
1089.5399282694575,1529
1091.7127017946405,1562
1093.8848931929647,1586
1096.0565026979243,1564
1098.2275305430899,1563
1100.3979769621128,1584
1102.567842188722,1525
1104.737126456726,1557
1106.9058300000124,1552
1109.0739530525475,1499
1111.2414958483764,1553
1113.4084586216231,1528
1115.5748416064907,1483
1117.7406450372605,1503
1119.9058691482942,1519
1122.0705141740304,1526
1124.2345803489884,1545
1126.3980679077658,1494
1128.5609770850388,1559
1130.7233081155623,1501
1132.8850612341707,1457
1135.0462366757774,1451
1137.2068346753745,1460
1139.3668554680326,1495
1141.526299288901,1466
1143.68516637321,1502
1145.8434569562655,1406
1148.001171273455,1488
1150.158309560244,1454
1152.3148720521767,1523
1154.470858984876,1497
1156.626270594044,1464
1158.7811071154629,1485
1160.9353687849912,1434
1163.089055838569,1503
1165.242168512213,1458
1167.3947070420209,1494
1169.5466716641677,1474
1171.6980626149075,1473
1173.8488801305748,1461
1175.9991244475814,1395
1178.1487958024186,1444
1180.2978944316555,1445
1182.4464205719428,1497
1184.5943744600072,1502
1186.7417563326567,1495
1188.8885664267755,1475
1191.0348049793297,1483
1193.1804722273619,1491
1195.325568407995,1470
1197.4700937584303,1451
1199.614048515948,1430
1201.7574329179074,1436
1203.900247201746,1427
1206.042491604982,1445
1208.1841663652099,1487
1210.3252717201053,1492
1212.465807907422,1475
1214.6057751649923,1430
1216.7451737307279,1434
1218.8840038426192,1436
1221.0222657387353,1479
1223.1599596572241,1505
1225.2970858363137,1506
1227.4336445143094,1475
1229.5696359295966,1428
1231.705060320639,1457
1233.8399179259786,1411
1235.9742089842384,1466
1238.107933734118,1431
1240.2410924143974,1460
1242.373685263935,1418
1244.5057125216676,1495
1246.6371744266116,1495
1248.7680712178621,1517
1250.898403134593,1529
1253.028170416058,1508
1255.1573733015875,1478
1257.2860120305932,1475
1259.4140868425648,1458
1261.54159797707,1487
1263.6685456737569,1471
1265.7949301723515,1495
1267.9207517126597,1501
1270.046010534565,1579
1272.1707068780306,1517
1274.2948409830983,1542
1276.4184130898889,1529
1278.541423438603,1492
1280.6638722695184,1557
1282.785759822993,1534
1284.9070863394636,1538
1287.0278520594447,1516
1289.1480572235314,1659
1291.2677020723963,1584
1293.3867868467923,1598
1295.5053117875495,1611
1297.623277135579,1560
1299.740683131868,1589
1301.8575300174857,1593
1303.973818033578,1648
1306.0895474213703,1551
1308.2047184221678,1606
1310.3193312773528,1615
1312.4333862283888,1591
1314.5468835168163,1568
1316.659823384255,1625
1318.7722060724045,1658
1320.8840318230418,1683
1322.9953008780249,1668
1325.1060134792888,1674
1327.2161698688478,1688
1329.3257702887959,1601
1331.4348149813054,1670
1333.5433041886276,1645
1335.6512381530933,1637
1337.7586171171101,1630
1339.8654413231675,1658
1341.9717110138317,1637
1344.0774264317488,1623
1346.1825878196432,1648
1348.2871954203192,1592
1350.3912494766587,1661
1352.4947502316231,1621
1354.5976979282532,1686
1356.7000928096686,1651
1358.8019351190665,1633
1360.9032250997243,1571
1363.0039629949988,1603
1365.1041490483235,1617
1367.2037835032133,1619
1369.3028666032606,1632
1371.401398592137,1605
1373.4993797135926,1601
1375.5968102114575,1608
1377.6936903296396,1608
1379.7900203121262,1606
1381.8858004029835,1648
1383.9810308463561,1628
1386.075711886469,1628
1388.1698437676241,1649
1390.2634267342032,1649
1392.356461030667,1684
1394.4489469015557,1715
1396.5408845914872,1683
1398.6322743451592,1811
1400.7231164073469,1757
1402.813411022907,1646
1404.903158436773,1675
1406.9923588939578,1655
1409.0810126395531,1696
1411.1691199187303,1753
1413.2566809767386,1735
1415.343696058907,1723
1417.4301654106425,1828
1419.5160892774315,1744
1421.6014679048399,1734
1423.6863015385125,1765
1425.7705904241707,1739
1427.8543348076178,1810
1429.9375349347342,1822
1432.0201910514802,1861
1434.102303403894,1819
1436.1838722380944,1876
1438.2648978002767,1871
1440.3453803367174,1918
1442.4253200937692,1924
1444.5047173178677,1933
1446.5835722555234,1927
1448.6618851533285,2044
1450.739656257952,2059
1452.8168858161434,2075
1454.8935740747306,2068
1456.96972128062,2131
1459.045327680797,2230
1461.120393522327,2161
1463.1949190523528,2133
1465.2689045180973,2225
1467.3423501668608,2364
1469.415256246024,2399
1471.4876230030463,2431
1473.559450685465,2396
1475.6307395408976,2513
1477.7014898170391,2482
1479.771701761665,2554
1481.8413756226287,2644
1483.9105116478618,2612
1485.9791100853772,2685
1488.0471711832643,2795
1490.1146951896926,2750
1492.1816823529098,2882
1494.2481329212433,2874
1496.3140471430984,2948
1498.3794252669609,2958
1500.4442675413939,2963
1502.5085742150404,3042
1504.572345536622,3019
1506.6355817549388,3069
1508.6982831188702,3144
1510.7604498773744,3078
1512.8220822794883,3236
1514.8831805743293,3254
1516.9437450110909,3354
1519.003775839048,3411
1521.0632733075522,3434
1523.1222376660367,3481
1525.1806691640113,3563
1527.2385680510652,3629
1529.2959345768668,3624
1531.3527689911643,3663
1533.4090715437833,3768
1535.4648424846291,3889
1537.5200820636855,3979
1539.5747905310159,3980
1541.6289681367616,4099
1543.6826151311434,4070
1545.7357317644614,4139
1547.7883182870937,4174
1549.8403749494987,4172
1551.8919020022113,4349
1553.9428996958477,4362
1555.9933682811015,4463
1558.0433080087469,4554
1560.0927191296346,4748
1562.1416018946961,4934
1564.1899565549415,4762
1566.2377833614592,4696
1568.2850825654164,4667
1570.3318544180606,4609
1572.3780991707158,4347
1574.423817074788,4258
1576.4690083817595,4093
1578.5136733431923,3918
1580.5578122107272,3621
1582.601425236085,3493
1584.6445126710646,3268
1586.6870747675434,3154
1588.7291117774776,2927
1590.7706239529034,2810
1592.8116115459347,2683
1594.8520748087658,2596
1596.8920139936686,2467
1598.9314293529933,2390
1600.9703211391711,2261
1603.008689604711,2280
1605.0465350022005,2165
1607.0838575843068,2123
1609.1206576037753,2089
1611.1569353134305,2008
1613.1926909661765,1932
1615.2279248149953,1908
1617.2626371129481,1877
1619.2968281131757,1820
1621.3304980688963,1791
1623.3636472334088,1811
1625.39627586009,1775
1627.428384202396,1754
1629.459972513861,1697
1631.4910410480993,1696
1633.5215900588028,1683
1635.551619799744,1739
1637.5811305247717,1711
1639.6101224878166,1664
1641.6385959428862,1654
1643.6665511440683,1621
1645.693988345528,1649
1647.7209078015112,1589
1649.7473097663405,1634
1651.7731944944203,1599
1653.7985622402307,1607
1655.823413258333,1637
1657.847747803366,1609
1659.8715661300494,1591
1661.8948684931793,1572
1663.9176551476316,1572
1665.9399263483624,1589
1667.9616823504057,1523
1669.982923408873,1528
1672.0036497789574,1571
1674.0238617159293,1586
1676.043559475138,1528
1678.0627433120121,1606
1680.081413482059,1544
1682.0995702408654,1514
1684.117213844096,1552
1686.134344547495,1541
1688.1509626068864,1550
1690.1670682781705,1639
1692.182661817329,1546
1694.1977434804217,1542
1696.2123135235875,1526
1698.226372203043,1579
1700.2399197750851,1555
1702.2529564960905,1547
1704.2654826225112,1566
1706.277498410882,1520
1708.2890041178139,1596
1710.2999999999988,1572
1712.3104863142066,1596
1714.3204633172854,1487
1716.329931266163,1512
1718.3388904178469,1517
1720.3473410294214,1525
1722.3552833580516,1553
1724.3627176609807,1547
1726.3696441955308,1479
1728.3760632191033,1515
1730.3819749891782,1518
1732.3873797633146,1486
1734.3922777991502,1444
1736.3966693544012,1485
1738.4005546868639,1397
1740.4039340544127,1457
1742.406807715001,1427
1744.4091759266616,1397
1746.4110389475054,1435
1748.4123970357223,1442
1750.413250449582,1400
1752.4135994474318,1389
1754.4134442876993,1438
1756.4127852288902,1413
1758.4116225295893,1422
1760.4099564484595,1433
1762.407787244244,1415
1764.405115175764,1375
1766.4019405019203,1408
1768.3982634816916,1373
1770.3940843741357,1403
1772.3894034383907,1334
1774.3842209336717,1378
1776.378537119274,1382
1778.372352254571,1413
1780.3656665990156,1328
1782.3584804121397,1369
1784.3507939535534,1361
1786.3426074829463,1358
1788.3339212600863,1365
1790.3247355448211,1361
1792.3150505970766,1350
1794.3048666768573,1375
1796.2941840442477,1357
1798.2830029594106,1361
1800.2713236825884,1394
1802.2591464741004,1354
1804.2464715943465,1380
1806.2332993038058,1337
1808.2196298630352,1329
1810.2054635326708,1383
1812.190800573428,1324
1814.175641246101,1403
1816.1599858115628,1353
1818.1438345307652,1395
1820.127187664738,1348
1822.1100454745924,1392
1824.092408221516,1356
1826.0742761667766,1369
1828.055649571721,1351
1830.0365286977735,1260
1832.0169138064398,1357
1833.9968051593014,1347
1835.9762030180214,1324
1837.9551076443408,1357
1839.9335193000788,1379
1841.9114382471344,1347
1843.888864747485,1338
1845.8657990631878,1329
1847.842241456378,1347
1849.8181921892697,1349
1851.7936515241558,1336
1853.7686197234098,1336
1855.7430970494815,1306
1857.7170837649014,1291
1859.6905801322787,1294
1861.6635864143004,1321
1863.6361028737338,1310
1865.608129773424,1327
1867.5796673762961,1335
1869.5507159453537,1372
1871.521275743678,1363
1873.4913470344313,1336
1875.4609300808534,1368
1877.4300251462632,1345
1879.3986324940588,1347
1881.366752387717,1365
1883.3343850907936,1359
1885.3015308669228,1407
1887.268189979819,1338
1889.2343626932739,1324
1891.2000492711595,1341
1893.1652499774254,1395
1895.1299650761011,1310
1897.0941948312952,1343
1899.0579395071945,1311
1901.0211993680641,1378
1902.98397467825,1367
1904.9462657021745,1351
1906.9080727043415,1430
1908.869395949332,1328
1910.8302357018065,1355
1912.790592226504,1380
1914.7504657882428,1365
1916.7098566519212,1340
1918.6687650825133,1376
1920.6271913450764,1364
1922.5851357047422,1333
1924.5425984267245,1353
1926.499579776314,1353
1928.4560800188833,1332
1930.4120994198802,1380
1932.367638244833,1337
1934.32269675935,1360
1936.2772752291175,1331
1938.231373919899,1366
1940.1849930975404,1338
1942.1381330279637,1352
1944.0907939771696,1301
1946.0429762112412,1348
1947.9946799963363,1393
1949.9459055986945,1397
1951.896653284633,1347
1953.8469233205478,1344
1955.7967159729142,1370
1957.7460315082863,1306
1959.6948701932974,1348
1961.6432322946594,1349
1963.5911180791632,1397
1965.5385278136787,1381
1967.4854617651545,1317
1969.4319202006182,1288
1971.377903387176,1320
1973.3234115920136,1368
1975.268445082395,1288
1977.2130041256642,1391
1979.1570889892423,1324
1981.1006999406304,1363
1983.04383724741,1295
1984.986501177238,1377
1986.928691997853,1383
1988.8704099770712,1336
1990.811655382789,1331
1992.7524284829801,1312
1994.692729545698,1311
1996.6325588390755,1300
1998.5719166313224,1331
2000.5108031907307,1310
2002.4492187856677,1323
2004.387163684583,1331
2006.3246381560011,1312
2008.2616424685298,1306
2010.1981768908527,1310
2012.1342416917332,1299
2014.069837140014,1327
2016.0049635046162,1322
2017.9396210545406,1302
2019.8738100588666,1293
2021.8075307867502,1311
2023.740783507431,1289
2025.6735684902228,1282
2027.6058860045214,1323
2029.5377363198004,1338
2031.4691197056118,1307
2033.4000364315875,1277
2035.3304867674374,1292
2037.260470982952,1265
2039.189989347998,1278
2041.1190421325232,1337
2043.047629606554,1237
2044.9757520401945,1316
2046.9034097036288,1282
2048.8306028671195,1323
2050.7573318010086,1314
2052.683596775716,1292
2054.609398061742,1262
2056.5347359296647,1343
2058.4596106501403,1279
2060.384022493906,1324
2062.3079717317764,1268
2064.231458634646,1335
2066.1544834734873,1343
2068.077046519352,1308
2069.99914804337,1300
2071.9207883167524,1304
2073.8419676107865,1353
2075.7626861968406,1319
2077.6829443463607,1282
2079.6027423308715,1301
2081.522080421977,1344
2083.440958891362,1353
2085.359378010786,1278
2087.2773380520907,1321
2089.194839287196,1298
2091.111881988101,1283
2093.0284664268825,1248
2094.9445928756973,1284
2096.86026160678,1291
2098.775472892446,1256
2100.690227005088,1239
2102.604524217178,1308
2104.5183648012676,1307
2106.431749029985,1319
2108.34467717604,1255
2110.2571495122206,1343
2112.169166311393,1281
2114.080727846503,1292
2115.9918343905747,1293
2117.902486216711,1350
2119.8126835980956,1299
2121.722426807987,1284
2123.6317161197285,1249
2125.5405518067364,1275
2127.448934142509,1310
2129.356863400624,1318
2131.264339854737,1282
2133.1713637785815,1295
2135.077935445972,1268
2136.9840551308002,1330
2138.889723107037,1329
2140.7949396487334,1260
2142.699705030018,1309
2144.6040195250994,1320
2146.507883408264,1315
2148.4112969538774,1320
2150.3142604363848,1282
2152.2167741303097,1315
2154.1188383102535,1274
2156.0204532508997,1264
2157.9216192270064,1316
2159.822336513414,1243
2161.7226053850413,1299
2163.622426116884,1322
2165.5217989840185,1238
2167.4207242616,1292
2169.319202224862,1276
2171.2172331491165,1274
2173.1148173097563,1330
2175.0119549822507,1328
2176.90864644215,1298
2178.8048919650823,1250
2180.7006918267534,1315
2182.596046302952,1326
2184.4909556695407,1272
2186.3854202024645,1316
2188.279440177746,1287
2190.173015871487,1319
2192.066147559868,1215
2193.958835519149,1294
2195.851080025667,1283
2197.7428813558417,1297
2199.6342397861667,1247
2201.5251555932186,1299
2203.415629053651,1292
2205.3056604441986,1244
2207.19525004167,1247
2209.084398122958,1328
2210.9731049650327,1331
2212.861370844941,1249
2214.749196039812,1282
2216.636580826851,1278
2218.523525483344,1265
2220.410030286655,1323
2222.296095514226,1270
2224.1817214435805,1338
2226.066908352319,1302
2227.951656518121,1333
2229.835966218746,1328
2231.71983773203,1270
2233.6032713358913,1363
2235.486267308324,1339
2237.3688259274036,1374
2239.2509474712824,1284
2241.132632218193,1304
2243.013880446447,1300
2244.8946924344323,1319
2246.7750684606203,1334
2248.6550088035574,1303
2250.534513741871,1291
2252.413583554265,1301
2254.292218519526,1270
2256.170418916517,1308
2258.0481850241786,1286
2259.925517121534,1313
2261.8024154876825,1333
2263.678880401803,1318
2265.5549121431536,1279
2267.430510991071,1268
2269.305677224971,1295
2271.180411124348,1309
2273.0547129687766,1251
2274.9285830379076,1315
2276.8020216114737,1266
2278.6750289692845,1316
2280.5476053912294,1336
2282.4197511572766,1347
2284.2914665474727,1304
2286.162751841943,1303
2288.0336073208937,1256
2289.904033264608,1288
2291.774029953448,1325
2293.6435976678554,1273
2295.5127366883517,1339
2297.381447295534,1329
2299.2497297700825,1299
2301.1175843927526,1237
2302.9850114443825,1314
2304.852011205885,1295
2306.7185839582553,1313
2308.5847299825664,1342
2310.4504495599676,1328
2312.3157429716925,1304
2314.1806104990483,1307
2316.0450524234247,1357
2317.9090690262888,1311
2319.772660589186,1327
2321.635827393742,1359
2323.498569721661,1339
2325.3608878547248,1335
2327.2227820747967,1316
2329.0842526638157,1329
2330.945299903803,1299
2332.805924076857,1358
2334.6661254651535,1348
2336.525904350951,1306
2338.3852610165827,1304
2340.244195744464,1344
2342.102708817088,1363
2343.9608005170253,1319
2345.8184711269287,1343
2347.675720929526,1297
2349.532550207628,1350
2351.38895924412,1298
2353.24494832197,1369
2355.100517724223,1291
2356.955667734004,1311
2358.810398634514,1365
2360.664710709037,1371
2362.5186042409337,1335
2364.3720795136437,1391
2366.225136810686,1334
2368.0777764156583,1370
2369.929998612237,1364
2371.7818036841777,1352
2373.633191915315,1280
2375.484163589562,1322
2377.3347189909114,1404
2379.184858403434,1383
2381.03458211128,1376
2382.8838903986775,1380
2384.732783549936,1368
2386.5812618494406,1399
2388.4293255816588,1345
2390.2769750311327,1386
2392.1242104824883,1402
2393.971032220427,1344
2395.8174405297295,1358
2397.6634356952563,1419
2399.509018001947,1383
2401.3541877348193,1355
2403.1989451789705,1385
2405.043290619576,1399
2406.8872243418905,1392
2408.730746631247,1397
2410.5738577730594,1360
2412.4165580528183,1407
2414.258847756095,1402
2416.100727168537,1366
2417.9421965758734,1387
2419.783256263912,1311
2421.623906518538,1363
2423.4641476257157,1383
2425.303979871491,1354
2427.143403541984,1372
2428.9824189233977,1349
2430.821026302012,1390
2432.6592259641866,1347
2434.497018196361,1387
2436.33440328505,1364
2438.171381516851,1384
2440.00795317844,1409
2441.844118556569,1411
2443.6798779380724,1405
2445.5152316098606,1372
2447.3501798589255,1436
2449.1847229723357,1414
2451.0188612372403,1390
2452.8525949408663,1358
2454.6859243705203,1424
2456.518849813587,1355
2458.3513715575314,1408
2460.183489889895,1424
2462.015205098301,1398
2463.8465174704493,1373
2465.67742729412,1457
2467.5079348571717,1425
2469.338040447542,1388
2471.1677443532476,1432
2472.9970468623833,1375
2474.825948263123,1433
2476.6544488437207,1432
2478.482548892508,1397
2480.310248697896,1411
2482.137548548374,1435
2483.9644487325118,1407
2485.790949538956,1327
2487.617051256433,1428
2489.44275417375,1437
2491.26805857979,1412
2493.0929647635157,1418
2494.917473013971,1426
2496.741583620276,1429
2498.5652968716304,1437
2500.3886130573137,1438
2502.2115324666834,1428
2504.0340553891765,1425
2505.856182114308,1437
2507.6779129316733,1496
2509.499248130945,1402
2511.3201880018764,1462
2513.140732834298,1475
2514.9608829181198,1483
2516.780638543331,1443
2518.6,1447
2520.418967578273,1464
2522.237541568376,1462
2524.0557222606144,1472
2525.8735099453706,1427
2527.6909049131086,1467
2529.507907454368,1522
2531.32451785977,1507
2533.140736420014,1521
2534.9565634258774,1477
2536.771999168218,1479
2538.5870439379714,1494
2540.4016980261526,1524
2542.2159617238544,1557
2544.02983532225,1545
2545.8433191125914,1507
2547.656413386209,1511
2549.4691184345115,1573
2551.2814345489874,1577
2553.093362021204,1616
2554.904901142808,1617
2556.716052205523,1611
2558.526815501153,1601
2560.3371913215824,1604
2562.147179958771,1602
2563.956781704761,1588
2565.7659968516705,1680
2567.5748256916986,1637
2569.3832685171224,1612
2571.1913256202984,1709
2572.9989972936614,1628
2574.806283829725,1650
2576.613185521084,1682
2578.4197026604074,1636
2580.2258355404483,1669
2582.031584454035,1727
2583.836949694077,1681
2585.6419315535613,1731
2587.4465303255533,1706
2589.2507463032002,1733
2591.0545797797245,1742
2592.8580310484303,1737
2594.6611004026995,1714
2596.463788135992,1786
2598.266094541849,1778
2600.0680199138874,1808
2601.869564545807,1778
2603.670728731383,1822
2605.4715127644704,1808
2607.2719169390048,1780
2609.071941548998,1817
2610.8715868885433,1812
2612.670853251811,1898
2614.469740933052,1791
2616.268250226594,1827
2618.0663814268455,1801
2619.864134828292,1853
2621.6615107255006,1779
2623.458509413115,1763
2625.2551311858597,1796
2627.0513763385347,1790
2628.8472451660223,1712
2630.6427379632833,1800
2632.4378550253564,1779
2634.232596647359,1757
2636.026963124488,1628
2637.8209547520187,1737
2639.6145718253065,1663
2641.407814639785,1673
2643.200683490966,1650
2644.9931786744414,1665
2646.7853004858807,1699
2648.577049221034,1657
2650.3684251757277,1633
2652.1594286458712,1574
2653.9500599274484,1631
2655.740319316525,1538
2657.5302071092437,1578
2659.3197236018286,1560
2661.10886909058,1550
2662.8976438718782,1526
2664.686048242183,1605
2666.4740824980327,1554
2668.2617469360443,1479
2670.0490418529134,1537
2671.8359675454153,1540
2673.622524310403,1495
2675.408712444811,1429
2677.1945322456495,1483
2678.979984010009,1456
2680.76506803506,1453
2682.5497846180497,1435
2684.334134056306,1471
2686.1181166472343,1466
2687.9017326883213,1425
2689.6849824771293,1422
2691.4678663113013,1407
2693.2503844885596,1378
2695.032537306705,1447
2696.8143250636167,1381
2698.5957480572542,1423
2700.3768065856534,1409
2702.1575009469316,1440
2703.937831439283,1396
2705.717798360982,1369
2707.4974020103837,1409
2709.276642685917,1393
2711.055520686095,1370
2712.834036309506,1342
2714.612189854819,1356
2716.389981620782,1367
2718.1674119062204,1419
2719.944481010041,1398
2721.721189231226,1340
2723.4975368688415,1294
2725.273524222027,1293
2727.0491515900053,1393
2728.824419272075,1368
2730.5993275676146,1356
2732.3738767760838,1358
2734.148067197016,1372
2735.921899130031,1345
2737.6953728748194,1365
2739.468488731156,1318
2741.2412469988926,1330
2743.0136479779617,1356
2744.785691968372,1338
2746.5573792702116,1291
2748.3287101836504,1301
2750.099685008934,1278
2751.870304046388,1343
2753.640567596418,1305
2755.4104759595057,1307
2757.1800294362156,1331
2758.949228327187,1317
2760.7180729331412,1336
2762.486563554877,1314
2764.254700493272,1244
2766.022484049284,1334
2767.789914523947,1322
2769.5569922183786,1298
2771.3237174337705,1275
2773.090090471394,1263
2774.8561116326036,1355
2776.6217812188274,1286
2778.3870995315756,1300
2780.1520668724356,1306
2781.9166835430747,1280
2783.6809498452394,1210
2785.444866080754,1333
2787.2084325515225,1363
2788.971649559527,1293
2790.73451740683,1296
2792.4970363955713,1320
2794.2592068279705,1266
2796.0210290063264,1339
2797.7825032330147,1298
2799.543629810493,1337
2801.304409041296,1293
2803.0648412280366,1259
2804.8249266734088,1271
2806.5846656801846,1329
2808.344058551212,1305
2810.1031055894246,1346
2811.8618070978273,1295
2813.6201633795085,1306
2815.378174737636,1366
2817.1358414754536,1326
2818.893163896285,1306
2820.6501423035334,1305
2822.4067770006814,1357
2824.1630682912883,1331
2825.9190164789957,1273
2827.6746218675207,1327
2829.429884760661,1291
2831.184805462294,1373
2832.9393842763743,1327
2834.693621506936,1312
2836.4475174580916,1336
2838.201072434034,1307
2839.954286739034,1336
2841.707160677441,1314
2843.459694553685,1291
2845.2118886722724,1311
2846.96374333779,1323
2848.7152588549034,1317
2850.4664355283567,1325
2852.217273662973,1324
2853.9677735636546,1307
2855.7179355353833,1272
2857.4677598832186,1294
2859.217246912299,1292
2860.9663969278427,1319
2862.715210235146,1293
2864.4636871395846,1282
2866.211827946614,1322
2867.9596329617652,1309
2869.7071024906536,1283
2871.4542368389684,1314
2873.20103631248,1326
2874.947501217038,1319
2876.6936318585695,1345
2878.4394285430812,1208
2880.1848915766604,1299
2881.9300212654707,1278
2883.6748179157553,1284
2885.4192818338374,1273
2887.1634133261173,1281
2888.907212699077,1272
2890.6506802592744,1297
2892.393816313348,1331
2894.1366211680142,1282
2895.8790951300693,1307
2897.621238506388,1319
2899.363051603925,1254
2901.1045347297118,1253
2902.8456881908596,1291
2904.58651229456,1321
2906.327007348081,1312
2908.067173658772,1305
2909.8070115340597,1236
2911.5465212814497,1270
2913.285703208527,1299
2915.0245576229563,1263
2916.7630848324807,1293
2918.5012851449196,1324
2920.2391588681758,1294
2921.976706310227,1303
2923.7139277791334,1298
2925.4508235830313,1243
2927.187394030137,1262
2928.923639428745,1293
2930.6595600872306,1297
2932.395156314046,1281
2934.1304284177218,1340
2935.8653767068713,1275
2937.6000014901815,1302
2939.3343030764227,1286
2941.068281774442,1279
2942.8019378931644,1294
2944.5352717415976,1258
2946.2682836288236,1298
2948.0009738640065,1319
2949.7333427563885,1300
2951.465390615289,1291
2953.1971177501086,1322
2954.9285244703265,1274
2956.6596110855,1268
2958.3903779052657,1323
2960.1208252393385,1261
2961.8509533975125,1256
2963.5807626896617,1295
2965.3102534257378,1333
2967.0394259157715,1316
2968.768280469873,1301
2970.496817398232,1319
2972.2250370111146,1300
2973.952939618869,1283
2975.6805255319196,1222
2977.4077950607707,1252
2979.134748516006,1299
2980.861386208289,1292
2982.587708448359,1262
2984.313715547037,1275
2986.039407815222,1303
2987.764785563891,1253
2989.489849104102,1328
2991.2145987469908,1299
2992.9390348037705,1338
2994.6631575857346,1323
2996.3869674042576,1326
2998.1104645707887,1247
2999.83364939686,1273
3001.5565221940783,1276
3003.2790832741334,1301
3005.0013329487924,1298
3006.7232715298996,1261
3008.4448993293804,1287
3010.166216659239,1226
3011.887223831558,1261
3013.607921158498,1317
3015.3283089522993,1297
3017.0483875252826,1306
3018.7681571898443,1259
3020.4876182584626,1288
3022.2067710436927,1259
3023.9256158581707,1327
3025.644153014609,1319
3027.362382825801,1311
3029.0803056046193,1245
3030.797921664012,1290
3032.5152313170106,1272
3034.2322348767225,1311
3035.9489326563353,1266
3037.665324969115,1310
3039.3814121284063,1215
3041.097194447633,1259
3042.812672240299,1323
3044.5278458199855,1231
3046.2427155003525,1272
3047.9572815951406,1286
3049.671544418167,1271
3051.38550428333,1277
3053.0991615046073,1304
3054.812516396051,1289
3056.5255692717974,1310
3058.2383204460575,1321
3059.9507702331257,1300
3061.662918947372,1313
3063.3747669032446,1310
3065.0863144152736,1244
3066.7975617980674,1320
3068.508509366309,1256
3070.219157434767,1220
3071.9295063182844,1255
3073.639556331785,1320
3075.3493077902704,1264
3077.058761008821,1281
3078.7679163025964,1252
3080.476773986837,1290
3082.1853343768594,1291
3083.89359778806,1325
3085.6015645359153,1280
3087.3092349359786,1264
3089.016609303884,1321
3090.7236879553434,1299
3092.4304712061476,1268
3094.136959372166,1319
3095.843152769349,1279
3097.5490517137237,1267
3099.2546565213966,1257
3100.959967508554,1282
3102.66498499146,1277
3104.3697092864577,1262
3106.0741407099695,1283
3107.778279578498,1352
3109.482126208622,1255
3111.1856809170004,1297
3112.8889440203716,1311
3114.5919158355528,1290
3116.294596679439,1301
3117.996986869006,1241
3119.6990867213062,1315
3121.4008965534726,1264
3123.102416682717,1282
3124.803647426329,1371
3126.5045891016784,1318
3128.205242026213,1267
3129.90560651746,1350
3131.605682893025,1361
3133.3054714705922,1285
3135.0049725679282,1293
3136.7041865028714,1331
3138.4031135933465,1238
3140.101754157353,1260
3141.800108512971,1328
3143.498176978357,1336
3145.1959598717494,1274
3146.8934575114636,1272
3148.5906702158954,1262
3150.2875983035183,1251
3151.9842420928853,1290
3153.680601902627,1237
3155.376678051456,1291
3157.07247085816,1216
3158.767980641609,1254
3160.463207720748,1255
3162.158152414606,1273
3163.8528150422862,1326
3165.5471959229726,1274
3167.2412953759303,1279
3168.9351137204976,1306
3170.628651276098,1322
3172.3219083622307,1230
3174.014885298474,1267
3175.707582404485,1278
3177.4000000000005,1301
3179.092138404835,1285
3180.7839979388846,1353
3182.47557892212,1262
3184.166881674594,1318
3185.8579065164386,1319
3187.5486537678626,1240
3189.2391237491547,1267
3190.9293167806827,1286
3192.6192331828934,1277
3194.3088732763117,1276
3195.998237381542,1304
3197.687325819268,1254
3199.376138910251,1278
3201.064676975334,1296
3202.7529403354347,1231
3204.4409293115523,1298
3206.1286442247647,1257
3207.816085396229,1243
3209.5032531471825,1243
3211.190147798936,1231
3212.8767696728846,1284
3214.5631190905015,1218
3216.2491963733373,1235
3217.9350018430214,1271
3219.6205358212637,1235
3221.305798629851,1227
3222.990790590651,1268
3224.6755120256103,1298
3226.359963256751,1243
3228.0441446061795,1287
3229.7280563960758,1262
3231.411698948703,1261
3233.0950725863995,1266
3234.778177631587,1236
3236.461014406761,1283
3238.1435832345005,1298
3239.8258844374595,1236
3241.507918338374,1256
3243.1896852600576,1295
3244.8711855254023,1285
3246.552419457381,1279
3248.233387379042,1255
3249.914089613516,1234
3251.59452648401,1262
3253.274698313813,1289
3254.95460542629,1199
3256.6342481448855,1222
3258.313626793125,1243
3259.9927416946084,1209
3261.6715931730196,1221
3263.3501815521176,1209
3265.0285071557437,1229
3266.706570307815,1195
3268.3843713323286,1238
3270.0619105533615,1238
3271.739188295068,1233
3273.4162048816834,1229
3275.0929606375184,1231
3276.769455886966,1299
3278.445690954498,1242
3280.1216661646613,1208
3281.797381842087,1247
3283.4728383114807,1254
3285.1480358976296,1251
3286.8229749253996,1201
3288.4976557197333,1190
3290.172078605655,1219
3291.846243908266,1277
3293.5201519527463,1224
3295.193803064357,1226
3296.8671975684374,1206
3298.5403357904024,1210
3300.21321805575,1245
3301.8858446900567,1207
3303.558216018975,1212
3305.23033236824,1219
3306.9021940636603,1239
3308.57380143113,1278
3310.2451547966184,1262
3311.916254486174,1201
3313.5871008259246,1288
3315.2576941420766,1259
3316.9280347609147,1242
3318.5981230088046,1198
3320.2679592121895,1181
3321.9375436975924,1253
3323.606876791612,1195
3325.27595882093,1285
3326.944790112305,1200
3328.6133709925753,1223
3330.2817017886573,1205
3331.949782827547,1250
3333.617614436319,1294
3335.2851969421245,1259
3336.952530672199,1246
3338.619615953853,1251
3340.286453114475,1206
3341.9530424815357,1272
3343.619384382583,1230
3345.2854791452437,1247
3346.951327097224,1279
3348.6169285663073,1262
3350.2822838803577,1222
3351.947393367319,1283
3353.61225735521,1259
3355.2768761721345,1277
3356.9412501462693,1275
3358.605379605873,1195
3360.2692648792827,1270
3361.9329062949146,1252
3363.596304181263,1279
