CollectionTime,6/28/2024 2:47:23 PM
ExposureUsed,3
CalibratedSpectrum
-962.7078968117929,787
-959.9714848408522,831
-957.2358232597828,815
-954.5009119013725,804
-951.7667505983302,863
-949.0333391832855,794
-946.3006774887896,838
-943.5687653473143,806
-940.837602591253,826
-938.1071890529199,828
-935.3775245645503,834
-932.6486089583007,831
-929.9204420662485,788
-927.1930237203925,814
-924.4663537526524,817
-921.7404319948689,814
-919.0152582788041,807
-916.2908324361409,867
-913.5671542984834,807
-910.8442236973568,846
-908.1220404642074,814
-905.4006044304027,783
-902.679915427231,804
-899.959973285902,835
-897.2407778375464,807
-894.5223289132158,825
-891.8046263438832,792
-889.0876699604426,769
-886.3714595937089,783
-883.6559950744183,803
-880.9412762332282,774
-878.2273029007168,799
-875.5140749073835,772
-872.8015920836489,729
-870.0898542598545,752
-867.3788612662631,768
-864.6686129330585,787
-861.9591090903457,775
-859.2503495681506,737
-856.5423341964203,768
-853.8350628050229,790
-851.1285352237478,770
-848.4227512823054,776
-845.7177108103272,791
-843.0134136373656,751
-840.3098595928943,739
-837.6070485063082,798
-834.9049802069229,793
-832.2036545239757,723
-829.5030712866244,736
-826.8032303239481,746
-824.1041314649472,749
-821.4057745385428,740
-818.7081593735775,790
-816.0112857988148,758
-813.3151536429393,780
-810.6197627345566,713
-807.9251129021936,723
-805.2312039742981,799
-802.5380357792392,739
-799.8456081453069,726
-797.1539209007124,748
-794.462973873588,760
-791.772766891987,787
-789.083299783884,794
-786.3945723771743,803
-783.7065844996748,812
-781.0193359791231,779
-778.3328266431781,754
-775.6470563194197,810
-772.9620248353489,787
-770.2777320183878,774
-767.5941776958798,729
-764.9113616950891,766
-762.2292838432011,747
-759.5479439673222,775
-756.8673418944801,763
-754.1874774516235,740
-751.5083504656222,796
-748.8299607632671,807
-746.15230817127,767
-743.475392516264,756
-740.7992136248035,767
-738.1237713233636,784
-735.4490654383407,785
-732.7750957960521,762
-730.1018622227365,778
-727.4293645445534,835
-724.7576025875837,799
-722.0865761778291,827
-719.4162851412126,828
-716.7467293035781,824
-714.0779084906909,808
-711.409822528237,861
-708.7424712418238,797
-706.0758544569796,852
-703.4099719991541,855
-700.7448236937178,870
-698.0804093659622,829
-695.4167288411002,828
-692.7537819442656,825
-690.0915685005134,768
-687.4300883348199,848
-684.7693412720819,828
-682.1093271371178,840
-679.4500457546669,868
-676.7914969493897,890
-674.1336805458676,857
-671.4765963686034,861
-668.8202442420206,855
-666.1646239904642,895
-663.5097354382001,923
-660.8555784094151,866
-658.2021527282176,879
-655.5494582186366,907
-652.8974947046223,890
-650.2462620100463,908
-647.5957599587009,894
-644.9459883742998,933
-642.2969470804776,920
-639.6486359007902,934
-637.0010546587141,937
-634.3542031776476,883
-631.7080812809096,918
-629.0626887917401,866
-626.4180255333008,854
-623.7740913286734,895
-621.1308860008619,882
-618.4884093727904,886
-615.8466612673046,850
-613.2056415071715,850
-610.5653499150785,809
-607.9257863136347,860
-605.28695052537,858
-602.6488423727357,850
-600.0114616781036,869
-597.3748082637674,887
-594.7388819519412,909
-592.1036825647604,883
-589.4692099242818,881
-586.8354638524829,905
-584.2024441712624,912
-581.5701507024403,895
-578.9385832677575,896
-576.3077416888759,939
-573.6776257873787,919
-571.0482353847704,960
-568.4195703024757,926
-565.7916303618415,934
-563.164415384135,921
-560.5379251905453,930
-557.9121596021815,863
-555.2871184400748,878
-552.6628015251767,880
-550.0392086783606,903
-547.4163397204204,902
-544.794194472071,900
-542.1727727539491,969
-539.5520743866118,927
-536.9320991905377,981
-534.3128469861261,1005
-531.6943175936979,1007
-529.0765108334947,1005
-526.4594265256793,1107
-523.8430644903358,1229
-521.2274245474689,1407
-518.612506517005,1500
-515.9983102187913,1570
-513.3848354725959,1611
-510.77208209810846,1757
-508.16004991493924,1835
-505.5487387426199,1880
-502.9381484006032,2002
-500.3282787082628,2074
-497.71912948489364,2157
-495.1107005497117,2121
-492.5029917218539,1918
-489.8960028203786,1774
-487.28973366426493,1609
-484.68418407241325,1394
-482.07935386364494,1275
-479.47524285670266,1317
-476.87185087025,1241
-474.2691777228715,1166
-471.66722323307334,1226
-469.0659872192821,1178
-466.4654694998459,1230
-463.86566989303384,1190
-461.26658821703614,1174
-458.66822428996414,1107
-456.07057792985,1164
-453.4736489546475,1134
-450.877437182231,1132
-448.28194243039627,1120
-445.68716451686,1097
-443.09310325926003,1090
-440.49975847515555,1057
-437.9071299820263,1081
-435.31521759727354,1060
-432.72402113821954,1130
-430.13354042210767,1125
-427.5437752661022,1164
-424.95472548728867,1177
-422.36639090267386,1185
-419.7787713291855,1148
-417.1918665836721,1164
-414.60567648290385,1150
-412.0202008435715,1204
-409.4354394822874,1206
-406.8513922155845,1191
-404.26805885991723,1170
-401.685439231661,1228
-399.103533147112,1210
-396.522340422488,1140
-393.9418608739278,1135
-391.3620943174908,1114
-388.7830405691583,1124
-386.2046994448317,1081
-383.6270707603344,1053
-381.05015433141045,985
-378.473949973725,898
-375.8984575028645,816
-373.32367673433623,756
-370.74960748356875,776
-368.1762495659117,718
-365.60360279663576,630
-363.03166699093265,597
-360.4604419639154,575
-357.8899275306178,556
-355.32012350599507,527
-352.7510297049233,519
-350.1826459421999,522
-347.61497203254316,535
-345.04800779059235,502
-342.4817530309082,471
-339.91620756797226,473
-337.35137121618743,482
-334.7872437898774,485
-332.22382510328725,501
-329.66111497058273,569
-327.09911320585127,558
-324.53781962310075,572
-321.9772340362607,590
-319.4173562591816,542
-316.8581861056348,531
-314.2997233893127,567
-311.7419679238294,581
-309.1849195227194,569
-306.62857799943856,515
-304.0729431673641,523
-301.51801483979375,503
-298.963792829947,529
-296.41027695096386,577
-293.85746701590574,586
-291.3053628377552,646
-288.7539642294155,586
-286.2032710037115,555
-283.65328297338897,544
-281.1039999511146,609
-278.5554217494762,624
-276.007548180983,614
-273.4603790580651,586
-270.9139141930734,569
-268.3681533982807,605
-265.8230964858798,622
-263.27874326798565,662
-260.7350935566336,677
-258.1921471637804,692
-255.6499039013039,665
-253.10836358100266,591
-250.56752601459698,601
-248.02739101372765,811
-245.48795838995704,813
-242.94922795476816,713
-240.41119951956557,714
-237.8738728956746,795
-235.33724789434166,850
-232.80132432673452,875
-230.2661020039418,837
-227.73158073697357,710
-225.19776033676033,670
-222.66464061415422,736
-220.1322213799284,747
-217.60050244477725,742
-215.06948361931552,704
-212.53916471408013,776
-210.00954553952818,780
-207.48062590603843,800
-204.9524056239104,829
-202.4248845033651,776
-199.8980623545441,768
-197.37193898751036,709
-194.84651421224817,794
-192.32178783866232,838
-189.79775967657952,767
-187.27442953574644,853
-184.7517972258321,792
-182.2298625564256,851
-179.7086253370378,842
-177.18808537710026,827
-174.66824248596583,813
-172.14909647290835,939
-169.6306471471229,934
-167.11289431772548,940
-164.59583779375328,868
-162.07947738416453,941
-159.5638128978386,958
-157.04884414357605,983
-154.53457093009854,987
-152.02099306604828,990
-149.50811035998936,1035
-146.99592262040665,1030
-144.48442965570587,1062
-141.97363127421409,1069
-139.46352728417958,996
-136.95411749377126,1018
-134.44540171107985,1195
-131.93737974411636,1195
-129.43005140081357,1158
-126.92341648902493,1284
-124.41747481652521,1354
-121.91222619101006,1275
-119.40767042009657,1228
-116.90380731132257,1247
-114.40063667214702,1268
-111.8981583099503,1421
-109.3963720320337,1553
-106.89527764561933,1594
-104.39487495785067,1701
-101.89516377579241,1631
-99.39614390642998,1633
-96.89781515667039,1668
-94.40017733334128,2036
-91.90323024319173,2075
-89.40697369289148,1936
-86.91140748903172,1914
-84.41653143812482,1819
-81.92234534660395,1935
-79.42884902082358,2020
-76.93604226705907,2209
-74.4439248915071,1985
-71.95249670028534,1846
-69.46175749943245,2109
-66.97170709490854,2472
-64.48234529259423,3119
-61.99367189829195,2499
-59.50568671772464,2585
-57.01838955653636,3019
-54.53178022029283,3145
-52.045858514480074,3123
-49.560624244506016,3288
-47.07607721569923,3342
-44.59221723330904,3356
-42.10904410250669,2976
-39.62655762838392,4134
-37.14475761595372,5137
-34.66364387015028,5896
-32.18321619582866,6098
-29.70347439776515,7097
-27.224418280657005,8711
-24.74604764912317,12732
-22.26836230770266,21934
-19.7913620608565,36801
-17.315046712966478,47675
-14.83941606833514,49318
-12.36446993118659,65031
-9.89020810566592,65031
-7.416630395839093,65031
-4.94373660569363,65031
-2.471526539137585,65031
-6.821210263296962E-13,65031
2.47084320796705,65031
4.941003281093458,65031
7.410480415786196,65031
9.879274808531363,65031
12.347386655893956,65031
14.814816154518212,65031
17.28156350112681,65031
19.74762889252179,65031
22.21301252558385,65031
24.67771459727237,50808
27.141735304626195,21993
29.605074844762612,11365
32.06773341487792,8008
34.52971121224755,8005
36.99100843422559,8190
39.45162527824516,7836
41.91156194181792,6580
44.370818622535126,7971
46.82939551806646,10297
49.287292826160524,13487
51.74451074464503,12787
54.201049471426245,9408
56.65690920448981,7543
59.112090141899785,5634
61.56659248179983,4462
64.02041642241159,3772
66.4735621620365,3619
68.92602989905402,2768
71.37781983192338,2644
73.82893215918205,3039
76.27936707944684,3024
78.72912479141326,2639
81.17820549385567,2511
83.62660938562783,2344
86.07433666566146,2196
88.5213875329681,2287
90.96776218663751,2129
93.41346082583925,2019
95.85848364982041,1987
98.30283085790859,1972
100.7465026495089,2006
103.18949922410604,1957
105.63182078126385,2031
108.07346752062438,1932
110.51443964190923,1814
112.95473734491827,1457
115.39436082953114,1501
117.83331029570547,1602
120.27158594347827,1703
122.7091879729652,1506
125.1461165843615,1582
127.58237197794062,1561
130.01795435405518,1397
132.4528639131364,1356
134.88710085569494,1420
137.32066538231982,1469
139.75355769367923,1530
142.1857779905207,1536
144.61732647366978,1554
147.04820334403132,1509
149.47840880258934,1499
151.90794305040674,1710
154.33680628862487,1906
156.76499871846443,1830
159.19252054122433,1910
161.61937195828352,2090
164.04555317109896,2256
166.47106438120693,2482
168.89590579022217,2957
171.320077599839,2974
173.7435800118302,3076
176.16641322804742,3225
178.58857745042144,3233
181.01007288096173,3402
183.43089972175687,3455
185.85105817497413,3460
188.27054844285988,3456
190.6893707277394,3329
193.10752523201643,3435
195.5250121581745,3607
197.9418317087751,3588
200.3579840864594,3598
202.7734694939469,3633
205.18828813403627,3587
207.6024402096051,3542
210.01592592360964,3535
212.42874547908548,3448
214.84089907914665,3248
217.2523869269868,3316
219.66320922587727,3345
222.0733661791695,3253
224.48285799029293,3346
226.8916848627572,3326
229.29984700014882,3431
231.7073446061355,3444
234.11417788446204,3467
236.520347038953,3533
238.92585227351185,3725
241.33069379212054,3799
243.73487179884035,3852
246.1383864978112,3654
248.541238093252,3750
250.9434267894609,3850
253.34495279081432,3723
255.74581630176783,3838
258.1460175268563,3861
260.54555667069314,3755
262.9444339379703,3755
265.3426495334594,3667
267.7402036620107,3705
270.1370965285529,3290
272.53332833809407,3269
274.9288992957214,3222
277.32380960660055,3043
279.718059475976,3035
282.1116491091717,2987
284.5045787115897,3013
286.89684848871195,2990
289.2884586460981,3056
291.67940938938807,3043
294.0697009242996,2965
296.4593334566299,2942
298.84830719225477,2879
301.23662233712923,2808
303.6242790972866,2840
306.01127767884,2860
308.39761828798066,2756
310.78330113097934,2747
313.16832641418534,2825
315.5526943440269,2706
317.9364051270112,2626
320.3194589697242,2548
322.70185607883093,2616
325.0835966610754,2543
327.4646809232805,2523
329.8451090723478,2572
332.2248813152577,2520
334.6039978590701,2511
336.9824589109231,2490
339.36026467803447,2470
341.7374153677,2475
344.113911187295,2385
346.48975234427337,2347
348.8649390461686,2368
351.2394715005918,2393
353.61334991523415,2476
355.9865744978655,2406
358.35914545633375,2361
360.73106299856715,2412
363.10232733257146,2399
365.47293866643247,2391
367.84289720831396,2394
370.2122031664593,2320
372.5808567491905,2295
374.9488581649083,2383
377.31620762209275,2277
379.6829053293021,2236
382.0489514951745,2244
384.4143463284262,2313
386.7790900378528,2235
389.14318283232853,2275
391.50662492080653,2271
393.86941651231916,2200
396.23155781597745,2169
398.5930490409713,2215
400.9538903965696,2272
403.3140820921202,2138
405.6736243370498,2173
408.03251734086336,2112
410.3907613131465,2272
412.74835646356166,2239
415.10530300185144,2256
417.4616011378372,2203
419.81725108141893,2178
422.1722530425758,2221
424.5266072313656,2144
426.880313857925,2121
429.2333731324701,2234
431.58578526529516,2132
433.9375504667738,2113
436.2886689473588,2137
438.63914091758113,2102
440.9889665880513,2151
443.33814616945835,2147
445.68667987257015,2090
448.03456790823395,2038
450.3818104873759,2112
452.72840782100013,2088
455.07436012019105,2151
457.41966759611057,2124
459.7643304600007,2097
462.10834892318155,2086
464.4517231970525,2118
466.79445349309174,2119
469.1365400228566,2145
471.4779829979826,2247
473.81878263018564,2136
476.15893913125876,2191
478.4984527130747,2217
480.8373235875855,2187
483.17555196682144,2216
485.5131380628919,2371
487.8500820879857,2379
490.1863842543697,2587
492.52204477439034,2802
494.8570638604725,3055
497.1914417251204,3284
499.52517858091653,3503
501.85827464052306,3665
504.19073011668036,3800
506.5225452222086,3783
508.85372017000566,3549
511.18425517304956,3563
513.514150444396,3716
515.8434061971808,4390
518.1720226446176,4783
520.4999999999999,5079
522.8273384766991,5405
525.1540382881666,5486
527.480099647932,5286
529.8055227696037,4193
532.1303078668694,2987
534.454455153496,2423
536.777964843328,2205
539.1008371502907,2100
541.4230722883866,2207
543.744670471698,2091
546.0656319143858,2055
548.3859568306899,2031
550.7056454349294,1954
553.0246979415016,1961
555.3431145648834,1933
557.6608955196306,1858
559.978041020377,1878
562.2945512818363,1956
564.6104265188006,1843
566.9256669461412,1892
569.2402727788082,1894
571.5542442318302,1878
573.8675815203156,1855
576.1802848594508,1881
578.4923544645015,1846
580.8037905508126,1913
583.114593333807,1945
585.4247630289875,1845
587.7342998519354,1897
590.0432040183106,1917
592.3514757438526,1875
594.6591152443794,1876
596.9661227357875,1918
599.2724984340531,1884
601.578242555231,1882
603.8833553154542,1970
606.1878369309362,1970
608.4916876179676,1999
610.7949075929192,1957
613.0974970722403,1922
615.3994562724587,1927
617.7007854101818,1934
620.0014847020951,1891
622.3015543649641,1974
624.6009946156324,1926
626.8998056710224,1941
629.1979877481361,1954
631.4955410640538,1950
633.7924658359349,1949
636.0887622810175,2020
638.3844306166192,1939
640.6794710601358,1918
642.9738838290426,2025
645.2676691408932,2000
647.5608272133207,1947
649.853358264037,2023
652.1452625108324,1997
654.4365401715764,1945
656.7271914642178,1974
659.0172166067838,2074
661.3066158173809,2050
663.5953893141935,2022
665.8835373154867,1977
668.1710600396028,2058
670.4579577049639,2022
672.7442305300709,1987
675.0298787335033,2027
677.3149025339197,2034
679.599302150058,2067
681.8830778007342,1943
684.1662297048437,2008
686.4487580813608,2089
688.7306631493387,1978
691.0119451279091,1973
693.2926042362834,2003
695.5726406937516,2003
697.8520547196814,2038
700.1308465335215,2034
702.4090163547982,2020
704.6865644031171,2043
706.9634908981619,1917
709.2397960596965,1924
711.5154801075631,1940
713.7905432616823,1983
716.0649857420548,1973
718.3388077687592,1991
720.612009561953,1983
722.8845913418733,1968
725.1565533288352,1947
727.427895743234,1981
729.6986188055427,1929
731.9687227363137,1962
734.238207756178,1950
736.5070740858458,1991
738.7753219461066,1883
741.0429515578281,1928
743.3099631419569,1952
745.5763569195191,1989
747.8421331116193,1917
750.1072919394409,1992
752.3718336242467,1984
754.6357583873777,1890
756.8990664502545,1942
759.1617580343765,2014
761.423833361321,1948
763.6852926527457,1979
765.9461361303862,1924
768.206364016058,2002
770.4659765316536,1992
772.7249738991469,1992
774.9833563405886,1976
777.2411240781092,2004
779.4982773339183,1917
781.7548163303044,2054
784.010741289634,2034
786.2660524343538,2041
788.5207499869881,2046
790.7748341701416,2076
793.0283052064964,2011
795.2811633188143,2086
797.5334087299362,2130
799.7850416627813,2046
802.0360623403484,2037
804.2864709857143,1941
806.5362678220353,1977
808.7854530725468,2003
811.0340269605625,2070
813.2819897094754,1997
815.5293415427581,2076
817.77608268396,2027
820.0222133567116,2013
822.2677337847211,2041
824.5126441917765,2047
826.7569448017433,1943
829.0006358385675,2002
831.2437175262731,2030
833.4861900889629,2013
835.7280537508192,1999
837.9693087361026,1970
840.2099552691533,2034
842.4499935743896,2064
844.689423876309,2017
846.9282463994886,2005
849.1664613685833,2040
851.4040690083276,2072
853.6410695435349,2080
855.877463199097,2017
858.1132501999847,2048
860.3484307712487,2050
862.5830051380175,2009
864.8169735254988,2007
867.0503361589791,2002
869.2830932638243,2021
871.5152450654786,2016
873.7467917894654,2068
875.9777336613873,2079
878.2080709069252,1977
880.4378037518389,2034
882.666932421968,2124
884.8954571432301,2107
887.1233781416219,2105
889.3506956432192,2099
891.5774098741766,2034
893.803521060728,2185
896.0290294291852,2087
898.2539352059397,2032
900.4782386174619,2099
902.7019398903011,2114
904.925039251085,2130
907.147536926521,2054
909.3694331433943,2044
911.59072812857,2088
913.8114221089921,2116
916.0315153116827,2058
918.2510079637437,2121
920.4699002923547,2042
922.6881925247761,2067
924.905884888345,1973
927.1229776104793,2096
929.3394709186747,2064
931.555365040506,2120
933.7706602036275,2166
935.9853566357709,2154
938.1994545647489,2117
940.4129542184515,2092
942.6258558248488,2170
944.8381596119883,2086
947.0498658079974,2054
949.2609746410825,2086
951.4714863395287,2014
953.6814011316998,2016
955.8907192460387,2039
958.0994409110671,2104
960.3075663553858,2064
962.5150958076741,1936
964.7220294966913,1998
966.928367651274,1972
969.1341105003388,1978
971.3392582728806,2024
973.5438111979742,1958
975.747769504772,1927
977.9511334225061,1949
980.153903180487,1965
982.3560790081052,1952
984.5576611348289,1945
986.7586497902058,1890
988.9590452038618,1785
991.158847605503,1829
993.3580572249133,1826
995.5566742919558,1784
997.7546990365728,1817
999.952131688785,1774
1002.1489724786926,1771
1004.3452216364743,1770
1006.5408793923874,1723
1008.7359459767691,1682
1010.9304216200343,1693
1013.1243065526781,1682
1015.3176010052733,1729
1017.510305208472,1729
1019.7024193930064,1709
1021.8939437896848,1747
1024.0848786293977,1680
1026.2752241431122,1682
1028.4649805618747,1639
1030.6541481168115,1719
1032.842727039127,1670
1035.0307175601051,1670
1037.2181199111074,1661
1039.4049343235752,1620
1041.591161029029,1606
1043.7768002590683,1748
1045.9618522453698,1625
1048.1463172196918,1559
1050.3301954138697,1618
1052.513487059818,1665
1054.69619238953,1667
1056.8783116350783,1570
1059.0598450286152,1643
1061.2407928023704,1671
1063.4211551886528,1657
1065.6009324198508,1609
1067.780124728432,1617
1069.9587323469414,1570
1072.1367555080046,1555
1074.314194444325,1539
1076.4910493886855,1545
1078.667320573947,1576
1080.843008233051,1574
1083.0181125990161,1545
1085.1926339049414,1530
1087.3665723840027,1527
1089.5399282694575,1551
1091.7127017946405,1578
1093.8848931929647,1571
1096.0565026979243,1520
1098.2275305430899,1467
1100.3979769621128,1509
1102.567842188722,1517
1104.737126456726,1490
1106.9058300000124,1471
1109.0739530525475,1518
1111.2414958483764,1488
1113.4084586216231,1555
1115.5748416064907,1506
1117.7406450372605,1458
1119.9058691482942,1502
1122.0705141740304,1532
1124.2345803489884,1476
1126.3980679077658,1471
1128.5609770850388,1456
1130.7233081155623,1445
1132.8850612341707,1520
1135.0462366757774,1482
1137.2068346753745,1414
1139.3668554680326,1489
1141.526299288901,1475
1143.68516637321,1477
1145.8434569562655,1421
1148.001171273455,1417
1150.158309560244,1486
1152.3148720521767,1420
1154.470858984876,1423
1156.626270594044,1419
1158.7811071154629,1401
1160.9353687849912,1503
1163.089055838569,1450
1165.242168512213,1445
1167.3947070420209,1471
1169.5466716641677,1472
1171.6980626149075,1444
1173.8488801305748,1443
1175.9991244475814,1483
1178.1487958024186,1441
1180.2978944316555,1459
1182.4464205719428,1412
1184.5943744600072,1470
1186.7417563326567,1430
1188.8885664267755,1442
1191.0348049793297,1430
1193.1804722273619,1417
1195.325568407995,1457
1197.4700937584303,1442
1199.614048515948,1433
1201.7574329179074,1436
1203.900247201746,1458
1206.042491604982,1486
1208.1841663652099,1400
1210.3252717201053,1486
1212.465807907422,1500
1214.6057751649923,1439
1216.7451737307279,1455
1218.8840038426192,1390
1221.0222657387353,1476
1223.1599596572241,1486
1225.2970858363137,1457
1227.4336445143094,1438
1229.5696359295966,1457
1231.705060320639,1465
1233.8399179259786,1497
1235.9742089842384,1484
1238.107933734118,1492
1240.2410924143974,1529
1242.373685263935,1481
1244.5057125216676,1505
1246.6371744266116,1472
1248.7680712178621,1450
1250.898403134593,1480
1253.028170416058,1440
1255.1573733015875,1448
1257.2860120305932,1478
1259.4140868425648,1544
1261.54159797707,1471
1263.6685456737569,1511
1265.7949301723515,1476
1267.9207517126597,1519
1270.046010534565,1535
1272.1707068780306,1504
1274.2948409830983,1561
1276.4184130898889,1508
1278.541423438603,1492
1280.6638722695184,1580
1282.785759822993,1528
1284.9070863394636,1546
1287.0278520594447,1523
1289.1480572235314,1561
1291.2677020723963,1537
1293.3867868467923,1614
1295.5053117875495,1568
1297.623277135579,1554
1299.740683131868,1601
1301.8575300174857,1605
1303.973818033578,1591
1306.0895474213703,1677
1308.2047184221678,1556
1310.3193312773528,1642
1312.4333862283888,1611
1314.5468835168163,1638
1316.659823384255,1663
1318.7722060724045,1603
1320.8840318230418,1713
1322.9953008780249,1601
1325.1060134792888,1617
1327.2161698688478,1669
1329.3257702887959,1627
1331.4348149813054,1624
1333.5433041886276,1634
1335.6512381530933,1665
1337.7586171171101,1584
1339.8654413231675,1645
1341.9717110138317,1596
1344.0774264317488,1590
1346.1825878196432,1605
1348.2871954203192,1607
1350.3912494766587,1659
1352.4947502316231,1611
1354.5976979282532,1668
1356.7000928096686,1606
1358.8019351190665,1618
1360.9032250997243,1583
1363.0039629949988,1575
1365.1041490483235,1615
1367.2037835032133,1644
1369.3028666032606,1596
1371.401398592137,1617
1373.4993797135926,1645
1375.5968102114575,1619
1377.6936903296396,1553
1379.7900203121262,1564
1381.8858004029835,1599
1383.9810308463561,1659
1386.075711886469,1652
1388.1698437676241,1629
1390.2634267342032,1635
1392.356461030667,1670
1394.4489469015557,1675
1396.5408845914872,1658
1398.6322743451592,1797
1400.7231164073469,1720
1402.813411022907,1667
1404.903158436773,1657
1406.9923588939578,1724
1409.0810126395531,1674
1411.1691199187303,1741
1413.2566809767386,1747
1415.343696058907,1724
1417.4301654106425,1759
1419.5160892774315,1765
1421.6014679048399,1755
1423.6863015385125,1712
1425.7705904241707,1751
1427.8543348076178,1796
1429.9375349347342,1870
1432.0201910514802,1894
1434.102303403894,1925
1436.1838722380944,1896
1438.2648978002767,1902
1440.3453803367174,1932
1442.4253200937692,1958
1444.5047173178677,1959
1446.5835722555234,2018
1448.6618851533285,1982
1450.739656257952,2114
1452.8168858161434,2097
1454.8935740747306,2119
1456.96972128062,2162
1459.045327680797,2162
1461.120393522327,2273
1463.1949190523528,2237
1465.2689045180973,2347
1467.3423501668608,2365
1469.415256246024,2351
1471.4876230030463,2488
1473.559450685465,2480
1475.6307395408976,2492
1477.7014898170391,2523
1479.771701761665,2639
1481.8413756226287,2624
1483.9105116478618,2759
1485.9791100853772,2725
1488.0471711832643,2782
1490.1146951896926,2879
1492.1816823529098,2943
1494.2481329212433,2991
1496.3140471430984,3040
1498.3794252669609,3010
1500.4442675413939,3097
1502.5085742150404,3075
1504.572345536622,3097
1506.6355817549388,3074
1508.6982831188702,3359
1510.7604498773744,3274
1512.8220822794883,3294
1514.8831805743293,3448
1516.9437450110909,3382
1519.003775839048,3449
1521.0632733075522,3528
1523.1222376660367,3529
1525.1806691640113,3710
1527.2385680510652,3823
1529.2959345768668,3783
1531.3527689911643,3756
1533.4090715437833,4032
1535.4648424846291,3997
1537.5200820636855,4146
1539.5747905310159,4231
1541.6289681367616,4231
1543.6826151311434,4233
1545.7357317644614,4379
1547.7883182870937,4316
1549.8403749494987,4507
1551.8919020022113,4536
1553.9428996958477,4691
1555.9933682811015,4757
1558.0433080087469,4975
1560.0927191296346,5011
1562.1416018946961,5117
1564.1899565549415,5140
1566.2377833614592,5012
1568.2850825654164,5209
1570.3318544180606,4983
1572.3780991707158,4790
1574.423817074788,4509
1576.4690083817595,4322
1578.5136733431923,4210
1580.5578122107272,3848
1582.601425236085,3527
1584.6445126710646,3417
1586.6870747675434,3244
1588.7291117774776,2999
1590.7706239529034,2984
1592.8116115459347,2777
1594.8520748087658,2674
1596.8920139936686,2472
1598.9314293529933,2499
1600.9703211391711,2366
1603.008689604711,2282
1605.0465350022005,2174
1607.0838575843068,2154
1609.1206576037753,2128
1611.1569353134305,2111
1613.1926909661765,1963
1615.2279248149953,1943
1617.2626371129481,1884
1619.2968281131757,1864
1621.3304980688963,1798
1623.3636472334088,1814
1625.39627586009,1755
1627.428384202396,1667
1629.459972513861,1787
1631.4910410480993,1703
1633.5215900588028,1687
1635.551619799744,1694
1637.5811305247717,1701
1639.6101224878166,1687
1641.6385959428862,1605
1643.6665511440683,1602
1645.693988345528,1561
1647.7209078015112,1648
1649.7473097663405,1614
1651.7731944944203,1620
1653.7985622402307,1639
1655.823413258333,1623
1657.847747803366,1603
1659.8715661300494,1556
1661.8948684931793,1619
1663.9176551476316,1584
1665.9399263483624,1571
1667.9616823504057,1511
1669.982923408873,1562
1672.0036497789574,1531
1674.0238617159293,1542
1676.043559475138,1584
1678.0627433120121,1541
1680.081413482059,1571
1682.0995702408654,1539
1684.117213844096,1564
1686.134344547495,1566
1688.1509626068864,1552
1690.1670682781705,1530
1692.182661817329,1505
1694.1977434804217,1558
1696.2123135235875,1537
1698.226372203043,1535
1700.2399197750851,1568
1702.2529564960905,1537
1704.2654826225112,1519
1706.277498410882,1538
1708.2890041178139,1571
1710.2999999999988,1530
1712.3104863142066,1533
1714.3204633172854,1551
1716.329931266163,1492
1718.3388904178469,1542
1720.3473410294214,1484
1722.3552833580516,1517
1724.3627176609807,1503
1726.3696441955308,1477
1728.3760632191033,1474
1730.3819749891782,1428
1732.3873797633146,1428
1734.3922777991502,1454
1736.3966693544012,1492
1738.4005546868639,1477
1740.4039340544127,1475
1742.406807715001,1431
1744.4091759266616,1470
1746.4110389475054,1493
1748.4123970357223,1437
1750.413250449582,1416
1752.4135994474318,1382
1754.4134442876993,1419
1756.4127852288902,1425
1758.4116225295893,1327
1760.4099564484595,1351
1762.407787244244,1417
1764.405115175764,1324
1766.4019405019203,1434
1768.3982634816916,1411
1770.3940843741357,1370
1772.3894034383907,1333
1774.3842209336717,1396
1776.378537119274,1362
1778.372352254571,1356
1780.3656665990156,1384
1782.3584804121397,1394
1784.3507939535534,1336
1786.3426074829463,1336
1788.3339212600863,1358
1790.3247355448211,1366
1792.3150505970766,1387
1794.3048666768573,1327
1796.2941840442477,1340
1798.2830029594106,1342
1800.2713236825884,1334
1802.2591464741004,1329
1804.2464715943465,1327
1806.2332993038058,1322
1808.2196298630352,1392
1810.2054635326708,1320
1812.190800573428,1272
1814.175641246101,1348
1816.1599858115628,1286
1818.1438345307652,1376
1820.127187664738,1320
1822.1100454745924,1311
1824.092408221516,1341
1826.0742761667766,1355
1828.055649571721,1317
1830.0365286977735,1295
1832.0169138064398,1326
1833.9968051593014,1339
1835.9762030180214,1329
1837.9551076443408,1254
1839.9335193000788,1297
1841.9114382471344,1290
1843.888864747485,1312
1845.8657990631878,1277
1847.842241456378,1343
1849.8181921892697,1276
1851.7936515241558,1303
1853.7686197234098,1335
1855.7430970494815,1308
1857.7170837649014,1302
1859.6905801322787,1247
1861.6635864143004,1290
1863.6361028737338,1309
1865.608129773424,1366
1867.5796673762961,1280
1869.5507159453537,1336
1871.521275743678,1309
1873.4913470344313,1336
1875.4609300808534,1361
1877.4300251462632,1332
1879.3986324940588,1342
1881.366752387717,1360
1883.3343850907936,1338
1885.3015308669228,1330
1887.268189979819,1351
1889.2343626932739,1317
1891.2000492711595,1308
1893.1652499774254,1331
1895.1299650761011,1308
1897.0941948312952,1361
1899.0579395071945,1309
1901.0211993680641,1312
1902.98397467825,1303
1904.9462657021745,1401
1906.9080727043415,1291
1908.869395949332,1370
1910.8302357018065,1326
1912.790592226504,1379
1914.7504657882428,1344
1916.7098566519212,1314
1918.6687650825133,1298
1920.6271913450764,1314
1922.5851357047422,1358
1924.5425984267245,1359
1926.499579776314,1353
1928.4560800188833,1285
1930.4120994198802,1302
1932.367638244833,1385
1934.32269675935,1302
1936.2772752291175,1371
1938.231373919899,1320
1940.1849930975404,1370
1942.1381330279637,1348
1944.0907939771696,1350
1946.0429762112412,1379
1947.9946799963363,1303
1949.9459055986945,1322
1951.896653284633,1336
1953.8469233205478,1391
1955.7967159729142,1366
1957.7460315082863,1361
1959.6948701932974,1327
1961.6432322946594,1327
1963.5911180791632,1301
1965.5385278136787,1316
1967.4854617651545,1363
1969.4319202006182,1258
1971.377903387176,1317
1973.3234115920136,1301
1975.268445082395,1358
1977.2130041256642,1380
1979.1570889892423,1336
1981.1006999406304,1344
1983.04383724741,1295
1984.986501177238,1367
1986.928691997853,1370
1988.8704099770712,1344
1990.811655382789,1271
1992.7524284829801,1350
1994.692729545698,1308
1996.6325588390755,1294
1998.5719166313224,1293
2000.5108031907307,1206
2002.4492187856677,1293
2004.387163684583,1351
2006.3246381560011,1296
2008.2616424685298,1305
2010.1981768908527,1320
2012.1342416917332,1291
2014.069837140014,1286
2016.0049635046162,1299
2017.9396210545406,1274
2019.8738100588666,1313
2021.8075307867502,1283
2023.740783507431,1303
2025.6735684902228,1218
2027.6058860045214,1252
2029.5377363198004,1295
2031.4691197056118,1259
2033.4000364315875,1284
2035.3304867674374,1228
2037.260470982952,1257
2039.189989347998,1226
2041.1190421325232,1215
2043.047629606554,1246
2044.9757520401945,1254
2046.9034097036288,1248
2048.8306028671195,1224
2050.7573318010086,1333
2052.683596775716,1261
2054.609398061742,1284
2056.5347359296647,1289
2058.4596106501403,1267
2060.384022493906,1215
2062.3079717317764,1301
2064.231458634646,1288
2066.1544834734873,1239
2068.077046519352,1229
2069.99914804337,1273
2071.9207883167524,1247
2073.8419676107865,1238
2075.7626861968406,1262
2077.6829443463607,1226
2079.6027423308715,1259
2081.522080421977,1278
2083.440958891362,1277
2085.359378010786,1300
2087.2773380520907,1316
2089.194839287196,1249
2091.111881988101,1207
2093.0284664268825,1235
2094.9445928756973,1284
2096.86026160678,1241
2098.775472892446,1242
2100.690227005088,1274
2102.604524217178,1258
2104.5183648012676,1217
2106.431749029985,1257
2108.34467717604,1241
2110.2571495122206,1310
2112.169166311393,1286
2114.080727846503,1241
2115.9918343905747,1297
2117.902486216711,1274
2119.8126835980956,1263
2121.722426807987,1234
2123.6317161197285,1321
2125.5405518067364,1235
2127.448934142509,1264
2129.356863400624,1271
2131.264339854737,1273
2133.1713637785815,1274
2135.077935445972,1245
2136.9840551308002,1261
2138.889723107037,1299
2140.7949396487334,1248
2142.699705030018,1269
2144.6040195250994,1218
2146.507883408264,1267
2148.4112969538774,1227
2150.3142604363848,1231
2152.2167741303097,1248
2154.1188383102535,1266
2156.0204532508997,1316
2157.9216192270064,1330
2159.822336513414,1252
2161.7226053850413,1288
2163.622426116884,1311
2165.5217989840185,1331
2167.4207242616,1315
2169.319202224862,1285
2171.2172331491165,1210
2173.1148173097563,1247
2175.0119549822507,1230
2176.90864644215,1302
2178.8048919650823,1259
2180.7006918267534,1264
2182.596046302952,1322
2184.4909556695407,1265
2186.3854202024645,1300
2188.279440177746,1308
2190.173015871487,1297
2192.066147559868,1319
2193.958835519149,1258
2195.851080025667,1259
2197.7428813558417,1278
2199.6342397861667,1261
2201.5251555932186,1237
2203.415629053651,1312
2205.3056604441986,1243
2207.19525004167,1235
2209.084398122958,1282
2210.9731049650327,1307
2212.861370844941,1254
2214.749196039812,1226
2216.636580826851,1295
2218.523525483344,1294
2220.410030286655,1314
2222.296095514226,1252
2224.1817214435805,1292
2226.066908352319,1251
2227.951656518121,1251
2229.835966218746,1284
2231.71983773203,1327
2233.6032713358913,1275
2235.486267308324,1258
2237.3688259274036,1244
2239.2509474712824,1292
2241.132632218193,1214
2243.013880446447,1254
2244.8946924344323,1322
2246.7750684606203,1266
2248.6550088035574,1327
2250.534513741871,1286
2252.413583554265,1264
2254.292218519526,1295
2256.170418916517,1241
2258.0481850241786,1216
2259.925517121534,1298
2261.8024154876825,1334
2263.678880401803,1267
2265.5549121431536,1231
2267.430510991071,1312
2269.305677224971,1286
2271.180411124348,1313
2273.0547129687766,1280
2274.9285830379076,1227
2276.8020216114737,1273
2278.6750289692845,1298
2280.5476053912294,1250
2282.4197511572766,1253
2284.2914665474727,1261
2286.162751841943,1263
2288.0336073208937,1300
2289.904033264608,1239
2291.774029953448,1276
2293.6435976678554,1262
2295.5127366883517,1337
2297.381447295534,1303
2299.2497297700825,1319
2301.1175843927526,1338
2302.9850114443825,1317
2304.852011205885,1296
2306.7185839582553,1295
2308.5847299825664,1315
2310.4504495599676,1289
2312.3157429716925,1357
2314.1806104990483,1339
2316.0450524234247,1320
2317.9090690262888,1284
2319.772660589186,1291
2321.635827393742,1311
2323.498569721661,1350
2325.3608878547248,1397
2327.2227820747967,1281
2329.0842526638157,1294
2330.945299903803,1326
2332.805924076857,1351
2334.6661254651535,1248
2336.525904350951,1386
2338.3852610165827,1363
2340.244195744464,1281
2342.102708817088,1302
2343.9608005170253,1309
2345.8184711269287,1341
2347.675720929526,1363
2349.532550207628,1372
2351.38895924412,1236
2353.24494832197,1351
2355.100517724223,1337
2356.955667734004,1311
2358.810398634514,1292
2360.664710709037,1330
2362.5186042409337,1327
2364.3720795136437,1358
2366.225136810686,1341
2368.0777764156583,1291
2369.929998612237,1389
2371.7818036841777,1360
2373.633191915315,1315
2375.484163589562,1355
2377.3347189909114,1332
2379.184858403434,1359
2381.03458211128,1383
2382.8838903986775,1408
2384.732783549936,1303
2386.5812618494406,1356
2388.4293255816588,1374
2390.2769750311327,1336
2392.1242104824883,1382
2393.971032220427,1338
2395.8174405297295,1302
2397.6634356952563,1344
2399.509018001947,1339
2401.3541877348193,1373
2403.1989451789705,1337
2405.043290619576,1310
2406.8872243418905,1381
2408.730746631247,1345
2410.5738577730594,1321
2412.4165580528183,1435
2414.258847756095,1339
2416.100727168537,1333
2417.9421965758734,1387
2419.783256263912,1397
2421.623906518538,1384
2423.4641476257157,1338
2425.303979871491,1327
2427.143403541984,1397
2428.9824189233977,1324
2430.821026302012,1397
2432.6592259641866,1362
2434.497018196361,1446
2436.33440328505,1373
2438.171381516851,1341
2440.00795317844,1377
2441.844118556569,1411
2443.6798779380724,1373
2445.5152316098606,1425
2447.3501798589255,1348
2449.1847229723357,1351
2451.0188612372403,1383
2452.8525949408663,1347
2454.6859243705203,1360
2456.518849813587,1354
2458.3513715575314,1394
2460.183489889895,1317
2462.015205098301,1328
2463.8465174704493,1366
2465.67742729412,1391
2467.5079348571717,1374
2469.338040447542,1414
2471.1677443532476,1402
2472.9970468623833,1368
2474.825948263123,1380
2476.6544488437207,1357
2478.482548892508,1350
2480.310248697896,1411
2482.137548548374,1414
2483.9644487325118,1382
2485.790949538956,1424
2487.617051256433,1385
2489.44275417375,1314
2491.26805857979,1374
2493.0929647635157,1414
2494.917473013971,1410
2496.741583620276,1396
2498.5652968716304,1376
2500.3886130573137,1412
2502.2115324666834,1462
2504.0340553891765,1392
2505.856182114308,1395
2507.6779129316733,1476
2509.499248130945,1402
2511.3201880018764,1447
2513.140732834298,1459
2514.9608829181198,1433
2516.780638543331,1441
2518.6,1411
2520.418967578273,1426
2522.237541568376,1448
2524.0557222606144,1454
2525.8735099453706,1468
2527.6909049131086,1428
2529.507907454368,1510
2531.32451785977,1481
2533.140736420014,1455
2534.9565634258774,1478
2536.771999168218,1517
2538.5870439379714,1467
2540.4016980261526,1491
2542.2159617238544,1501
2544.02983532225,1496
2545.8433191125914,1600
2547.656413386209,1580
2549.4691184345115,1521
2551.2814345489874,1574
2553.093362021204,1583
2554.904901142808,1631
2556.716052205523,1571
2558.526815501153,1556
2560.3371913215824,1571
2562.147179958771,1605
2563.956781704761,1589
2565.7659968516705,1600
2567.5748256916986,1636
2569.3832685171224,1685
2571.1913256202984,1660
2572.9989972936614,1632
2574.806283829725,1649
2576.613185521084,1665
2578.4197026604074,1699
2580.2258355404483,1670
2582.031584454035,1648
2583.836949694077,1703
2585.6419315535613,1751
2587.4465303255533,1720
2589.2507463032002,1768
2591.0545797797245,1711
2592.8580310484303,1732
2594.6611004026995,1753
2596.463788135992,1743
2598.266094541849,1789
2600.0680199138874,1807
2601.869564545807,1766
2603.670728731383,1792
2605.4715127644704,1812
2607.2719169390048,1763
2609.071941548998,1759
2610.8715868885433,1738
2612.670853251811,1890
2614.469740933052,1853
2616.268250226594,1782
2618.0663814268455,1798
2619.864134828292,1774
2621.6615107255006,1825
2623.458509413115,1815
2625.2551311858597,1846
2627.0513763385347,1771
2628.8472451660223,1753
2630.6427379632833,1755
2632.4378550253564,1736
2634.232596647359,1707
2636.026963124488,1703
2637.8209547520187,1739
2639.6145718253065,1744
2641.407814639785,1718
2643.200683490966,1679
2644.9931786744414,1675
2646.7853004858807,1619
2648.577049221034,1665
2650.3684251757277,1719
2652.1594286458712,1551
2653.9500599274484,1565
2655.740319316525,1570
2657.5302071092437,1541
2659.3197236018286,1569
2661.10886909058,1560
2662.8976438718782,1503
2664.686048242183,1551
2666.4740824980327,1530
2668.2617469360443,1473
2670.0490418529134,1522
2671.8359675454153,1471
2673.622524310403,1460
2675.408712444811,1490
2677.1945322456495,1447
2678.979984010009,1432
2680.76506803506,1442
2682.5497846180497,1452
2684.334134056306,1448
2686.1181166472343,1419
2687.9017326883213,1443
2689.6849824771293,1456
2691.4678663113013,1389
2693.2503844885596,1419
2695.032537306705,1371
2696.8143250636167,1396
2698.5957480572542,1395
2700.3768065856534,1396
2702.1575009469316,1403
2703.937831439283,1380
2705.717798360982,1355
2707.4974020103837,1360
2709.276642685917,1396
2711.055520686095,1371
2712.834036309506,1310
2714.612189854819,1329
2716.389981620782,1294
2718.1674119062204,1370
2719.944481010041,1310
2721.721189231226,1294
2723.4975368688415,1311
2725.273524222027,1305
2727.0491515900053,1296
2728.824419272075,1324
2730.5993275676146,1322
2732.3738767760838,1321
2734.148067197016,1274
2735.921899130031,1333
2737.6953728748194,1289
2739.468488731156,1288
2741.2412469988926,1304
2743.0136479779617,1341
2744.785691968372,1308
2746.5573792702116,1354
2748.3287101836504,1322
2750.099685008934,1287
2751.870304046388,1308
2753.640567596418,1280
2755.4104759595057,1343
2757.1800294362156,1319
2758.949228327187,1304
2760.7180729331412,1307
2762.486563554877,1219
2764.254700493272,1291
2766.022484049284,1268
2767.789914523947,1299
2769.5569922183786,1268
2771.3237174337705,1286
2773.090090471394,1220
2774.8561116326036,1291
2776.6217812188274,1338
2778.3870995315756,1360
2780.1520668724356,1297
2781.9166835430747,1343
2783.6809498452394,1257
2785.444866080754,1368
2787.2084325515225,1291
2788.971649559527,1293
2790.73451740683,1278
2792.4970363955713,1262
2794.2592068279705,1302
2796.0210290063264,1285
2797.7825032330147,1301
2799.543629810493,1295
2801.304409041296,1237
2803.0648412280366,1199
2804.8249266734088,1279
2806.5846656801846,1238
2808.344058551212,1271
2810.1031055894246,1264
2811.8618070978273,1272
2813.6201633795085,1226
2815.378174737636,1287
2817.1358414754536,1263
2818.893163896285,1315
2820.6501423035334,1288
2822.4067770006814,1333
2824.1630682912883,1255
2825.9190164789957,1279
2827.6746218675207,1285
2829.429884760661,1282
2831.184805462294,1254
2832.9393842763743,1298
2834.693621506936,1226
2836.4475174580916,1247
2838.201072434034,1246
2839.954286739034,1288
2841.707160677441,1252
2843.459694553685,1308
2845.2118886722724,1287
2846.96374333779,1236
2848.7152588549034,1294
2850.4664355283567,1319
2852.217273662973,1248
2853.9677735636546,1329
2855.7179355353833,1257
2857.4677598832186,1267
2859.217246912299,1264
2860.9663969278427,1326
2862.715210235146,1271
2864.4636871395846,1258
2866.211827946614,1220
2867.9596329617652,1278
2869.7071024906536,1296
2871.4542368389684,1216
2873.20103631248,1305
2874.947501217038,1282
2876.6936318585695,1305
2878.4394285430812,1254
2880.1848915766604,1304
2881.9300212654707,1283
2883.6748179157553,1346
2885.4192818338374,1274
2887.1634133261173,1271
2888.907212699077,1312
2890.6506802592744,1251
2892.393816313348,1235
2894.1366211680142,1231
2895.8790951300693,1261
2897.621238506388,1285
2899.363051603925,1275
2901.1045347297118,1204
2902.8456881908596,1238
2904.58651229456,1216
2906.327007348081,1297
2908.067173658772,1323
2909.8070115340597,1282
2911.5465212814497,1286
2913.285703208527,1300
2915.0245576229563,1301
2916.7630848324807,1260
2918.5012851449196,1264
2920.2391588681758,1194
2921.976706310227,1287
2923.7139277791334,1271
2925.4508235830313,1278
2927.187394030137,1231
2928.923639428745,1249
2930.6595600872306,1293
2932.395156314046,1275
2934.1304284177218,1223
2935.8653767068713,1248
2937.6000014901815,1252
2939.3343030764227,1247
2941.068281774442,1274
2942.8019378931644,1266
2944.5352717415976,1269
2946.2682836288236,1271
2948.0009738640065,1293
2949.7333427563885,1251
2951.465390615289,1265
2953.1971177501086,1224
2954.9285244703265,1238
2956.6596110855,1274
2958.3903779052657,1256
2960.1208252393385,1279
2961.8509533975125,1238
2963.5807626896617,1205
2965.3102534257378,1272
2967.0394259157715,1297
2968.768280469873,1277
2970.496817398232,1251
2972.2250370111146,1331
2973.952939618869,1235
2975.6805255319196,1211
2977.4077950607707,1263
2979.134748516006,1221
2980.861386208289,1257
2982.587708448359,1237
2984.313715547037,1284
2986.039407815222,1291
2987.764785563891,1296
2989.489849104102,1308
2991.2145987469908,1287
2992.9390348037705,1271
2994.6631575857346,1346
2996.3869674042576,1263
2998.1104645707887,1254
2999.83364939686,1258
3001.5565221940783,1247
3003.2790832741334,1276
3005.0013329487924,1219
3006.7232715298996,1208
3008.4448993293804,1206
3010.166216659239,1244
3011.887223831558,1283
3013.607921158498,1241
3015.3283089522993,1268
3017.0483875252826,1283
3018.7681571898443,1210
3020.4876182584626,1245
3022.2067710436927,1265
3023.9256158581707,1279
3025.644153014609,1287
3027.362382825801,1275
3029.0803056046193,1248
3030.797921664012,1210
3032.5152313170106,1260
3034.2322348767225,1309
3035.9489326563353,1197
3037.665324969115,1259
3039.3814121284063,1285
3041.097194447633,1227
3042.812672240299,1245
3044.5278458199855,1265
3046.2427155003525,1301
3047.9572815951406,1252
3049.671544418167,1314
3051.38550428333,1305
3053.0991615046073,1295
3054.812516396051,1275
3056.5255692717974,1261
3058.2383204460575,1269
3059.9507702331257,1289
3061.662918947372,1264
3063.3747669032446,1266
3065.0863144152736,1296
3066.7975617980674,1300
3068.508509366309,1297
3070.219157434767,1302
3071.9295063182844,1252
3073.639556331785,1340
3075.3493077902704,1256
3077.058761008821,1341
3078.7679163025964,1255
3080.476773986837,1249
3082.1853343768594,1287
3083.89359778806,1250
3085.6015645359153,1259
3087.3092349359786,1300
3089.016609303884,1299
3090.7236879553434,1280
3092.4304712061476,1249
3094.136959372166,1217
3095.843152769349,1301
3097.5490517137237,1242
3099.2546565213966,1233
3100.959967508554,1224
3102.66498499146,1340
3104.3697092864577,1330
3106.0741407099695,1217
3107.778279578498,1261
3109.482126208622,1237
3111.1856809170004,1254
3112.8889440203716,1234
3114.5919158355528,1292
3116.294596679439,1266
3117.996986869006,1346
3119.6990867213062,1290
3121.4008965534726,1309
3123.102416682717,1295
3124.803647426329,1328
3126.5045891016784,1303
3128.205242026213,1283
3129.90560651746,1253
3131.605682893025,1331
3133.3054714705922,1302
3135.0049725679282,1283
3136.7041865028714,1311
3138.4031135933465,1263
3140.101754157353,1228
3141.800108512971,1282
3143.498176978357,1272
3145.1959598717494,1314
3146.8934575114636,1280
3148.5906702158954,1251
3150.2875983035183,1277
3151.9842420928853,1286
3153.680601902627,1297
3155.376678051456,1265
3157.07247085816,1221
3158.767980641609,1252
3160.463207720748,1248
3162.158152414606,1266
3163.8528150422862,1258
3165.5471959229726,1286
3167.2412953759303,1318
3168.9351137204976,1254
3170.628651276098,1251
3172.3219083622307,1272
3174.014885298474,1221
3175.707582404485,1309
3177.4000000000005,1232
3179.092138404835,1246
3180.7839979388846,1306
3182.47557892212,1279
3184.166881674594,1258
3185.8579065164386,1270
3187.5486537678626,1182
3189.2391237491547,1252
3190.9293167806827,1262
3192.6192331828934,1248
3194.3088732763117,1245
3195.998237381542,1256
3197.687325819268,1304
3199.376138910251,1210
3201.064676975334,1207
3202.7529403354347,1236
3204.4409293115523,1223
3206.1286442247647,1229
3207.816085396229,1241
3209.5032531471825,1217
3211.190147798936,1241
3212.8767696728846,1225
3214.5631190905015,1219
3216.2491963733373,1219
3217.9350018430214,1197
3219.6205358212637,1226
3221.305798629851,1243
3222.990790590651,1173
3224.6755120256103,1222
3226.359963256751,1234
3228.0441446061795,1216
3229.7280563960758,1254
3231.411698948703,1214
3233.0950725863995,1162
3234.778177631587,1223
3236.461014406761,1219
3238.1435832345005,1257
3239.8258844374595,1258
3241.507918338374,1253
3243.1896852600576,1279
3244.8711855254023,1232
3246.552419457381,1260
3248.233387379042,1201
3249.914089613516,1189
3251.59452648401,1212
3253.274698313813,1185
3254.95460542629,1226
3256.6342481448855,1232
3258.313626793125,1237
3259.9927416946084,1221
3261.6715931730196,1213
3263.3501815521176,1218
3265.0285071557437,1184
3266.706570307815,1205
3268.3843713323286,1211
3270.0619105533615,1226
3271.739188295068,1235
3273.4162048816834,1263
3275.0929606375184,1256
3276.769455886966,1194
3278.445690954498,1229
3280.1216661646613,1236
3281.797381842087,1257
3283.4728383114807,1231
3285.1480358976296,1212
3286.8229749253996,1280
3288.4976557197333,1246
3290.172078605655,1171
3291.846243908266,1224
3293.5201519527463,1216
3295.193803064357,1217
3296.8671975684374,1167
3298.5403357904024,1228
3300.21321805575,1169
3301.8858446900567,1163
3303.558216018975,1241
3305.23033236824,1234
3306.9021940636603,1214
3308.57380143113,1260
3310.2451547966184,1230
3311.916254486174,1186
3313.5871008259246,1251
3315.2576941420766,1221
3316.9280347609147,1269
3318.5981230088046,1251
3320.2679592121895,1201
3321.9375436975924,1191
3323.606876791612,1203
3325.27595882093,1238
3326.944790112305,1170
3328.6133709925753,1186
3330.2817017886573,1190
3331.949782827547,1211
3333.617614436319,1206
3335.2851969421245,1186
3336.952530672199,1179
3338.619615953853,1217
3340.286453114475,1210
3341.9530424815357,1241
3343.619384382583,1227
3345.2854791452437,1158
3346.951327097224,1225
3348.6169285663073,1221
3350.2822838803577,1223
3351.947393367319,1235
3353.61225735521,1230
3355.2768761721345,1211
3356.9412501462693,1183
3358.605379605873,1256
3360.2692648792827,1185
3361.9329062949146,1235
3363.596304181263,1180
