CollectionTime,6/28/2024 2:47:59 PM
ExposureUsed,3
CalibratedSpectrum
-962.7078968117929,955
-959.9714848408522,978
-957.2358232597828,982
-954.5009119013725,951
-951.7667505983302,996
-949.0333391832855,1013
-946.3006774887896,972
-943.5687653473143,994
-940.837602591253,996
-938.1071890529199,978
-935.3775245645503,950
-932.6486089583007,978
-929.9204420662485,983
-927.1930237203925,985
-924.4663537526524,1002
-921.7404319948689,988
-919.0152582788041,990
-916.2908324361409,1023
-913.5671542984834,1056
-910.8442236973568,1029
-908.1220404642074,1005
-905.4006044304027,1027
-902.679915427231,988
-899.959973285902,1001
-897.2407778375464,936
-894.5223289132158,963
-891.8046263438832,990
-889.0876699604426,953
-886.3714595937089,942
-883.6559950744183,928
-880.9412762332282,924
-878.2273029007168,918
-875.5140749073835,950
-872.8015920836489,904
-870.0898542598545,917
-867.3788612662631,902
-864.6686129330585,947
-861.9591090903457,925
-859.2503495681506,919
-856.5423341964203,947
-853.8350628050229,914
-851.1285352237478,951
-848.4227512823054,950
-845.7177108103272,899
-843.0134136373656,890
-840.3098595928943,917
-837.6070485063082,945
-834.9049802069229,923
-832.2036545239757,913
-829.5030712866244,922
-826.8032303239481,894
-824.1041314649472,940
-821.4057745385428,916
-818.7081593735775,904
-816.0112857988148,923
-813.3151536429393,914
-810.6197627345566,954
-807.9251129021936,923
-805.2312039742981,914
-802.5380357792392,945
-799.8456081453069,938
-797.1539209007124,944
-794.462973873588,959
-791.772766891987,946
-789.083299783884,949
-786.3945723771743,946
-783.7065844996748,923
-781.0193359791231,959
-778.3328266431781,976
-775.6470563194197,962
-772.9620248353489,943
-770.2777320183878,915
-767.5941776958798,958
-764.9113616950891,954
-762.2292838432011,959
-759.5479439673222,978
-756.8673418944801,929
-754.1874774516235,966
-751.5083504656222,979
-748.8299607632671,966
-746.15230817127,933
-743.475392516264,951
-740.7992136248035,959
-738.1237713233636,968
-735.4490654383407,988
-732.7750957960521,986
-730.1018622227365,971
-727.4293645445534,937
-724.7576025875837,1007
-722.0865761778291,1012
-719.4162851412126,1008
-716.7467293035781,1012
-714.0779084906909,997
-711.409822528237,1018
-708.7424712418238,997
-706.0758544569796,1039
-703.4099719991541,1001
-700.7448236937178,1069
-698.0804093659622,1052
-695.4167288411002,1025
-692.7537819442656,962
-690.0915685005134,1032
-687.4300883348199,1065
-684.7693412720819,1052
-682.1093271371178,1078
-679.4500457546669,1105
-676.7914969493897,1074
-674.1336805458676,1045
-671.4765963686034,1063
-668.8202442420206,1049
-666.1646239904642,1106
-663.5097354382001,1092
-660.8555784094151,1069
-658.2021527282176,1099
-655.5494582186366,1082
-652.8974947046223,1121
-650.2462620100463,1123
-647.5957599587009,1098
-644.9459883742998,1137
-642.2969470804776,1138
-639.6486359007902,1125
-637.0010546587141,1180
-634.3542031776476,1136
-631.7080812809096,1123
-629.0626887917401,1130
-626.4180255333008,1101
-623.7740913286734,1082
-621.1308860008619,1140
-618.4884093727904,1132
-615.8466612673046,1084
-613.2056415071715,1084
-610.5653499150785,1145
-607.9257863136347,1111
-605.28695052537,1034
-602.6488423727357,1071
-600.0114616781036,1098
-597.3748082637674,1108
-594.7388819519412,1112
-592.1036825647604,1079
-589.4692099242818,1141
-586.8354638524829,1065
-584.2024441712624,1115
-581.5701507024403,1074
-578.9385832677575,1088
-576.3077416888759,1092
-573.6776257873787,1105
-571.0482353847704,1101
-568.4195703024757,1127
-565.7916303618415,1150
-563.164415384135,1143
-560.5379251905453,1096
-557.9121596021815,1114
-555.2871184400748,1131
-552.6628015251767,1099
-550.0392086783606,1108
-547.4163397204204,1103
-544.794194472071,1115
-542.1727727539491,1119
-539.5520743866118,1159
-536.9320991905377,1165
-534.3128469861261,1225
-531.6943175936979,1175
-529.0765108334947,1241
-526.4594265256793,1317
-523.8430644903358,1489
-521.2274245474689,1492
-518.612506517005,1722
-515.9983102187913,1769
-513.3848354725959,1894
-510.77208209810846,1872
-508.16004991493924,1889
-505.5487387426199,2060
-502.9381484006032,2219
-500.3282787082628,2387
-497.71912948489364,2333
-495.1107005497117,2328
-492.5029917218539,2270
-489.8960028203786,2064
-487.28973366426493,1872
-484.68418407241325,1706
-482.07935386364494,1516
-479.47524285670266,1440
-476.87185087025,1535
-474.2691777228715,1443
-471.66722323307334,1472
-469.0659872192821,1388
-466.4654694998459,1410
-463.86566989303384,1376
-461.26658821703614,1316
-458.66822428996414,1424
-456.07057792985,1348
-453.4736489546475,1464
-450.877437182231,1391
-448.28194243039627,1362
-445.68716451686,1362
-443.09310325926003,1348
-440.49975847515555,1323
-437.9071299820263,1326
-435.31521759727354,1336
-432.72402113821954,1322
-430.13354042210767,1328
-427.5437752661022,1371
-424.95472548728867,1358
-422.36639090267386,1401
-419.7787713291855,1375
-417.1918665836721,1390
-414.60567648290385,1402
-412.0202008435715,1419
-409.4354394822874,1458
-406.8513922155845,1417
-404.26805885991723,1416
-401.685439231661,1472
-399.103533147112,1414
-396.522340422488,1395
-393.9418608739278,1362
-391.3620943174908,1335
-388.7830405691583,1282
-386.2046994448317,1254
-383.6270707603344,1179
-381.05015433141045,1093
-378.473949973725,946
-375.8984575028645,911
-373.32367673433623,859
-370.74960748356875,794
-368.1762495659117,762
-365.60360279663576,663
-363.03166699093265,613
-360.4604419639154,611
-357.8899275306178,569
-355.32012350599507,583
-352.7510297049233,525
-350.1826459421999,514
-347.61497203254316,509
-345.04800779059235,470
-342.4817530309082,492
-339.91620756797226,487
-337.35137121618743,487
-334.7872437898774,463
-332.22382510328725,495
-329.66111497058273,550
-327.09911320585127,518
-324.53781962310075,553
-321.9772340362607,546
-319.4173562591816,521
-316.8581861056348,490
-314.2997233893127,517
-311.7419679238294,566
-309.1849195227194,538
-306.62857799943856,507
-304.0729431673641,492
-301.51801483979375,509
-298.963792829947,511
-296.41027695096386,536
-293.85746701590574,569
-291.3053628377552,602
-288.7539642294155,578
-286.2032710037115,574
-283.65328297338897,554
-281.1039999511146,600
-278.5554217494762,652
-276.007548180983,649
-273.4603790580651,605
-270.9139141930734,586
-268.3681533982807,589
-265.8230964858798,633
-263.27874326798565,604
-260.7350935566336,625
-258.1921471637804,638
-255.6499039013039,614
-253.10836358100266,570
-250.56752601459698,587
-248.02739101372765,755
-245.48795838995704,714
-242.94922795476816,684
-240.41119951956557,705
-237.8738728956746,706
-235.33724789434166,803
-232.80132432673452,867
-230.2661020039418,763
-227.73158073697357,689
-225.19776033676033,690
-222.66464061415422,666
-220.1322213799284,685
-217.60050244477725,706
-215.06948361931552,717
-212.53916471408013,705
-210.00954553952818,729
-207.48062590603843,725
-204.9524056239104,776
-202.4248845033651,747
-199.8980623545441,654
-197.37193898751036,706
-194.84651421224817,768
-192.32178783866232,798
-189.79775967657952,852
-187.27442953574644,866
-184.7517972258321,775
-182.2298625564256,772
-179.7086253370378,752
-177.18808537710026,775
-174.66824248596583,800
-172.14909647290835,929
-169.6306471471229,883
-167.11289431772548,843
-164.59583779375328,823
-162.07947738416453,872
-159.5638128978386,922
-157.04884414357605,903
-154.53457093009854,1007
-152.02099306604828,981
-149.50811035998936,917
-146.99592262040665,943
-144.48442965570587,999
-141.97363127421409,1074
-139.46352728417958,1001
-136.95411749377126,899
-134.44540171107985,1100
-131.93737974411636,1135
-129.43005140081357,1259
-126.92341648902493,1265
-124.41747481652521,1315
-121.91222619101006,1172
-119.40767042009657,1153
-116.90380731132257,1192
-114.40063667214702,1214
-111.8981583099503,1337
-109.3963720320337,1449
-106.89527764561933,1487
-104.39487495785067,1513
-101.89516377579241,1547
-99.39614390642998,1512
-96.89781515667039,1496
-94.40017733334128,1826
-91.90323024319173,1774
-89.40697369289148,1775
-86.91140748903172,1674
-84.41653143812482,1553
-81.92234534660395,1726
-79.42884902082358,2018
-76.93604226705907,2249
-74.4439248915071,1939
-71.95249670028534,1901
-69.46175749943245,2160
-66.97170709490854,2652
-64.48234529259423,3002
-61.99367189829195,2375
-59.50568671772464,2517
-57.01838955653636,2865
-54.53178022029283,2859
-52.045858514480074,2803
-49.560624244506016,2891
-47.07607721569923,2993
-44.59221723330904,3106
-42.10904410250669,2939
-39.62655762838392,3674
-37.14475761595372,4749
-34.66364387015028,5533
-32.18321619582866,6151
-29.70347439776515,7490
-27.224418280657005,9240
-24.74604764912317,13620
-22.26836230770266,24436
-19.7913620608565,43109
-17.315046712966478,54917
-14.83941606833514,55360
-12.36446993118659,65030
-9.89020810566592,65030
-7.416630395839093,65030
-4.94373660569363,65030
-2.471526539137585,65030
-6.821210263296962E-13,65030
2.47084320796705,65030
4.941003281093458,65030
7.410480415786196,65030
9.879274808531363,65030
12.347386655893956,65030
14.814816154518212,65030
17.28156350112681,65030
19.74762889252179,65030
22.21301252558385,65030
24.67771459727237,50115
27.141735304626195,21380
29.605074844762612,11119
32.06773341487792,8193
34.52971121224755,7494
36.99100843422559,7427
39.45162527824516,7199
41.91156194181792,6596
44.370818622535126,7637
46.82939551806646,10025
49.287292826160524,13538
51.74451074464503,12735
54.201049471426245,9612
56.65690920448981,7896
59.112090141899785,5585
61.56659248179983,4290
64.02041642241159,3531
66.4735621620365,3429
68.92602989905402,2574
71.37781983192338,2451
73.82893215918205,2843
76.27936707944684,2744
78.72912479141326,2327
81.17820549385567,2242
83.62660938562783,2017
86.07433666566146,2018
88.5213875329681,2076
90.96776218663751,2059
93.41346082583925,1878
95.85848364982041,1780
98.30283085790859,1873
100.7465026495089,1811
103.18949922410604,1790
105.63182078126385,1739
108.07346752062438,1764
110.51443964190923,1696
112.95473734491827,1375
115.39436082953114,1345
117.83331029570547,1458
120.27158594347827,1665
122.7091879729652,1502
125.1461165843615,1366
127.58237197794062,1363
130.01795435405518,1236
132.4528639131364,1172
134.88710085569494,1326
137.32066538231982,1497
139.75355769367923,1466
142.1857779905207,1434
144.61732647366978,1418
147.04820334403132,1431
149.47840880258934,1485
151.90794305040674,1616
154.33680628862487,1762
156.76499871846443,1787
159.19252054122433,1928
161.61937195828352,2180
164.04555317109896,2300
166.47106438120693,2421
168.89590579022217,2875
171.320077599839,3021
173.7435800118302,3229
176.16641322804742,3244
178.58857745042144,3342
181.01007288096173,3507
183.43089972175687,3558
185.85105817497413,3566
188.27054844285988,3624
190.6893707277394,3506
193.10752523201643,3579
195.5250121581745,3619
197.9418317087751,3786
200.3579840864594,3767
202.7734694939469,3879
205.18828813403627,3819
207.6024402096051,3747
210.01592592360964,3589
212.42874547908548,3607
214.84089907914665,3476
217.2523869269868,3516
219.66320922587727,3545
222.0733661791695,3482
224.48285799029293,3496
226.8916848627572,3557
229.29984700014882,3547
231.7073446061355,3612
234.11417788446204,3636
236.520347038953,3730
238.92585227351185,3934
241.33069379212054,3826
243.73487179884035,3856
246.1383864978112,3874
248.541238093252,3947
250.9434267894609,3996
253.34495279081432,3842
255.74581630176783,3806
258.1460175268563,4030
260.54555667069314,3897
262.9444339379703,3860
265.3426495334594,3858
267.7402036620107,3607
270.1370965285529,3567
272.53332833809407,3397
274.9288992957214,3453
277.32380960660055,3259
279.718059475976,3326
282.1116491091717,3247
284.5045787115897,3175
286.89684848871195,3161
289.2884586460981,3250
291.67940938938807,3181
294.0697009242996,3113
296.4593334566299,3110
298.84830719225477,3115
301.23662233712923,3071
303.6242790972866,3155
306.01127767884,3107
308.39761828798066,3084
310.78330113097934,3069
313.16832641418534,2919
315.5526943440269,2916
317.9364051270112,2798
320.3194589697242,2794
322.70185607883093,2835
325.0835966610754,2756
327.4646809232805,2718
329.8451090723478,2727
332.2248813152577,2744
334.6039978590701,2670
336.9824589109231,2715
339.36026467803447,2714
341.7374153677,2649
344.113911187295,2599
346.48975234427337,2656
348.8649390461686,2625
351.2394715005918,2597
353.61334991523415,2596
355.9865744978655,2523
358.35914545633375,2560
360.73106299856715,2647
363.10232733257146,2526
365.47293866643247,2540
367.84289720831396,2510
370.2122031664593,2445
372.5808567491905,2517
374.9488581649083,2584
377.31620762209275,2525
379.6829053293021,2503
382.0489514951745,2465
384.4143463284262,2503
386.7790900378528,2474
389.14318283232853,2449
391.50662492080653,2391
393.86941651231916,2403
396.23155781597745,2337
398.5930490409713,2418
400.9538903965696,2415
403.3140820921202,2486
405.6736243370498,2457
408.03251734086336,2417
410.3907613131465,2413
412.74835646356166,2343
415.10530300185144,2371
417.4616011378372,2320
419.81725108141893,2391
422.1722530425758,2400
424.5266072313656,2337
426.880313857925,2343
429.2333731324701,2312
431.58578526529516,2400
433.9375504667738,2430
436.2886689473588,2309
438.63914091758113,2316
440.9889665880513,2290
443.33814616945835,2209
445.68667987257015,2320
448.03456790823395,2329
450.3818104873759,2181
452.72840782100013,2282
455.07436012019105,2272
457.41966759611057,2282
459.7643304600007,2342
462.10834892318155,2283
464.4517231970525,2282
466.79445349309174,2360
469.1365400228566,2294
471.4779829979826,2276
473.81878263018564,2305
476.15893913125876,2283
478.4984527130747,2452
480.8373235875855,2488
483.17555196682144,2432
485.5131380628919,2501
487.8500820879857,2673
490.1863842543697,2796
492.52204477439034,3049
494.8570638604725,3246
497.1914417251204,3577
499.52517858091653,3649
501.85827464052306,3902
504.19073011668036,3966
506.5225452222086,3921
508.85372017000566,3749
511.18425517304956,3576
513.514150444396,3733
515.8434061971808,4401
518.1720226446176,5037
520.4999999999999,5374
522.8273384766991,5539
525.1540382881666,5694
527.480099647932,5469
529.8055227696037,4184
532.1303078668694,3069
534.454455153496,2559
536.777964843328,2299
539.1008371502907,2255
541.4230722883866,2226
543.744670471698,2216
546.0656319143858,2179
548.3859568306899,2226
550.7056454349294,2141
553.0246979415016,2140
555.3431145648834,2042
557.6608955196306,2113
559.978041020377,2085
562.2945512818363,2123
564.6104265188006,2044
566.9256669461412,2078
569.2402727788082,2013
571.5542442318302,2052
573.8675815203156,2130
576.1802848594508,2091
578.4923544645015,2145
580.8037905508126,2056
583.114593333807,2093
585.4247630289875,2042
587.7342998519354,2019
590.0432040183106,2033
592.3514757438526,2064
594.6591152443794,2072
596.9661227357875,2085
599.2724984340531,2044
601.578242555231,2053
603.8833553154542,2140
606.1878369309362,2114
608.4916876179676,2143
610.7949075929192,2095
613.0974970722403,2168
615.3994562724587,2172
617.7007854101818,2070
620.0014847020951,2137
622.3015543649641,2095
624.6009946156324,2113
626.8998056710224,2127
629.1979877481361,2095
631.4955410640538,2039
633.7924658359349,2102
636.0887622810175,2155
638.3844306166192,2161
640.6794710601358,2129
642.9738838290426,2147
645.2676691408932,2140
647.5608272133207,2162
649.853358264037,2193
652.1452625108324,2210
654.4365401715764,2166
656.7271914642178,2275
659.0172166067838,2170
661.3066158173809,2279
663.5953893141935,2204
665.8835373154867,2191
668.1710600396028,2189
670.4579577049639,2177
672.7442305300709,2169
675.0298787335033,2192
677.3149025339197,2318
679.599302150058,2201
681.8830778007342,2279
684.1662297048437,2174
686.4487580813608,2254
688.7306631493387,2152
691.0119451279091,2123
693.2926042362834,2220
695.5726406937516,2216
697.8520547196814,2216
700.1308465335215,2273
702.4090163547982,2172
704.6865644031171,2184
706.9634908981619,2174
709.2397960596965,2144
711.5154801075631,2102
713.7905432616823,2118
716.0649857420548,2141
718.3388077687592,2166
720.612009561953,2156
722.8845913418733,2170
725.1565533288352,2169
727.427895743234,2128
729.6986188055427,2137
731.9687227363137,2223
734.238207756178,2130
736.5070740858458,2157
738.7753219461066,2128
741.0429515578281,2158
743.3099631419569,2140
745.5763569195191,2107
747.8421331116193,2170
750.1072919394409,2215
752.3718336242467,2154
754.6357583873777,2077
756.8990664502545,2145
759.1617580343765,2142
761.423833361321,2084
763.6852926527457,2114
765.9461361303862,2117
768.206364016058,2182
770.4659765316536,2198
772.7249738991469,2096
774.9833563405886,2118
777.2411240781092,2189
779.4982773339183,2164
781.7548163303044,2195
784.010741289634,2150
786.2660524343538,2278
788.5207499869881,2179
790.7748341701416,2197
793.0283052064964,2209
795.2811633188143,2201
797.5334087299362,2257
799.7850416627813,2186
802.0360623403484,2172
804.2864709857143,2157
806.5362678220353,2185
808.7854530725468,2116
811.0340269605625,2170
813.2819897094754,2193
815.5293415427581,2099
817.77608268396,2217
820.0222133567116,2174
822.2677337847211,2230
824.5126441917765,2243
826.7569448017433,2205
829.0006358385675,2189
831.2437175262731,2178
833.4861900889629,2246
835.7280537508192,2174
837.9693087361026,2120
840.2099552691533,2190
842.4499935743896,2203
844.689423876309,2206
846.9282463994886,2205
849.1664613685833,2122
851.4040690083276,2143
853.6410695435349,2136
855.877463199097,2154
858.1132501999847,2124
860.3484307712487,2141
862.5830051380175,2141
864.8169735254988,2231
867.0503361589791,2191
869.2830932638243,2251
871.5152450654786,2302
873.7467917894654,2260
875.9777336613873,2213
878.2080709069252,2267
880.4378037518389,2245
882.666932421968,2256
884.8954571432301,2293
887.1233781416219,2340
889.3506956432192,2234
891.5774098741766,2214
893.803521060728,2302
896.0290294291852,2255
898.2539352059397,2311
900.4782386174619,2266
902.7019398903011,2269
904.925039251085,2248
907.147536926521,2227
909.3694331433943,2245
911.59072812857,2308
913.8114221089921,2298
916.0315153116827,2275
918.2510079637437,2247
920.4699002923547,2154
922.6881925247761,2285
924.905884888345,2279
927.1229776104793,2254
929.3394709186747,2229
931.555365040506,2198
933.7706602036275,2314
935.9853566357709,2302
938.1994545647489,2205
940.4129542184515,2298
942.6258558248488,2142
944.8381596119883,2183
947.0498658079974,2292
949.2609746410825,2297
951.4714863395287,2236
953.6814011316998,2203
955.8907192460387,2222
958.0994409110671,2257
960.3075663553858,2227
962.5150958076741,2243
964.7220294966913,2152
966.928367651274,2213
969.1341105003388,2131
971.3392582728806,2219
973.5438111979742,2170
975.747769504772,2160
977.9511334225061,2100
980.153903180487,2040
982.3560790081052,2110
984.5576611348289,2084
986.7586497902058,2120
988.9590452038618,2073
991.158847605503,2008
993.3580572249133,2086
995.5566742919558,1996
997.7546990365728,1939
999.952131688785,1911
1002.1489724786926,1954
1004.3452216364743,1926
1006.5408793923874,1913
1008.7359459767691,1923
1010.9304216200343,1871
1013.1243065526781,1879
1015.3176010052733,1848
1017.510305208472,1905
1019.7024193930064,1787
1021.8939437896848,1799
1024.0848786293977,1789
1026.2752241431122,1810
1028.4649805618747,1767
1030.6541481168115,1846
1032.842727039127,1801
1035.0307175601051,1819
1037.2181199111074,1756
1039.4049343235752,1785
1041.591161029029,1832
1043.7768002590683,1779
1045.9618522453698,1773
1048.1463172196918,1821
1050.3301954138697,1818
1052.513487059818,1804
1054.69619238953,1818
1056.8783116350783,1762
1059.0598450286152,1779
1061.2407928023704,1768
1063.4211551886528,1753
1065.6009324198508,1831
1067.780124728432,1811
1069.9587323469414,1816
1072.1367555080046,1797
1074.314194444325,1749
1076.4910493886855,1806
1078.667320573947,1774
1080.843008233051,1776
1083.0181125990161,1742
1085.1926339049414,1739
1087.3665723840027,1783
1089.5399282694575,1744
1091.7127017946405,1760
1093.8848931929647,1711
1096.0565026979243,1689
1098.2275305430899,1703
1100.3979769621128,1718
1102.567842188722,1663
1104.737126456726,1708
1106.9058300000124,1758
1109.0739530525475,1670
1111.2414958483764,1760
1113.4084586216231,1658
1115.5748416064907,1663
1117.7406450372605,1678
1119.9058691482942,1641
1122.0705141740304,1699
1124.2345803489884,1697
1126.3980679077658,1677
1128.5609770850388,1631
1130.7233081155623,1700
1132.8850612341707,1625
1135.0462366757774,1672
1137.2068346753745,1613
1139.3668554680326,1632
1141.526299288901,1631
1143.68516637321,1653
1145.8434569562655,1593
1148.001171273455,1667
1150.158309560244,1605
1152.3148720521767,1598
1154.470858984876,1668
1156.626270594044,1592
1158.7811071154629,1650
1160.9353687849912,1609
1163.089055838569,1611
1165.242168512213,1628
1167.3947070420209,1594
1169.5466716641677,1698
1171.6980626149075,1637
1173.8488801305748,1612
1175.9991244475814,1646
1178.1487958024186,1616
1180.2978944316555,1602
1182.4464205719428,1599
1184.5943744600072,1636
1186.7417563326567,1604
1188.8885664267755,1580
1191.0348049793297,1595
1193.1804722273619,1625
1195.325568407995,1591
1197.4700937584303,1602
1199.614048515948,1684
1201.7574329179074,1634
1203.900247201746,1595
1206.042491604982,1625
1208.1841663652099,1621
1210.3252717201053,1685
1212.465807907422,1631
1214.6057751649923,1600
1216.7451737307279,1596
1218.8840038426192,1688
1221.0222657387353,1617
1223.1599596572241,1608
1225.2970858363137,1639
1227.4336445143094,1651
1229.5696359295966,1630
1231.705060320639,1634
1233.8399179259786,1684
1235.9742089842384,1602
1238.107933734118,1596
1240.2410924143974,1611
1242.373685263935,1630
1244.5057125216676,1655
1246.6371744266116,1605
1248.7680712178621,1616
1250.898403134593,1611
1253.028170416058,1682
1255.1573733015875,1714
1257.2860120305932,1693
1259.4140868425648,1668
1261.54159797707,1669
1263.6685456737569,1645
1265.7949301723515,1691
1267.9207517126597,1675
1270.046010534565,1671
1272.1707068780306,1711
1274.2948409830983,1637
1276.4184130898889,1715
1278.541423438603,1752
1280.6638722695184,1700
1282.785759822993,1775
1284.9070863394636,1703
1287.0278520594447,1667
1289.1480572235314,1705
1291.2677020723963,1764
1293.3867868467923,1754
1295.5053117875495,1803
1297.623277135579,1751
1299.740683131868,1769
1301.8575300174857,1845
1303.973818033578,1829
1306.0895474213703,1748
1308.2047184221678,1805
1310.3193312773528,1758
1312.4333862283888,1751
1314.5468835168163,1792
1316.659823384255,1830
1318.7722060724045,1830
1320.8840318230418,1778
1322.9953008780249,1797
1325.1060134792888,1809
1327.2161698688478,1781
1329.3257702887959,1857
1331.4348149813054,1768
1333.5433041886276,1846
1335.6512381530933,1727
1337.7586171171101,1786
1339.8654413231675,1771
1341.9717110138317,1736
1344.0774264317488,1733
1346.1825878196432,1738
1348.2871954203192,1787
1350.3912494766587,1829
1352.4947502316231,1810
1354.5976979282532,1796
1356.7000928096686,1737
1358.8019351190665,1770
1360.9032250997243,1781
1363.0039629949988,1775
1365.1041490483235,1717
1367.2037835032133,1759
1369.3028666032606,1783
1371.401398592137,1810
1373.4993797135926,1789
1375.5968102114575,1766
1377.6936903296396,1827
1379.7900203121262,1787
1381.8858004029835,1754
1383.9810308463561,1792
1386.075711886469,1826
1388.1698437676241,1869
1390.2634267342032,1883
1392.356461030667,1870
1394.4489469015557,1819
1396.5408845914872,1848
1398.6322743451592,1894
1400.7231164073469,1891
1402.813411022907,1880
1404.903158436773,1844
1406.9923588939578,1877
1409.0810126395531,1856
1411.1691199187303,1906
1413.2566809767386,1834
1415.343696058907,1973
1417.4301654106425,1903
1419.5160892774315,1895
1421.6014679048399,1931
1423.6863015385125,1936
1425.7705904241707,1973
1427.8543348076178,1930
1429.9375349347342,2036
1432.0201910514802,2024
1434.102303403894,2088
1436.1838722380944,2031
1438.2648978002767,2129
1440.3453803367174,2102
1442.4253200937692,2151
1444.5047173178677,2111
1446.5835722555234,2096
1448.6618851533285,2197
1450.739656257952,2279
1452.8168858161434,2217
1454.8935740747306,2289
1456.96972128062,2350
1459.045327680797,2404
1461.120393522327,2392
1463.1949190523528,2435
1465.2689045180973,2452
1467.3423501668608,2555
1469.415256246024,2655
1471.4876230030463,2741
1473.559450685465,2662
1475.6307395408976,2684
1477.7014898170391,2855
1479.771701761665,2840
1481.8413756226287,2926
1483.9105116478618,2882
1485.9791100853772,2970
1488.0471711832643,3047
1490.1146951896926,3019
1492.1816823529098,3147
1494.2481329212433,3136
1496.3140471430984,3159
1498.3794252669609,3188
1500.4442675413939,3253
1502.5085742150404,3337
1504.572345536622,3350
1506.6355817549388,3290
1508.6982831188702,3324
1510.7604498773744,3503
1512.8220822794883,3513
1514.8831805743293,3596
1516.9437450110909,3598
1519.003775839048,3662
1521.0632733075522,3704
1523.1222376660367,3754
1525.1806691640113,3860
1527.2385680510652,3920
1529.2959345768668,4047
1531.3527689911643,4238
1533.4090715437833,4186
1535.4648424846291,4215
1537.5200820636855,4385
1539.5747905310159,4415
1541.6289681367616,4534
1543.6826151311434,4450
1545.7357317644614,4693
1547.7883182870937,4637
1549.8403749494987,4676
1551.8919020022113,4833
1553.9428996958477,5010
1555.9933682811015,4996
1558.0433080087469,5176
1560.0927191296346,5259
1562.1416018946961,5273
1564.1899565549415,5289
1566.2377833614592,5183
1568.2850825654164,5235
1570.3318544180606,5060
1572.3780991707158,4821
1574.423817074788,4593
1576.4690083817595,4472
1578.5136733431923,4219
1580.5578122107272,4028
1582.601425236085,3742
1584.6445126710646,3539
1586.6870747675434,3430
1588.7291117774776,3249
1590.7706239529034,3053
1592.8116115459347,2911
1594.8520748087658,2839
1596.8920139936686,2777
1598.9314293529933,2569
1600.9703211391711,2566
1603.008689604711,2358
1605.0465350022005,2314
1607.0838575843068,2302
1609.1206576037753,2219
1611.1569353134305,2187
1613.1926909661765,2200
1615.2279248149953,2083
1617.2626371129481,2091
1619.2968281131757,2011
1621.3304980688963,2011
1623.3636472334088,1950
1625.39627586009,2066
1627.428384202396,1962
1629.459972513861,1936
1631.4910410480993,1881
1633.5215900588028,1863
1635.551619799744,1876
1637.5811305247717,1822
1639.6101224878166,1822
1641.6385959428862,1789
1643.6665511440683,1817
1645.693988345528,1777
1647.7209078015112,1822
1649.7473097663405,1767
1651.7731944944203,1752
1653.7985622402307,1748
1655.823413258333,1780
1657.847747803366,1774
1659.8715661300494,1732
1661.8948684931793,1771
1663.9176551476316,1730
1665.9399263483624,1698
1667.9616823504057,1728
1669.982923408873,1717
1672.0036497789574,1664
1674.0238617159293,1677
1676.043559475138,1694
1678.0627433120121,1734
1680.081413482059,1736
1682.0995702408654,1720
1684.117213844096,1620
1686.134344547495,1669
1688.1509626068864,1640
1690.1670682781705,1732
1692.182661817329,1667
1694.1977434804217,1728
1696.2123135235875,1700
1698.226372203043,1631
1700.2399197750851,1659
1702.2529564960905,1699
1704.2654826225112,1666
1706.277498410882,1649
1708.2890041178139,1659
1710.2999999999988,1673
1712.3104863142066,1663
1714.3204633172854,1685
1716.329931266163,1652
1718.3388904178469,1627
1720.3473410294214,1694
1722.3552833580516,1610
1724.3627176609807,1658
1726.3696441955308,1645
1728.3760632191033,1671
1730.3819749891782,1647
1732.3873797633146,1622
1734.3922777991502,1601
1736.3966693544012,1587
1738.4005546868639,1553
1740.4039340544127,1598
1742.406807715001,1595
1744.4091759266616,1549
1746.4110389475054,1554
1748.4123970357223,1598
1750.413250449582,1625
1752.4135994474318,1606
1754.4134442876993,1583
1756.4127852288902,1509
1758.4116225295893,1579
1760.4099564484595,1574
1762.407787244244,1565
1764.405115175764,1506
1766.4019405019203,1563
1768.3982634816916,1584
1770.3940843741357,1532
1772.3894034383907,1545
1774.3842209336717,1549
1776.378537119274,1492
1778.372352254571,1470
1780.3656665990156,1509
1782.3584804121397,1490
1784.3507939535534,1500
1786.3426074829463,1508
1788.3339212600863,1465
1790.3247355448211,1429
1792.3150505970766,1422
1794.3048666768573,1484
1796.2941840442477,1518
1798.2830029594106,1467
1800.2713236825884,1485
1802.2591464741004,1499
1804.2464715943465,1551
1806.2332993038058,1499
1808.2196298630352,1408
1810.2054635326708,1488
1812.190800573428,1503
1814.175641246101,1426
1816.1599858115628,1487
1818.1438345307652,1446
1820.127187664738,1438
1822.1100454745924,1453
1824.092408221516,1506
1826.0742761667766,1454
1828.055649571721,1519
1830.0365286977735,1480
1832.0169138064398,1476
1833.9968051593014,1468
1835.9762030180214,1484
1837.9551076443408,1386
1839.9335193000788,1502
1841.9114382471344,1474
1843.888864747485,1448
1845.8657990631878,1482
1847.842241456378,1457
1849.8181921892697,1433
1851.7936515241558,1464
1853.7686197234098,1427
1855.7430970494815,1430
1857.7170837649014,1463
1859.6905801322787,1431
1861.6635864143004,1464
1863.6361028737338,1461
1865.608129773424,1477
1867.5796673762961,1448
1869.5507159453537,1435
1871.521275743678,1507
1873.4913470344313,1492
1875.4609300808534,1497
1877.4300251462632,1460
1879.3986324940588,1484
1881.366752387717,1517
1883.3343850907936,1501
1885.3015308669228,1506
1887.268189979819,1498
1889.2343626932739,1504
1891.2000492711595,1435
1893.1652499774254,1468
1895.1299650761011,1463
1897.0941948312952,1453
1899.0579395071945,1485
1901.0211993680641,1477
1902.98397467825,1481
1904.9462657021745,1436
1906.9080727043415,1508
1908.869395949332,1455
1910.8302357018065,1488
1912.790592226504,1535
1914.7504657882428,1532
1916.7098566519212,1457
1918.6687650825133,1506
1920.6271913450764,1457
1922.5851357047422,1438
1924.5425984267245,1411
1926.499579776314,1429
1928.4560800188833,1468
1930.4120994198802,1590
1932.367638244833,1454
1934.32269675935,1474
1936.2772752291175,1486
1938.231373919899,1467
1940.1849930975404,1473
1942.1381330279637,1475
1944.0907939771696,1481
1946.0429762112412,1440
1947.9946799963363,1457
1949.9459055986945,1513
1951.896653284633,1521
1953.8469233205478,1465
1955.7967159729142,1438
1957.7460315082863,1448
1959.6948701932974,1484
1961.6432322946594,1455
1963.5911180791632,1479
1965.5385278136787,1474
1967.4854617651545,1451
1969.4319202006182,1469
1971.377903387176,1509
1973.3234115920136,1443
1975.268445082395,1410
1977.2130041256642,1512
1979.1570889892423,1414
1981.1006999406304,1545
1983.04383724741,1434
1984.986501177238,1462
1986.928691997853,1427
1988.8704099770712,1408
1990.811655382789,1435
1992.7524284829801,1436
1994.692729545698,1416
1996.6325588390755,1397
1998.5719166313224,1460
2000.5108031907307,1378
2002.4492187856677,1419
2004.387163684583,1454
2006.3246381560011,1413
2008.2616424685298,1417
2010.1981768908527,1467
2012.1342416917332,1450
2014.069837140014,1434
2016.0049635046162,1460
2017.9396210545406,1468
2019.8738100588666,1416
2021.8075307867502,1436
2023.740783507431,1488
2025.6735684902228,1436
2027.6058860045214,1377
2029.5377363198004,1427
2031.4691197056118,1434
2033.4000364315875,1479
2035.3304867674374,1425
2037.260470982952,1426
2039.189989347998,1354
2041.1190421325232,1424
2043.047629606554,1386
2044.9757520401945,1385
2046.9034097036288,1391
2048.8306028671195,1407
2050.7573318010086,1415
2052.683596775716,1402
2054.609398061742,1364
2056.5347359296647,1423
2058.4596106501403,1397
2060.384022493906,1439
2062.3079717317764,1424
2064.231458634646,1408
2066.1544834734873,1464
2068.077046519352,1381
2069.99914804337,1378
2071.9207883167524,1405
2073.8419676107865,1506
2075.7626861968406,1419
2077.6829443463607,1381
2079.6027423308715,1389
2081.522080421977,1465
2083.440958891362,1418
2085.359378010786,1369
2087.2773380520907,1385
2089.194839287196,1406
2091.111881988101,1376
2093.0284664268825,1380
2094.9445928756973,1396
2096.86026160678,1425
2098.775472892446,1417
2100.690227005088,1339
2102.604524217178,1418
2104.5183648012676,1376
2106.431749029985,1422
2108.34467717604,1412
2110.2571495122206,1480
2112.169166311393,1382
2114.080727846503,1413
2115.9918343905747,1380
2117.902486216711,1422
2119.8126835980956,1396
2121.722426807987,1373
2123.6317161197285,1425
2125.5405518067364,1423
2127.448934142509,1412
2129.356863400624,1377
2131.264339854737,1457
2133.1713637785815,1410
2135.077935445972,1407
2136.9840551308002,1365
2138.889723107037,1384
2140.7949396487334,1425
2142.699705030018,1411
2144.6040195250994,1404
2146.507883408264,1374
2148.4112969538774,1408
2150.3142604363848,1395
2152.2167741303097,1343
2154.1188383102535,1415
2156.0204532508997,1410
2157.9216192270064,1434
2159.822336513414,1400
2161.7226053850413,1442
2163.622426116884,1415
2165.5217989840185,1416
2167.4207242616,1442
2169.319202224862,1430
2171.2172331491165,1369
2173.1148173097563,1401
2175.0119549822507,1438
2176.90864644215,1405
2178.8048919650823,1445
2180.7006918267534,1425
2182.596046302952,1474
2184.4909556695407,1405
2186.3854202024645,1455
2188.279440177746,1416
2190.173015871487,1418
2192.066147559868,1417
2193.958835519149,1378
2195.851080025667,1448
2197.7428813558417,1405
2199.6342397861667,1439
2201.5251555932186,1398
2203.415629053651,1441
2205.3056604441986,1385
2207.19525004167,1386
2209.084398122958,1418
2210.9731049650327,1451
2212.861370844941,1408
2214.749196039812,1361
2216.636580826851,1446
2218.523525483344,1413
2220.410030286655,1410
2222.296095514226,1467
2224.1817214435805,1402
2226.066908352319,1427
2227.951656518121,1445
2229.835966218746,1396
2231.71983773203,1406
2233.6032713358913,1373
2235.486267308324,1410
2237.3688259274036,1457
2239.2509474712824,1407
2241.132632218193,1446
2243.013880446447,1406
2244.8946924344323,1484
2246.7750684606203,1447
2248.6550088035574,1387
2250.534513741871,1453
2252.413583554265,1501
2254.292218519526,1465
2256.170418916517,1410
2258.0481850241786,1462
2259.925517121534,1417
2261.8024154876825,1383
2263.678880401803,1345
2265.5549121431536,1424
2267.430510991071,1445
2269.305677224971,1398
2271.180411124348,1400
2273.0547129687766,1441
2274.9285830379076,1407
2276.8020216114737,1404
2278.6750289692845,1394
2280.5476053912294,1387
2282.4197511572766,1445
2284.2914665474727,1436
2286.162751841943,1410
2288.0336073208937,1375
2289.904033264608,1392
2291.774029953448,1440
2293.6435976678554,1463
2295.5127366883517,1422
2297.381447295534,1342
2299.2497297700825,1442
2301.1175843927526,1407
2302.9850114443825,1438
2304.852011205885,1424
2306.7185839582553,1372
2308.5847299825664,1481
2310.4504495599676,1468
2312.3157429716925,1421
2314.1806104990483,1413
2316.0450524234247,1350
2317.9090690262888,1431
2319.772660589186,1469
2321.635827393742,1447
2323.498569721661,1433
2325.3608878547248,1381
2327.2227820747967,1487
2329.0842526638157,1486
2330.945299903803,1489
2332.805924076857,1467
2334.6661254651535,1465
2336.525904350951,1496
2338.3852610165827,1464
2340.244195744464,1384
2342.102708817088,1469
2343.9608005170253,1435
2345.8184711269287,1458
2347.675720929526,1490
2349.532550207628,1470
2351.38895924412,1471
2353.24494832197,1409
2355.100517724223,1406
2356.955667734004,1446
2358.810398634514,1438
2360.664710709037,1477
2362.5186042409337,1457
2364.3720795136437,1471
2366.225136810686,1500
2368.0777764156583,1518
2369.929998612237,1518
2371.7818036841777,1456
2373.633191915315,1482
2375.484163589562,1562
2377.3347189909114,1483
2379.184858403434,1506
2381.03458211128,1460
2382.8838903986775,1459
2384.732783549936,1463
2386.5812618494406,1460
2388.4293255816588,1458
2390.2769750311327,1490
2392.1242104824883,1421
2393.971032220427,1489
2395.8174405297295,1471
2397.6634356952563,1484
2399.509018001947,1477
2401.3541877348193,1476
2403.1989451789705,1488
2405.043290619576,1484
2406.8872243418905,1488
2408.730746631247,1507
2410.5738577730594,1482
2412.4165580528183,1524
2414.258847756095,1475
2416.100727168537,1551
2417.9421965758734,1477
2419.783256263912,1549
2421.623906518538,1536
2423.4641476257157,1457
2425.303979871491,1484
2427.143403541984,1477
2428.9824189233977,1520
2430.821026302012,1571
2432.6592259641866,1579
2434.497018196361,1576
2436.33440328505,1589
2438.171381516851,1476
2440.00795317844,1523
2441.844118556569,1567
2443.6798779380724,1454
2445.5152316098606,1535
2447.3501798589255,1544
2449.1847229723357,1427
2451.0188612372403,1518
2452.8525949408663,1546
2454.6859243705203,1528
2456.518849813587,1474
2458.3513715575314,1542
2460.183489889895,1485
2462.015205098301,1544
2463.8465174704493,1446
2465.67742729412,1503
2467.5079348571717,1471
2469.338040447542,1572
2471.1677443532476,1472
2472.9970468623833,1478
2474.825948263123,1513
2476.6544488437207,1501
2478.482548892508,1523
2480.310248697896,1566
2482.137548548374,1538
2483.9644487325118,1522
2485.790949538956,1544
2487.617051256433,1546
2489.44275417375,1513
2491.26805857979,1539
2493.0929647635157,1582
2494.917473013971,1538
2496.741583620276,1552
2498.5652968716304,1498
2500.3886130573137,1527
2502.2115324666834,1529
2504.0340553891765,1502
2505.856182114308,1536
2507.6779129316733,1548
2509.499248130945,1567
2511.3201880018764,1528
2513.140732834298,1576
2514.9608829181198,1565
2516.780638543331,1559
2518.6,1535
2520.418967578273,1568
2522.237541568376,1587
2524.0557222606144,1574
2525.8735099453706,1602
2527.6909049131086,1645
2529.507907454368,1552
2531.32451785977,1570
2533.140736420014,1556
2534.9565634258774,1604
2536.771999168218,1604
2538.5870439379714,1620
2540.4016980261526,1675
2542.2159617238544,1698
2544.02983532225,1669
2545.8433191125914,1674
2547.656413386209,1648
2549.4691184345115,1617
2551.2814345489874,1714
2553.093362021204,1671
2554.904901142808,1707
2556.716052205523,1711
2558.526815501153,1641
2560.3371913215824,1693
2562.147179958771,1695
2563.956781704761,1715
2565.7659968516705,1739
2567.5748256916986,1746
2569.3832685171224,1759
2571.1913256202984,1733
2572.9989972936614,1740
2574.806283829725,1751
2576.613185521084,1801
2578.4197026604074,1888
2580.2258355404483,1793
2582.031584454035,1848
2583.836949694077,1806
2585.6419315535613,1875
2587.4465303255533,1876
2589.2507463032002,1918
2591.0545797797245,1880
2592.8580310484303,1885
2594.6611004026995,1934
2596.463788135992,1889
2598.266094541849,1823
2600.0680199138874,1832
2601.869564545807,1871
2603.670728731383,1898
2605.4715127644704,1940
2607.2719169390048,1921
2609.071941548998,1919
2610.8715868885433,1897
2612.670853251811,1906
2614.469740933052,1935
2616.268250226594,1962
2618.0663814268455,1939
2619.864134828292,1923
2621.6615107255006,1952
2623.458509413115,1924
2625.2551311858597,1943
2627.0513763385347,1883
2628.8472451660223,1832
2630.6427379632833,1873
2632.4378550253564,1885
2634.232596647359,1871
2636.026963124488,1874
2637.8209547520187,1831
2639.6145718253065,1855
2641.407814639785,1879
2643.200683490966,1763
2644.9931786744414,1867
2646.7853004858807,1818
2648.577049221034,1781
2650.3684251757277,1723
2652.1594286458712,1718
2653.9500599274484,1690
2655.740319316525,1707
2657.5302071092437,1711
2659.3197236018286,1612
2661.10886909058,1621
2662.8976438718782,1701
2664.686048242183,1638
2666.4740824980327,1673
2668.2617469360443,1610
2670.0490418529134,1620
2671.8359675454153,1588
2673.622524310403,1554
2675.408712444811,1599
2677.1945322456495,1582
2678.979984010009,1587
2680.76506803506,1572
2682.5497846180497,1565
2684.334134056306,1590
2686.1181166472343,1588
2687.9017326883213,1577
2689.6849824771293,1488
2691.4678663113013,1499
2693.2503844885596,1501
2695.032537306705,1516
2696.8143250636167,1492
2698.5957480572542,1521
2700.3768065856534,1498
2702.1575009469316,1533
2703.937831439283,1432
2705.717798360982,1440
2707.4974020103837,1493
2709.276642685917,1484
2711.055520686095,1466
2712.834036309506,1473
2714.612189854819,1395
2716.389981620782,1482
2718.1674119062204,1533
2719.944481010041,1469
2721.721189231226,1446
2723.4975368688415,1500
2725.273524222027,1468
2727.0491515900053,1469
2728.824419272075,1451
2730.5993275676146,1440
2732.3738767760838,1412
2734.148067197016,1413
2735.921899130031,1426
2737.6953728748194,1487
2739.468488731156,1400
2741.2412469988926,1418
2743.0136479779617,1427
2744.785691968372,1369
2746.5573792702116,1409
2748.3287101836504,1422
2750.099685008934,1421
2751.870304046388,1405
2753.640567596418,1477
2755.4104759595057,1407
2757.1800294362156,1408
2758.949228327187,1356
2760.7180729331412,1383
2762.486563554877,1422
2764.254700493272,1412
2766.022484049284,1410
2767.789914523947,1381
2769.5569922183786,1335
2771.3237174337705,1395
2773.090090471394,1367
2774.8561116326036,1398
2776.6217812188274,1445
2778.3870995315756,1398
2780.1520668724356,1387
2781.9166835430747,1379
2783.6809498452394,1430
2785.444866080754,1374
2787.2084325515225,1408
2788.971649559527,1341
2790.73451740683,1385
2792.4970363955713,1384
2794.2592068279705,1408
2796.0210290063264,1449
2797.7825032330147,1378
2799.543629810493,1361
2801.304409041296,1419
2803.0648412280366,1425
2804.8249266734088,1406
2806.5846656801846,1354
2808.344058551212,1365
2810.1031055894246,1365
2811.8618070978273,1398
2813.6201633795085,1356
2815.378174737636,1391
2817.1358414754536,1387
2818.893163896285,1384
2820.6501423035334,1399
2822.4067770006814,1370
2824.1630682912883,1356
2825.9190164789957,1336
2827.6746218675207,1350
2829.429884760661,1346
2831.184805462294,1386
2832.9393842763743,1386
2834.693621506936,1383
2836.4475174580916,1351
2838.201072434034,1371
2839.954286739034,1393
2841.707160677441,1354
2843.459694553685,1411
2845.2118886722724,1423
2846.96374333779,1428
2848.7152588549034,1437
2850.4664355283567,1391
2852.217273662973,1426
2853.9677735636546,1360
2855.7179355353833,1362
2857.4677598832186,1354
2859.217246912299,1344
2860.9663969278427,1394
2862.715210235146,1353
2864.4636871395846,1398
2866.211827946614,1414
2867.9596329617652,1403
2869.7071024906536,1366
2871.4542368389684,1352
2873.20103631248,1350
2874.947501217038,1392
2876.6936318585695,1380
2878.4394285430812,1431
2880.1848915766604,1386
2881.9300212654707,1393
2883.6748179157553,1316
2885.4192818338374,1346
2887.1634133261173,1335
2888.907212699077,1334
2890.6506802592744,1340
2892.393816313348,1421
2894.1366211680142,1394
2895.8790951300693,1387
2897.621238506388,1330
2899.363051603925,1328
2901.1045347297118,1399
2902.8456881908596,1381
2904.58651229456,1343
2906.327007348081,1383
2908.067173658772,1338
2909.8070115340597,1384
2911.5465212814497,1361
2913.285703208527,1358
2915.0245576229563,1340
2916.7630848324807,1415
2918.5012851449196,1343
2920.2391588681758,1330
2921.976706310227,1366
2923.7139277791334,1324
2925.4508235830313,1372
2927.187394030137,1325
2928.923639428745,1408
2930.6595600872306,1373
2932.395156314046,1354
2934.1304284177218,1349
2935.8653767068713,1437
2937.6000014901815,1382
2939.3343030764227,1367
2941.068281774442,1364
2942.8019378931644,1379
2944.5352717415976,1387
2946.2682836288236,1378
2948.0009738640065,1373
2949.7333427563885,1437
2951.465390615289,1430
2953.1971177501086,1414
2954.9285244703265,1329
2956.6596110855,1358
2958.3903779052657,1312
2960.1208252393385,1372
2961.8509533975125,1359
2963.5807626896617,1333
2965.3102534257378,1356
2967.0394259157715,1384
2968.768280469873,1365
2970.496817398232,1328
2972.2250370111146,1381
2973.952939618869,1374
2975.6805255319196,1376
2977.4077950607707,1386
2979.134748516006,1355
2980.861386208289,1325
2982.587708448359,1380
2984.313715547037,1357
2986.039407815222,1383
2987.764785563891,1362
2989.489849104102,1326
2991.2145987469908,1354
2992.9390348037705,1318
2994.6631575857346,1345
2996.3869674042576,1341
2998.1104645707887,1295
2999.83364939686,1345
3001.5565221940783,1402
3003.2790832741334,1373
3005.0013329487924,1355
3006.7232715298996,1317
3008.4448993293804,1379
3010.166216659239,1280
3011.887223831558,1309
3013.607921158498,1331
3015.3283089522993,1359
3017.0483875252826,1362
3018.7681571898443,1338
3020.4876182584626,1359
3022.2067710436927,1355
3023.9256158581707,1387
3025.644153014609,1354
3027.362382825801,1373
3029.0803056046193,1389
3030.797921664012,1417
3032.5152313170106,1381
3034.2322348767225,1327
3035.9489326563353,1302
3037.665324969115,1329
3039.3814121284063,1368
3041.097194447633,1358
3042.812672240299,1357
3044.5278458199855,1369
3046.2427155003525,1370
3047.9572815951406,1416
3049.671544418167,1415
3051.38550428333,1402
3053.0991615046073,1357
3054.812516396051,1414
3056.5255692717974,1401
3058.2383204460575,1376
3059.9507702331257,1328
3061.662918947372,1353
3063.3747669032446,1361
3065.0863144152736,1390
3066.7975617980674,1398
3068.508509366309,1320
3070.219157434767,1361
3071.9295063182844,1355
3073.639556331785,1383
3075.3493077902704,1359
3077.058761008821,1333
3078.7679163025964,1384
3080.476773986837,1389
3082.1853343768594,1401
3083.89359778806,1344
3085.6015645359153,1409
3087.3092349359786,1311
3089.016609303884,1344
3090.7236879553434,1326
3092.4304712061476,1366
3094.136959372166,1326
3095.843152769349,1282
3097.5490517137237,1346
3099.2546565213966,1431
3100.959967508554,1401
3102.66498499146,1427
3104.3697092864577,1385
3106.0741407099695,1393
3107.778279578498,1398
3109.482126208622,1434
3111.1856809170004,1425
3112.8889440203716,1334
3114.5919158355528,1349
3116.294596679439,1392
3117.996986869006,1354
3119.6990867213062,1366
3121.4008965534726,1446
3123.102416682717,1400
3124.803647426329,1445
3126.5045891016784,1387
3128.205242026213,1402
3129.90560651746,1400
3131.605682893025,1400
3133.3054714705922,1350
3135.0049725679282,1352
3136.7041865028714,1343
3138.4031135933465,1423
3140.101754157353,1363
3141.800108512971,1391
3143.498176978357,1359
3145.1959598717494,1382
3146.8934575114636,1285
3148.5906702158954,1339
3150.2875983035183,1424
3151.9842420928853,1399
3153.680601902627,1417
3155.376678051456,1394
3157.07247085816,1326
3158.767980641609,1366
3160.463207720748,1334
3162.158152414606,1374
3163.8528150422862,1373
3165.5471959229726,1349
3167.2412953759303,1335
3168.9351137204976,1331
3170.628651276098,1362
3172.3219083622307,1368
3174.014885298474,1330
3175.707582404485,1357
3177.4000000000005,1348
3179.092138404835,1355
3180.7839979388846,1396
3182.47557892212,1386
3184.166881674594,1347
3185.8579065164386,1389
3187.5486537678626,1319
3189.2391237491547,1371
3190.9293167806827,1384
3192.6192331828934,1363
3194.3088732763117,1342
3195.998237381542,1280
3197.687325819268,1313
3199.376138910251,1322
3201.064676975334,1344
3202.7529403354347,1291
3204.4409293115523,1376
3206.1286442247647,1342
3207.816085396229,1248
3209.5032531471825,1304
3211.190147798936,1307
3212.8767696728846,1270
3214.5631190905015,1333
3216.2491963733373,1383
3217.9350018430214,1353
3219.6205358212637,1307
3221.305798629851,1286
3222.990790590651,1379
3224.6755120256103,1372
3226.359963256751,1283
3228.0441446061795,1300
3229.7280563960758,1284
3231.411698948703,1358
3233.0950725863995,1332
3234.778177631587,1311
3236.461014406761,1353
3238.1435832345005,1343
3239.8258844374595,1287
3241.507918338374,1318
3243.1896852600576,1337
3244.8711855254023,1340
3246.552419457381,1293
3248.233387379042,1307
3249.914089613516,1332
3251.59452648401,1357
3253.274698313813,1246
3254.95460542629,1338
3256.6342481448855,1281
3258.313626793125,1306
3259.9927416946084,1293
3261.6715931730196,1272
3263.3501815521176,1270
3265.0285071557437,1292
3266.706570307815,1358
3268.3843713323286,1317
3270.0619105533615,1271
3271.739188295068,1316
3273.4162048816834,1259
3275.0929606375184,1331
3276.769455886966,1293
3278.445690954498,1304
3280.1216661646613,1336
3281.797381842087,1311
3283.4728383114807,1351
3285.1480358976296,1338
3286.8229749253996,1313
3288.4976557197333,1354
3290.172078605655,1275
3291.846243908266,1308
3293.5201519527463,1307
3295.193803064357,1299
3296.8671975684374,1323
3298.5403357904024,1310
3300.21321805575,1303
3301.8858446900567,1323
3303.558216018975,1318
3305.23033236824,1300
3306.9021940636603,1349
3308.57380143113,1290
3310.2451547966184,1321
3311.916254486174,1300
3313.5871008259246,1289
3315.2576941420766,1289
3316.9280347609147,1345
3318.5981230088046,1237
3320.2679592121895,1324
3321.9375436975924,1278
3323.606876791612,1316
3325.27595882093,1335
3326.944790112305,1248
3328.6133709925753,1230
3330.2817017886573,1359
3331.949782827547,1284
3333.617614436319,1283
3335.2851969421245,1350
3336.952530672199,1320
3338.619615953853,1312
3340.286453114475,1281
3341.9530424815357,1316
3343.619384382583,1316
3345.2854791452437,1309
3346.951327097224,1316
3348.6169285663073,1342
3350.2822838803577,1390
3351.947393367319,1312
3353.61225735521,1322
3355.2768761721345,1359
3356.9412501462693,1336
3358.605379605873,1283
3360.2692648792827,1344
3361.9329062949146,1299
3363.596304181263,1307
