CollectionTime,7/9/2024 4:06:24 PM
ExposureUsed,3
CalibratedSpectrum
-962.7078968117929,470
-959.9714848408522,472
-957.2358232597828,443
-954.5009119013725,473
-951.7667505983302,484
-949.0333391832855,485
-946.3006774887896,476
-943.5687653473143,485
-940.837602591253,492
-938.1071890529199,488
-935.3775245645503,461
-932.6486089583007,483
-929.9204420662485,493
-927.1930237203925,482
-924.4663537526524,454
-921.7404319948689,469
-919.0152582788041,471
-916.2908324361409,511
-913.5671542984834,493
-910.8442236973568,476
-908.1220404642074,477
-905.4006044304027,469
-902.679915427231,504
-899.959973285902,493
-897.2407778375464,464
-894.5223289132158,476
-891.8046263438832,469
-889.0876699604426,484
-886.3714595937089,478
-883.6559950744183,491
-880.9412762332282,484
-878.2273029007168,482
-875.5140749073835,483
-872.8015920836489,463
-870.0898542598545,495
-867.3788612662631,475
-864.6686129330585,498
-861.9591090903457,504
-859.2503495681506,480
-856.5423341964203,507
-853.8350628050229,462
-851.1285352237478,464
-848.4227512823054,490
-845.7177108103272,484
-843.0134136373656,492
-840.3098595928943,462
-837.6070485063082,510
-834.9049802069229,487
-832.2036545239757,499
-829.5030712866244,487
-826.8032303239481,484
-824.1041314649472,499
-821.4057745385428,494
-818.7081593735775,492
-816.0112857988148,515
-813.3151536429393,495
-810.6197627345566,494
-807.9251129021936,489
-805.2312039742981,516
-802.5380357792392,508
-799.8456081453069,500
-797.1539209007124,513
-794.462973873588,496
-791.772766891987,508
-789.083299783884,496
-786.3945723771743,509
-783.7065844996748,514
-781.0193359791231,492
-778.3328266431781,519
-775.6470563194197,527
-772.9620248353489,497
-770.2777320183878,505
-767.5941776958798,513
-764.9113616950891,525
-762.2292838432011,499
-759.5479439673222,505
-756.8673418944801,510
-754.1874774516235,520
-751.5083504656222,519
-748.8299607632671,542
-746.15230817127,514
-743.475392516264,523
-740.7992136248035,499
-738.1237713233636,528
-735.4490654383407,524
-732.7750957960521,527
-730.1018622227365,521
-727.4293645445534,565
-724.7576025875837,520
-722.0865761778291,531
-719.4162851412126,512
-716.7467293035781,543
-714.0779084906909,518
-711.409822528237,529
-708.7424712418238,517
-706.0758544569796,520
-703.4099719991541,539
-700.7448236937178,534
-698.0804093659622,543
-695.4167288411002,540
-692.7537819442656,549
-690.0915685005134,521
-687.4300883348199,542
-684.7693412720819,539
-682.1093271371178,514
-679.4500457546669,537
-676.7914969493897,554
-674.1336805458676,545
-671.4765963686034,532
-668.8202442420206,543
-666.1646239904642,569
-663.5097354382001,546
-660.8555784094151,541
-658.2021527282176,545
-655.5494582186366,550
-652.8974947046223,530
-650.2462620100463,567
-647.5957599587009,560
-644.9459883742998,537
-642.2969470804776,558
-639.6486359007902,559
-637.0010546587141,591
-634.3542031776476,544
-631.7080812809096,553
-629.0626887917401,571
-626.4180255333008,581
-623.7740913286734,557
-621.1308860008619,557
-618.4884093727904,565
-615.8466612673046,560
-613.2056415071715,574
-610.5653499150785,574
-607.9257863136347,591
-605.28695052537,555
-602.6488423727357,564
-600.0114616781036,544
-597.3748082637674,593
-594.7388819519412,556
-592.1036825647604,588
-589.4692099242818,606
-586.8354638524829,626
-584.2024441712624,623
-581.5701507024403,594
-578.9385832677575,604
-576.3077416888759,594
-573.6776257873787,617
-571.0482353847704,600
-568.4195703024757,588
-565.7916303618415,582
-563.164415384135,598
-560.5379251905453,602
-557.9121596021815,601
-555.2871184400748,611
-552.6628015251767,662
-550.0392086783606,607
-547.4163397204204,622
-544.794194472071,607
-542.1727727539491,634
-539.5520743866118,623
-536.9320991905377,631
-534.3128469861261,612
-531.6943175936979,640
-529.0765108334947,664
-526.4594265256793,695
-523.8430644903358,811
-521.2274245474689,841
-518.612506517005,888
-515.9983102187913,858
-513.3848354725959,851
-510.77208209810846,894
-508.16004991493924,949
-505.5487387426199,1032
-502.9381484006032,1063
-500.3282787082628,991
-497.71912948489364,885
-495.1107005497117,858
-492.5029917218539,808
-489.8960028203786,748
-487.28973366426493,725
-484.68418407241325,767
-482.07935386364494,692
-479.47524285670266,722
-476.87185087025,722
-474.2691777228715,710
-471.66722323307334,715
-469.0659872192821,705
-466.4654694998459,694
-463.86566989303384,748
-461.26658821703614,737
-458.66822428996414,761
-456.07057792985,755
-453.4736489546475,716
-450.877437182231,701
-448.28194243039627,714
-445.68716451686,724
-443.09310325926003,749
-440.49975847515555,724
-437.9071299820263,719
-435.31521759727354,669
-432.72402113821954,738
-430.13354042210767,734
-427.5437752661022,769
-424.95472548728867,765
-422.36639090267386,742
-419.7787713291855,726
-417.1918665836721,748
-414.60567648290385,770
-412.0202008435715,782
-409.4354394822874,734
-406.8513922155845,753
-404.26805885991723,769
-401.685439231661,765
-399.103533147112,770
-396.522340422488,748
-393.9418608739278,768
-391.3620943174908,767
-388.7830405691583,722
-386.2046994448317,672
-383.6270707603344,702
-381.05015433141045,673
-378.473949973725,635
-375.8984575028645,634
-373.32367673433623,552
-370.74960748356875,559
-368.1762495659117,522
-365.60360279663576,459
-363.03166699093265,481
-360.4604419639154,457
-357.8899275306178,426
-355.32012350599507,432
-352.7510297049233,416
-350.1826459421999,424
-347.61497203254316,405
-345.04800779059235,396
-342.4817530309082,420
-339.91620756797226,402
-337.35137121618743,392
-334.7872437898774,392
-332.22382510328725,392
-329.66111497058273,402
-327.09911320585127,416
-324.53781962310075,441
-321.9772340362607,425
-319.4173562591816,421
-316.8581861056348,415
-314.2997233893127,408
-311.7419679238294,394
-309.1849195227194,408
-306.62857799943856,420
-304.0729431673641,454
-301.51801483979375,462
-298.963792829947,440
-296.41027695096386,424
-293.85746701590574,431
-291.3053628377552,431
-288.7539642294155,447
-286.2032710037115,433
-283.65328297338897,422
-281.1039999511146,429
-278.5554217494762,445
-276.007548180983,462
-273.4603790580651,453
-270.9139141930734,445
-268.3681533982807,442
-265.8230964858798,460
-263.27874326798565,444
-260.7350935566336,460
-258.1921471637804,463
-255.6499039013039,450
-253.10836358100266,496
-250.56752601459698,471
-248.02739101372765,463
-245.48795838995704,471
-242.94922795476816,459
-240.41119951956557,483
-237.8738728956746,486
-235.33724789434166,499
-232.80132432673452,495
-230.2661020039418,488
-227.73158073697357,509
-225.19776033676033,518
-222.66464061415422,508
-220.1322213799284,516
-217.60050244477725,489
-215.06948361931552,516
-212.53916471408013,530
-210.00954553952818,523
-207.48062590603843,508
-204.9524056239104,503
-202.4248845033651,535
-199.8980623545441,540
-197.37193898751036,503
-194.84651421224817,534
-192.32178783866232,530
-189.79775967657952,538
-187.27442953574644,565
-184.7517972258321,579
-182.2298625564256,548
-179.7086253370378,540
-177.18808537710026,518
-174.66824248596583,536
-172.14909647290835,540
-169.6306471471229,581
-167.11289431772548,579
-164.59583779375328,570
-162.07947738416453,556
-159.5638128978386,588
-157.04884414357605,584
-154.53457093009854,627
-152.02099306604828,585
-149.50811035998936,559
-146.99592262040665,569
-144.48442965570587,587
-141.97363127421409,582
-139.46352728417958,589
-136.95411749377126,607
-134.44540171107985,616
-131.93737974411636,576
-129.43005140081357,576
-126.92341648902493,623
-124.41747481652521,689
-121.91222619101006,745
-119.40767042009657,883
-116.90380731132257,968
-114.40063667214702,995
-111.8981583099503,973
-109.3963720320337,901
-106.89527764561933,908
-104.39487495785067,893
-101.89516377579241,905
-99.39614390642998,1082
-96.89781515667039,1288
-94.40017733334128,1471
-91.90323024319173,1503
-89.40697369289148,1633
-86.91140748903172,1652
-84.41653143812482,1546
-81.92234534660395,1398
-79.42884902082358,1363
-76.93604226705907,1972
-74.4439248915071,2872
-71.95249670028534,3706
-69.46175749943245,4332
-66.97170709490854,4555
-64.48234529259423,4525
-61.99367189829195,4284
-59.50568671772464,4275
-57.01838955653636,3526
-54.53178022029283,3123
-52.045858514480074,4091
-49.560624244506016,5570
-47.07607721569923,6346
-44.59221723330904,6678
-42.10904410250669,6821
-39.62655762838392,6264
-37.14475761595372,5571
-34.66364387015028,5347
-32.18321619582866,5638
-29.70347439776515,5593
-27.224418280657005,5947
-24.74604764912317,6342
-22.26836230770266,7172
-19.7913620608565,10020
-17.315046712966478,16421
-14.83941606833514,22528
-12.36446993118659,28470
-9.89020810566592,65040
-7.416630395839093,65040
-4.94373660569363,65040
-2.471526539137585,65040
-6.821210263296962E-13,65040
2.47084320796705,65040
4.941003281093458,65040
7.410480415786196,65040
9.879274808531363,65040
12.347386655893956,65040
14.814816154518212,65040
17.28156350112681,65040
19.74762889252179,65040
22.21301252558385,65040
24.67771459727237,19307
27.141735304626195,2945
29.605074844762612,1550
32.06773341487792,1436
34.52971121224755,1206
36.99100843422559,1090
39.45162527824516,1128
41.91156194181792,1083
44.370818622535126,943
46.82939551806646,900
49.287292826160524,882
51.74451074464503,860
54.201049471426245,814
56.65690920448981,803
59.112090141899785,813
61.56659248179983,751
64.02041642241159,804
66.4735621620365,790
68.92602989905402,706
71.37781983192338,713
73.82893215918205,744
76.27936707944684,769
78.72912479141326,723
81.17820549385567,770
83.62660938562783,804
86.07433666566146,782
88.5213875329681,694
90.96776218663751,657
93.41346082583925,662
95.85848364982041,668
98.30283085790859,746
100.7465026495089,671
103.18949922410604,679
105.63182078126385,688
108.07346752062438,635
110.51443964190923,584
112.95473734491827,611
115.39436082953114,603
117.83331029570547,599
120.27158594347827,660
122.7091879729652,654
125.1461165843615,602
127.58237197794062,607
130.01795435405518,594
132.4528639131364,640
134.88710085569494,642
137.32066538231982,607
139.75355769367923,587
142.1857779905207,571
144.61732647366978,570
147.04820334403132,626
149.47840880258934,677
151.90794305040674,630
154.33680628862487,706
156.76499871846443,802
159.19252054122433,953
161.61937195828352,1020
164.04555317109896,1047
166.47106438120693,1217
168.89590579022217,1336
171.320077599839,1336
173.7435800118302,1348
176.16641322804742,1365
178.58857745042144,1467
181.01007288096173,1503
183.43089972175687,1475
185.85105817497413,1549
188.27054844285988,1598
190.6893707277394,1562
193.10752523201643,1607
195.5250121581745,1732
197.9418317087751,1740
200.3579840864594,1651
202.7734694939469,1659
205.18828813403627,1672
207.6024402096051,1717
210.01592592360964,1798
212.42874547908548,1811
214.84089907914665,1848
217.2523869269868,1868
219.66320922587727,1772
222.0733661791695,1793
224.48285799029293,1698
226.8916848627572,1749
229.29984700014882,1844
231.7073446061355,1848
234.11417788446204,1804
236.520347038953,1821
238.92585227351185,1789
241.33069379212054,1862
243.73487179884035,1777
246.1383864978112,1850
248.541238093252,1916
250.9434267894609,1910
253.34495279081432,1850
255.74581630176783,1902
258.1460175268563,1877
260.54555667069314,1887
262.9444339379703,1847
265.3426495334594,1850
267.7402036620107,1826
270.1370965285529,1801
272.53332833809407,1820
274.9288992957214,1741
277.32380960660055,1826
279.718059475976,1789
282.1116491091717,1808
284.5045787115897,1745
286.89684848871195,1831
289.2884586460981,1843
291.67940938938807,1746
294.0697009242996,1810
296.4593334566299,1852
298.84830719225477,1825
301.23662233712923,1861
303.6242790972866,1854
306.01127767884,1807
308.39761828798066,1739
310.78330113097934,1745
313.16832641418534,1666
315.5526943440269,1716
317.9364051270112,1802
320.3194589697242,1787
322.70185607883093,1687
325.0835966610754,1737
327.4646809232805,1715
329.8451090723478,1707
332.2248813152577,1681
334.6039978590701,1729
336.9824589109231,1587
339.36026467803447,1653
341.7374153677,1621
344.113911187295,1690
346.48975234427337,1630
348.8649390461686,1590
351.2394715005918,1610
353.61334991523415,1615
355.9865744978655,1607
358.35914545633375,1590
360.73106299856715,1667
363.10232733257146,1611
365.47293866643247,1653
367.84289720831396,1613
370.2122031664593,1589
372.5808567491905,1661
374.9488581649083,1610
377.31620762209275,1566
379.6829053293021,1559
382.0489514951745,1540
384.4143463284262,1527
386.7790900378528,1602
389.14318283232853,1577
391.50662492080653,1611
393.86941651231916,1540
396.23155781597745,1608
398.5930490409713,1615
400.9538903965696,1521
403.3140820921202,1544
405.6736243370498,1507
408.03251734086336,1538
410.3907613131465,1581
412.74835646356166,1585
415.10530300185144,1548
417.4616011378372,1492
419.81725108141893,1543
422.1722530425758,1498
424.5266072313656,1566
426.880313857925,1551
429.2333731324701,1565
431.58578526529516,1562
433.9375504667738,1595
436.2886689473588,1493
438.63914091758113,1538
440.9889665880513,1532
443.33814616945835,1499
445.68667987257015,1469
448.03456790823395,1461
450.3818104873759,1469
452.72840782100013,1564
455.07436012019105,1448
457.41966759611057,1523
459.7643304600007,1435
462.10834892318155,1453
464.4517231970525,1473
466.79445349309174,1447
469.1365400228566,1440
471.4779829979826,1444
473.81878263018564,1470
476.15893913125876,1490
478.4984527130747,1504
480.8373235875855,1518
483.17555196682144,1498
485.5131380628919,1514
487.8500820879857,1608
490.1863842543697,1618
492.52204477439034,1616
494.8570638604725,1729
497.1914417251204,1815
499.52517858091653,2025
501.85827464052306,2217
504.19073011668036,2321
506.5225452222086,2400
508.85372017000566,2515
511.18425517304956,2370
513.514150444396,2585
515.8434061971808,3124
518.1720226446176,3899
520.4999999999999,3941
522.8273384766991,3723
525.1540382881666,3347
527.480099647932,2882
529.8055227696037,2337
532.1303078668694,2019
534.454455153496,1793
536.777964843328,1710
539.1008371502907,1648
541.4230722883866,1637
543.744670471698,1545
546.0656319143858,1549
548.3859568306899,1568
550.7056454349294,1525
553.0246979415016,1529
555.3431145648834,1470
557.6608955196306,1483
559.978041020377,1436
562.2945512818363,1464
564.6104265188006,1444
566.9256669461412,1535
569.2402727788082,1449
571.5542442318302,1511
573.8675815203156,1469
576.1802848594508,1522
578.4923544645015,1496
580.8037905508126,1473
583.114593333807,1511
585.4247630289875,1487
587.7342998519354,1486
590.0432040183106,1522
592.3514757438526,1482
594.6591152443794,1487
596.9661227357875,1535
599.2724984340531,1539
601.578242555231,1538
603.8833553154542,1525
606.1878369309362,1480
608.4916876179676,1478
610.7949075929192,1521
613.0974970722403,1522
615.3994562724587,1431
617.7007854101818,1472
620.0014847020951,1537
622.3015543649641,1499
624.6009946156324,1478
626.8998056710224,1556
629.1979877481361,1479
631.4955410640538,1481
633.7924658359349,1478
636.0887622810175,1490
638.3844306166192,1523
640.6794710601358,1499
642.9738838290426,1512
645.2676691408932,1548
647.5608272133207,1514
649.853358264037,1522
652.1452625108324,1482
654.4365401715764,1537
656.7271914642178,1533
659.0172166067838,1590
661.3066158173809,1515
663.5953893141935,1497
665.8835373154867,1554
668.1710600396028,1616
670.4579577049639,1552
672.7442305300709,1513
675.0298787335033,1557
677.3149025339197,1476
679.599302150058,1542
681.8830778007342,1507
684.1662297048437,1487
686.4487580813608,1509
688.7306631493387,1567
691.0119451279091,1531
693.2926042362834,1523
695.5726406937516,1558
697.8520547196814,1478
700.1308465335215,1507
702.4090163547982,1508
704.6865644031171,1585
706.9634908981619,1572
709.2397960596965,1540
711.5154801075631,1557
713.7905432616823,1562
716.0649857420548,1483
718.3388077687592,1558
720.612009561953,1591
722.8845913418733,1535
725.1565533288352,1523
727.427895743234,1477
729.6986188055427,1559
731.9687227363137,1561
734.238207756178,1609
736.5070740858458,1545
738.7753219461066,1526
741.0429515578281,1524
743.3099631419569,1532
745.5763569195191,1540
747.8421331116193,1551
750.1072919394409,1521
752.3718336242467,1571
754.6357583873777,1544
756.8990664502545,1544
759.1617580343765,1511
761.423833361321,1576
763.6852926527457,1564
765.9461361303862,1522
768.206364016058,1558
770.4659765316536,1568
772.7249738991469,1572
774.9833563405886,1540
777.2411240781092,1591
779.4982773339183,1528
781.7548163303044,1505
784.010741289634,1604
786.2660524343538,1621
788.5207499869881,1617
790.7748341701416,1570
793.0283052064964,1620
795.2811633188143,1567
797.5334087299362,1565
799.7850416627813,1615
802.0360623403484,1578
804.2864709857143,1619
806.5362678220353,1592
808.7854530725468,1536
811.0340269605625,1609
813.2819897094754,1587
815.5293415427581,1612
817.77608268396,1608
820.0222133567116,1617
822.2677337847211,1596
824.5126441917765,1633
826.7569448017433,1543
829.0006358385675,1571
831.2437175262731,1586
833.4861900889629,1506
835.7280537508192,1555
837.9693087361026,1600
840.2099552691533,1540
842.4499935743896,1610
844.689423876309,1564
846.9282463994886,1584
849.1664613685833,1559
851.4040690083276,1574
853.6410695435349,1534
855.877463199097,1537
858.1132501999847,1560
860.3484307712487,1603
862.5830051380175,1631
864.8169735254988,1601
867.0503361589791,1624
869.2830932638243,1637
871.5152450654786,1593
873.7467917894654,1614
875.9777336613873,1539
878.2080709069252,1626
880.4378037518389,1612
882.666932421968,1652
884.8954571432301,1561
887.1233781416219,1672
889.3506956432192,1570
891.5774098741766,1577
893.803521060728,1583
896.0290294291852,1633
898.2539352059397,1637
900.4782386174619,1572
902.7019398903011,1531
904.925039251085,1604
907.147536926521,1550
909.3694331433943,1560
911.59072812857,1619
913.8114221089921,1623
916.0315153116827,1571
918.2510079637437,1552
920.4699002923547,1513
922.6881925247761,1519
924.905884888345,1541
927.1229776104793,1495
929.3394709186747,1551
931.555365040506,1532
933.7706602036275,1552
935.9853566357709,1526
938.1994545647489,1550
940.4129542184515,1527
942.6258558248488,1560
944.8381596119883,1506
947.0498658079974,1547
949.2609746410825,1519
951.4714863395287,1566
953.6814011316998,1564
955.8907192460387,1529
958.0994409110671,1529
960.3075663553858,1494
962.5150958076741,1524
964.7220294966913,1534
966.928367651274,1543
969.1341105003388,1544
971.3392582728806,1541
973.5438111979742,1533
975.747769504772,1569
977.9511334225061,1518
980.153903180487,1518
982.3560790081052,1569
984.5576611348289,1536
986.7586497902058,1506
988.9590452038618,1505
991.158847605503,1449
993.3580572249133,1423
995.5566742919558,1419
997.7546990365728,1473
999.952131688785,1431
1002.1489724786926,1371
1004.3452216364743,1429
1006.5408793923874,1425
1008.7359459767691,1369
1010.9304216200343,1361
1013.1243065526781,1376
1015.3176010052733,1368
1017.510305208472,1323
1019.7024193930064,1331
1021.8939437896848,1259
1024.0848786293977,1363
1026.2752241431122,1324
1028.4649805618747,1298
1030.6541481168115,1346
1032.842727039127,1362
1035.0307175601051,1274
1037.2181199111074,1341
1039.4049343235752,1312
1041.591161029029,1301
1043.7768002590683,1336
1045.9618522453698,1297
1048.1463172196918,1368
1050.3301954138697,1322
1052.513487059818,1317
1054.69619238953,1288
1056.8783116350783,1333
1059.0598450286152,1320
1061.2407928023704,1315
1063.4211551886528,1299
1065.6009324198508,1333
1067.780124728432,1348
1069.9587323469414,1312
1072.1367555080046,1291
1074.314194444325,1320
1076.4910493886855,1333
1078.667320573947,1294
1080.843008233051,1339
1083.0181125990161,1302
1085.1926339049414,1283
1087.3665723840027,1275
1089.5399282694575,1323
1091.7127017946405,1277
1093.8848931929647,1285
1096.0565026979243,1266
1098.2275305430899,1276
1100.3979769621128,1215
1102.567842188722,1209
1104.737126456726,1269
1106.9058300000124,1199
1109.0739530525475,1310
1111.2414958483764,1220
1113.4084586216231,1280
1115.5748416064907,1271
1117.7406450372605,1265
1119.9058691482942,1233
1122.0705141740304,1309
1124.2345803489884,1252
1126.3980679077658,1269
1128.5609770850388,1237
1130.7233081155623,1232
1132.8850612341707,1284
1135.0462366757774,1239
1137.2068346753745,1251
1139.3668554680326,1237
1141.526299288901,1253
1143.68516637321,1227
1145.8434569562655,1212
1148.001171273455,1212
1150.158309560244,1217
1152.3148720521767,1175
1154.470858984876,1287
1156.626270594044,1269
1158.7811071154629,1279
1160.9353687849912,1242
1163.089055838569,1180
1165.242168512213,1240
1167.3947070420209,1241
1169.5466716641677,1257
1171.6980626149075,1238
1173.8488801305748,1282
1175.9991244475814,1227
1178.1487958024186,1290
1180.2978944316555,1270
1182.4464205719428,1224
1184.5943744600072,1198
1186.7417563326567,1243
1188.8885664267755,1228
1191.0348049793297,1233
1193.1804722273619,1264
1195.325568407995,1248
1197.4700937584303,1204
1199.614048515948,1197
1201.7574329179074,1252
1203.900247201746,1238
1206.042491604982,1234
1208.1841663652099,1251
1210.3252717201053,1228
1212.465807907422,1299
1214.6057751649923,1234
1216.7451737307279,1268
1218.8840038426192,1229
1221.0222657387353,1256
1223.1599596572241,1260
1225.2970858363137,1255
1227.4336445143094,1289
1229.5696359295966,1255
1231.705060320639,1259
1233.8399179259786,1296
1235.9742089842384,1289
1238.107933734118,1257
1240.2410924143974,1232
1242.373685263935,1295
1244.5057125216676,1240
1246.6371744266116,1237
1248.7680712178621,1276
1250.898403134593,1253
1253.028170416058,1278
1255.1573733015875,1297
1257.2860120305932,1322
1259.4140868425648,1284
1261.54159797707,1318
1263.6685456737569,1297
1265.7949301723515,1320
1267.9207517126597,1284
1270.046010534565,1265
1272.1707068780306,1270
1274.2948409830983,1303
1276.4184130898889,1291
1278.541423438603,1298
1280.6638722695184,1293
1282.785759822993,1339
1284.9070863394636,1333
1287.0278520594447,1339
1289.1480572235314,1350
1291.2677020723963,1363
1293.3867868467923,1390
1295.5053117875495,1352
1297.623277135579,1331
1299.740683131868,1404
1301.8575300174857,1437
1303.973818033578,1392
1306.0895474213703,1451
1308.2047184221678,1494
1310.3193312773528,1374
1312.4333862283888,1439
1314.5468835168163,1440
1316.659823384255,1435
1318.7722060724045,1453
1320.8840318230418,1479
1322.9953008780249,1442
1325.1060134792888,1480
1327.2161698688478,1436
1329.3257702887959,1453
1331.4348149813054,1470
1333.5433041886276,1459
1335.6512381530933,1453
1337.7586171171101,1457
1339.8654413231675,1426
1341.9717110138317,1432
1344.0774264317488,1461
1346.1825878196432,1393
1348.2871954203192,1470
1350.3912494766587,1488
1352.4947502316231,1349
1354.5976979282532,1435
1356.7000928096686,1419
1358.8019351190665,1348
1360.9032250997243,1396
1363.0039629949988,1408
1365.1041490483235,1378
1367.2037835032133,1320
1369.3028666032606,1399
1371.401398592137,1335
1373.4993797135926,1349
1375.5968102114575,1382
1377.6936903296396,1359
1379.7900203121262,1396
1381.8858004029835,1359
1383.9810308463561,1404
1386.075711886469,1361
1388.1698437676241,1340
1390.2634267342032,1402
1392.356461030667,1329
1394.4489469015557,1322
1396.5408845914872,1387
1398.6322743451592,1461
1400.7231164073469,1392
1402.813411022907,1314
1404.903158436773,1359
1406.9923588939578,1359
1409.0810126395531,1349
1411.1691199187303,1371
1413.2566809767386,1343
1415.343696058907,1325
1417.4301654106425,1351
1419.5160892774315,1303
1421.6014679048399,1395
1423.6863015385125,1351
1425.7705904241707,1315
1427.8543348076178,1414
1429.9375349347342,1374
1432.0201910514802,1337
1434.102303403894,1322
1436.1838722380944,1336
1438.2648978002767,1377
1440.3453803367174,1349
1442.4253200937692,1338
1444.5047173178677,1424
1446.5835722555234,1358
1448.6618851533285,1380
1450.739656257952,1404
1452.8168858161434,1397
1454.8935740747306,1420
1456.96972128062,1466
1459.045327680797,1385
1461.120393522327,1441
1463.1949190523528,1379
1465.2689045180973,1436
1467.3423501668608,1382
1469.415256246024,1464
1471.4876230030463,1469
1473.559450685465,1433
1475.6307395408976,1508
1477.7014898170391,1482
1479.771701761665,1484
1481.8413756226287,1476
1483.9105116478618,1472
1485.9791100853772,1445
1488.0471711832643,1529
1490.1146951896926,1522
1492.1816823529098,1499
1494.2481329212433,1512
1496.3140471430984,1476
1498.3794252669609,1554
1500.4442675413939,1543
1502.5085742150404,1508
1504.572345536622,1556
1506.6355817549388,1474
1508.6982831188702,1577
1510.7604498773744,1517
1512.8220822794883,1573
1514.8831805743293,1585
1516.9437450110909,1595
1519.003775839048,1620
1521.0632733075522,1618
1523.1222376660367,1568
1525.1806691640113,1579
1527.2385680510652,1626
1529.2959345768668,1598
1531.3527689911643,1578
1533.4090715437833,1621
1535.4648424846291,1679
1537.5200820636855,1718
1539.5747905310159,1658
1541.6289681367616,1688
1543.6826151311434,1712
1545.7357317644614,1755
1547.7883182870937,1867
1549.8403749494987,1775
1551.8919020022113,1839
1553.9428996958477,1844
1555.9933682811015,1882
1558.0433080087469,1915
1560.0927191296346,1904
1562.1416018946961,1964
1564.1899565549415,1915
1566.2377833614592,1903
1568.2850825654164,1852
1570.3318544180606,1921
1572.3780991707158,1897
1574.423817074788,1927
1576.4690083817595,1792
1578.5136733431923,1809
1580.5578122107272,1811
1582.601425236085,1697
1584.6445126710646,1704
1586.6870747675434,1694
1588.7291117774776,1679
1590.7706239529034,1673
1592.8116115459347,1632
1594.8520748087658,1614
1596.8920139936686,1524
1598.9314293529933,1572
1600.9703211391711,1543
1603.008689604711,1492
1605.0465350022005,1534
1607.0838575843068,1533
1609.1206576037753,1483
1611.1569353134305,1436
1613.1926909661765,1443
1615.2279248149953,1461
1617.2626371129481,1342
1619.2968281131757,1453
1621.3304980688963,1421
1623.3636472334088,1430
1625.39627586009,1345
1627.428384202396,1371
1629.459972513861,1375
1631.4910410480993,1331
1633.5215900588028,1340
1635.551619799744,1377
1637.5811305247717,1327
1639.6101224878166,1316
1641.6385959428862,1254
1643.6665511440683,1257
1645.693988345528,1269
1647.7209078015112,1304
1649.7473097663405,1297
1651.7731944944203,1307
1653.7985622402307,1306
1655.823413258333,1258
1657.847747803366,1333
1659.8715661300494,1289
1661.8948684931793,1256
1663.9176551476316,1244
1665.9399263483624,1267
1667.9616823504057,1253
1669.982923408873,1336
1672.0036497789574,1238
1674.0238617159293,1270
1676.043559475138,1269
1678.0627433120121,1263
1680.081413482059,1234
1682.0995702408654,1210
1684.117213844096,1268
1686.134344547495,1231
1688.1509626068864,1262
1690.1670682781705,1296
1692.182661817329,1259
1694.1977434804217,1297
1696.2123135235875,1240
1698.226372203043,1234
1700.2399197750851,1258
1702.2529564960905,1246
1704.2654826225112,1269
1706.277498410882,1265
1708.2890041178139,1326
1710.2999999999988,1290
1712.3104863142066,1251
1714.3204633172854,1275
1716.329931266163,1290
1718.3388904178469,1246
1720.3473410294214,1263
1722.3552833580516,1254
1724.3627176609807,1264
1726.3696441955308,1326
1728.3760632191033,1250
1730.3819749891782,1234
1732.3873797633146,1249
1734.3922777991502,1263
1736.3966693544012,1234
1738.4005546868639,1255
1740.4039340544127,1289
1742.406807715001,1253
1744.4091759266616,1299
1746.4110389475054,1244
1748.4123970357223,1272
1750.413250449582,1224
1752.4135994474318,1275
1754.4134442876993,1238
1756.4127852288902,1273
1758.4116225295893,1225
1760.4099564484595,1247
1762.407787244244,1221
1764.405115175764,1213
1766.4019405019203,1189
1768.3982634816916,1239
1770.3940843741357,1263
1772.3894034383907,1219
1774.3842209336717,1249
1776.378537119274,1265
1778.372352254571,1219
1780.3656665990156,1235
1782.3584804121397,1249
1784.3507939535534,1262
1786.3426074829463,1262
1788.3339212600863,1217
1790.3247355448211,1199
1792.3150505970766,1213
1794.3048666768573,1177
1796.2941840442477,1235
1798.2830029594106,1263
1800.2713236825884,1230
1802.2591464741004,1275
1804.2464715943465,1266
1806.2332993038058,1230
1808.2196298630352,1233
1810.2054635326708,1275
1812.190800573428,1171
1814.175641246101,1223
1816.1599858115628,1253
1818.1438345307652,1272
1820.127187664738,1229
1822.1100454745924,1225
1824.092408221516,1193
1826.0742761667766,1212
1828.055649571721,1271
1830.0365286977735,1188
1832.0169138064398,1201
1833.9968051593014,1210
1835.9762030180214,1232
1837.9551076443408,1256
1839.9335193000788,1247
1841.9114382471344,1224
1843.888864747485,1213
1845.8657990631878,1209
1847.842241456378,1222
1849.8181921892697,1210
1851.7936515241558,1227
1853.7686197234098,1202
1855.7430970494815,1215
1857.7170837649014,1262
1859.6905801322787,1249
1861.6635864143004,1207
1863.6361028737338,1211
1865.608129773424,1276
1867.5796673762961,1264
1869.5507159453537,1261
1871.521275743678,1213
1873.4913470344313,1244
1875.4609300808534,1262
1877.4300251462632,1273
1879.3986324940588,1214
1881.366752387717,1251
1883.3343850907936,1248
1885.3015308669228,1261
1887.268189979819,1230
1889.2343626932739,1264
1891.2000492711595,1268
1893.1652499774254,1243
1895.1299650761011,1296
1897.0941948312952,1246
1899.0579395071945,1227
1901.0211993680641,1208
1902.98397467825,1220
1904.9462657021745,1225
1906.9080727043415,1251
1908.869395949332,1199
1910.8302357018065,1219
1912.790592226504,1179
1914.7504657882428,1247
1916.7098566519212,1242
1918.6687650825133,1187
1920.6271913450764,1265
1922.5851357047422,1246
1924.5425984267245,1223
1926.499579776314,1237
1928.4560800188833,1187
1930.4120994198802,1223
1932.367638244833,1262
1934.32269675935,1252
1936.2772752291175,1208
1938.231373919899,1252
1940.1849930975404,1238
1942.1381330279637,1239
1944.0907939771696,1235
1946.0429762112412,1229
1947.9946799963363,1228
1949.9459055986945,1221
1951.896653284633,1217
1953.8469233205478,1225
1955.7967159729142,1253
1957.7460315082863,1229
1959.6948701932974,1189
1961.6432322946594,1250
1963.5911180791632,1186
1965.5385278136787,1265
1967.4854617651545,1263
1969.4319202006182,1260
1971.377903387176,1277
1973.3234115920136,1255
1975.268445082395,1181
1977.2130041256642,1278
1979.1570889892423,1171
1981.1006999406304,1291
1983.04383724741,1213
1984.986501177238,1160
1986.928691997853,1257
1988.8704099770712,1239
1990.811655382789,1225
1992.7524284829801,1211
1994.692729545698,1250
1996.6325588390755,1226
1998.5719166313224,1247
2000.5108031907307,1259
2002.4492187856677,1239
2004.387163684583,1191
2006.3246381560011,1221
2008.2616424685298,1189
2010.1981768908527,1248
2012.1342416917332,1255
2014.069837140014,1177
2016.0049635046162,1202
2017.9396210545406,1197
2019.8738100588666,1261
2021.8075307867502,1254
2023.740783507431,1178
2025.6735684902228,1286
2027.6058860045214,1198
2029.5377363198004,1169
2031.4691197056118,1248
2033.4000364315875,1221
2035.3304867674374,1241
2037.260470982952,1200
2039.189989347998,1247
2041.1190421325232,1244
2043.047629606554,1207
2044.9757520401945,1159
2046.9034097036288,1234
2048.8306028671195,1203
2050.7573318010086,1197
2052.683596775716,1250
2054.609398061742,1269
2056.5347359296647,1270
2058.4596106501403,1281
2060.384022493906,1237
2062.3079717317764,1238
2064.231458634646,1273
2066.1544834734873,1185
2068.077046519352,1228
2069.99914804337,1198
2071.9207883167524,1191
2073.8419676107865,1220
2075.7626861968406,1202
2077.6829443463607,1226
2079.6027423308715,1223
2081.522080421977,1221
2083.440958891362,1198
2085.359378010786,1198
2087.2773380520907,1212
2089.194839287196,1233
2091.111881988101,1209
2093.0284664268825,1192
2094.9445928756973,1220
2096.86026160678,1223
2098.775472892446,1271
2100.690227005088,1276
2102.604524217178,1194
2104.5183648012676,1214
2106.431749029985,1192
2108.34467717604,1242
2110.2571495122206,1207
2112.169166311393,1244
2114.080727846503,1236
2115.9918343905747,1252
2117.902486216711,1221
2119.8126835980956,1242
2121.722426807987,1229
2123.6317161197285,1246
2125.5405518067364,1244
2127.448934142509,1278
2129.356863400624,1253
2131.264339854737,1220
2133.1713637785815,1258
2135.077935445972,1217
2136.9840551308002,1276
2138.889723107037,1172
2140.7949396487334,1232
2142.699705030018,1223
2144.6040195250994,1228
2146.507883408264,1250
2148.4112969538774,1287
2150.3142604363848,1235
2152.2167741303097,1238
2154.1188383102535,1224
2156.0204532508997,1193
2157.9216192270064,1184
2159.822336513414,1233
2161.7226053850413,1232
2163.622426116884,1254
2165.5217989840185,1272
2167.4207242616,1233
2169.319202224862,1232
2171.2172331491165,1208
2173.1148173097563,1234
2175.0119549822507,1222
2176.90864644215,1273
2178.8048919650823,1264
2180.7006918267534,1197
2182.596046302952,1231
2184.4909556695407,1228
2186.3854202024645,1256
2188.279440177746,1275
2190.173015871487,1255
2192.066147559868,1258
2193.958835519149,1279
2195.851080025667,1250
2197.7428813558417,1235
2199.6342397861667,1228
2201.5251555932186,1255
2203.415629053651,1223
2205.3056604441986,1215
2207.19525004167,1225
2209.084398122958,1283
2210.9731049650327,1329
2212.861370844941,1300
2214.749196039812,1294
2216.636580826851,1273
2218.523525483344,1217
2220.410030286655,1259
2222.296095514226,1287
2224.1817214435805,1291
2226.066908352319,1252
2227.951656518121,1240
2229.835966218746,1296
2231.71983773203,1249
2233.6032713358913,1292
2235.486267308324,1272
2237.3688259274036,1274
2239.2509474712824,1264
2241.132632218193,1276
2243.013880446447,1287
2244.8946924344323,1267
2246.7750684606203,1254
2248.6550088035574,1255
2250.534513741871,1250
2252.413583554265,1275
2254.292218519526,1231
2256.170418916517,1240
2258.0481850241786,1265
2259.925517121534,1216
2261.8024154876825,1294
2263.678880401803,1225
2265.5549121431536,1245
2267.430510991071,1241
2269.305677224971,1256
2271.180411124348,1240
2273.0547129687766,1277
2274.9285830379076,1317
2276.8020216114737,1252
2278.6750289692845,1212
2280.5476053912294,1252
2282.4197511572766,1293
2284.2914665474727,1310
2286.162751841943,1260
2288.0336073208937,1291
2289.904033264608,1272
2291.774029953448,1267
2293.6435976678554,1254
2295.5127366883517,1266
2297.381447295534,1259
2299.2497297700825,1271
2301.1175843927526,1211
2302.9850114443825,1217
2304.852011205885,1227
2306.7185839582553,1154
2308.5847299825664,1209
2310.4504495599676,1127
2312.3157429716925,1174
2314.1806104990483,1202
2316.0450524234247,1180
2317.9090690262888,1182
2319.772660589186,1156
2321.635827393742,1161
2323.498569721661,1152
2325.3608878547248,1191
2327.2227820747967,1169
2329.0842526638157,1179
2330.945299903803,1185
2332.805924076857,1136
2334.6661254651535,1176
2336.525904350951,1155
2338.3852610165827,1183
2340.244195744464,1189
2342.102708817088,1171
2343.9608005170253,1160
2345.8184711269287,1195
2347.675720929526,1212
2349.532550207628,1152
2351.38895924412,1156
2353.24494832197,1155
2355.100517724223,1162
2356.955667734004,1150
2358.810398634514,1164
2360.664710709037,1166
2362.5186042409337,1135
2364.3720795136437,1170
2366.225136810686,1175
2368.0777764156583,1144
2369.929998612237,1186
2371.7818036841777,1212
2373.633191915315,1150
2375.484163589562,1144
2377.3347189909114,1166
2379.184858403434,1165
2381.03458211128,1175
2382.8838903986775,1139
2384.732783549936,1144
2386.5812618494406,1176
2388.4293255816588,1237
2390.2769750311327,1179
2392.1242104824883,1141
2393.971032220427,1160
2395.8174405297295,1204
2397.6634356952563,1152
2399.509018001947,1180
2401.3541877348193,1196
2403.1989451789705,1187
2405.043290619576,1137
2406.8872243418905,1159
2408.730746631247,1138
2410.5738577730594,1166
2412.4165580528183,1187
2414.258847756095,1222
2416.100727168537,1180
2417.9421965758734,1192
2419.783256263912,1113
2421.623906518538,1191
2423.4641476257157,1150
2425.303979871491,1171
2427.143403541984,1215
2428.9824189233977,1197
2430.821026302012,1242
2432.6592259641866,1198
2434.497018196361,1149
2436.33440328505,1204
2438.171381516851,1162
2440.00795317844,1169
2441.844118556569,1174
2443.6798779380724,1206
2445.5152316098606,1185
2447.3501798589255,1173
2449.1847229723357,1209
2451.0188612372403,1162
2452.8525949408663,1215
2454.6859243705203,1155
2456.518849813587,1182
2458.3513715575314,1218
2460.183489889895,1200
2462.015205098301,1178
2463.8465174704493,1170
2465.67742729412,1188
2467.5079348571717,1193
2469.338040447542,1137
2471.1677443532476,1213
2472.9970468623833,1155
2474.825948263123,1168
2476.6544488437207,1199
2478.482548892508,1194
2480.310248697896,1206
2482.137548548374,1160
2483.9644487325118,1157
2485.790949538956,1239
2487.617051256433,1174
2489.44275417375,1165
2491.26805857979,1198
2493.0929647635157,1216
2494.917473013971,1195
2496.741583620276,1201
2498.5652968716304,1227
2500.3886130573137,1208
2502.2115324666834,1165
2504.0340553891765,1163
2505.856182114308,1202
2507.6779129316733,1213
2509.499248130945,1190
2511.3201880018764,1202
2513.140732834298,1173
2514.9608829181198,1201
2516.780638543331,1225
2518.6,1181
2520.418967578273,1208
2522.237541568376,1192
2524.0557222606144,1197
2525.8735099453706,1155
2527.6909049131086,1185
2529.507907454368,1232
2531.32451785977,1198
2533.140736420014,1217
2534.9565634258774,1168
2536.771999168218,1190
2538.5870439379714,1236
2540.4016980261526,1192
2542.2159617238544,1226
2544.02983532225,1193
2545.8433191125914,1250
2547.656413386209,1186
2549.4691184345115,1219
2551.2814345489874,1270
2553.093362021204,1238
2554.904901142808,1229
2556.716052205523,1228
2558.526815501153,1237
2560.3371913215824,1244
2562.147179958771,1260
2563.956781704761,1291
2565.7659968516705,1261
2567.5748256916986,1262
2569.3832685171224,1302
2571.1913256202984,1226
2572.9989972936614,1254
2574.806283829725,1261
2576.613185521084,1262
2578.4197026604074,1287
2580.2258355404483,1248
2582.031584454035,1197
2583.836949694077,1260
2585.6419315535613,1214
2587.4465303255533,1251
2589.2507463032002,1288
2591.0545797797245,1303
2592.8580310484303,1203
2594.6611004026995,1309
2596.463788135992,1303
2598.266094541849,1245
2600.0680199138874,1282
2601.869564545807,1250
2603.670728731383,1275
2605.4715127644704,1293
2607.2719169390048,1253
2609.071941548998,1225
2610.8715868885433,1318
2612.670853251811,1268
2614.469740933052,1214
2616.268250226594,1301
2618.0663814268455,1340
2619.864134828292,1324
2621.6615107255006,1277
2623.458509413115,1267
2625.2551311858597,1291
2627.0513763385347,1257
2628.8472451660223,1255
2630.6427379632833,1227
2632.4378550253564,1281
2634.232596647359,1256
2636.026963124488,1303
2637.8209547520187,1238
2639.6145718253065,1251
2641.407814639785,1230
2643.200683490966,1260
2644.9931786744414,1235
2646.7853004858807,1271
2648.577049221034,1236
2650.3684251757277,1251
2652.1594286458712,1267
2653.9500599274484,1259
2655.740319316525,1253
2657.5302071092437,1249
2659.3197236018286,1273
2661.10886909058,1279
2662.8976438718782,1292
2664.686048242183,1223
2666.4740824980327,1209
2668.2617469360443,1224
2670.0490418529134,1171
2671.8359675454153,1307
2673.622524310403,1227
2675.408712444811,1227
2677.1945322456495,1213
2678.979984010009,1262
2680.76506803506,1204
2682.5497846180497,1259
2684.334134056306,1230
2686.1181166472343,1172
2687.9017326883213,1194
2689.6849824771293,1219
2691.4678663113013,1222
2693.2503844885596,1189
2695.032537306705,1191
2696.8143250636167,1218
2698.5957480572542,1176
2700.3768065856534,1160
2702.1575009469316,1204
2703.937831439283,1192
2705.717798360982,1153
2707.4974020103837,1211
2709.276642685917,1191
2711.055520686095,1193
2712.834036309506,1192
2714.612189854819,1147
2716.389981620782,1150
2718.1674119062204,1153
2719.944481010041,1149
2721.721189231226,1197
2723.4975368688415,1166
2725.273524222027,1144
2727.0491515900053,1184
2728.824419272075,1157
2730.5993275676146,1140
2732.3738767760838,1128
2734.148067197016,1203
2735.921899130031,1102
2737.6953728748194,1207
2739.468488731156,1175
2741.2412469988926,1194
2743.0136479779617,1134
2744.785691968372,1181
2746.5573792702116,1131
2748.3287101836504,1097
2750.099685008934,1144
2751.870304046388,1167
2753.640567596418,1173
2755.4104759595057,1139
2757.1800294362156,1146
2758.949228327187,1121
2760.7180729331412,1145
2762.486563554877,1221
2764.254700493272,1171
2766.022484049284,1158
2767.789914523947,1189
2769.5569922183786,1154
2771.3237174337705,1121
2773.090090471394,1183
2774.8561116326036,1145
2776.6217812188274,1116
2778.3870995315756,1123
2780.1520668724356,1134
2781.9166835430747,1167
2783.6809498452394,1145
2785.444866080754,1182
2787.2084325515225,1137
2788.971649559527,1114
2790.73451740683,1121
2792.4970363955713,1169
2794.2592068279705,1142
2796.0210290063264,1141
2797.7825032330147,1124
2799.543629810493,1148
2801.304409041296,1165
2803.0648412280366,1109
2804.8249266734088,1072
2806.5846656801846,1152
2808.344058551212,1140
2810.1031055894246,1150
2811.8618070978273,1143
2813.6201633795085,1132
2815.378174737636,1152
2817.1358414754536,1172
2818.893163896285,1153
2820.6501423035334,1169
2822.4067770006814,1139
2824.1630682912883,1112
2825.9190164789957,1167
2827.6746218675207,1111
2829.429884760661,1176
2831.184805462294,1212
2832.9393842763743,1167
2834.693621506936,1170
2836.4475174580916,1100
2838.201072434034,1132
2839.954286739034,1095
2841.707160677441,1218
2843.459694553685,1158
2845.2118886722724,1174
2846.96374333779,1144
2848.7152588549034,1186
2850.4664355283567,1152
2852.217273662973,1136
2853.9677735636546,1144
2855.7179355353833,1125
2857.4677598832186,1157
2859.217246912299,1091
2860.9663969278427,1150
2862.715210235146,1137
2864.4636871395846,1150
2866.211827946614,1129
2867.9596329617652,1187
2869.7071024906536,1178
2871.4542368389684,1134
2873.20103631248,1141
2874.947501217038,1108
2876.6936318585695,1123
2878.4394285430812,1101
2880.1848915766604,1121
2881.9300212654707,1177
2883.6748179157553,1193
2885.4192818338374,1161
2887.1634133261173,1183
2888.907212699077,1114
2890.6506802592744,1176
2892.393816313348,1150
2894.1366211680142,1151
2895.8790951300693,1126
2897.621238506388,1141
2899.363051603925,1133
2901.1045347297118,1111
2902.8456881908596,1162
2904.58651229456,1180
2906.327007348081,1140
2908.067173658772,1105
2909.8070115340597,1157
2911.5465212814497,1134
2913.285703208527,1177
2915.0245576229563,1217
2916.7630848324807,1124
2918.5012851449196,1179
2920.2391588681758,1158
2921.976706310227,1109
2923.7139277791334,1154
2925.4508235830313,1167
2927.187394030137,1145
2928.923639428745,1146
2930.6595600872306,1096
2932.395156314046,1134
2934.1304284177218,1176
2935.8653767068713,1176
2937.6000014901815,1154
2939.3343030764227,1122
2941.068281774442,1117
2942.8019378931644,1103
2944.5352717415976,1144
2946.2682836288236,1138
2948.0009738640065,1129
2949.7333427563885,1185
2951.465390615289,1153
2953.1971177501086,1165
2954.9285244703265,1179
2956.6596110855,1156
2958.3903779052657,1156
2960.1208252393385,1154
2961.8509533975125,1165
2963.5807626896617,1113
2965.3102534257378,1143
2967.0394259157715,1171
2968.768280469873,1129
2970.496817398232,1179
2972.2250370111146,1128
2973.952939618869,1137
2975.6805255319196,1162
2977.4077950607707,1206
2979.134748516006,1180
2980.861386208289,1164
2982.587708448359,1152
2984.313715547037,1152
2986.039407815222,1144
2987.764785563891,1120
2989.489849104102,1122
2991.2145987469908,1143
2992.9390348037705,1080
2994.6631575857346,1169
2996.3869674042576,1119
2998.1104645707887,1092
2999.83364939686,1127
3001.5565221940783,1122
3003.2790832741334,1119
3005.0013329487924,1108
3006.7232715298996,1120
3008.4448993293804,1106
3010.166216659239,1130
3011.887223831558,1080
3013.607921158498,1134
3015.3283089522993,1122
3017.0483875252826,1147
3018.7681571898443,1097
3020.4876182584626,1111
3022.2067710436927,1092
3023.9256158581707,1107
3025.644153014609,1129
3027.362382825801,1156
3029.0803056046193,1125
3030.797921664012,1132
3032.5152313170106,1131
3034.2322348767225,1112
3035.9489326563353,1134
3037.665324969115,1078
3039.3814121284063,1166
3041.097194447633,1078
3042.812672240299,1082
3044.5278458199855,1104
3046.2427155003525,1159
3047.9572815951406,1160
3049.671544418167,1147
3051.38550428333,1074
3053.0991615046073,1150
3054.812516396051,1092
3056.5255692717974,1120
3058.2383204460575,1132
3059.9507702331257,1085
3061.662918947372,1108
3063.3747669032446,1096
3065.0863144152736,1131
3066.7975617980674,1081
3068.508509366309,1139
3070.219157434767,1103
3071.9295063182844,1120
3073.639556331785,1136
3075.3493077902704,1102
3077.058761008821,1120
3078.7679163025964,1125
3080.476773986837,1070
3082.1853343768594,1146
3083.89359778806,1095
3085.6015645359153,1118
3087.3092349359786,1157
3089.016609303884,1119
3090.7236879553434,1156
3092.4304712061476,1150
3094.136959372166,1132
3095.843152769349,1151
3097.5490517137237,1148
3099.2546565213966,1202
3100.959967508554,1126
3102.66498499146,1155
3104.3697092864577,1123
3106.0741407099695,1167
3107.778279578498,1069
3109.482126208622,1127
3111.1856809170004,1134
3112.8889440203716,1160
3114.5919158355528,1136
3116.294596679439,1102
3117.996986869006,1165
3119.6990867213062,1155
3121.4008965534726,1129
3123.102416682717,1138
3124.803647426329,1147
3126.5045891016784,1145
3128.205242026213,1159
3129.90560651746,1137
3131.605682893025,1167
3133.3054714705922,1140
3135.0049725679282,1180
3136.7041865028714,1135
3138.4031135933465,1136
3140.101754157353,1164
3141.800108512971,1192
3143.498176978357,1117
3145.1959598717494,1128
3146.8934575114636,1155
3148.5906702158954,1171
3150.2875983035183,1169
3151.9842420928853,1173
3153.680601902627,1128
3155.376678051456,1114
3157.07247085816,1183
3158.767980641609,1108
3160.463207720748,1166
3162.158152414606,1152
3163.8528150422862,1125
3165.5471959229726,1100
3167.2412953759303,1139
3168.9351137204976,1142
3170.628651276098,1157
3172.3219083622307,1100
3174.014885298474,1130
3175.707582404485,1119
3177.4000000000005,1162
3179.092138404835,1122
3180.7839979388846,1136
3182.47557892212,1125
3184.166881674594,1148
3185.8579065164386,1101
3187.5486537678626,1180
3189.2391237491547,1090
3190.9293167806827,1108
3192.6192331828934,1150
3194.3088732763117,1095
3195.998237381542,1122
3197.687325819268,1102
3199.376138910251,1159
3201.064676975334,1118
3202.7529403354347,1141
3204.4409293115523,1156
3206.1286442247647,1106
3207.816085396229,1095
3209.5032531471825,1127
3211.190147798936,1150
3212.8767696728846,1116
3214.5631190905015,1067
3216.2491963733373,1078
3217.9350018430214,1127
3219.6205358212637,1102
3221.305798629851,1117
3222.990790590651,1121
3224.6755120256103,1100
3226.359963256751,1101
3228.0441446061795,1136
3229.7280563960758,1105
3231.411698948703,1173
3233.0950725863995,1149
3234.778177631587,1119
3236.461014406761,1142
3238.1435832345005,1113
3239.8258844374595,1143
3241.507918338374,1185
3243.1896852600576,1128
3244.8711855254023,1070
3246.552419457381,1080
3248.233387379042,1125
3249.914089613516,1133
3251.59452648401,1149
3253.274698313813,1137
3254.95460542629,1151
3256.6342481448855,1163
3258.313626793125,1114
3259.9927416946084,1070
3261.6715931730196,1105
3263.3501815521176,1121
3265.0285071557437,1104
3266.706570307815,1096
3268.3843713323286,1153
3270.0619105533615,1138
3271.739188295068,1113
3273.4162048816834,1146
3275.0929606375184,1157
3276.769455886966,1140
3278.445690954498,1139
3280.1216661646613,1090
3281.797381842087,1164
3283.4728383114807,1121
3285.1480358976296,1133
3286.8229749253996,1136
3288.4976557197333,1066
3290.172078605655,1121
3291.846243908266,1091
3293.5201519527463,1101
3295.193803064357,1124
3296.8671975684374,1104
3298.5403357904024,1118
3300.21321805575,1112
3301.8858446900567,1138
3303.558216018975,1133
3305.23033236824,1167
3306.9021940636603,1156
3308.57380143113,1056
3310.2451547966184,1109
3311.916254486174,1075
3313.5871008259246,1078
3315.2576941420766,1153
3316.9280347609147,1093
3318.5981230088046,1135
3320.2679592121895,1087
3321.9375436975924,1100
3323.606876791612,1073
3325.27595882093,1115
3326.944790112305,1055
3328.6133709925753,1060
3330.2817017886573,1089
3331.949782827547,1123
3333.617614436319,1115
3335.2851969421245,1120
3336.952530672199,1092
3338.619615953853,1117
3340.286453114475,1133
3341.9530424815357,1154
3343.619384382583,1120
3345.2854791452437,1152
3346.951327097224,1103
3348.6169285663073,1129
3350.2822838803577,1132
3351.947393367319,1098
3353.61225735521,1137
3355.2768761721345,1107
3356.9412501462693,1101
3358.605379605873,1144
3360.2692648792827,1089
3361.9329062949146,1113
3363.596304181263,1161
