CollectionTime,7/9/2024 4:03:39 PM
ExposureUsed,3
CalibratedSpectrum
-962.7078968117929,412
-959.9714848408522,412
-957.2358232597828,426
-954.5009119013725,444
-951.7667505983302,416
-949.0333391832855,448
-946.3006774887896,436
-943.5687653473143,451
-940.837602591253,422
-938.1071890529199,439
-935.3775245645503,452
-932.6486089583007,430
-929.9204420662485,438
-927.1930237203925,436
-924.4663537526524,432
-921.7404319948689,446
-919.0152582788041,432
-916.2908324361409,473
-913.5671542984834,446
-910.8442236973568,439
-908.1220404642074,426
-905.4006044304027,461
-902.679915427231,453
-899.959973285902,432
-897.2407778375464,469
-894.5223289132158,433
-891.8046263438832,413
-889.0876699604426,413
-886.3714595937089,452
-883.6559950744183,435
-880.9412762332282,437
-878.2273029007168,450
-875.5140749073835,424
-872.8015920836489,422
-870.0898542598545,436
-867.3788612662631,441
-864.6686129330585,423
-861.9591090903457,439
-859.2503495681506,460
-856.5423341964203,435
-853.8350628050229,427
-851.1285352237478,438
-848.4227512823054,433
-845.7177108103272,439
-843.0134136373656,442
-840.3098595928943,450
-837.6070485063082,468
-834.9049802069229,451
-832.2036545239757,446
-829.5030712866244,454
-826.8032303239481,471
-824.1041314649472,443
-821.4057745385428,446
-818.7081593735775,442
-816.0112857988148,442
-813.3151536429393,448
-810.6197627345566,443
-807.9251129021936,469
-805.2312039742981,437
-802.5380357792392,443
-799.8456081453069,443
-797.1539209007124,462
-794.462973873588,448
-791.772766891987,444
-789.083299783884,451
-786.3945723771743,458
-783.7065844996748,450
-781.0193359791231,459
-778.3328266431781,443
-775.6470563194197,455
-772.9620248353489,440
-770.2777320183878,455
-767.5941776958798,465
-764.9113616950891,489
-762.2292838432011,467
-759.5479439673222,467
-756.8673418944801,450
-754.1874774516235,444
-751.5083504656222,478
-748.8299607632671,465
-746.15230817127,459
-743.475392516264,460
-740.7992136248035,452
-738.1237713233636,473
-735.4490654383407,470
-732.7750957960521,469
-730.1018622227365,459
-727.4293645445534,465
-724.7576025875837,472
-722.0865761778291,475
-719.4162851412126,468
-716.7467293035781,464
-714.0779084906909,466
-711.409822528237,473
-708.7424712418238,490
-706.0758544569796,477
-703.4099719991541,480
-700.7448236937178,499
-698.0804093659622,477
-695.4167288411002,497
-692.7537819442656,501
-690.0915685005134,484
-687.4300883348199,468
-684.7693412720819,491
-682.1093271371178,487
-679.4500457546669,488
-676.7914969493897,490
-674.1336805458676,507
-671.4765963686034,501
-668.8202442420206,515
-666.1646239904642,505
-663.5097354382001,499
-660.8555784094151,490
-658.2021527282176,516
-655.5494582186366,492
-652.8974947046223,495
-650.2462620100463,513
-647.5957599587009,501
-644.9459883742998,526
-642.2969470804776,508
-639.6486359007902,516
-637.0010546587141,505
-634.3542031776476,492
-631.7080812809096,491
-629.0626887917401,508
-626.4180255333008,525
-623.7740913286734,529
-621.1308860008619,529
-618.4884093727904,525
-615.8466612673046,548
-613.2056415071715,537
-610.5653499150785,521
-607.9257863136347,526
-605.28695052537,527
-602.6488423727357,521
-600.0114616781036,510
-597.3748082637674,509
-594.7388819519412,538
-592.1036825647604,528
-589.4692099242818,522
-586.8354638524829,516
-584.2024441712624,538
-581.5701507024403,544
-578.9385832677575,507
-576.3077416888759,557
-573.6776257873787,521
-571.0482353847704,529
-568.4195703024757,532
-565.7916303618415,543
-563.164415384135,548
-560.5379251905453,547
-557.9121596021815,558
-555.2871184400748,548
-552.6628015251767,533
-550.0392086783606,566
-547.4163397204204,548
-544.794194472071,554
-542.1727727539491,562
-539.5520743866118,596
-536.9320991905377,570
-534.3128469861261,575
-531.6943175936979,578
-529.0765108334947,626
-526.4594265256793,652
-523.8430644903358,738
-521.2274245474689,812
-518.612506517005,877
-515.9983102187913,863
-513.3848354725959,856
-510.77208209810846,989
-508.16004991493924,1068
-505.5487387426199,1130
-502.9381484006032,1124
-500.3282787082628,1074
-497.71912948489364,951
-495.1107005497117,836
-492.5029917218539,800
-489.8960028203786,701
-487.28973366426493,660
-484.68418407241325,676
-482.07935386364494,674
-479.47524285670266,653
-476.87185087025,669
-474.2691777228715,681
-471.66722323307334,663
-469.0659872192821,654
-466.4654694998459,665
-463.86566989303384,632
-461.26658821703614,685
-458.66822428996414,675
-456.07057792985,686
-453.4736489546475,674
-450.877437182231,657
-448.28194243039627,676
-445.68716451686,634
-443.09310325926003,618
-440.49975847515555,632
-437.9071299820263,675
-435.31521759727354,631
-432.72402113821954,679
-430.13354042210767,682
-427.5437752661022,671
-424.95472548728867,656
-422.36639090267386,684
-419.7787713291855,704
-417.1918665836721,728
-414.60567648290385,699
-412.0202008435715,706
-409.4354394822874,694
-406.8513922155845,756
-404.26805885991723,753
-401.685439231661,762
-399.103533147112,724
-396.522340422488,732
-393.9418608739278,673
-391.3620943174908,697
-388.7830405691583,680
-386.2046994448317,668
-383.6270707603344,654
-381.05015433141045,593
-378.473949973725,579
-375.8984575028645,589
-373.32367673433623,539
-370.74960748356875,529
-368.1762495659117,505
-365.60360279663576,479
-363.03166699093265,481
-360.4604419639154,477
-357.8899275306178,433
-355.32012350599507,405
-352.7510297049233,422
-350.1826459421999,424
-347.61497203254316,409
-345.04800779059235,401
-342.4817530309082,423
-339.91620756797226,445
-337.35137121618743,419
-334.7872437898774,427
-332.22382510328725,432
-329.66111497058273,422
-327.09911320585127,414
-324.53781962310075,465
-321.9772340362607,448
-319.4173562591816,421
-316.8581861056348,418
-314.2997233893127,416
-311.7419679238294,405
-309.1849195227194,420
-306.62857799943856,431
-304.0729431673641,447
-301.51801483979375,474
-298.963792829947,436
-296.41027695096386,455
-293.85746701590574,459
-291.3053628377552,457
-288.7539642294155,452
-286.2032710037115,456
-283.65328297338897,463
-281.1039999511146,471
-278.5554217494762,482
-276.007548180983,460
-273.4603790580651,477
-270.9139141930734,468
-268.3681533982807,470
-265.8230964858798,477
-263.27874326798565,463
-260.7350935566336,470
-258.1921471637804,477
-255.6499039013039,450
-253.10836358100266,477
-250.56752601459698,475
-248.02739101372765,523
-245.48795838995704,509
-242.94922795476816,493
-240.41119951956557,493
-237.8738728956746,507
-235.33724789434166,534
-232.80132432673452,513
-230.2661020039418,489
-227.73158073697357,525
-225.19776033676033,574
-222.66464061415422,608
-220.1322213799284,574
-217.60050244477725,567
-215.06948361931552,554
-212.53916471408013,558
-210.00954553952818,555
-207.48062590603843,526
-204.9524056239104,534
-202.4248845033651,559
-199.8980623545441,554
-197.37193898751036,540
-194.84651421224817,600
-192.32178783866232,613
-189.79775967657952,589
-187.27442953574644,621
-184.7517972258321,592
-182.2298625564256,630
-179.7086253370378,619
-177.18808537710026,580
-174.66824248596583,569
-172.14909647290835,600
-169.6306471471229,638
-167.11289431772548,620
-164.59583779375328,590
-162.07947738416453,608
-159.5638128978386,631
-157.04884414357605,694
-154.53457093009854,763
-152.02099306604828,753
-149.50811035998936,646
-146.99592262040665,592
-144.48442965570587,661
-141.97363127421409,667
-139.46352728417958,787
-136.95411749377126,844
-134.44540171107985,785
-131.93737974411636,678
-129.43005140081357,698
-126.92341648902493,863
-124.41747481652521,968
-121.91222619101006,1056
-119.40767042009657,1398
-116.90380731132257,1824
-114.40063667214702,1754
-111.8981583099503,1274
-109.3963720320337,1086
-106.89527764561933,1187
-104.39487495785067,1482
-101.89516377579241,1751
-99.39614390642998,2036
-96.89781515667039,2321
-94.40017733334128,2760
-91.90323024319173,3178
-89.40697369289148,3873
-86.91140748903172,4559
-84.41653143812482,4007
-81.92234534660395,2507
-79.42884902082358,1921
-76.93604226705907,3028
-74.4439248915071,5559
-71.95249670028534,7362
-69.46175749943245,8543
-66.97170709490854,7884
-64.48234529259423,6514
-61.99367189829195,5375
-59.50568671772464,4917
-57.01838955653636,4342
-54.53178022029283,4202
-52.045858514480074,4579
-49.560624244506016,5880
-47.07607721569923,6374
-44.59221723330904,5965
-42.10904410250669,4809
-39.62655762838392,4075
-37.14475761595372,3800
-34.66364387015028,3613
-32.18321619582866,4064
-29.70347439776515,4503
-27.224418280657005,5517
-24.74604764912317,6321
-22.26836230770266,8246
-19.7913620608565,14308
-17.315046712966478,25807
-14.83941606833514,35962
-12.36446993118659,48123
-9.89020810566592,65040
-7.416630395839093,65040
-4.94373660569363,65040
-2.471526539137585,65040
-6.821210263296962E-13,65040
2.47084320796705,65040
4.941003281093458,65040
7.410480415786196,65040
9.879274808531363,65040
12.347386655893956,65040
14.814816154518212,65040
17.28156350112681,65040
19.74762889252179,65040
22.21301252558385,65040
24.67771459727237,19701
27.141735304626195,3004
29.605074844762612,1564
32.06773341487792,1437
34.52971121224755,1195
36.99100843422559,1219
39.45162527824516,1188
41.91156194181792,1118
44.370818622535126,973
46.82939551806646,907
49.287292826160524,1032
51.74451074464503,1017
54.201049471426245,1012
56.65690920448981,866
59.112090141899785,812
61.56659248179983,813
64.02041642241159,815
66.4735621620365,796
68.92602989905402,767
71.37781983192338,732
73.82893215918205,760
76.27936707944684,792
78.72912479141326,763
81.17820549385567,831
83.62660938562783,897
86.07433666566146,888
88.5213875329681,663
90.96776218663751,692
93.41346082583925,710
95.85848364982041,742
98.30283085790859,763
100.7465026495089,738
103.18949922410604,723
105.63182078126385,732
108.07346752062438,746
110.51443964190923,680
112.95473734491827,611
115.39436082953114,610
117.83331029570547,715
120.27158594347827,694
122.7091879729652,672
125.1461165843615,632
127.58237197794062,628
130.01795435405518,613
132.4528639131364,691
134.88710085569494,717
137.32066538231982,690
139.75355769367923,636
142.1857779905207,649
144.61732647366978,603
147.04820334403132,630
149.47840880258934,677
151.90794305040674,676
154.33680628862487,765
156.76499871846443,870
159.19252054122433,959
161.61937195828352,1057
164.04555317109896,1120
166.47106438120693,1174
168.89590579022217,1364
171.320077599839,1376
173.7435800118302,1428
176.16641322804742,1427
178.58857745042144,1431
181.01007288096173,1537
183.43089972175687,1550
185.85105817497413,1568
188.27054844285988,1599
190.6893707277394,1557
193.10752523201643,1597
195.5250121581745,1647
197.9418317087751,1649
200.3579840864594,1630
202.7734694939469,1701
205.18828813403627,1732
207.6024402096051,1793
210.01592592360964,1794
212.42874547908548,1813
214.84089907914665,1773
217.2523869269868,1750
219.66320922587727,1794
222.0733661791695,1732
224.48285799029293,1776
226.8916848627572,1732
229.29984700014882,1788
231.7073446061355,1812
234.11417788446204,1821
236.520347038953,1809
238.92585227351185,1864
241.33069379212054,1826
243.73487179884035,1811
246.1383864978112,1791
248.541238093252,1799
250.9434267894609,1832
253.34495279081432,1895
255.74581630176783,1838
258.1460175268563,1852
260.54555667069314,1822
262.9444339379703,1866
265.3426495334594,1831
267.7402036620107,1872
270.1370965285529,1865
272.53332833809407,1781
274.9288992957214,1786
277.32380960660055,1782
279.718059475976,1792
282.1116491091717,1853
284.5045787115897,1808
286.89684848871195,1776
289.2884586460981,1835
291.67940938938807,1756
294.0697009242996,1854
296.4593334566299,1799
298.84830719225477,1831
301.23662233712923,1830
303.6242790972866,1840
306.01127767884,1789
308.39761828798066,1819
310.78330113097934,1784
313.16832641418534,1727
315.5526943440269,1695
317.9364051270112,1699
320.3194589697242,1716
322.70185607883093,1669
325.0835966610754,1760
327.4646809232805,1668
329.8451090723478,1630
332.2248813152577,1641
334.6039978590701,1632
336.9824589109231,1656
339.36026467803447,1572
341.7374153677,1644
344.113911187295,1657
346.48975234427337,1605
348.8649390461686,1581
351.2394715005918,1625
353.61334991523415,1598
355.9865744978655,1571
358.35914545633375,1529
360.73106299856715,1607
363.10232733257146,1568
365.47293866643247,1566
367.84289720831396,1536
370.2122031664593,1580
372.5808567491905,1537
374.9488581649083,1509
377.31620762209275,1554
379.6829053293021,1557
382.0489514951745,1484
384.4143463284262,1472
386.7790900378528,1536
389.14318283232853,1487
391.50662492080653,1503
393.86941651231916,1531
396.23155781597745,1560
398.5930490409713,1498
400.9538903965696,1526
403.3140820921202,1522
405.6736243370498,1554
408.03251734086336,1521
410.3907613131465,1431
412.74835646356166,1457
415.10530300185144,1449
417.4616011378372,1475
419.81725108141893,1485
422.1722530425758,1481
424.5266072313656,1536
426.880313857925,1432
429.2333731324701,1476
431.58578526529516,1563
433.9375504667738,1439
436.2886689473588,1457
438.63914091758113,1446
440.9889665880513,1436
443.33814616945835,1439
445.68667987257015,1414
448.03456790823395,1394
450.3818104873759,1432
452.72840782100013,1432
455.07436012019105,1392
457.41966759611057,1468
459.7643304600007,1367
462.10834892318155,1350
464.4517231970525,1438
466.79445349309174,1361
469.1365400228566,1430
471.4779829979826,1422
473.81878263018564,1409
476.15893913125876,1450
478.4984527130747,1450
480.8373235875855,1516
483.17555196682144,1505
485.5131380628919,1537
487.8500820879857,1560
490.1863842543697,1551
492.52204477439034,1703
494.8570638604725,1754
497.1914417251204,1866
499.52517858091653,2113
501.85827464052306,2449
504.19073011668036,2669
506.5225452222086,2761
508.85372017000566,2882
511.18425517304956,2869
513.514150444396,2959
515.8434061971808,3520
518.1720226446176,4169
520.4999999999999,4211
522.8273384766991,3860
525.1540382881666,3470
527.480099647932,2935
529.8055227696037,2404
532.1303078668694,2001
534.454455153496,1686
536.777964843328,1588
539.1008371502907,1567
541.4230722883866,1496
543.744670471698,1521
546.0656319143858,1449
548.3859568306899,1486
550.7056454349294,1507
553.0246979415016,1446
555.3431145648834,1430
557.6608955196306,1414
559.978041020377,1370
562.2945512818363,1473
564.6104265188006,1446
566.9256669461412,1515
569.2402727788082,1498
571.5542442318302,1450
573.8675815203156,1443
576.1802848594508,1500
578.4923544645015,1517
580.8037905508126,1478
583.114593333807,1486
585.4247630289875,1449
587.7342998519354,1469
590.0432040183106,1448
592.3514757438526,1494
594.6591152443794,1391
596.9661227357875,1426
599.2724984340531,1411
601.578242555231,1477
603.8833553154542,1509
606.1878369309362,1490
608.4916876179676,1414
610.7949075929192,1417
613.0974970722403,1512
615.3994562724587,1439
617.7007854101818,1490
620.0014847020951,1461
622.3015543649641,1452
624.6009946156324,1481
626.8998056710224,1494
629.1979877481361,1451
631.4955410640538,1448
633.7924658359349,1477
636.0887622810175,1486
638.3844306166192,1493
640.6794710601358,1465
642.9738838290426,1499
645.2676691408932,1450
647.5608272133207,1456
649.853358264037,1462
652.1452625108324,1496
654.4365401715764,1484
656.7271914642178,1448
659.0172166067838,1514
661.3066158173809,1473
663.5953893141935,1492
665.8835373154867,1525
668.1710600396028,1500
670.4579577049639,1499
672.7442305300709,1529
675.0298787335033,1532
677.3149025339197,1484
679.599302150058,1592
681.8830778007342,1404
684.1662297048437,1491
686.4487580813608,1547
688.7306631493387,1472
691.0119451279091,1497
693.2926042362834,1456
695.5726406937516,1544
697.8520547196814,1522
700.1308465335215,1503
702.4090163547982,1508
704.6865644031171,1506
706.9634908981619,1443
709.2397960596965,1431
711.5154801075631,1429
713.7905432616823,1469
716.0649857420548,1473
718.3388077687592,1469
720.612009561953,1468
722.8845913418733,1468
725.1565533288352,1502
727.427895743234,1531
729.6986188055427,1490
731.9687227363137,1504
734.238207756178,1434
736.5070740858458,1482
738.7753219461066,1436
741.0429515578281,1500
743.3099631419569,1514
745.5763569195191,1459
747.8421331116193,1456
750.1072919394409,1506
752.3718336242467,1496
754.6357583873777,1491
756.8990664502545,1527
759.1617580343765,1460
761.423833361321,1531
763.6852926527457,1480
765.9461361303862,1497
768.206364016058,1533
770.4659765316536,1508
772.7249738991469,1548
774.9833563405886,1538
777.2411240781092,1484
779.4982773339183,1556
781.7548163303044,1586
784.010741289634,1604
786.2660524343538,1578
788.5207499869881,1544
790.7748341701416,1551
793.0283052064964,1548
795.2811633188143,1521
797.5334087299362,1501
799.7850416627813,1540
802.0360623403484,1553
804.2864709857143,1488
806.5362678220353,1542
808.7854530725468,1560
811.0340269605625,1544
813.2819897094754,1557
815.5293415427581,1492
817.77608268396,1483
820.0222133567116,1529
822.2677337847211,1490
824.5126441917765,1537
826.7569448017433,1467
829.0006358385675,1533
831.2437175262731,1455
833.4861900889629,1464
835.7280537508192,1471
837.9693087361026,1481
840.2099552691533,1493
842.4499935743896,1518
844.689423876309,1504
846.9282463994886,1476
849.1664613685833,1548
851.4040690083276,1516
853.6410695435349,1507
855.877463199097,1546
858.1132501999847,1495
860.3484307712487,1523
862.5830051380175,1608
864.8169735254988,1522
867.0503361589791,1481
869.2830932638243,1521
871.5152450654786,1507
873.7467917894654,1575
875.9777336613873,1497
878.2080709069252,1499
880.4378037518389,1597
882.666932421968,1633
884.8954571432301,1533
887.1233781416219,1536
889.3506956432192,1560
891.5774098741766,1531
893.803521060728,1530
896.0290294291852,1557
898.2539352059397,1556
900.4782386174619,1549
902.7019398903011,1545
904.925039251085,1550
907.147536926521,1565
909.3694331433943,1501
911.59072812857,1524
913.8114221089921,1519
916.0315153116827,1524
918.2510079637437,1466
920.4699002923547,1572
922.6881925247761,1447
924.905884888345,1484
927.1229776104793,1521
929.3394709186747,1510
931.555365040506,1457
933.7706602036275,1516
935.9853566357709,1580
938.1994545647489,1582
940.4129542184515,1608
942.6258558248488,1556
944.8381596119883,1544
947.0498658079974,1530
949.2609746410825,1604
951.4714863395287,1526
953.6814011316998,1467
955.8907192460387,1501
958.0994409110671,1452
960.3075663553858,1538
962.5150958076741,1520
964.7220294966913,1466
966.928367651274,1455
969.1341105003388,1471
971.3392582728806,1494
973.5438111979742,1481
975.747769504772,1420
977.9511334225061,1519
980.153903180487,1474
982.3560790081052,1460
984.5576611348289,1479
986.7586497902058,1463
988.9590452038618,1375
991.158847605503,1434
993.3580572249133,1417
995.5566742919558,1390
997.7546990365728,1330
999.952131688785,1373
1002.1489724786926,1325
1004.3452216364743,1355
1006.5408793923874,1347
1008.7359459767691,1325
1010.9304216200343,1351
1013.1243065526781,1280
1015.3176010052733,1273
1017.510305208472,1298
1019.7024193930064,1252
1021.8939437896848,1233
1024.0848786293977,1252
1026.2752241431122,1285
1028.4649805618747,1253
1030.6541481168115,1294
1032.842727039127,1238
1035.0307175601051,1257
1037.2181199111074,1290
1039.4049343235752,1275
1041.591161029029,1239
1043.7768002590683,1257
1045.9618522453698,1222
1048.1463172196918,1225
1050.3301954138697,1215
1052.513487059818,1236
1054.69619238953,1248
1056.8783116350783,1219
1059.0598450286152,1230
1061.2407928023704,1188
1063.4211551886528,1211
1065.6009324198508,1219
1067.780124728432,1218
1069.9587323469414,1283
1072.1367555080046,1242
1074.314194444325,1215
1076.4910493886855,1196
1078.667320573947,1171
1080.843008233051,1210
1083.0181125990161,1229
1085.1926339049414,1250
1087.3665723840027,1177
1089.5399282694575,1203
1091.7127017946405,1180
1093.8848931929647,1236
1096.0565026979243,1172
1098.2275305430899,1175
1100.3979769621128,1193
1102.567842188722,1230
1104.737126456726,1147
1106.9058300000124,1171
1109.0739530525475,1162
1111.2414958483764,1162
1113.4084586216231,1165
1115.5748416064907,1224
1117.7406450372605,1177
1119.9058691482942,1136
1122.0705141740304,1207
1124.2345803489884,1202
1126.3980679077658,1156
1128.5609770850388,1149
1130.7233081155623,1152
1132.8850612341707,1165
1135.0462366757774,1231
1137.2068346753745,1201
1139.3668554680326,1143
1141.526299288901,1167
1143.68516637321,1171
1145.8434569562655,1163
1148.001171273455,1139
1150.158309560244,1188
1152.3148720521767,1156
1154.470858984876,1151
1156.626270594044,1152
1158.7811071154629,1187
1160.9353687849912,1170
1163.089055838569,1169
1165.242168512213,1121
1167.3947070420209,1112
1169.5466716641677,1166
1171.6980626149075,1136
1173.8488801305748,1121
1175.9991244475814,1133
1178.1487958024186,1139
1180.2978944316555,1169
1182.4464205719428,1147
1184.5943744600072,1147
1186.7417563326567,1119
1188.8885664267755,1172
1191.0348049793297,1139
1193.1804722273619,1105
1195.325568407995,1152
1197.4700937584303,1134
1199.614048515948,1155
1201.7574329179074,1132
1203.900247201746,1166
1206.042491604982,1152
1208.1841663652099,1133
1210.3252717201053,1167
1212.465807907422,1128
1214.6057751649923,1148
1216.7451737307279,1161
1218.8840038426192,1113
1221.0222657387353,1149
1223.1599596572241,1151
1225.2970858363137,1169
1227.4336445143094,1203
1229.5696359295966,1195
1231.705060320639,1174
1233.8399179259786,1122
1235.9742089842384,1205
1238.107933734118,1201
1240.2410924143974,1147
1242.373685263935,1145
1244.5057125216676,1165
1246.6371744266116,1176
1248.7680712178621,1155
1250.898403134593,1163
1253.028170416058,1192
1255.1573733015875,1178
1257.2860120305932,1191
1259.4140868425648,1173
1261.54159797707,1177
1263.6685456737569,1204
1265.7949301723515,1196
1267.9207517126597,1208
1270.046010534565,1188
1272.1707068780306,1180
1274.2948409830983,1191
1276.4184130898889,1200
1278.541423438603,1212
1280.6638722695184,1242
1282.785759822993,1219
1284.9070863394636,1264
1287.0278520594447,1261
1289.1480572235314,1218
1291.2677020723963,1255
1293.3867868467923,1275
1295.5053117875495,1254
1297.623277135579,1267
1299.740683131868,1317
1301.8575300174857,1319
1303.973818033578,1303
1306.0895474213703,1267
1308.2047184221678,1281
1310.3193312773528,1280
1312.4333862283888,1326
1314.5468835168163,1286
1316.659823384255,1315
1318.7722060724045,1301
1320.8840318230418,1317
1322.9953008780249,1334
1325.1060134792888,1354
1327.2161698688478,1313
1329.3257702887959,1353
1331.4348149813054,1383
1333.5433041886276,1291
1335.6512381530933,1296
1337.7586171171101,1327
1339.8654413231675,1377
1341.9717110138317,1256
1344.0774264317488,1332
1346.1825878196432,1310
1348.2871954203192,1313
1350.3912494766587,1239
1352.4947502316231,1285
1354.5976979282532,1236
1356.7000928096686,1281
1358.8019351190665,1329
1360.9032250997243,1254
1363.0039629949988,1286
1365.1041490483235,1289
1367.2037835032133,1260
1369.3028666032606,1277
1371.401398592137,1215
1373.4993797135926,1292
1375.5968102114575,1218
1377.6936903296396,1274
1379.7900203121262,1216
1381.8858004029835,1308
1383.9810308463561,1240
1386.075711886469,1211
1388.1698437676241,1270
1390.2634267342032,1167
1392.356461030667,1209
1394.4489469015557,1214
1396.5408845914872,1263
1398.6322743451592,1247
1400.7231164073469,1308
1402.813411022907,1236
1404.903158436773,1251
1406.9923588939578,1184
1409.0810126395531,1305
1411.1691199187303,1225
1413.2566809767386,1221
1415.343696058907,1250
1417.4301654106425,1279
1419.5160892774315,1311
1421.6014679048399,1280
1423.6863015385125,1215
1425.7705904241707,1314
1427.8543348076178,1248
1429.9375349347342,1303
1432.0201910514802,1285
1434.102303403894,1239
1436.1838722380944,1304
1438.2648978002767,1259
1440.3453803367174,1300
1442.4253200937692,1289
1444.5047173178677,1268
1446.5835722555234,1297
1448.6618851533285,1280
1450.739656257952,1303
1452.8168858161434,1272
1454.8935740747306,1277
1456.96972128062,1309
1459.045327680797,1357
1461.120393522327,1283
1463.1949190523528,1324
1465.2689045180973,1322
1467.3423501668608,1291
1469.415256246024,1348
1471.4876230030463,1333
1473.559450685465,1409
1475.6307395408976,1364
1477.7014898170391,1347
1479.771701761665,1366
1481.8413756226287,1352
1483.9105116478618,1411
1485.9791100853772,1324
1488.0471711832643,1378
1490.1146951896926,1360
1492.1816823529098,1359
1494.2481329212433,1453
1496.3140471430984,1400
1498.3794252669609,1414
1500.4442675413939,1410
1502.5085742150404,1440
1504.572345536622,1462
1506.6355817549388,1436
1508.6982831188702,1420
1510.7604498773744,1424
1512.8220822794883,1438
1514.8831805743293,1443
1516.9437450110909,1497
1519.003775839048,1404
1521.0632733075522,1441
1523.1222376660367,1455
1525.1806691640113,1441
1527.2385680510652,1481
1529.2959345768668,1494
1531.3527689911643,1463
1533.4090715437833,1463
1535.4648424846291,1526
1537.5200820636855,1489
1539.5747905310159,1612
1541.6289681367616,1544
1543.6826151311434,1569
1545.7357317644614,1639
1547.7883182870937,1575
1549.8403749494987,1640
1551.8919020022113,1617
1553.9428996958477,1641
1555.9933682811015,1671
1558.0433080087469,1694
1560.0927191296346,1758
1562.1416018946961,1716
1564.1899565549415,1765
1566.2377833614592,1768
1568.2850825654164,1767
1570.3318544180606,1745
1572.3780991707158,1719
1574.423817074788,1708
1576.4690083817595,1687
1578.5136733431923,1656
1580.5578122107272,1714
1582.601425236085,1644
1584.6445126710646,1636
1586.6870747675434,1559
1588.7291117774776,1578
1590.7706239529034,1552
1592.8116115459347,1568
1594.8520748087658,1511
1596.8920139936686,1405
1598.9314293529933,1440
1600.9703211391711,1388
1603.008689604711,1428
1605.0465350022005,1357
1607.0838575843068,1381
1609.1206576037753,1335
1611.1569353134305,1307
1613.1926909661765,1395
1615.2279248149953,1337
1617.2626371129481,1336
1619.2968281131757,1313
1621.3304980688963,1257
1623.3636472334088,1253
1625.39627586009,1230
1627.428384202396,1236
1629.459972513861,1241
1631.4910410480993,1269
1633.5215900588028,1225
1635.551619799744,1234
1637.5811305247717,1182
1639.6101224878166,1199
1641.6385959428862,1197
1643.6665511440683,1215
1645.693988345528,1151
1647.7209078015112,1197
1649.7473097663405,1209
1651.7731944944203,1185
1653.7985622402307,1201
1655.823413258333,1230
1657.847747803366,1112
1659.8715661300494,1164
1661.8948684931793,1231
1663.9176551476316,1157
1665.9399263483624,1156
1667.9616823504057,1146
1669.982923408873,1173
1672.0036497789574,1198
1674.0238617159293,1166
1676.043559475138,1162
1678.0627433120121,1187
1680.081413482059,1194
1682.0995702408654,1155
1684.117213844096,1183
1686.134344547495,1185
1688.1509626068864,1130
1690.1670682781705,1133
1692.182661817329,1146
1694.1977434804217,1172
1696.2123135235875,1201
1698.226372203043,1159
1700.2399197750851,1139
1702.2529564960905,1209
1704.2654826225112,1146
1706.277498410882,1128
1708.2890041178139,1151
1710.2999999999988,1179
1712.3104863142066,1125
1714.3204633172854,1162
1716.329931266163,1124
1718.3388904178469,1164
1720.3473410294214,1152
1722.3552833580516,1122
1724.3627176609807,1188
1726.3696441955308,1237
1728.3760632191033,1137
1730.3819749891782,1150
1732.3873797633146,1189
1734.3922777991502,1205
1736.3966693544012,1197
1738.4005546868639,1129
1740.4039340544127,1153
1742.406807715001,1120
1744.4091759266616,1188
1746.4110389475054,1128
1748.4123970357223,1164
1750.413250449582,1170
1752.4135994474318,1109
1754.4134442876993,1080
1756.4127852288902,1105
1758.4116225295893,1166
1760.4099564484595,1216
1762.407787244244,1167
1764.405115175764,1130
1766.4019405019203,1187
1768.3982634816916,1097
1770.3940843741357,1147
1772.3894034383907,1194
1774.3842209336717,1163
1776.378537119274,1140
1778.372352254571,1119
1780.3656665990156,1124
1782.3584804121397,1099
1784.3507939535534,1132
1786.3426074829463,1169
1788.3339212600863,1142
1790.3247355448211,1122
1792.3150505970766,1095
1794.3048666768573,1146
1796.2941840442477,1167
1798.2830029594106,1144
1800.2713236825884,1138
1802.2591464741004,1131
1804.2464715943465,1137
1806.2332993038058,1168
1808.2196298630352,1125
1810.2054635326708,1129
1812.190800573428,1146
1814.175641246101,1137
1816.1599858115628,1133
1818.1438345307652,1148
1820.127187664738,1123
1822.1100454745924,1193
1824.092408221516,1108
1826.0742761667766,1141
1828.055649571721,1113
1830.0365286977735,1137
1832.0169138064398,1122
1833.9968051593014,1120
1835.9762030180214,1194
1837.9551076443408,1106
1839.9335193000788,1135
1841.9114382471344,1130
1843.888864747485,1133
1845.8657990631878,1138
1847.842241456378,1132
1849.8181921892697,1113
1851.7936515241558,1163
1853.7686197234098,1103
1855.7430970494815,1165
1857.7170837649014,1163
1859.6905801322787,1107
1861.6635864143004,1131
1863.6361028737338,1160
1865.608129773424,1097
1867.5796673762961,1114
1869.5507159453537,1178
1871.521275743678,1174
1873.4913470344313,1108
1875.4609300808534,1171
1877.4300251462632,1141
1879.3986324940588,1166
1881.366752387717,1159
1883.3343850907936,1190
1885.3015308669228,1141
1887.268189979819,1146
1889.2343626932739,1169
1891.2000492711595,1182
1893.1652499774254,1161
1895.1299650761011,1170
1897.0941948312952,1140
1899.0579395071945,1187
1901.0211993680641,1171
1902.98397467825,1213
1904.9462657021745,1181
1906.9080727043415,1169
1908.869395949332,1186
1910.8302357018065,1175
1912.790592226504,1104
1914.7504657882428,1182
1916.7098566519212,1145
1918.6687650825133,1164
1920.6271913450764,1167
1922.5851357047422,1142
1924.5425984267245,1156
1926.499579776314,1131
1928.4560800188833,1143
1930.4120994198802,1160
1932.367638244833,1191
1934.32269675935,1111
1936.2772752291175,1135
1938.231373919899,1170
1940.1849930975404,1163
1942.1381330279637,1112
1944.0907939771696,1108
1946.0429762112412,1133
1947.9946799963363,1161
1949.9459055986945,1124
1951.896653284633,1115
1953.8469233205478,1147
1955.7967159729142,1142
1957.7460315082863,1081
1959.6948701932974,1128
1961.6432322946594,1189
1963.5911180791632,1097
1965.5385278136787,1142
1967.4854617651545,1116
1969.4319202006182,1110
1971.377903387176,1131
1973.3234115920136,1156
1975.268445082395,1135
1977.2130041256642,1151
1979.1570889892423,1152
1981.1006999406304,1164
1983.04383724741,1157
1984.986501177238,1185
1986.928691997853,1163
1988.8704099770712,1164
1990.811655382789,1140
1992.7524284829801,1162
1994.692729545698,1179
1996.6325588390755,1192
1998.5719166313224,1138
2000.5108031907307,1162
2002.4492187856677,1107
2004.387163684583,1117
2006.3246381560011,1156
2008.2616424685298,1094
2010.1981768908527,1113
2012.1342416917332,1146
2014.069837140014,1183
2016.0049635046162,1130
2017.9396210545406,1078
2019.8738100588666,1152
2021.8075307867502,1136
2023.740783507431,1158
2025.6735684902228,1168
2027.6058860045214,1133
2029.5377363198004,1085
2031.4691197056118,1143
2033.4000364315875,1154
2035.3304867674374,1132
2037.260470982952,1126
2039.189989347998,1100
2041.1190421325232,1154
2043.047629606554,1123
2044.9757520401945,1151
2046.9034097036288,1134
2048.8306028671195,1122
2050.7573318010086,1112
2052.683596775716,1170
2054.609398061742,1176
2056.5347359296647,1141
2058.4596106501403,1113
2060.384022493906,1091
2062.3079717317764,1120
2064.231458634646,1112
2066.1544834734873,1084
2068.077046519352,1092
2069.99914804337,1147
2071.9207883167524,1110
2073.8419676107865,1089
2075.7626861968406,1124
2077.6829443463607,1109
2079.6027423308715,1145
2081.522080421977,1097
2083.440958891362,1096
2085.359378010786,1126
2087.2773380520907,1116
2089.194839287196,1088
2091.111881988101,1088
2093.0284664268825,1192
2094.9445928756973,1141
2096.86026160678,1106
2098.775472892446,1125
2100.690227005088,1139
2102.604524217178,1162
2104.5183648012676,1109
2106.431749029985,1159
2108.34467717604,1142
2110.2571495122206,1111
2112.169166311393,1138
2114.080727846503,1082
2115.9918343905747,1092
2117.902486216711,1143
2119.8126835980956,1149
2121.722426807987,1145
2123.6317161197285,1107
2125.5405518067364,1122
2127.448934142509,1183
2129.356863400624,1125
2131.264339854737,1171
2133.1713637785815,1138
2135.077935445972,1140
2136.9840551308002,1158
2138.889723107037,1149
2140.7949396487334,1173
2142.699705030018,1156
2144.6040195250994,1160
2146.507883408264,1163
2148.4112969538774,1153
2150.3142604363848,1140
2152.2167741303097,1153
2154.1188383102535,1150
2156.0204532508997,1151
2157.9216192270064,1144
2159.822336513414,1205
2161.7226053850413,1153
2163.622426116884,1160
2165.5217989840185,1158
2167.4207242616,1175
2169.319202224862,1129
2171.2172331491165,1130
2173.1148173097563,1131
2175.0119549822507,1153
2176.90864644215,1166
2178.8048919650823,1170
2180.7006918267534,1203
2182.596046302952,1160
2184.4909556695407,1226
2186.3854202024645,1201
2188.279440177746,1134
2190.173015871487,1184
2192.066147559868,1184
2193.958835519149,1173
2195.851080025667,1175
2197.7428813558417,1152
2199.6342397861667,1206
2201.5251555932186,1121
2203.415629053651,1212
2205.3056604441986,1179
2207.19525004167,1269
2209.084398122958,1179
2210.9731049650327,1239
2212.861370844941,1204
2214.749196039812,1141
2216.636580826851,1174
2218.523525483344,1225
2220.410030286655,1208
2222.296095514226,1171
2224.1817214435805,1154
2226.066908352319,1155
2227.951656518121,1158
2229.835966218746,1191
2231.71983773203,1244
2233.6032713358913,1226
2235.486267308324,1240
2237.3688259274036,1209
2239.2509474712824,1183
2241.132632218193,1158
2243.013880446447,1270
2244.8946924344323,1202
2246.7750684606203,1225
2248.6550088035574,1191
2250.534513741871,1230
2252.413583554265,1176
2254.292218519526,1194
2256.170418916517,1137
2258.0481850241786,1147
2259.925517121534,1165
2261.8024154876825,1153
2263.678880401803,1218
2265.5549121431536,1171
2267.430510991071,1168
2269.305677224971,1171
2271.180411124348,1186
2273.0547129687766,1187
2274.9285830379076,1158
2276.8020216114737,1131
2278.6750289692845,1220
2280.5476053912294,1191
2282.4197511572766,1214
2284.2914665474727,1245
2286.162751841943,1177
2288.0336073208937,1216
2289.904033264608,1242
2291.774029953448,1203
2293.6435976678554,1189
2295.5127366883517,1196
2297.381447295534,1161
2299.2497297700825,1135
2301.1175843927526,1111
2302.9850114443825,1125
2304.852011205885,1077
2306.7185839582553,1039
2308.5847299825664,1068
2310.4504495599676,1074
2312.3157429716925,1040
2314.1806104990483,1058
2316.0450524234247,1060
2317.9090690262888,1050
2319.772660589186,1056
2321.635827393742,1056
2323.498569721661,1035
2325.3608878547248,1025
2327.2227820747967,1071
2329.0842526638157,1018
2330.945299903803,1072
2332.805924076857,1050
2334.6661254651535,1010
2336.525904350951,1067
2338.3852610165827,1120
2340.244195744464,1049
2342.102708817088,1062
2343.9608005170253,1067
2345.8184711269287,1018
2347.675720929526,1036
2349.532550207628,1052
2351.38895924412,1046
2353.24494832197,1066
2355.100517724223,1076
2356.955667734004,1071
2358.810398634514,1048
2360.664710709037,1065
2362.5186042409337,1094
2364.3720795136437,1070
2366.225136810686,1055
2368.0777764156583,1043
2369.929998612237,1043
2371.7818036841777,1046
2373.633191915315,1034
2375.484163589562,1031
2377.3347189909114,1031
2379.184858403434,1036
2381.03458211128,1029
2382.8838903986775,1055
2384.732783549936,1057
2386.5812618494406,1023
2388.4293255816588,1038
2390.2769750311327,1048
2392.1242104824883,1011
2393.971032220427,1041
2395.8174405297295,1073
2397.6634356952563,1095
2399.509018001947,1065
2401.3541877348193,1019
2403.1989451789705,1039
2405.043290619576,1019
2406.8872243418905,1069
2408.730746631247,1069
2410.5738577730594,1110
2412.4165580528183,1090
2414.258847756095,1080
2416.100727168537,1106
2417.9421965758734,1049
2419.783256263912,1061
2421.623906518538,1048
2423.4641476257157,1094
2425.303979871491,1067
2427.143403541984,1113
2428.9824189233977,1063
2430.821026302012,1098
2432.6592259641866,1099
2434.497018196361,1087
2436.33440328505,1098
2438.171381516851,1016
2440.00795317844,1059
2441.844118556569,1071
2443.6798779380724,1109
2445.5152316098606,1080
2447.3501798589255,1095
2449.1847229723357,1111
2451.0188612372403,1108
2452.8525949408663,1096
2454.6859243705203,1106
2456.518849813587,1095
2458.3513715575314,1052
2460.183489889895,1050
2462.015205098301,1103
2463.8465174704493,1097
2465.67742729412,1091
2467.5079348571717,1087
2469.338040447542,1014
2471.1677443532476,1046
2472.9970468623833,1050
2474.825948263123,1104
2476.6544488437207,1088
2478.482548892508,1084
2480.310248697896,1075
2482.137548548374,1089
2483.9644487325118,1058
2485.790949538956,1085
2487.617051256433,1086
2489.44275417375,1130
2491.26805857979,1088
2493.0929647635157,1072
2494.917473013971,1046
2496.741583620276,1062
2498.5652968716304,1071
2500.3886130573137,1123
2502.2115324666834,1073
2504.0340553891765,1076
2505.856182114308,1090
2507.6779129316733,1057
2509.499248130945,1056
2511.3201880018764,1099
2513.140732834298,1052
2514.9608829181198,1107
2516.780638543331,1067
2518.6,1108
2520.418967578273,1100
2522.237541568376,1049
2524.0557222606144,1012
2525.8735099453706,1053
2527.6909049131086,1083
2529.507907454368,1100
2531.32451785977,1127
2533.140736420014,1106
2534.9565634258774,1108
2536.771999168218,1101
2538.5870439379714,1062
2540.4016980261526,1136
2542.2159617238544,1090
2544.02983532225,1121
2545.8433191125914,1080
2547.656413386209,1086
2549.4691184345115,1146
2551.2814345489874,1124
2553.093362021204,1144
2554.904901142808,1126
2556.716052205523,1080
2558.526815501153,1145
2560.3371913215824,1084
2562.147179958771,1076
2563.956781704761,1156
2565.7659968516705,1137
2567.5748256916986,1105
2569.3832685171224,1101
2571.1913256202984,1095
2572.9989972936614,1093
2574.806283829725,1092
2576.613185521084,1139
2578.4197026604074,1165
2580.2258355404483,1131
2582.031584454035,1141
2583.836949694077,1120
2585.6419315535613,1161
2587.4465303255533,1137
2589.2507463032002,1169
2591.0545797797245,1206
2592.8580310484303,1107
2594.6611004026995,1119
2596.463788135992,1190
2598.266094541849,1118
2600.0680199138874,1158
2601.869564545807,1141
2603.670728731383,1144
2605.4715127644704,1146
2607.2719169390048,1130
2609.071941548998,1118
2610.8715868885433,1177
2612.670853251811,1161
2614.469740933052,1167
2616.268250226594,1127
2618.0663814268455,1138
2619.864134828292,1126
2621.6615107255006,1147
2623.458509413115,1139
2625.2551311858597,1123
2627.0513763385347,1156
2628.8472451660223,1176
2630.6427379632833,1148
2632.4378550253564,1139
2634.232596647359,1129
2636.026963124488,1154
2637.8209547520187,1082
2639.6145718253065,1081
2641.407814639785,1129
2643.200683490966,1120
2644.9931786744414,1114
2646.7853004858807,1104
2648.577049221034,1124
2650.3684251757277,1136
2652.1594286458712,1142
2653.9500599274484,1127
2655.740319316525,1092
2657.5302071092437,1131
2659.3197236018286,1150
2661.10886909058,1111
2662.8976438718782,1108
2664.686048242183,1105
2666.4740824980327,1189
2668.2617469360443,1136
2670.0490418529134,1115
2671.8359675454153,1126
2673.622524310403,1142
2675.408712444811,1121
2677.1945322456495,1103
2678.979984010009,1095
2680.76506803506,1117
2682.5497846180497,1124
2684.334134056306,1071
2686.1181166472343,1136
2687.9017326883213,1033
2689.6849824771293,1104
2691.4678663113013,1080
2693.2503844885596,1094
2695.032537306705,1098
2696.8143250636167,1079
2698.5957480572542,1060
2700.3768065856534,1083
2702.1575009469316,1118
2703.937831439283,1047
2705.717798360982,1078
2707.4974020103837,1067
2709.276642685917,1082
2711.055520686095,1062
2712.834036309506,1057
2714.612189854819,1068
2716.389981620782,1077
2718.1674119062204,1057
2719.944481010041,1076
2721.721189231226,1079
2723.4975368688415,1058
2725.273524222027,1009
2727.0491515900053,1027
2728.824419272075,1080
2730.5993275676146,1107
2732.3738767760838,1115
2734.148067197016,1055
2735.921899130031,1051
2737.6953728748194,1023
2739.468488731156,1026
2741.2412469988926,1044
2743.0136479779617,1035
2744.785691968372,1108
2746.5573792702116,1024
2748.3287101836504,1060
2750.099685008934,1073
2751.870304046388,1038
2753.640567596418,1085
2755.4104759595057,1060
2757.1800294362156,1080
2758.949228327187,1070
2760.7180729331412,1098
2762.486563554877,1041
2764.254700493272,1072
2766.022484049284,1002
2767.789914523947,1031
2769.5569922183786,1096
2771.3237174337705,1049
2773.090090471394,1049
2774.8561116326036,1053
2776.6217812188274,1039
2778.3870995315756,1050
2780.1520668724356,1038
2781.9166835430747,1068
2783.6809498452394,1056
2785.444866080754,1122
2787.2084325515225,1047
2788.971649559527,1038
2790.73451740683,1029
2792.4970363955713,1037
2794.2592068279705,1021
2796.0210290063264,1057
2797.7825032330147,1049
2799.543629810493,1052
2801.304409041296,1048
2803.0648412280366,1060
2804.8249266734088,1017
2806.5846656801846,1015
2808.344058551212,1040
2810.1031055894246,1085
2811.8618070978273,1004
2813.6201633795085,1000
2815.378174737636,996
2817.1358414754536,1079
2818.893163896285,1033
2820.6501423035334,1061
2822.4067770006814,1013
2824.1630682912883,1019
2825.9190164789957,1036
2827.6746218675207,1041
2829.429884760661,1039
2831.184805462294,1020
2832.9393842763743,1073
2834.693621506936,1042
2836.4475174580916,1063
2838.201072434034,1072
2839.954286739034,1046
2841.707160677441,1086
2843.459694553685,1065
2845.2118886722724,1030
2846.96374333779,1056
2848.7152588549034,1092
2850.4664355283567,1077
2852.217273662973,1030
2853.9677735636546,1020
2855.7179355353833,1058
2857.4677598832186,1056
2859.217246912299,1023
2860.9663969278427,1061
2862.715210235146,1059
2864.4636871395846,1003
2866.211827946614,1051
2867.9596329617652,1046
2869.7071024906536,1050
2871.4542368389684,1024
2873.20103631248,1058
2874.947501217038,993
2876.6936318585695,1059
2878.4394285430812,1068
2880.1848915766604,1036
2881.9300212654707,1033
2883.6748179157553,1034
2885.4192818338374,1031
2887.1634133261173,1042
2888.907212699077,1057
2890.6506802592744,1002
2892.393816313348,1082
2894.1366211680142,1057
2895.8790951300693,1033
2897.621238506388,1056
2899.363051603925,1070
2901.1045347297118,1087
2902.8456881908596,1029
2904.58651229456,1045
2906.327007348081,1054
2908.067173658772,1062
2909.8070115340597,1044
2911.5465212814497,1076
2913.285703208527,1045
2915.0245576229563,1039
2916.7630848324807,1086
2918.5012851449196,1055
2920.2391588681758,1047
2921.976706310227,997
2923.7139277791334,1104
2925.4508235830313,1066
2927.187394030137,982
2928.923639428745,1053
2930.6595600872306,1063
2932.395156314046,1052
2934.1304284177218,1075
2935.8653767068713,1092
2937.6000014901815,1061
2939.3343030764227,1057
2941.068281774442,1097
2942.8019378931644,1059
2944.5352717415976,1093
2946.2682836288236,1090
2948.0009738640065,1055
2949.7333427563885,1051
2951.465390615289,1014
2953.1971177501086,1052
2954.9285244703265,1046
2956.6596110855,1030
2958.3903779052657,1031
2960.1208252393385,1047
2961.8509533975125,1099
2963.5807626896617,1087
2965.3102534257378,1016
2967.0394259157715,1034
2968.768280469873,1058
2970.496817398232,1036
2972.2250370111146,1034
2973.952939618869,1026
2975.6805255319196,1040
2977.4077950607707,1049
2979.134748516006,1073
2980.861386208289,1082
2982.587708448359,1029
2984.313715547037,1009
2986.039407815222,1027
2987.764785563891,970
2989.489849104102,1002
2991.2145987469908,1011
2992.9390348037705,1014
2994.6631575857346,1039
2996.3869674042576,1026
2998.1104645707887,999
2999.83364939686,1025
3001.5565221940783,1059
3003.2790832741334,1033
3005.0013329487924,1077
3006.7232715298996,1016
3008.4448993293804,1070
3010.166216659239,1031
3011.887223831558,995
3013.607921158498,1045
3015.3283089522993,987
3017.0483875252826,1018
3018.7681571898443,1002
3020.4876182584626,1040
3022.2067710436927,1016
3023.9256158581707,1021
3025.644153014609,1027
3027.362382825801,1070
3029.0803056046193,1031
3030.797921664012,1025
3032.5152313170106,1022
3034.2322348767225,1014
3035.9489326563353,1032
3037.665324969115,1058
3039.3814121284063,1025
3041.097194447633,1036
3042.812672240299,1003
3044.5278458199855,1042
3046.2427155003525,997
3047.9572815951406,1008
3049.671544418167,1009
3051.38550428333,1014
3053.0991615046073,1048
3054.812516396051,1011
3056.5255692717974,1001
3058.2383204460575,997
3059.9507702331257,1060
3061.662918947372,1026
3063.3747669032446,989
3065.0863144152736,1044
3066.7975617980674,1061
3068.508509366309,1067
3070.219157434767,1019
3071.9295063182844,971
3073.639556331785,990
3075.3493077902704,1033
3077.058761008821,1023
3078.7679163025964,1070
3080.476773986837,993
3082.1853343768594,1032
3083.89359778806,1043
3085.6015645359153,1031
3087.3092349359786,1011
3089.016609303884,1016
3090.7236879553434,1046
3092.4304712061476,1031
3094.136959372166,1020
3095.843152769349,1009
3097.5490517137237,1029
3099.2546565213966,994
3100.959967508554,1042
3102.66498499146,1067
3104.3697092864577,1016
3106.0741407099695,1018
3107.778279578498,1025
3109.482126208622,980
3111.1856809170004,1032
3112.8889440203716,1031
3114.5919158355528,1032
3116.294596679439,1022
3117.996986869006,1024
3119.6990867213062,1018
3121.4008965534726,1006
3123.102416682717,1064
3124.803647426329,1035
3126.5045891016784,1040
3128.205242026213,1032
3129.90560651746,1035
3131.605682893025,1001
3133.3054714705922,1015
3135.0049725679282,1065
3136.7041865028714,1001
3138.4031135933465,1019
3140.101754157353,1008
3141.800108512971,1007
3143.498176978357,1076
3145.1959598717494,1044
3146.8934575114636,1020
3148.5906702158954,1000
3150.2875983035183,998
3151.9842420928853,968
3153.680601902627,1105
3155.376678051456,999
3157.07247085816,1034
3158.767980641609,1021
3160.463207720748,1040
3162.158152414606,1012
3163.8528150422862,1014
3165.5471959229726,1042
3167.2412953759303,1048
3168.9351137204976,992
3170.628651276098,1018
3172.3219083622307,1030
3174.014885298474,1019
3175.707582404485,1016
3177.4000000000005,1003
3179.092138404835,965
3180.7839979388846,1039
3182.47557892212,1013
3184.166881674594,1029
3185.8579065164386,1005
3187.5486537678626,1067
3189.2391237491547,1004
3190.9293167806827,1035
3192.6192331828934,1045
3194.3088732763117,984
3195.998237381542,1017
3197.687325819268,1038
3199.376138910251,998
3201.064676975334,1026
3202.7529403354347,1031
3204.4409293115523,1012
3206.1286442247647,1052
3207.816085396229,1039
3209.5032531471825,995
3211.190147798936,1042
3212.8767696728846,1005
3214.5631190905015,1032
3216.2491963733373,1010
3217.9350018430214,1011
3219.6205358212637,1014
3221.305798629851,1010
3222.990790590651,1056
3224.6755120256103,1011
3226.359963256751,982
3228.0441446061795,1000
3229.7280563960758,996
3231.411698948703,1020
3233.0950725863995,990
3234.778177631587,1028
3236.461014406761,987
3238.1435832345005,1022
3239.8258844374595,1012
3241.507918338374,1039
3243.1896852600576,1004
3244.8711855254023,1029
3246.552419457381,1024
3248.233387379042,1037
3249.914089613516,993
3251.59452648401,1036
3253.274698313813,1010
3254.95460542629,992
3256.6342481448855,1019
3258.313626793125,1025
3259.9927416946084,1003
3261.6715931730196,972
3263.3501815521176,1049
3265.0285071557437,1009
3266.706570307815,1011
3268.3843713323286,1024
3270.0619105533615,1012
3271.739188295068,1010
3273.4162048816834,1029
3275.0929606375184,1054
3276.769455886966,1001
3278.445690954498,992
3280.1216661646613,1026
3281.797381842087,1001
3283.4728383114807,1021
3285.1480358976296,1024
3286.8229749253996,1012
3288.4976557197333,1000
3290.172078605655,1009
3291.846243908266,1013
3293.5201519527463,990
3295.193803064357,996
3296.8671975684374,975
3298.5403357904024,997
3300.21321805575,1021
3301.8858446900567,1021
3303.558216018975,1023
3305.23033236824,1014
3306.9021940636603,1050
3308.57380143113,1071
3310.2451547966184,1003
3311.916254486174,976
3313.5871008259246,1020
3315.2576941420766,1015
3316.9280347609147,999
3318.5981230088046,1021
3320.2679592121895,997
3321.9375436975924,990
3323.606876791612,975
3325.27595882093,1062
3326.944790112305,1035
3328.6133709925753,1007
3330.2817017886573,961
3331.949782827547,1036
3333.617614436319,977
3335.2851969421245,1000
3336.952530672199,1010
3338.619615953853,1010
3340.286453114475,1020
3341.9530424815357,1018
3343.619384382583,1024
3345.2854791452437,990
3346.951327097224,1030
3348.6169285663073,1047
3350.2822838803577,1017
3351.947393367319,977
3353.61225735521,972
3355.2768761721345,1003
3356.9412501462693,984
3358.605379605873,984
3360.2692648792827,997
3361.9329062949146,1032
3363.596304181263,1023
