CollectionTime,7/9/2024 4:04:31 PM
ExposureUsed,3
CalibratedSpectrum
-962.7078968117929,428
-959.9714848408522,439
-957.2358232597828,443
-954.5009119013725,426
-951.7667505983302,432
-949.0333391832855,442
-946.3006774887896,465
-943.5687653473143,453
-940.837602591253,430
-938.1071890529199,431
-935.3775245645503,435
-932.6486089583007,437
-929.9204420662485,449
-927.1930237203925,448
-924.4663537526524,428
-921.7404319948689,439
-919.0152582788041,456
-916.2908324361409,479
-913.5671542984834,471
-910.8442236973568,435
-908.1220404642074,463
-905.4006044304027,465
-902.679915427231,441
-899.959973285902,438
-897.2407778375464,443
-894.5223289132158,445
-891.8046263438832,445
-889.0876699604426,455
-886.3714595937089,428
-883.6559950744183,442
-880.9412762332282,452
-878.2273029007168,445
-875.5140749073835,429
-872.8015920836489,423
-870.0898542598545,434
-867.3788612662631,437
-864.6686129330585,450
-861.9591090903457,439
-859.2503495681506,458
-856.5423341964203,454
-853.8350628050229,426
-851.1285352237478,447
-848.4227512823054,460
-845.7177108103272,433
-843.0134136373656,434
-840.3098595928943,464
-837.6070485063082,472
-834.9049802069229,473
-832.2036545239757,459
-829.5030712866244,473
-826.8032303239481,460
-824.1041314649472,470
-821.4057745385428,451
-818.7081593735775,440
-816.0112857988148,458
-813.3151536429393,455
-810.6197627345566,440
-807.9251129021936,477
-805.2312039742981,452
-802.5380357792392,455
-799.8456081453069,459
-797.1539209007124,481
-794.462973873588,467
-791.772766891987,486
-789.083299783884,493
-786.3945723771743,469
-783.7065844996748,470
-781.0193359791231,440
-778.3328266431781,472
-775.6470563194197,470
-772.9620248353489,488
-770.2777320183878,460
-767.5941776958798,484
-764.9113616950891,461
-762.2292838432011,475
-759.5479439673222,482
-756.8673418944801,471
-754.1874774516235,470
-751.5083504656222,494
-748.8299607632671,473
-746.15230817127,456
-743.475392516264,490
-740.7992136248035,483
-738.1237713233636,462
-735.4490654383407,496
-732.7750957960521,506
-730.1018622227365,481
-727.4293645445534,480
-724.7576025875837,484
-722.0865761778291,498
-719.4162851412126,481
-716.7467293035781,472
-714.0779084906909,476
-711.409822528237,460
-708.7424712418238,480
-706.0758544569796,501
-703.4099719991541,479
-700.7448236937178,514
-698.0804093659622,484
-695.4167288411002,522
-692.7537819442656,484
-690.0915685005134,467
-687.4300883348199,504
-684.7693412720819,514
-682.1093271371178,512
-679.4500457546669,496
-676.7914969493897,512
-674.1336805458676,498
-671.4765963686034,489
-668.8202442420206,525
-666.1646239904642,513
-663.5097354382001,475
-660.8555784094151,492
-658.2021527282176,500
-655.5494582186366,507
-652.8974947046223,515
-650.2462620100463,501
-647.5957599587009,528
-644.9459883742998,504
-642.2969470804776,539
-639.6486359007902,526
-637.0010546587141,530
-634.3542031776476,531
-631.7080812809096,516
-629.0626887917401,521
-626.4180255333008,496
-623.7740913286734,523
-621.1308860008619,525
-618.4884093727904,531
-615.8466612673046,535
-613.2056415071715,517
-610.5653499150785,535
-607.9257863136347,548
-605.28695052537,532
-602.6488423727357,534
-600.0114616781036,525
-597.3748082637674,544
-594.7388819519412,547
-592.1036825647604,547
-589.4692099242818,545
-586.8354638524829,541
-584.2024441712624,554
-581.5701507024403,547
-578.9385832677575,550
-576.3077416888759,592
-573.6776257873787,577
-571.0482353847704,553
-568.4195703024757,576
-565.7916303618415,574
-563.164415384135,552
-560.5379251905453,554
-557.9121596021815,544
-555.2871184400748,557
-552.6628015251767,541
-550.0392086783606,540
-547.4163397204204,536
-544.794194472071,562
-542.1727727539491,572
-539.5520743866118,579
-536.9320991905377,573
-534.3128469861261,611
-531.6943175936979,611
-529.0765108334947,628
-526.4594265256793,715
-523.8430644903358,760
-521.2274245474689,879
-518.612506517005,868
-515.9983102187913,908
-513.3848354725959,873
-510.77208209810846,912
-508.16004991493924,947
-505.5487387426199,1069
-502.9381484006032,1100
-500.3282787082628,1070
-497.71912948489364,1035
-495.1107005497117,935
-492.5029917218539,837
-489.8960028203786,778
-487.28973366426493,764
-484.68418407241325,693
-482.07935386364494,698
-479.47524285670266,669
-476.87185087025,664
-474.2691777228715,644
-471.66722323307334,680
-469.0659872192821,700
-466.4654694998459,684
-463.86566989303384,684
-461.26658821703614,719
-458.66822428996414,679
-456.07057792985,705
-453.4736489546475,702
-450.877437182231,684
-448.28194243039627,659
-445.68716451686,682
-443.09310325926003,667
-440.49975847515555,709
-437.9071299820263,668
-435.31521759727354,683
-432.72402113821954,681
-430.13354042210767,691
-427.5437752661022,716
-424.95472548728867,736
-422.36639090267386,684
-419.7787713291855,706
-417.1918665836721,728
-414.60567648290385,723
-412.0202008435715,733
-409.4354394822874,721
-406.8513922155845,768
-404.26805885991723,746
-401.685439231661,718
-399.103533147112,775
-396.522340422488,733
-393.9418608739278,728
-391.3620943174908,672
-388.7830405691583,704
-386.2046994448317,706
-383.6270707603344,666
-381.05015433141045,650
-378.473949973725,638
-375.8984575028645,622
-373.32367673433623,522
-370.74960748356875,503
-368.1762495659117,491
-365.60360279663576,492
-363.03166699093265,466
-360.4604419639154,462
-357.8899275306178,449
-355.32012350599507,438
-352.7510297049233,441
-350.1826459421999,440
-347.61497203254316,416
-345.04800779059235,425
-342.4817530309082,422
-339.91620756797226,419
-337.35137121618743,404
-334.7872437898774,413
-332.22382510328725,423
-329.66111497058273,435
-327.09911320585127,451
-324.53781962310075,436
-321.9772340362607,444
-319.4173562591816,430
-316.8581861056348,430
-314.2997233893127,408
-311.7419679238294,404
-309.1849195227194,435
-306.62857799943856,425
-304.0729431673641,461
-301.51801483979375,482
-298.963792829947,465
-296.41027695096386,468
-293.85746701590574,447
-291.3053628377552,469
-288.7539642294155,450
-286.2032710037115,451
-283.65328297338897,455
-281.1039999511146,476
-278.5554217494762,485
-276.007548180983,477
-273.4603790580651,513
-270.9139141930734,455
-268.3681533982807,463
-265.8230964858798,451
-263.27874326798565,481
-260.7350935566336,482
-258.1921471637804,507
-255.6499039013039,500
-253.10836358100266,498
-250.56752601459698,494
-248.02739101372765,525
-245.48795838995704,514
-242.94922795476816,488
-240.41119951956557,519
-237.8738728956746,511
-235.33724789434166,548
-232.80132432673452,514
-230.2661020039418,513
-227.73158073697357,551
-225.19776033676033,545
-222.66464061415422,547
-220.1322213799284,547
-217.60050244477725,538
-215.06948361931552,560
-212.53916471408013,590
-210.00954553952818,594
-207.48062590603843,551
-204.9524056239104,567
-202.4248845033651,591
-199.8980623545441,577
-197.37193898751036,583
-194.84651421224817,592
-192.32178783866232,639
-189.79775967657952,579
-187.27442953574644,579
-184.7517972258321,609
-182.2298625564256,630
-179.7086253370378,626
-177.18808537710026,600
-174.66824248596583,600
-172.14909647290835,587
-169.6306471471229,632
-167.11289431772548,632
-164.59583779375328,616
-162.07947738416453,596
-159.5638128978386,588
-157.04884414357605,640
-154.53457093009854,708
-152.02099306604828,696
-149.50811035998936,665
-146.99592262040665,648
-144.48442965570587,651
-141.97363127421409,650
-139.46352728417958,757
-136.95411749377126,790
-134.44540171107985,810
-131.93737974411636,683
-129.43005140081357,706
-126.92341648902493,818
-124.41747481652521,935
-121.91222619101006,1001
-119.40767042009657,1315
-116.90380731132257,1637
-114.40063667214702,1542
-111.8981583099503,1296
-109.3963720320337,1180
-106.89527764561933,1381
-104.39487495785067,1503
-101.89516377579241,1563
-99.39614390642998,1859
-96.89781515667039,2138
-94.40017733334128,2682
-91.90323024319173,3065
-89.40697369289148,3705
-86.91140748903172,4272
-84.41653143812482,3537
-81.92234534660395,2250
-79.42884902082358,1803
-76.93604226705907,3096
-74.4439248915071,4879
-71.95249670028534,6409
-69.46175749943245,7016
-66.97170709490854,6924
-64.48234529259423,6122
-61.99367189829195,5602
-59.50568671772464,5435
-57.01838955653636,4867
-54.53178022029283,4564
-52.045858514480074,5271
-49.560624244506016,7559
-47.07607721569923,8103
-44.59221723330904,7899
-42.10904410250669,6923
-39.62655762838392,6094
-37.14475761595372,5600
-34.66364387015028,5575
-32.18321619582866,5540
-29.70347439776515,5674
-27.224418280657005,6440
-24.74604764912317,7306
-22.26836230770266,8660
-19.7913620608565,13654
-17.315046712966478,22266
-14.83941606833514,30537
-12.36446993118659,41751
-9.89020810566592,65040
-7.416630395839093,65040
-4.94373660569363,65040
-2.471526539137585,65040
-6.821210263296962E-13,65040
2.47084320796705,65040
4.941003281093458,65040
7.410480415786196,65040
9.879274808531363,65040
12.347386655893956,65040
14.814816154518212,65040
17.28156350112681,65040
19.74762889252179,65040
22.21301252558385,65040
24.67771459727237,18895
27.141735304626195,3304
29.605074844762612,1820
32.06773341487792,1668
34.52971121224755,1655
36.99100843422559,1356
39.45162527824516,1314
41.91156194181792,1300
44.370818622535126,1021
46.82939551806646,1016
49.287292826160524,1028
51.74451074464503,1006
54.201049471426245,1028
56.65690920448981,985
59.112090141899785,877
61.56659248179983,887
64.02041642241159,964
66.4735621620365,922
68.92602989905402,831
71.37781983192338,772
73.82893215918205,815
76.27936707944684,1005
78.72912479141326,962
81.17820549385567,917
83.62660938562783,774
86.07433666566146,768
88.5213875329681,709
90.96776218663751,709
93.41346082583925,676
95.85848364982041,716
98.30283085790859,721
100.7465026495089,811
103.18949922410604,803
105.63182078126385,801
108.07346752062438,839
110.51443964190923,728
112.95473734491827,712
115.39436082953114,640
117.83331029570547,682
120.27158594347827,646
122.7091879729652,731
125.1461165843615,711
127.58237197794062,659
130.01795435405518,697
132.4528639131364,800
134.88710085569494,763
137.32066538231982,704
139.75355769367923,700
142.1857779905207,722
144.61732647366978,728
147.04820334403132,684
149.47840880258934,672
151.90794305040674,731
154.33680628862487,819
156.76499871846443,874
159.19252054122433,967
161.61937195828352,1055
164.04555317109896,1121
166.47106438120693,1250
168.89590579022217,1320
171.320077599839,1395
173.7435800118302,1439
176.16641322804742,1523
178.58857745042144,1608
181.01007288096173,1646
183.43089972175687,1685
185.85105817497413,1713
188.27054844285988,1611
190.6893707277394,1672
193.10752523201643,1650
195.5250121581745,1735
197.9418317087751,1784
200.3579840864594,1725
202.7734694939469,1744
205.18828813403627,1790
207.6024402096051,1895
210.01592592360964,1885
212.42874547908548,1849
214.84089907914665,1880
217.2523869269868,1884
219.66320922587727,1879
222.0733661791695,1868
224.48285799029293,1879
226.8916848627572,1899
229.29984700014882,1927
231.7073446061355,1921
234.11417788446204,1882
236.520347038953,1882
238.92585227351185,1918
241.33069379212054,1860
243.73487179884035,1888
246.1383864978112,1921
248.541238093252,1981
250.9434267894609,1826
253.34495279081432,1914
255.74581630176783,1938
258.1460175268563,1943
260.54555667069314,1959
262.9444339379703,1943
265.3426495334594,1951
267.7402036620107,1939
270.1370965285529,1954
272.53332833809407,1906
274.9288992957214,1862
277.32380960660055,1881
279.718059475976,1903
282.1116491091717,1937
284.5045787115897,1852
286.89684848871195,1848
289.2884586460981,1899
291.67940938938807,1937
294.0697009242996,1868
296.4593334566299,1860
298.84830719225477,1912
301.23662233712923,1880
303.6242790972866,1807
306.01127767884,1875
308.39761828798066,1844
310.78330113097934,1814
313.16832641418534,1815
315.5526943440269,1785
317.9364051270112,1775
320.3194589697242,1748
322.70185607883093,1744
325.0835966610754,1716
327.4646809232805,1682
329.8451090723478,1689
332.2248813152577,1697
334.6039978590701,1718
336.9824589109231,1770
339.36026467803447,1702
341.7374153677,1683
344.113911187295,1734
346.48975234427337,1716
348.8649390461686,1620
351.2394715005918,1645
353.61334991523415,1692
355.9865744978655,1626
358.35914545633375,1638
360.73106299856715,1643
363.10232733257146,1629
365.47293866643247,1688
367.84289720831396,1645
370.2122031664593,1631
372.5808567491905,1651
374.9488581649083,1603
377.31620762209275,1603
379.6829053293021,1571
382.0489514951745,1555
384.4143463284262,1572
386.7790900378528,1547
389.14318283232853,1519
391.50662492080653,1608
393.86941651231916,1624
396.23155781597745,1644
398.5930490409713,1645
400.9538903965696,1567
403.3140820921202,1518
405.6736243370498,1646
408.03251734086336,1523
410.3907613131465,1532
412.74835646356166,1537
415.10530300185144,1517
417.4616011378372,1623
419.81725108141893,1524
422.1722530425758,1466
424.5266072313656,1515
426.880313857925,1547
429.2333731324701,1539
431.58578526529516,1504
433.9375504667738,1599
436.2886689473588,1562
438.63914091758113,1567
440.9889665880513,1467
443.33814616945835,1555
445.68667987257015,1456
448.03456790823395,1480
450.3818104873759,1446
452.72840782100013,1515
455.07436012019105,1518
457.41966759611057,1455
459.7643304600007,1490
462.10834892318155,1464
464.4517231970525,1455
466.79445349309174,1465
469.1365400228566,1499
471.4779829979826,1457
473.81878263018564,1394
476.15893913125876,1485
478.4984527130747,1510
480.8373235875855,1591
483.17555196682144,1612
485.5131380628919,1646
487.8500820879857,1628
490.1863842543697,1715
492.52204477439034,1763
494.8570638604725,1861
497.1914417251204,2084
499.52517858091653,2288
501.85827464052306,2469
504.19073011668036,2646
506.5225452222086,2746
508.85372017000566,2685
511.18425517304956,2704
513.514150444396,2737
515.8434061971808,3400
518.1720226446176,4102
520.4999999999999,4234
522.8273384766991,3986
525.1540382881666,3452
527.480099647932,3031
529.8055227696037,2410
532.1303078668694,2015
534.454455153496,1776
536.777964843328,1636
539.1008371502907,1659
541.4230722883866,1503
543.744670471698,1524
546.0656319143858,1596
548.3859568306899,1512
550.7056454349294,1578
553.0246979415016,1478
555.3431145648834,1512
557.6608955196306,1475
559.978041020377,1422
562.2945512818363,1478
564.6104265188006,1498
566.9256669461412,1519
569.2402727788082,1564
571.5542442318302,1513
573.8675815203156,1499
576.1802848594508,1481
578.4923544645015,1528
580.8037905508126,1588
583.114593333807,1553
585.4247630289875,1522
587.7342998519354,1500
590.0432040183106,1497
592.3514757438526,1552
594.6591152443794,1500
596.9661227357875,1499
599.2724984340531,1576
601.578242555231,1553
603.8833553154542,1520
606.1878369309362,1555
608.4916876179676,1562
610.7949075929192,1525
613.0974970722403,1519
615.3994562724587,1524
617.7007854101818,1508
620.0014847020951,1452
622.3015543649641,1573
624.6009946156324,1505
626.8998056710224,1566
629.1979877481361,1528
631.4955410640538,1474
633.7924658359349,1562
636.0887622810175,1509
638.3844306166192,1479
640.6794710601358,1567
642.9738838290426,1495
645.2676691408932,1458
647.5608272133207,1523
649.853358264037,1521
652.1452625108324,1550
654.4365401715764,1540
656.7271914642178,1570
659.0172166067838,1571
661.3066158173809,1534
663.5953893141935,1577
665.8835373154867,1554
668.1710600396028,1569
670.4579577049639,1557
672.7442305300709,1545
675.0298787335033,1564
677.3149025339197,1515
679.599302150058,1560
681.8830778007342,1512
684.1662297048437,1578
686.4487580813608,1540
688.7306631493387,1589
691.0119451279091,1593
693.2926042362834,1571
695.5726406937516,1563
697.8520547196814,1566
700.1308465335215,1549
702.4090163547982,1584
704.6865644031171,1555
706.9634908981619,1532
709.2397960596965,1509
711.5154801075631,1476
713.7905432616823,1508
716.0649857420548,1539
718.3388077687592,1530
720.612009561953,1527
722.8845913418733,1569
725.1565533288352,1576
727.427895743234,1528
729.6986188055427,1518
731.9687227363137,1574
734.238207756178,1593
736.5070740858458,1592
738.7753219461066,1593
741.0429515578281,1563
743.3099631419569,1550
745.5763569195191,1606
747.8421331116193,1570
750.1072919394409,1609
752.3718336242467,1567
754.6357583873777,1590
756.8990664502545,1538
759.1617580343765,1495
761.423833361321,1563
763.6852926527457,1583
765.9461361303862,1503
768.206364016058,1600
770.4659765316536,1566
772.7249738991469,1558
774.9833563405886,1580
777.2411240781092,1576
779.4982773339183,1562
781.7548163303044,1568
784.010741289634,1610
786.2660524343538,1687
788.5207499869881,1651
790.7748341701416,1640
793.0283052064964,1586
795.2811633188143,1578
797.5334087299362,1646
799.7850416627813,1643
802.0360623403484,1554
804.2864709857143,1613
806.5362678220353,1617
808.7854530725468,1568
811.0340269605625,1629
813.2819897094754,1709
815.5293415427581,1604
817.77608268396,1573
820.0222133567116,1622
822.2677337847211,1560
824.5126441917765,1553
826.7569448017433,1575
829.0006358385675,1617
831.2437175262731,1600
833.4861900889629,1537
835.7280537508192,1588
837.9693087361026,1586
840.2099552691533,1558
842.4499935743896,1593
844.689423876309,1635
846.9282463994886,1519
849.1664613685833,1553
851.4040690083276,1583
853.6410695435349,1581
855.877463199097,1562
858.1132501999847,1566
860.3484307712487,1598
862.5830051380175,1571
864.8169735254988,1533
867.0503361589791,1612
869.2830932638243,1564
871.5152450654786,1556
873.7467917894654,1603
875.9777336613873,1579
878.2080709069252,1657
880.4378037518389,1602
882.666932421968,1593
884.8954571432301,1632
887.1233781416219,1604
889.3506956432192,1604
891.5774098741766,1619
893.803521060728,1601
896.0290294291852,1603
898.2539352059397,1594
900.4782386174619,1589
902.7019398903011,1601
904.925039251085,1588
907.147536926521,1530
909.3694331433943,1598
911.59072812857,1542
913.8114221089921,1677
916.0315153116827,1579
918.2510079637437,1538
920.4699002923547,1566
922.6881925247761,1568
924.905884888345,1570
927.1229776104793,1570
929.3394709186747,1523
931.555365040506,1517
933.7706602036275,1574
935.9853566357709,1538
938.1994545647489,1583
940.4129542184515,1558
942.6258558248488,1533
944.8381596119883,1613
947.0498658079974,1544
949.2609746410825,1563
951.4714863395287,1534
953.6814011316998,1550
955.8907192460387,1594
958.0994409110671,1614
960.3075663553858,1549
962.5150958076741,1546
964.7220294966913,1505
966.928367651274,1480
969.1341105003388,1551
971.3392582728806,1482
973.5438111979742,1560
975.747769504772,1506
977.9511334225061,1509
980.153903180487,1518
982.3560790081052,1503
984.5576611348289,1541
986.7586497902058,1494
988.9590452038618,1486
991.158847605503,1494
993.3580572249133,1414
995.5566742919558,1437
997.7546990365728,1405
999.952131688785,1393
1002.1489724786926,1454
1004.3452216364743,1383
1006.5408793923874,1388
1008.7359459767691,1324
1010.9304216200343,1325
1013.1243065526781,1329
1015.3176010052733,1354
1017.510305208472,1295
1019.7024193930064,1301
1021.8939437896848,1372
1024.0848786293977,1355
1026.2752241431122,1260
1028.4649805618747,1298
1030.6541481168115,1328
1032.842727039127,1322
1035.0307175601051,1307
1037.2181199111074,1300
1039.4049343235752,1266
1041.591161029029,1268
1043.7768002590683,1272
1045.9618522453698,1222
1048.1463172196918,1288
1050.3301954138697,1299
1052.513487059818,1321
1054.69619238953,1279
1056.8783116350783,1301
1059.0598450286152,1336
1061.2407928023704,1207
1063.4211551886528,1244
1065.6009324198508,1246
1067.780124728432,1291
1069.9587323469414,1240
1072.1367555080046,1255
1074.314194444325,1284
1076.4910493886855,1248
1078.667320573947,1295
1080.843008233051,1246
1083.0181125990161,1250
1085.1926339049414,1233
1087.3665723840027,1233
1089.5399282694575,1225
1091.7127017946405,1220
1093.8848931929647,1260
1096.0565026979243,1255
1098.2275305430899,1240
1100.3979769621128,1256
1102.567842188722,1233
1104.737126456726,1206
1106.9058300000124,1217
1109.0739530525475,1230
1111.2414958483764,1186
1113.4084586216231,1237
1115.5748416064907,1209
1117.7406450372605,1202
1119.9058691482942,1220
1122.0705141740304,1223
1124.2345803489884,1192
1126.3980679077658,1233
1128.5609770850388,1246
1130.7233081155623,1210
1132.8850612341707,1173
1135.0462366757774,1160
1137.2068346753745,1188
1139.3668554680326,1250
1141.526299288901,1181
1143.68516637321,1175
1145.8434569562655,1147
1148.001171273455,1183
1150.158309560244,1199
1152.3148720521767,1211
1154.470858984876,1212
1156.626270594044,1182
1158.7811071154629,1263
1160.9353687849912,1192
1163.089055838569,1151
1165.242168512213,1150
1167.3947070420209,1187
1169.5466716641677,1190
1171.6980626149075,1214
1173.8488801305748,1197
1175.9991244475814,1197
1178.1487958024186,1172
1180.2978944316555,1213
1182.4464205719428,1170
1184.5943744600072,1152
1186.7417563326567,1137
1188.8885664267755,1239
1191.0348049793297,1186
1193.1804722273619,1196
1195.325568407995,1226
1197.4700937584303,1182
1199.614048515948,1218
1201.7574329179074,1166
1203.900247201746,1191
1206.042491604982,1217
1208.1841663652099,1185
1210.3252717201053,1182
1212.465807907422,1193
1214.6057751649923,1168
1216.7451737307279,1208
1218.8840038426192,1177
1221.0222657387353,1227
1223.1599596572241,1225
1225.2970858363137,1214
1227.4336445143094,1243
1229.5696359295966,1131
1231.705060320639,1184
1233.8399179259786,1233
1235.9742089842384,1256
1238.107933734118,1203
1240.2410924143974,1257
1242.373685263935,1258
1244.5057125216676,1179
1246.6371744266116,1194
1248.7680712178621,1200
1250.898403134593,1275
1253.028170416058,1263
1255.1573733015875,1278
1257.2860120305932,1213
1259.4140868425648,1234
1261.54159797707,1235
1263.6685456737569,1221
1265.7949301723515,1240
1267.9207517126597,1231
1270.046010534565,1229
1272.1707068780306,1213
1274.2948409830983,1242
1276.4184130898889,1213
1278.541423438603,1357
1280.6638722695184,1256
1282.785759822993,1237
1284.9070863394636,1303
1287.0278520594447,1318
1289.1480572235314,1325
1291.2677020723963,1299
1293.3867868467923,1261
1295.5053117875495,1297
1297.623277135579,1321
1299.740683131868,1325
1301.8575300174857,1352
1303.973818033578,1405
1306.0895474213703,1394
1308.2047184221678,1369
1310.3193312773528,1394
1312.4333862283888,1414
1314.5468835168163,1412
1316.659823384255,1377
1318.7722060724045,1426
1320.8840318230418,1418
1322.9953008780249,1430
1325.1060134792888,1409
1327.2161698688478,1410
1329.3257702887959,1378
1331.4348149813054,1435
1333.5433041886276,1410
1335.6512381530933,1388
1337.7586171171101,1393
1339.8654413231675,1328
1341.9717110138317,1350
1344.0774264317488,1396
1346.1825878196432,1368
1348.2871954203192,1360
1350.3912494766587,1344
1352.4947502316231,1352
1354.5976979282532,1384
1356.7000928096686,1323
1358.8019351190665,1384
1360.9032250997243,1335
1363.0039629949988,1406
1365.1041490483235,1255
1367.2037835032133,1322
1369.3028666032606,1326
1371.401398592137,1319
1373.4993797135926,1292
1375.5968102114575,1279
1377.6936903296396,1295
1379.7900203121262,1296
1381.8858004029835,1307
1383.9810308463561,1262
1386.075711886469,1280
1388.1698437676241,1285
1390.2634267342032,1341
1392.356461030667,1294
1394.4489469015557,1316
1396.5408845914872,1305
1398.6322743451592,1334
1400.7231164073469,1309
1402.813411022907,1324
1404.903158436773,1288
1406.9923588939578,1276
1409.0810126395531,1328
1411.1691199187303,1323
1413.2566809767386,1264
1415.343696058907,1301
1417.4301654106425,1379
1419.5160892774315,1289
1421.6014679048399,1319
1423.6863015385125,1281
1425.7705904241707,1310
1427.8543348076178,1330
1429.9375349347342,1258
1432.0201910514802,1333
1434.102303403894,1276
1436.1838722380944,1316
1438.2648978002767,1297
1440.3453803367174,1300
1442.4253200937692,1341
1444.5047173178677,1337
1446.5835722555234,1352
1448.6618851533285,1339
1450.739656257952,1369
1452.8168858161434,1381
1454.8935740747306,1373
1456.96972128062,1382
1459.045327680797,1371
1461.120393522327,1393
1463.1949190523528,1350
1465.2689045180973,1399
1467.3423501668608,1413
1469.415256246024,1419
1471.4876230030463,1399
1473.559450685465,1369
1475.6307395408976,1404
1477.7014898170391,1365
1479.771701761665,1374
1481.8413756226287,1397
1483.9105116478618,1377
1485.9791100853772,1392
1488.0471711832643,1445
1490.1146951896926,1409
1492.1816823529098,1441
1494.2481329212433,1346
1496.3140471430984,1483
1498.3794252669609,1412
1500.4442675413939,1503
1502.5085742150404,1510
1504.572345536622,1463
1506.6355817549388,1486
1508.6982831188702,1425
1510.7604498773744,1472
1512.8220822794883,1515
1514.8831805743293,1498
1516.9437450110909,1461
1519.003775839048,1488
1521.0632733075522,1496
1523.1222376660367,1513
1525.1806691640113,1534
1527.2385680510652,1563
1529.2959345768668,1569
1531.3527689911643,1622
1533.4090715437833,1637
1535.4648424846291,1583
1537.5200820636855,1622
1539.5747905310159,1594
1541.6289681367616,1654
1543.6826151311434,1672
1545.7357317644614,1741
1547.7883182870937,1779
1549.8403749494987,1736
1551.8919020022113,1770
1553.9428996958477,1758
1555.9933682811015,1804
1558.0433080087469,1795
1560.0927191296346,1829
1562.1416018946961,1831
1564.1899565549415,1810
1566.2377833614592,1848
1568.2850825654164,1849
1570.3318544180606,1804
1572.3780991707158,1846
1574.423817074788,1744
1576.4690083817595,1709
1578.5136733431923,1742
1580.5578122107272,1698
1582.601425236085,1615
1584.6445126710646,1583
1586.6870747675434,1659
1588.7291117774776,1616
1590.7706239529034,1571
1592.8116115459347,1564
1594.8520748087658,1537
1596.8920139936686,1507
1598.9314293529933,1512
1600.9703211391711,1473
1603.008689604711,1451
1605.0465350022005,1408
1607.0838575843068,1445
1609.1206576037753,1395
1611.1569353134305,1387
1613.1926909661765,1373
1615.2279248149953,1385
1617.2626371129481,1358
1619.2968281131757,1334
1621.3304980688963,1353
1623.3636472334088,1289
1625.39627586009,1260
1627.428384202396,1235
1629.459972513861,1268
1631.4910410480993,1304
1633.5215900588028,1248
1635.551619799744,1258
1637.5811305247717,1195
1639.6101224878166,1239
1641.6385959428862,1193
1643.6665511440683,1268
1645.693988345528,1237
1647.7209078015112,1249
1649.7473097663405,1211
1651.7731944944203,1245
1653.7985622402307,1208
1655.823413258333,1217
1657.847747803366,1216
1659.8715661300494,1162
1661.8948684931793,1159
1663.9176551476316,1222
1665.9399263483624,1218
1667.9616823504057,1226
1669.982923408873,1115
1672.0036497789574,1221
1674.0238617159293,1174
1676.043559475138,1163
1678.0627433120121,1222
1680.081413482059,1177
1682.0995702408654,1236
1684.117213844096,1188
1686.134344547495,1282
1688.1509626068864,1252
1690.1670682781705,1224
1692.182661817329,1197
1694.1977434804217,1164
1696.2123135235875,1212
1698.226372203043,1224
1700.2399197750851,1173
1702.2529564960905,1198
1704.2654826225112,1199
1706.277498410882,1199
1708.2890041178139,1143
1710.2999999999988,1148
1712.3104863142066,1224
1714.3204633172854,1170
1716.329931266163,1194
1718.3388904178469,1198
1720.3473410294214,1151
1722.3552833580516,1191
1724.3627176609807,1122
1726.3696441955308,1182
1728.3760632191033,1139
1730.3819749891782,1161
1732.3873797633146,1170
1734.3922777991502,1165
1736.3966693544012,1157
1738.4005546868639,1172
1740.4039340544127,1217
1742.406807715001,1235
1744.4091759266616,1207
1746.4110389475054,1180
1748.4123970357223,1173
1750.413250449582,1204
1752.4135994474318,1137
1754.4134442876993,1198
1756.4127852288902,1196
1758.4116225295893,1155
1760.4099564484595,1192
1762.407787244244,1226
1764.405115175764,1187
1766.4019405019203,1171
1768.3982634816916,1181
1770.3940843741357,1222
1772.3894034383907,1144
1774.3842209336717,1246
1776.378537119274,1119
1778.372352254571,1226
1780.3656665990156,1224
1782.3584804121397,1211
1784.3507939535534,1178
1786.3426074829463,1185
1788.3339212600863,1175
1790.3247355448211,1175
1792.3150505970766,1201
1794.3048666768573,1175
1796.2941840442477,1167
1798.2830029594106,1204
1800.2713236825884,1189
1802.2591464741004,1187
1804.2464715943465,1150
1806.2332993038058,1221
1808.2196298630352,1195
1810.2054635326708,1171
1812.190800573428,1181
1814.175641246101,1191
1816.1599858115628,1193
1818.1438345307652,1151
1820.127187664738,1225
1822.1100454745924,1229
1824.092408221516,1215
1826.0742761667766,1203
1828.055649571721,1175
1830.0365286977735,1182
1832.0169138064398,1153
1833.9968051593014,1155
1835.9762030180214,1220
1837.9551076443408,1211
1839.9335193000788,1208
1841.9114382471344,1205
1843.888864747485,1173
1845.8657990631878,1195
1847.842241456378,1177
1849.8181921892697,1178
1851.7936515241558,1186
1853.7686197234098,1169
1855.7430970494815,1184
1857.7170837649014,1156
1859.6905801322787,1192
1861.6635864143004,1163
1863.6361028737338,1233
1865.608129773424,1204
1867.5796673762961,1205
1869.5507159453537,1160
1871.521275743678,1197
1873.4913470344313,1244
1875.4609300808534,1202
1877.4300251462632,1193
1879.3986324940588,1127
1881.366752387717,1188
1883.3343850907936,1179
1885.3015308669228,1198
1887.268189979819,1257
1889.2343626932739,1195
1891.2000492711595,1232
1893.1652499774254,1236
1895.1299650761011,1189
1897.0941948312952,1213
1899.0579395071945,1233
1901.0211993680641,1168
1902.98397467825,1222
1904.9462657021745,1185
1906.9080727043415,1220
1908.869395949332,1222
1910.8302357018065,1237
1912.790592226504,1206
1914.7504657882428,1189
1916.7098566519212,1247
1918.6687650825133,1169
1920.6271913450764,1134
1922.5851357047422,1209
1924.5425984267245,1199
1926.499579776314,1212
1928.4560800188833,1218
1930.4120994198802,1179
1932.367638244833,1248
1934.32269675935,1245
1936.2772752291175,1221
1938.231373919899,1172
1940.1849930975404,1223
1942.1381330279637,1175
1944.0907939771696,1195
1946.0429762112412,1237
1947.9946799963363,1231
1949.9459055986945,1176
1951.896653284633,1204
1953.8469233205478,1185
1955.7967159729142,1194
1957.7460315082863,1168
1959.6948701932974,1205
1961.6432322946594,1197
1963.5911180791632,1194
1965.5385278136787,1215
1967.4854617651545,1176
1969.4319202006182,1191
1971.377903387176,1181
1973.3234115920136,1189
1975.268445082395,1230
1977.2130041256642,1209
1979.1570889892423,1171
1981.1006999406304,1162
1983.04383724741,1201
1984.986501177238,1223
1986.928691997853,1182
1988.8704099770712,1167
1990.811655382789,1184
1992.7524284829801,1146
1994.692729545698,1163
1996.6325588390755,1198
1998.5719166313224,1136
2000.5108031907307,1153
2002.4492187856677,1207
2004.387163684583,1193
2006.3246381560011,1179
2008.2616424685298,1158
2010.1981768908527,1188
2012.1342416917332,1198
2014.069837140014,1181
2016.0049635046162,1192
2017.9396210545406,1176
2019.8738100588666,1183
2021.8075307867502,1144
2023.740783507431,1186
2025.6735684902228,1153
2027.6058860045214,1164
2029.5377363198004,1212
2031.4691197056118,1181
2033.4000364315875,1170
2035.3304867674374,1143
2037.260470982952,1170
2039.189989347998,1172
2041.1190421325232,1173
2043.047629606554,1126
2044.9757520401945,1191
2046.9034097036288,1146
2048.8306028671195,1150
2050.7573318010086,1139
2052.683596775716,1181
2054.609398061742,1179
2056.5347359296647,1178
2058.4596106501403,1142
2060.384022493906,1140
2062.3079717317764,1161
2064.231458634646,1183
2066.1544834734873,1183
2068.077046519352,1154
2069.99914804337,1160
2071.9207883167524,1142
2073.8419676107865,1189
2075.7626861968406,1133
2077.6829443463607,1156
2079.6027423308715,1170
2081.522080421977,1189
2083.440958891362,1215
2085.359378010786,1171
2087.2773380520907,1176
2089.194839287196,1137
2091.111881988101,1184
2093.0284664268825,1152
2094.9445928756973,1148
2096.86026160678,1165
2098.775472892446,1154
2100.690227005088,1163
2102.604524217178,1118
2104.5183648012676,1123
2106.431749029985,1177
2108.34467717604,1165
2110.2571495122206,1155
2112.169166311393,1211
2114.080727846503,1166
2115.9918343905747,1221
2117.902486216711,1156
2119.8126835980956,1173
2121.722426807987,1176
2123.6317161197285,1195
2125.5405518067364,1217
2127.448934142509,1152
2129.356863400624,1159
2131.264339854737,1127
2133.1713637785815,1169
2135.077935445972,1199
2136.9840551308002,1192
2138.889723107037,1205
2140.7949396487334,1159
2142.699705030018,1209
2144.6040195250994,1229
2146.507883408264,1148
2148.4112969538774,1174
2150.3142604363848,1161
2152.2167741303097,1174
2154.1188383102535,1264
2156.0204532508997,1188
2157.9216192270064,1191
2159.822336513414,1171
2161.7226053850413,1151
2163.622426116884,1150
2165.5217989840185,1181
2167.4207242616,1209
2169.319202224862,1205
2171.2172331491165,1218
2173.1148173097563,1193
2175.0119549822507,1179
2176.90864644215,1204
2178.8048919650823,1194
2180.7006918267534,1178
2182.596046302952,1203
2184.4909556695407,1242
2186.3854202024645,1218
2188.279440177746,1196
2190.173015871487,1211
2192.066147559868,1163
2193.958835519149,1229
2195.851080025667,1179
2197.7428813558417,1190
2199.6342397861667,1224
2201.5251555932186,1146
2203.415629053651,1217
2205.3056604441986,1230
2207.19525004167,1229
2209.084398122958,1214
2210.9731049650327,1210
2212.861370844941,1258
2214.749196039812,1144
2216.636580826851,1240
2218.523525483344,1288
2220.410030286655,1242
2222.296095514226,1256
2224.1817214435805,1208
2226.066908352319,1218
2227.951656518121,1257
2229.835966218746,1180
2231.71983773203,1223
2233.6032713358913,1241
2235.486267308324,1212
2237.3688259274036,1239
2239.2509474712824,1216
2241.132632218193,1251
2243.013880446447,1226
2244.8946924344323,1209
2246.7750684606203,1214
2248.6550088035574,1198
2250.534513741871,1227
2252.413583554265,1203
2254.292218519526,1257
2256.170418916517,1227
2258.0481850241786,1199
2259.925517121534,1227
2261.8024154876825,1243
2263.678880401803,1204
2265.5549121431536,1244
2267.430510991071,1277
2269.305677224971,1230
2271.180411124348,1285
2273.0547129687766,1222
2274.9285830379076,1236
2276.8020216114737,1236
2278.6750289692845,1199
2280.5476053912294,1236
2282.4197511572766,1190
2284.2914665474727,1233
2286.162751841943,1269
2288.0336073208937,1249
2289.904033264608,1252
2291.774029953448,1228
2293.6435976678554,1233
2295.5127366883517,1177
2297.381447295534,1159
2299.2497297700825,1158
2301.1175843927526,1173
2302.9850114443825,1196
2304.852011205885,1126
2306.7185839582553,1109
2308.5847299825664,1131
2310.4504495599676,1093
2312.3157429716925,1106
2314.1806104990483,1125
2316.0450524234247,1145
2317.9090690262888,1093
2319.772660589186,1151
2321.635827393742,1084
2323.498569721661,1074
2325.3608878547248,1110
2327.2227820747967,1095
2329.0842526638157,1118
2330.945299903803,1059
2332.805924076857,1043
2334.6661254651535,1080
2336.525904350951,1117
2338.3852610165827,1085
2340.244195744464,1089
2342.102708817088,1138
2343.9608005170253,1106
2345.8184711269287,1052
2347.675720929526,1084
2349.532550207628,1097
2351.38895924412,1071
2353.24494832197,1131
2355.100517724223,1111
2356.955667734004,1058
2358.810398634514,1120
2360.664710709037,1119
2362.5186042409337,1032
2364.3720795136437,1113
2366.225136810686,1090
2368.0777764156583,1067
2369.929998612237,1092
2371.7818036841777,1044
2373.633191915315,1096
2375.484163589562,1116
2377.3347189909114,1064
2379.184858403434,1089
2381.03458211128,1102
2382.8838903986775,1079
2384.732783549936,1111
2386.5812618494406,1118
2388.4293255816588,1071
2390.2769750311327,1088
2392.1242104824883,1129
2393.971032220427,1121
2395.8174405297295,1143
2397.6634356952563,1118
2399.509018001947,1107
2401.3541877348193,1089
2403.1989451789705,1110
2405.043290619576,1047
2406.8872243418905,1151
2408.730746631247,1109
2410.5738577730594,1075
2412.4165580528183,1118
2414.258847756095,1187
2416.100727168537,1104
2417.9421965758734,1102
2419.783256263912,1104
2421.623906518538,1117
2423.4641476257157,1108
2425.303979871491,1133
2427.143403541984,1143
2428.9824189233977,1122
2430.821026302012,1148
2432.6592259641866,1133
2434.497018196361,1150
2436.33440328505,1134
2438.171381516851,1162
2440.00795317844,1146
2441.844118556569,1106
2443.6798779380724,1096
2445.5152316098606,1135
2447.3501798589255,1135
2449.1847229723357,1103
2451.0188612372403,1139
2452.8525949408663,1097
2454.6859243705203,1144
2456.518849813587,1140
2458.3513715575314,1079
2460.183489889895,1125
2462.015205098301,1098
2463.8465174704493,1136
2465.67742729412,1081
2467.5079348571717,1138
2469.338040447542,1142
2471.1677443532476,1119
2472.9970468623833,1101
2474.825948263123,1110
2476.6544488437207,1121
2478.482548892508,1147
2480.310248697896,1118
2482.137548548374,1070
2483.9644487325118,1111
2485.790949538956,1081
2487.617051256433,1103
2489.44275417375,1088
2491.26805857979,1153
2493.0929647635157,1070
2494.917473013971,1156
2496.741583620276,1112
2498.5652968716304,1181
2500.3886130573137,1089
2502.2115324666834,1139
2504.0340553891765,1149
2505.856182114308,1118
2507.6779129316733,1129
2509.499248130945,1104
2511.3201880018764,1136
2513.140732834298,1125
2514.9608829181198,1131
2516.780638543331,1177
2518.6,1097
2520.418967578273,1150
2522.237541568376,1105
2524.0557222606144,1105
2525.8735099453706,1102
2527.6909049131086,1094
2529.507907454368,1120
2531.32451785977,1090
2533.140736420014,1143
2534.9565634258774,1133
2536.771999168218,1145
2538.5870439379714,1131
2540.4016980261526,1133
2542.2159617238544,1148
2544.02983532225,1196
2545.8433191125914,1145
2547.656413386209,1129
2549.4691184345115,1140
2551.2814345489874,1193
2553.093362021204,1164
2554.904901142808,1131
2556.716052205523,1177
2558.526815501153,1190
2560.3371913215824,1145
2562.147179958771,1189
2563.956781704761,1177
2565.7659968516705,1180
2567.5748256916986,1167
2569.3832685171224,1159
2571.1913256202984,1216
2572.9989972936614,1212
2574.806283829725,1175
2576.613185521084,1200
2578.4197026604074,1187
2580.2258355404483,1205
2582.031584454035,1153
2583.836949694077,1185
2585.6419315535613,1203
2587.4465303255533,1143
2589.2507463032002,1164
2591.0545797797245,1151
2592.8580310484303,1189
2594.6611004026995,1248
2596.463788135992,1188
2598.266094541849,1148
2600.0680199138874,1214
2601.869564545807,1141
2603.670728731383,1178
2605.4715127644704,1200
2607.2719169390048,1199
2609.071941548998,1205
2610.8715868885433,1185
2612.670853251811,1164
2614.469740933052,1138
2616.268250226594,1163
2618.0663814268455,1168
2619.864134828292,1156
2621.6615107255006,1205
2623.458509413115,1196
2625.2551311858597,1128
2627.0513763385347,1166
2628.8472451660223,1190
2630.6427379632833,1205
2632.4378550253564,1239
2634.232596647359,1228
2636.026963124488,1164
2637.8209547520187,1193
2639.6145718253065,1187
2641.407814639785,1185
2643.200683490966,1213
2644.9931786744414,1186
2646.7853004858807,1159
2648.577049221034,1173
2650.3684251757277,1185
2652.1594286458712,1163
2653.9500599274484,1217
2655.740319316525,1183
2657.5302071092437,1156
2659.3197236018286,1210
2661.10886909058,1226
2662.8976438718782,1210
2664.686048242183,1165
2666.4740824980327,1182
2668.2617469360443,1154
2670.0490418529134,1139
2671.8359675454153,1184
2673.622524310403,1130
2675.408712444811,1185
2677.1945322456495,1127
2678.979984010009,1150
2680.76506803506,1163
2682.5497846180497,1188
2684.334134056306,1136
2686.1181166472343,1113
2687.9017326883213,1146
2689.6849824771293,1155
2691.4678663113013,1136
2693.2503844885596,1174
2695.032537306705,1127
2696.8143250636167,1144
2698.5957480572542,1134
2700.3768065856534,1100
2702.1575009469316,1137
2703.937831439283,1116
2705.717798360982,1136
2707.4974020103837,1123
2709.276642685917,1167
2711.055520686095,1121
2712.834036309506,1092
2714.612189854819,1127
2716.389981620782,1098
2718.1674119062204,1064
2719.944481010041,1056
2721.721189231226,1114
2723.4975368688415,1067
2725.273524222027,1140
2727.0491515900053,1102
2728.824419272075,1095
2730.5993275676146,1131
2732.3738767760838,1092
2734.148067197016,1164
2735.921899130031,1085
2737.6953728748194,1092
2739.468488731156,1054
2741.2412469988926,1087
2743.0136479779617,1054
2744.785691968372,1102
2746.5573792702116,1056
2748.3287101836504,1047
2750.099685008934,1103
2751.870304046388,1082
2753.640567596418,1142
2755.4104759595057,1124
2757.1800294362156,1117
2758.949228327187,1077
2760.7180729331412,1146
2762.486563554877,1085
2764.254700493272,1052
2766.022484049284,1092
2767.789914523947,1088
2769.5569922183786,1128
2771.3237174337705,1112
2773.090090471394,1152
2774.8561116326036,1109
2776.6217812188274,1076
2778.3870995315756,1091
2780.1520668724356,1083
2781.9166835430747,1067
2783.6809498452394,1060
2785.444866080754,1147
2787.2084325515225,1057
2788.971649559527,1071
2790.73451740683,1099
2792.4970363955713,1051
2794.2592068279705,1126
2796.0210290063264,1060
2797.7825032330147,1066
2799.543629810493,1078
2801.304409041296,1064
2803.0648412280366,1053
2804.8249266734088,1076
2806.5846656801846,1036
2808.344058551212,1127
2810.1031055894246,1083
2811.8618070978273,1087
2813.6201633795085,1126
2815.378174737636,1080
2817.1358414754536,1109
2818.893163896285,1144
2820.6501423035334,1114
2822.4067770006814,1093
2824.1630682912883,1111
2825.9190164789957,1108
2827.6746218675207,1084
2829.429884760661,1117
2831.184805462294,1083
2832.9393842763743,1145
2834.693621506936,1103
2836.4475174580916,1088
2838.201072434034,1055
2839.954286739034,1118
2841.707160677441,1105
2843.459694553685,1093
2845.2118886722724,1085
2846.96374333779,1087
2848.7152588549034,1059
2850.4664355283567,1110
2852.217273662973,1068
2853.9677735636546,1121
2855.7179355353833,1121
2857.4677598832186,1098
2859.217246912299,1096
2860.9663969278427,1102
2862.715210235146,1136
2864.4636871395846,1094
2866.211827946614,1081
2867.9596329617652,1089
2869.7071024906536,1122
2871.4542368389684,1120
2873.20103631248,1088
2874.947501217038,1045
2876.6936318585695,1056
2878.4394285430812,1111
2880.1848915766604,1072
2881.9300212654707,1132
2883.6748179157553,1105
2885.4192818338374,1079
2887.1634133261173,1096
2888.907212699077,1154
2890.6506802592744,1073
2892.393816313348,1081
2894.1366211680142,1112
2895.8790951300693,1063
2897.621238506388,1106
2899.363051603925,1130
2901.1045347297118,1134
2902.8456881908596,1098
2904.58651229456,1087
2906.327007348081,1091
2908.067173658772,1066
2909.8070115340597,1160
2911.5465212814497,1070
2913.285703208527,1080
2915.0245576229563,1075
2916.7630848324807,1115
2918.5012851449196,1113
2920.2391588681758,1095
2921.976706310227,1127
2923.7139277791334,1080
2925.4508235830313,1129
2927.187394030137,1100
2928.923639428745,1092
2930.6595600872306,1111
2932.395156314046,1099
2934.1304284177218,1114
2935.8653767068713,1084
2937.6000014901815,1062
2939.3343030764227,1118
2941.068281774442,1076
2942.8019378931644,1110
2944.5352717415976,1048
2946.2682836288236,1098
2948.0009738640065,1117
2949.7333427563885,1106
2951.465390615289,1119
2953.1971177501086,1079
2954.9285244703265,1087
2956.6596110855,1088
2958.3903779052657,1083
2960.1208252393385,1083
2961.8509533975125,1116
2963.5807626896617,1051
2965.3102534257378,1123
2967.0394259157715,1116
2968.768280469873,1100
2970.496817398232,1068
2972.2250370111146,1070
2973.952939618869,1124
2975.6805255319196,1104
2977.4077950607707,1093
2979.134748516006,1099
2980.861386208289,1097
2982.587708448359,1066
2984.313715547037,1085
2986.039407815222,1102
2987.764785563891,1103
2989.489849104102,1128
2991.2145987469908,1066
2992.9390348037705,1090
2994.6631575857346,1047
2996.3869674042576,1105
2998.1104645707887,1093
2999.83364939686,1047
3001.5565221940783,1056
3003.2790832741334,1079
3005.0013329487924,1112
3006.7232715298996,1060
3008.4448993293804,1070
3010.166216659239,1060
3011.887223831558,1063
3013.607921158498,1041
3015.3283089522993,1095
3017.0483875252826,1036
3018.7681571898443,1092
3020.4876182584626,1043
3022.2067710436927,1078
3023.9256158581707,1077
3025.644153014609,1075
3027.362382825801,1074
3029.0803056046193,1066
3030.797921664012,1074
3032.5152313170106,1115
3034.2322348767225,1005
3035.9489326563353,1023
3037.665324969115,1066
3039.3814121284063,1067
3041.097194447633,1085
3042.812672240299,1065
3044.5278458199855,1060
3046.2427155003525,1075
3047.9572815951406,1053
3049.671544418167,1041
3051.38550428333,1097
3053.0991615046073,1063
3054.812516396051,1075
3056.5255692717974,1067
3058.2383204460575,1105
3059.9507702331257,1081
3061.662918947372,1090
3063.3747669032446,1136
3065.0863144152736,1070
3066.7975617980674,1073
3068.508509366309,1060
3070.219157434767,1035
3071.9295063182844,1068
3073.639556331785,1068
3075.3493077902704,1040
3077.058761008821,1097
3078.7679163025964,1058
3080.476773986837,1080
3082.1853343768594,1035
3083.89359778806,1069
3085.6015645359153,1092
3087.3092349359786,1054
3089.016609303884,1028
3090.7236879553434,1084
3092.4304712061476,1021
3094.136959372166,1052
3095.843152769349,1085
3097.5490517137237,1070
3099.2546565213966,1050
3100.959967508554,1062
3102.66498499146,1064
3104.3697092864577,1083
3106.0741407099695,1061
3107.778279578498,1057
3109.482126208622,1068
3111.1856809170004,1062
3112.8889440203716,1133
3114.5919158355528,1076
3116.294596679439,1069
3117.996986869006,1067
3119.6990867213062,1108
3121.4008965534726,1082
3123.102416682717,1065
3124.803647426329,1087
3126.5045891016784,1086
3128.205242026213,1047
3129.90560651746,1079
3131.605682893025,1048
3133.3054714705922,1042
3135.0049725679282,1144
3136.7041865028714,1084
3138.4031135933465,1077
3140.101754157353,1065
3141.800108512971,1070
3143.498176978357,1075
3145.1959598717494,1053
3146.8934575114636,1043
3148.5906702158954,1046
3150.2875983035183,1064
3151.9842420928853,1081
3153.680601902627,1062
3155.376678051456,1031
3157.07247085816,1065
3158.767980641609,1119
3160.463207720748,1077
3162.158152414606,1041
3163.8528150422862,1040
3165.5471959229726,1022
3167.2412953759303,1107
3168.9351137204976,1163
3170.628651276098,1092
3172.3219083622307,1076
3174.014885298474,1085
3175.707582404485,1062
3177.4000000000005,1038
3179.092138404835,1070
3180.7839979388846,1077
3182.47557892212,1034
3184.166881674594,1076
3185.8579065164386,1072
3187.5486537678626,1062
3189.2391237491547,1086
3190.9293167806827,1044
3192.6192331828934,1065
3194.3088732763117,1041
3195.998237381542,1052
3197.687325819268,1098
3199.376138910251,1069
3201.064676975334,1070
3202.7529403354347,1043
3204.4409293115523,1073
3206.1286442247647,1057
3207.816085396229,1049
3209.5032531471825,1109
3211.190147798936,1066
3212.8767696728846,1059
3214.5631190905015,1016
3216.2491963733373,1079
3217.9350018430214,1064
3219.6205358212637,1080
3221.305798629851,1064
3222.990790590651,1040
3224.6755120256103,1075
3226.359963256751,1020
3228.0441446061795,1041
3229.7280563960758,1031
3231.411698948703,1068
3233.0950725863995,1008
3234.778177631587,1049
3236.461014406761,1065
3238.1435832345005,1078
3239.8258844374595,1034
3241.507918338374,1057
3243.1896852600576,1098
3244.8711855254023,1073
3246.552419457381,1116
3248.233387379042,1051
3249.914089613516,1050
3251.59452648401,1064
3253.274698313813,1063
3254.95460542629,1041
3256.6342481448855,1039
3258.313626793125,1064
3259.9927416946084,1064
3261.6715931730196,1014
3263.3501815521176,1057
3265.0285071557437,1091
3266.706570307815,1050
3268.3843713323286,1025
3270.0619105533615,1039
3271.739188295068,1044
3273.4162048816834,1021
3275.0929606375184,1012
3276.769455886966,1050
3278.445690954498,1084
3280.1216661646613,1021
3281.797381842087,1045
3283.4728383114807,1057
3285.1480358976296,1044
3286.8229749253996,1102
3288.4976557197333,1063
3290.172078605655,1023
3291.846243908266,1029
3293.5201519527463,1018
3295.193803064357,1061
3296.8671975684374,1026
3298.5403357904024,998
3300.21321805575,1056
3301.8858446900567,1035
3303.558216018975,1072
3305.23033236824,1072
3306.9021940636603,1113
3308.57380143113,1062
3310.2451547966184,1066
3311.916254486174,1073
3313.5871008259246,1027
3315.2576941420766,1088
3316.9280347609147,1058
3318.5981230088046,1013
3320.2679592121895,1074
3321.9375436975924,1006
3323.606876791612,1021
3325.27595882093,1021
3326.944790112305,1037
3328.6133709925753,1074
3330.2817017886573,1033
3331.949782827547,1028
3333.617614436319,1059
3335.2851969421245,1048
3336.952530672199,1075
3338.619615953853,1069
3340.286453114475,1076
3341.9530424815357,1043
3343.619384382583,1080
3345.2854791452437,1056
3346.951327097224,1045
3348.6169285663073,1040
3350.2822838803577,1045
3351.947393367319,1080
3353.61225735521,1067
3355.2768761721345,1046
3356.9412501462693,1079
3358.605379605873,1040
3360.2692648792827,1067
3361.9329062949146,1068
3363.596304181263,1031
