CollectionTime,7/9/2024 4:06:21 PM
ExposureUsed,3
CalibratedSpectrum
-962.7078968117929,483
-959.9714848408522,511
-957.2358232597828,492
-954.5009119013725,509
-951.7667505983302,492
-949.0333391832855,502
-946.3006774887896,509
-943.5687653473143,490
-940.837602591253,471
-938.1071890529199,501
-935.3775245645503,493
-932.6486089583007,504
-929.9204420662485,479
-927.1930237203925,504
-924.4663537526524,496
-921.7404319948689,500
-919.0152582788041,494
-916.2908324361409,551
-913.5671542984834,525
-910.8442236973568,492
-908.1220404642074,524
-905.4006044304027,499
-902.679915427231,517
-899.959973285902,496
-897.2407778375464,506
-894.5223289132158,526
-891.8046263438832,520
-889.0876699604426,506
-886.3714595937089,493
-883.6559950744183,523
-880.9412762332282,504
-878.2273029007168,524
-875.5140749073835,524
-872.8015920836489,498
-870.0898542598545,508
-867.3788612662631,524
-864.6686129330585,508
-861.9591090903457,535
-859.2503495681506,558
-856.5423341964203,530
-853.8350628050229,505
-851.1285352237478,539
-848.4227512823054,517
-845.7177108103272,515
-843.0134136373656,530
-840.3098595928943,543
-837.6070485063082,533
-834.9049802069229,542
-832.2036545239757,530
-829.5030712866244,543
-826.8032303239481,557
-824.1041314649472,531
-821.4057745385428,524
-818.7081593735775,517
-816.0112857988148,517
-813.3151536429393,525
-810.6197627345566,529
-807.9251129021936,515
-805.2312039742981,534
-802.5380357792392,530
-799.8456081453069,552
-797.1539209007124,535
-794.462973873588,532
-791.772766891987,521
-789.083299783884,525
-786.3945723771743,543
-783.7065844996748,530
-781.0193359791231,544
-778.3328266431781,555
-775.6470563194197,548
-772.9620248353489,545
-770.2777320183878,543
-767.5941776958798,544
-764.9113616950891,552
-762.2292838432011,520
-759.5479439673222,576
-756.8673418944801,529
-754.1874774516235,520
-751.5083504656222,541
-748.8299607632671,569
-746.15230817127,518
-743.475392516264,527
-740.7992136248035,547
-738.1237713233636,563
-735.4490654383407,566
-732.7750957960521,545
-730.1018622227365,535
-727.4293645445534,543
-724.7576025875837,528
-722.0865761778291,521
-719.4162851412126,564
-716.7467293035781,542
-714.0779084906909,574
-711.409822528237,575
-708.7424712418238,573
-706.0758544569796,540
-703.4099719991541,566
-700.7448236937178,548
-698.0804093659622,551
-695.4167288411002,544
-692.7537819442656,565
-690.0915685005134,547
-687.4300883348199,543
-684.7693412720819,544
-682.1093271371178,542
-679.4500457546669,558
-676.7914969493897,559
-674.1336805458676,563
-671.4765963686034,571
-668.8202442420206,562
-666.1646239904642,599
-663.5097354382001,558
-660.8555784094151,586
-658.2021527282176,580
-655.5494582186366,573
-652.8974947046223,569
-650.2462620100463,558
-647.5957599587009,562
-644.9459883742998,584
-642.2969470804776,596
-639.6486359007902,581
-637.0010546587141,595
-634.3542031776476,579
-631.7080812809096,601
-629.0626887917401,574
-626.4180255333008,611
-623.7740913286734,579
-621.1308860008619,590
-618.4884093727904,589
-615.8466612673046,599
-613.2056415071715,592
-610.5653499150785,603
-607.9257863136347,595
-605.28695052537,633
-602.6488423727357,581
-600.0114616781036,564
-597.3748082637674,584
-594.7388819519412,594
-592.1036825647604,584
-589.4692099242818,582
-586.8354638524829,594
-584.2024441712624,604
-581.5701507024403,593
-578.9385832677575,582
-576.3077416888759,593
-573.6776257873787,616
-571.0482353847704,627
-568.4195703024757,636
-565.7916303618415,584
-563.164415384135,605
-560.5379251905453,621
-557.9121596021815,612
-555.2871184400748,622
-552.6628015251767,591
-550.0392086783606,606
-547.4163397204204,589
-544.794194472071,652
-542.1727727539491,623
-539.5520743866118,615
-536.9320991905377,634
-534.3128469861261,620
-531.6943175936979,626
-529.0765108334947,689
-526.4594265256793,719
-523.8430644903358,827
-521.2274245474689,825
-518.612506517005,871
-515.9983102187913,895
-513.3848354725959,899
-510.77208209810846,892
-508.16004991493924,975
-505.5487387426199,1026
-502.9381484006032,1031
-500.3282787082628,1016
-497.71912948489364,925
-495.1107005497117,863
-492.5029917218539,827
-489.8960028203786,745
-487.28973366426493,725
-484.68418407241325,702
-482.07935386364494,712
-479.47524285670266,692
-476.87185087025,753
-474.2691777228715,749
-471.66722323307334,739
-469.0659872192821,754
-466.4654694998459,772
-463.86566989303384,721
-461.26658821703614,710
-458.66822428996414,715
-456.07057792985,760
-453.4736489546475,728
-450.877437182231,719
-448.28194243039627,715
-445.68716451686,762
-443.09310325926003,726
-440.49975847515555,717
-437.9071299820263,686
-435.31521759727354,714
-432.72402113821954,708
-430.13354042210767,759
-427.5437752661022,723
-424.95472548728867,707
-422.36639090267386,706
-419.7787713291855,694
-417.1918665836721,776
-414.60567648290385,745
-412.0202008435715,738
-409.4354394822874,769
-406.8513922155845,762
-404.26805885991723,771
-401.685439231661,746
-399.103533147112,761
-396.522340422488,783
-393.9418608739278,761
-391.3620943174908,768
-388.7830405691583,748
-386.2046994448317,735
-383.6270707603344,684
-381.05015433141045,663
-378.473949973725,637
-375.8984575028645,596
-373.32367673433623,582
-370.74960748356875,547
-368.1762495659117,511
-365.60360279663576,490
-363.03166699093265,479
-360.4604419639154,447
-357.8899275306178,440
-355.32012350599507,409
-352.7510297049233,416
-350.1826459421999,402
-347.61497203254316,402
-345.04800779059235,408
-342.4817530309082,394
-339.91620756797226,409
-337.35137121618743,397
-334.7872437898774,384
-332.22382510328725,395
-329.66111497058273,405
-327.09911320585127,410
-324.53781962310075,416
-321.9772340362607,423
-319.4173562591816,416
-316.8581861056348,401
-314.2997233893127,404
-311.7419679238294,391
-309.1849195227194,392
-306.62857799943856,405
-304.0729431673641,425
-301.51801483979375,452
-298.963792829947,444
-296.41027695096386,453
-293.85746701590574,453
-291.3053628377552,438
-288.7539642294155,452
-286.2032710037115,424
-283.65328297338897,423
-281.1039999511146,435
-278.5554217494762,455
-276.007548180983,457
-273.4603790580651,437
-270.9139141930734,449
-268.3681533982807,439
-265.8230964858798,435
-263.27874326798565,458
-260.7350935566336,452
-258.1921471637804,475
-255.6499039013039,461
-253.10836358100266,476
-250.56752601459698,450
-248.02739101372765,469
-245.48795838995704,452
-242.94922795476816,456
-240.41119951956557,475
-237.8738728956746,480
-235.33724789434166,490
-232.80132432673452,489
-230.2661020039418,470
-227.73158073697357,505
-225.19776033676033,545
-222.66464061415422,512
-220.1322213799284,490
-217.60050244477725,486
-215.06948361931552,494
-212.53916471408013,517
-210.00954553952818,548
-207.48062590603843,497
-204.9524056239104,513
-202.4248845033651,495
-199.8980623545441,525
-197.37193898751036,526
-194.84651421224817,534
-192.32178783866232,526
-189.79775967657952,553
-187.27442953574644,562
-184.7517972258321,544
-182.2298625564256,558
-179.7086253370378,538
-177.18808537710026,512
-174.66824248596583,506
-172.14909647290835,543
-169.6306471471229,583
-167.11289431772548,569
-164.59583779375328,569
-162.07947738416453,552
-159.5638128978386,585
-157.04884414357605,623
-154.53457093009854,642
-152.02099306604828,587
-149.50811035998936,555
-146.99592262040665,563
-144.48442965570587,556
-141.97363127421409,578
-139.46352728417958,596
-136.95411749377126,633
-134.44540171107985,650
-131.93737974411636,556
-129.43005140081357,586
-126.92341648902493,649
-124.41747481652521,710
-121.91222619101006,761
-119.40767042009657,951
-116.90380731132257,969
-114.40063667214702,936
-111.8981583099503,859
-109.3963720320337,848
-106.89527764561933,897
-104.39487495785067,836
-101.89516377579241,961
-99.39614390642998,1060
-96.89781515667039,1237
-94.40017733334128,1382
-91.90323024319173,1478
-89.40697369289148,1590
-86.91140748903172,1763
-84.41653143812482,1580
-81.92234534660395,1338
-79.42884902082358,1311
-76.93604226705907,1971
-74.4439248915071,2762
-71.95249670028534,3578
-69.46175749943245,4398
-66.97170709490854,4607
-64.48234529259423,4441
-61.99367189829195,4247
-59.50568671772464,4125
-57.01838955653636,3543
-54.53178022029283,2987
-52.045858514480074,3946
-49.560624244506016,5469
-47.07607721569923,6403
-44.59221723330904,6437
-42.10904410250669,6604
-39.62655762838392,6125
-37.14475761595372,5493
-34.66364387015028,5311
-32.18321619582866,5571
-29.70347439776515,5758
-27.224418280657005,5968
-24.74604764912317,6140
-22.26836230770266,7070
-19.7913620608565,9871
-17.315046712966478,16271
-14.83941606833514,22664
-12.36446993118659,28815
-9.89020810566592,65040
-7.416630395839093,65040
-4.94373660569363,65040
-2.471526539137585,65040
-6.821210263296962E-13,65040
2.47084320796705,65040
4.941003281093458,65040
7.410480415786196,65040
9.879274808531363,65040
12.347386655893956,65040
14.814816154518212,65040
17.28156350112681,65040
19.74762889252179,65040
22.21301252558385,65040
24.67771459727237,19376
27.141735304626195,2813
29.605074844762612,1498
32.06773341487792,1313
34.52971121224755,1198
36.99100843422559,1090
39.45162527824516,1092
41.91156194181792,1027
44.370818622535126,975
46.82939551806646,875
49.287292826160524,902
51.74451074464503,809
54.201049471426245,779
56.65690920448981,779
59.112090141899785,799
61.56659248179983,746
64.02041642241159,767
66.4735621620365,769
68.92602989905402,678
71.37781983192338,690
73.82893215918205,731
76.27936707944684,732
78.72912479141326,740
81.17820549385567,765
83.62660938562783,799
86.07433666566146,773
88.5213875329681,684
90.96776218663751,643
93.41346082583925,615
95.85848364982041,690
98.30283085790859,741
100.7465026495089,635
103.18949922410604,684
105.63182078126385,671
108.07346752062438,623
110.51443964190923,607
112.95473734491827,589
115.39436082953114,579
117.83331029570547,613
120.27158594347827,609
122.7091879729652,610
125.1461165843615,591
127.58237197794062,579
130.01795435405518,590
132.4528639131364,581
134.88710085569494,623
137.32066538231982,628
139.75355769367923,595
142.1857779905207,564
144.61732647366978,573
147.04820334403132,623
149.47840880258934,641
151.90794305040674,624
154.33680628862487,687
156.76499871846443,807
159.19252054122433,927
161.61937195828352,949
164.04555317109896,1040
166.47106438120693,1146
168.89590579022217,1235
171.320077599839,1369
173.7435800118302,1330
176.16641322804742,1388
178.58857745042144,1482
181.01007288096173,1478
183.43089972175687,1525
185.85105817497413,1540
188.27054844285988,1571
190.6893707277394,1525
193.10752523201643,1689
195.5250121581745,1650
197.9418317087751,1720
200.3579840864594,1669
202.7734694939469,1691
205.18828813403627,1748
207.6024402096051,1867
210.01592592360964,1840
212.42874547908548,1828
214.84089907914665,1785
217.2523869269868,1843
219.66320922587727,1875
222.0733661791695,1841
224.48285799029293,1801
226.8916848627572,1859
229.29984700014882,1848
231.7073446061355,1844
234.11417788446204,1840
236.520347038953,1862
238.92585227351185,1844
241.33069379212054,1829
243.73487179884035,1841
246.1383864978112,1889
248.541238093252,1906
250.9434267894609,1869
253.34495279081432,1867
255.74581630176783,1895
258.1460175268563,1882
260.54555667069314,1856
262.9444339379703,1826
265.3426495334594,1892
267.7402036620107,1819
270.1370965285529,1848
272.53332833809407,1823
274.9288992957214,1827
277.32380960660055,1824
279.718059475976,1793
282.1116491091717,1837
284.5045787115897,1856
286.89684848871195,1863
289.2884586460981,1833
291.67940938938807,1871
294.0697009242996,1848
296.4593334566299,1916
298.84830719225477,1845
301.23662233712923,1802
303.6242790972866,1857
306.01127767884,1784
308.39761828798066,1780
310.78330113097934,1778
313.16832641418534,1692
315.5526943440269,1751
317.9364051270112,1724
320.3194589697242,1746
322.70185607883093,1718
325.0835966610754,1725
327.4646809232805,1665
329.8451090723478,1695
332.2248813152577,1704
334.6039978590701,1729
336.9824589109231,1623
339.36026467803447,1704
341.7374153677,1690
344.113911187295,1657
346.48975234427337,1699
348.8649390461686,1592
351.2394715005918,1615
353.61334991523415,1610
355.9865744978655,1667
358.35914545633375,1568
360.73106299856715,1654
363.10232733257146,1632
365.47293866643247,1585
367.84289720831396,1616
370.2122031664593,1605
372.5808567491905,1551
374.9488581649083,1626
377.31620762209275,1599
379.6829053293021,1611
382.0489514951745,1531
384.4143463284262,1492
386.7790900378528,1567
389.14318283232853,1585
391.50662492080653,1625
393.86941651231916,1554
396.23155781597745,1596
398.5930490409713,1505
400.9538903965696,1573
403.3140820921202,1565
405.6736243370498,1525
408.03251734086336,1561
410.3907613131465,1568
412.74835646356166,1566
415.10530300185144,1557
417.4616011378372,1500
419.81725108141893,1585
422.1722530425758,1519
424.5266072313656,1518
426.880313857925,1478
429.2333731324701,1456
431.58578526529516,1556
433.9375504667738,1519
436.2886689473588,1499
438.63914091758113,1555
440.9889665880513,1469
443.33814616945835,1524
445.68667987257015,1476
448.03456790823395,1540
450.3818104873759,1545
452.72840782100013,1527
455.07436012019105,1446
457.41966759611057,1492
459.7643304600007,1431
462.10834892318155,1465
464.4517231970525,1492
466.79445349309174,1461
469.1365400228566,1458
471.4779829979826,1434
473.81878263018564,1415
476.15893913125876,1479
478.4984527130747,1537
480.8373235875855,1534
483.17555196682144,1547
485.5131380628919,1603
487.8500820879857,1528
490.1863842543697,1608
492.52204477439034,1667
494.8570638604725,1715
497.1914417251204,1812
499.52517858091653,2013
501.85827464052306,2218
504.19073011668036,2385
506.5225452222086,2510
508.85372017000566,2446
511.18425517304956,2433
513.514150444396,2686
515.8434061971808,3125
518.1720226446176,3812
520.4999999999999,3882
522.8273384766991,3704
525.1540382881666,3372
527.480099647932,2908
529.8055227696037,2380
532.1303078668694,1901
534.454455153496,1720
536.777964843328,1762
539.1008371502907,1634
541.4230722883866,1572
543.744670471698,1576
546.0656319143858,1548
548.3859568306899,1577
550.7056454349294,1544
553.0246979415016,1514
555.3431145648834,1437
557.6608955196306,1463
559.978041020377,1511
562.2945512818363,1547
564.6104265188006,1466
566.9256669461412,1539
569.2402727788082,1486
571.5542442318302,1499
573.8675815203156,1530
576.1802848594508,1513
578.4923544645015,1531
580.8037905508126,1577
583.114593333807,1497
585.4247630289875,1529
587.7342998519354,1446
590.0432040183106,1523
592.3514757438526,1475
594.6591152443794,1511
596.9661227357875,1498
599.2724984340531,1513
601.578242555231,1516
603.8833553154542,1498
606.1878369309362,1497
608.4916876179676,1492
610.7949075929192,1498
613.0974970722403,1492
615.3994562724587,1479
617.7007854101818,1470
620.0014847020951,1479
622.3015543649641,1506
624.6009946156324,1435
626.8998056710224,1494
629.1979877481361,1511
631.4955410640538,1455
633.7924658359349,1484
636.0887622810175,1439
638.3844306166192,1572
640.6794710601358,1511
642.9738838290426,1558
645.2676691408932,1568
647.5608272133207,1520
649.853358264037,1542
652.1452625108324,1525
654.4365401715764,1530
656.7271914642178,1512
659.0172166067838,1560
661.3066158173809,1515
663.5953893141935,1506
665.8835373154867,1594
668.1710600396028,1574
670.4579577049639,1513
672.7442305300709,1530
675.0298787335033,1587
677.3149025339197,1543
679.599302150058,1540
681.8830778007342,1516
684.1662297048437,1546
686.4487580813608,1547
688.7306631493387,1556
691.0119451279091,1580
693.2926042362834,1549
695.5726406937516,1600
697.8520547196814,1562
700.1308465335215,1582
702.4090163547982,1583
704.6865644031171,1605
706.9634908981619,1610
709.2397960596965,1572
711.5154801075631,1490
713.7905432616823,1497
716.0649857420548,1513
718.3388077687592,1554
720.612009561953,1559
722.8845913418733,1567
725.1565533288352,1580
727.427895743234,1600
729.6986188055427,1584
731.9687227363137,1530
734.238207756178,1570
736.5070740858458,1579
738.7753219461066,1533
741.0429515578281,1537
743.3099631419569,1639
745.5763569195191,1620
747.8421331116193,1576
750.1072919394409,1582
752.3718336242467,1546
754.6357583873777,1559
756.8990664502545,1562
759.1617580343765,1562
761.423833361321,1577
763.6852926527457,1571
765.9461361303862,1513
768.206364016058,1585
770.4659765316536,1616
772.7249738991469,1594
774.9833563405886,1609
777.2411240781092,1562
779.4982773339183,1581
781.7548163303044,1537
784.010741289634,1588
786.2660524343538,1707
788.5207499869881,1606
790.7748341701416,1556
793.0283052064964,1616
795.2811633188143,1598
797.5334087299362,1593
799.7850416627813,1602
802.0360623403484,1697
804.2864709857143,1589
806.5362678220353,1661
808.7854530725468,1619
811.0340269605625,1593
813.2819897094754,1675
815.5293415427581,1622
817.77608268396,1577
820.0222133567116,1622
822.2677337847211,1683
824.5126441917765,1582
826.7569448017433,1567
829.0006358385675,1668
831.2437175262731,1652
833.4861900889629,1628
835.7280537508192,1671
837.9693087361026,1566
840.2099552691533,1640
842.4499935743896,1614
844.689423876309,1621
846.9282463994886,1587
849.1664613685833,1626
851.4040690083276,1638
853.6410695435349,1605
855.877463199097,1662
858.1132501999847,1594
860.3484307712487,1618
862.5830051380175,1667
864.8169735254988,1656
867.0503361589791,1686
869.2830932638243,1611
871.5152450654786,1623
873.7467917894654,1569
875.9777336613873,1616
878.2080709069252,1640
880.4378037518389,1600
882.666932421968,1679
884.8954571432301,1610
887.1233781416219,1626
889.3506956432192,1661
891.5774098741766,1688
893.803521060728,1615
896.0290294291852,1617
898.2539352059397,1609
900.4782386174619,1576
902.7019398903011,1592
904.925039251085,1657
907.147536926521,1624
909.3694331433943,1606
911.59072812857,1604
913.8114221089921,1575
916.0315153116827,1633
918.2510079637437,1565
920.4699002923547,1600
922.6881925247761,1609
924.905884888345,1552
927.1229776104793,1555
929.3394709186747,1596
931.555365040506,1564
933.7706602036275,1531
935.9853566357709,1575
938.1994545647489,1630
940.4129542184515,1573
942.6258558248488,1585
944.8381596119883,1650
947.0498658079974,1604
949.2609746410825,1571
951.4714863395287,1578
953.6814011316998,1637
955.8907192460387,1583
958.0994409110671,1621
960.3075663553858,1577
962.5150958076741,1526
964.7220294966913,1531
966.928367651274,1587
969.1341105003388,1613
971.3392582728806,1605
973.5438111979742,1592
975.747769504772,1547
977.9511334225061,1542
980.153903180487,1598
982.3560790081052,1625
984.5576611348289,1579
986.7586497902058,1542
988.9590452038618,1590
991.158847605503,1523
993.3580572249133,1535
995.5566742919558,1522
997.7546990365728,1511
999.952131688785,1513
1002.1489724786926,1507
1004.3452216364743,1388
1006.5408793923874,1462
1008.7359459767691,1434
1010.9304216200343,1414
1013.1243065526781,1439
1015.3176010052733,1403
1017.510305208472,1435
1019.7024193930064,1414
1021.8939437896848,1396
1024.0848786293977,1387
1026.2752241431122,1356
1028.4649805618747,1365
1030.6541481168115,1431
1032.842727039127,1342
1035.0307175601051,1371
1037.2181199111074,1354
1039.4049343235752,1362
1041.591161029029,1383
1043.7768002590683,1326
1045.9618522453698,1349
1048.1463172196918,1342
1050.3301954138697,1384
1052.513487059818,1347
1054.69619238953,1367
1056.8783116350783,1372
1059.0598450286152,1330
1061.2407928023704,1400
1063.4211551886528,1334
1065.6009324198508,1408
1067.780124728432,1396
1069.9587323469414,1351
1072.1367555080046,1376
1074.314194444325,1346
1076.4910493886855,1347
1078.667320573947,1335
1080.843008233051,1296
1083.0181125990161,1324
1085.1926339049414,1326
1087.3665723840027,1327
1089.5399282694575,1318
1091.7127017946405,1338
1093.8848931929647,1333
1096.0565026979243,1334
1098.2275305430899,1294
1100.3979769621128,1283
1102.567842188722,1248
1104.737126456726,1283
1106.9058300000124,1329
1109.0739530525475,1322
1111.2414958483764,1275
1113.4084586216231,1335
1115.5748416064907,1296
1117.7406450372605,1328
1119.9058691482942,1335
1122.0705141740304,1315
1124.2345803489884,1270
1126.3980679077658,1368
1128.5609770850388,1320
1130.7233081155623,1276
1132.8850612341707,1239
1135.0462366757774,1253
1137.2068346753745,1324
1139.3668554680326,1342
1141.526299288901,1303
1143.68516637321,1307
1145.8434569562655,1280
1148.001171273455,1304
1150.158309560244,1271
1152.3148720521767,1296
1154.470858984876,1300
1156.626270594044,1269
1158.7811071154629,1300
1160.9353687849912,1319
1163.089055838569,1311
1165.242168512213,1227
1167.3947070420209,1250
1169.5466716641677,1299
1171.6980626149075,1246
1173.8488801305748,1264
1175.9991244475814,1239
1178.1487958024186,1251
1180.2978944316555,1297
1182.4464205719428,1255
1184.5943744600072,1250
1186.7417563326567,1253
1188.8885664267755,1246
1191.0348049793297,1272
1193.1804722273619,1254
1195.325568407995,1244
1197.4700937584303,1256
1199.614048515948,1294
1201.7574329179074,1285
1203.900247201746,1289
1206.042491604982,1259
1208.1841663652099,1259
1210.3252717201053,1252
1212.465807907422,1324
1214.6057751649923,1281
1216.7451737307279,1345
1218.8840038426192,1306
1221.0222657387353,1285
1223.1599596572241,1314
1225.2970858363137,1342
1227.4336445143094,1316
1229.5696359295966,1297
1231.705060320639,1282
1233.8399179259786,1269
1235.9742089842384,1279
1238.107933734118,1332
1240.2410924143974,1276
1242.373685263935,1325
1244.5057125216676,1293
1246.6371744266116,1248
1248.7680712178621,1312
1250.898403134593,1308
1253.028170416058,1283
1255.1573733015875,1303
1257.2860120305932,1310
1259.4140868425648,1241
1261.54159797707,1307
1263.6685456737569,1314
1265.7949301723515,1289
1267.9207517126597,1317
1270.046010534565,1320
1272.1707068780306,1343
1274.2948409830983,1334
1276.4184130898889,1330
1278.541423438603,1272
1280.6638722695184,1326
1282.785759822993,1365
1284.9070863394636,1348
1287.0278520594447,1378
1289.1480572235314,1362
1291.2677020723963,1395
1293.3867868467923,1454
1295.5053117875495,1411
1297.623277135579,1360
1299.740683131868,1390
1301.8575300174857,1402
1303.973818033578,1431
1306.0895474213703,1472
1308.2047184221678,1453
1310.3193312773528,1418
1312.4333862283888,1455
1314.5468835168163,1435
1316.659823384255,1468
1318.7722060724045,1432
1320.8840318230418,1499
1322.9953008780249,1489
1325.1060134792888,1474
1327.2161698688478,1479
1329.3257702887959,1486
1331.4348149813054,1418
1333.5433041886276,1470
1335.6512381530933,1466
1337.7586171171101,1430
1339.8654413231675,1437
1341.9717110138317,1392
1344.0774264317488,1419
1346.1825878196432,1419
1348.2871954203192,1420
1350.3912494766587,1454
1352.4947502316231,1421
1354.5976979282532,1492
1356.7000928096686,1426
1358.8019351190665,1399
1360.9032250997243,1401
1363.0039629949988,1405
1365.1041490483235,1422
1367.2037835032133,1348
1369.3028666032606,1412
1371.401398592137,1354
1373.4993797135926,1416
1375.5968102114575,1379
1377.6936903296396,1377
1379.7900203121262,1397
1381.8858004029835,1340
1383.9810308463561,1399
1386.075711886469,1392
1388.1698437676241,1350
1390.2634267342032,1394
1392.356461030667,1400
1394.4489469015557,1350
1396.5408845914872,1365
1398.6322743451592,1433
1400.7231164073469,1414
1402.813411022907,1407
1404.903158436773,1371
1406.9923588939578,1358
1409.0810126395531,1381
1411.1691199187303,1343
1413.2566809767386,1356
1415.343696058907,1352
1417.4301654106425,1348
1419.5160892774315,1360
1421.6014679048399,1347
1423.6863015385125,1390
1425.7705904241707,1416
1427.8543348076178,1376
1429.9375349347342,1383
1432.0201910514802,1371
1434.102303403894,1339
1436.1838722380944,1329
1438.2648978002767,1377
1440.3453803367174,1365
1442.4253200937692,1392
1444.5047173178677,1369
1446.5835722555234,1433
1448.6618851533285,1445
1450.739656257952,1427
1452.8168858161434,1387
1454.8935740747306,1328
1456.96972128062,1458
1459.045327680797,1396
1461.120393522327,1388
1463.1949190523528,1440
1465.2689045180973,1389
1467.3423501668608,1428
1469.415256246024,1511
1471.4876230030463,1477
1473.559450685465,1433
1475.6307395408976,1435
1477.7014898170391,1492
1479.771701761665,1481
1481.8413756226287,1443
1483.9105116478618,1468
1485.9791100853772,1495
1488.0471711832643,1469
1490.1146951896926,1503
1492.1816823529098,1513
1494.2481329212433,1446
1496.3140471430984,1479
1498.3794252669609,1506
1500.4442675413939,1551
1502.5085742150404,1512
1504.572345536622,1532
1506.6355817549388,1602
1508.6982831188702,1532
1510.7604498773744,1553
1512.8220822794883,1568
1514.8831805743293,1482
1516.9437450110909,1588
1519.003775839048,1597
1521.0632733075522,1611
1523.1222376660367,1584
1525.1806691640113,1572
1527.2385680510652,1604
1529.2959345768668,1575
1531.3527689911643,1629
1533.4090715437833,1660
1535.4648424846291,1707
1537.5200820636855,1678
1539.5747905310159,1727
1541.6289681367616,1652
1543.6826151311434,1778
1545.7357317644614,1732
1547.7883182870937,1770
1549.8403749494987,1761
1551.8919020022113,1847
1553.9428996958477,1808
1555.9933682811015,1882
1558.0433080087469,1824
1560.0927191296346,1871
1562.1416018946961,1972
1564.1899565549415,1916
1566.2377833614592,1956
1568.2850825654164,1950
1570.3318544180606,1959
1572.3780991707158,1919
1574.423817074788,1925
1576.4690083817595,1840
1578.5136733431923,1806
1580.5578122107272,1748
1582.601425236085,1747
1584.6445126710646,1752
1586.6870747675434,1693
1588.7291117774776,1688
1590.7706239529034,1651
1592.8116115459347,1657
1594.8520748087658,1641
1596.8920139936686,1532
1598.9314293529933,1560
1600.9703211391711,1565
1603.008689604711,1585
1605.0465350022005,1507
1607.0838575843068,1511
1609.1206576037753,1511
1611.1569353134305,1434
1613.1926909661765,1511
1615.2279248149953,1457
1617.2626371129481,1432
1619.2968281131757,1399
1621.3304980688963,1410
1623.3636472334088,1378
1625.39627586009,1317
1627.428384202396,1388
1629.459972513861,1345
1631.4910410480993,1416
1633.5215900588028,1316
1635.551619799744,1366
1637.5811305247717,1353
1639.6101224878166,1292
1641.6385959428862,1391
1643.6665511440683,1363
1645.693988345528,1303
1647.7209078015112,1270
1649.7473097663405,1353
1651.7731944944203,1295
1653.7985622402307,1347
1655.823413258333,1297
1657.847747803366,1310
1659.8715661300494,1343
1661.8948684931793,1339
1663.9176551476316,1285
1665.9399263483624,1294
1667.9616823504057,1300
1669.982923408873,1276
1672.0036497789574,1292
1674.0238617159293,1287
1676.043559475138,1281
1678.0627433120121,1263
1680.081413482059,1243
1682.0995702408654,1229
1684.117213844096,1276
1686.134344547495,1307
1688.1509626068864,1288
1690.1670682781705,1290
1692.182661817329,1282
1694.1977434804217,1298
1696.2123135235875,1329
1698.226372203043,1302
1700.2399197750851,1243
1702.2529564960905,1308
1704.2654826225112,1208
1706.277498410882,1268
1708.2890041178139,1316
1710.2999999999988,1301
1712.3104863142066,1285
1714.3204633172854,1245
1716.329931266163,1269
1718.3388904178469,1337
1720.3473410294214,1320
1722.3552833580516,1266
1724.3627176609807,1279
1726.3696441955308,1284
1728.3760632191033,1228
1730.3819749891782,1252
1732.3873797633146,1326
1734.3922777991502,1315
1736.3966693544012,1305
1738.4005546868639,1332
1740.4039340544127,1319
1742.406807715001,1265
1744.4091759266616,1262
1746.4110389475054,1320
1748.4123970357223,1262
1750.413250449582,1262
1752.4135994474318,1268
1754.4134442876993,1292
1756.4127852288902,1250
1758.4116225295893,1282
1760.4099564484595,1263
1762.407787244244,1280
1764.405115175764,1272
1766.4019405019203,1278
1768.3982634816916,1268
1770.3940843741357,1305
1772.3894034383907,1238
1774.3842209336717,1275
1776.378537119274,1274
1778.372352254571,1238
1780.3656665990156,1224
1782.3584804121397,1264
1784.3507939535534,1244
1786.3426074829463,1286
1788.3339212600863,1273
1790.3247355448211,1267
1792.3150505970766,1251
1794.3048666768573,1238
1796.2941840442477,1245
1798.2830029594106,1291
1800.2713236825884,1263
1802.2591464741004,1292
1804.2464715943465,1269
1806.2332993038058,1249
1808.2196298630352,1242
1810.2054635326708,1255
1812.190800573428,1317
1814.175641246101,1258
1816.1599858115628,1286
1818.1438345307652,1295
1820.127187664738,1286
1822.1100454745924,1216
1824.092408221516,1283
1826.0742761667766,1332
1828.055649571721,1322
1830.0365286977735,1284
1832.0169138064398,1267
1833.9968051593014,1283
1835.9762030180214,1287
1837.9551076443408,1278
1839.9335193000788,1295
1841.9114382471344,1258
1843.888864747485,1247
1845.8657990631878,1242
1847.842241456378,1324
1849.8181921892697,1277
1851.7936515241558,1225
1853.7686197234098,1237
1855.7430970494815,1238
1857.7170837649014,1265
1859.6905801322787,1255
1861.6635864143004,1254
1863.6361028737338,1254
1865.608129773424,1247
1867.5796673762961,1256
1869.5507159453537,1238
1871.521275743678,1220
1873.4913470344313,1319
1875.4609300808534,1238
1877.4300251462632,1287
1879.3986324940588,1305
1881.366752387717,1270
1883.3343850907936,1261
1885.3015308669228,1287
1887.268189979819,1285
1889.2343626932739,1310
1891.2000492711595,1291
1893.1652499774254,1334
1895.1299650761011,1282
1897.0941948312952,1278
1899.0579395071945,1281
1901.0211993680641,1280
1902.98397467825,1320
1904.9462657021745,1266
1906.9080727043415,1255
1908.869395949332,1247
1910.8302357018065,1288
1912.790592226504,1302
1914.7504657882428,1282
1916.7098566519212,1273
1918.6687650825133,1266
1920.6271913450764,1338
1922.5851357047422,1271
1924.5425984267245,1265
1926.499579776314,1281
1928.4560800188833,1227
1930.4120994198802,1249
1932.367638244833,1336
1934.32269675935,1346
1936.2772752291175,1312
1938.231373919899,1232
1940.1849930975404,1248
1942.1381330279637,1258
1944.0907939771696,1273
1946.0429762112412,1259
1947.9946799963363,1242
1949.9459055986945,1267
1951.896653284633,1283
1953.8469233205478,1286
1955.7967159729142,1308
1957.7460315082863,1300
1959.6948701932974,1227
1961.6432322946594,1319
1963.5911180791632,1277
1965.5385278136787,1247
1967.4854617651545,1297
1969.4319202006182,1231
1971.377903387176,1274
1973.3234115920136,1277
1975.268445082395,1307
1977.2130041256642,1244
1979.1570889892423,1303
1981.1006999406304,1252
1983.04383724741,1271
1984.986501177238,1256
1986.928691997853,1247
1988.8704099770712,1254
1990.811655382789,1315
1992.7524284829801,1246
1994.692729545698,1267
1996.6325588390755,1274
1998.5719166313224,1339
2000.5108031907307,1324
2002.4492187856677,1327
2004.387163684583,1220
2006.3246381560011,1285
2008.2616424685298,1304
2010.1981768908527,1266
2012.1342416917332,1258
2014.069837140014,1268
2016.0049635046162,1214
2017.9396210545406,1209
2019.8738100588666,1274
2021.8075307867502,1219
2023.740783507431,1229
2025.6735684902228,1271
2027.6058860045214,1236
2029.5377363198004,1222
2031.4691197056118,1235
2033.4000364315875,1253
2035.3304867674374,1301
2037.260470982952,1272
2039.189989347998,1217
2041.1190421325232,1217
2043.047629606554,1244
2044.9757520401945,1254
2046.9034097036288,1280
2048.8306028671195,1333
2050.7573318010086,1268
2052.683596775716,1277
2054.609398061742,1229
2056.5347359296647,1227
2058.4596106501403,1276
2060.384022493906,1213
2062.3079717317764,1248
2064.231458634646,1283
2066.1544834734873,1301
2068.077046519352,1246
2069.99914804337,1256
2071.9207883167524,1255
2073.8419676107865,1247
2075.7626861968406,1292
2077.6829443463607,1253
2079.6027423308715,1275
2081.522080421977,1258
2083.440958891362,1266
2085.359378010786,1229
2087.2773380520907,1237
2089.194839287196,1285
2091.111881988101,1232
2093.0284664268825,1289
2094.9445928756973,1255
2096.86026160678,1243
2098.775472892446,1273
2100.690227005088,1294
2102.604524217178,1245
2104.5183648012676,1273
2106.431749029985,1291
2108.34467717604,1241
2110.2571495122206,1273
2112.169166311393,1213
2114.080727846503,1279
2115.9918343905747,1232
2117.902486216711,1243
2119.8126835980956,1252
2121.722426807987,1237
2123.6317161197285,1284
2125.5405518067364,1326
2127.448934142509,1285
2129.356863400624,1217
2131.264339854737,1267
2133.1713637785815,1260
2135.077935445972,1276
2136.9840551308002,1331
2138.889723107037,1338
2140.7949396487334,1247
2142.699705030018,1284
2144.6040195250994,1226
2146.507883408264,1268
2148.4112969538774,1250
2150.3142604363848,1216
2152.2167741303097,1321
2154.1188383102535,1240
2156.0204532508997,1228
2157.9216192270064,1282
2159.822336513414,1254
2161.7226053850413,1253
2163.622426116884,1266
2165.5217989840185,1303
2167.4207242616,1306
2169.319202224862,1305
2171.2172331491165,1253
2173.1148173097563,1246
2175.0119549822507,1343
2176.90864644215,1273
2178.8048919650823,1275
2180.7006918267534,1222
2182.596046302952,1274
2184.4909556695407,1253
2186.3854202024645,1256
2188.279440177746,1276
2190.173015871487,1294
2192.066147559868,1300
2193.958835519149,1227
2195.851080025667,1215
2197.7428813558417,1226
2199.6342397861667,1302
2201.5251555932186,1265
2203.415629053651,1194
2205.3056604441986,1216
2207.19525004167,1257
2209.084398122958,1350
2210.9731049650327,1298
2212.861370844941,1311
2214.749196039812,1270
2216.636580826851,1291
2218.523525483344,1292
2220.410030286655,1284
2222.296095514226,1268
2224.1817214435805,1330
2226.066908352319,1286
2227.951656518121,1249
2229.835966218746,1281
2231.71983773203,1284
2233.6032713358913,1309
2235.486267308324,1305
2237.3688259274036,1275
2239.2509474712824,1306
2241.132632218193,1314
2243.013880446447,1291
2244.8946924344323,1301
2246.7750684606203,1314
2248.6550088035574,1237
2250.534513741871,1276
2252.413583554265,1310
2254.292218519526,1275
2256.170418916517,1330
2258.0481850241786,1279
2259.925517121534,1259
2261.8024154876825,1225
2263.678880401803,1267
2265.5549121431536,1265
2267.430510991071,1289
2269.305677224971,1261
2271.180411124348,1290
2273.0547129687766,1246
2274.9285830379076,1346
2276.8020216114737,1281
2278.6750289692845,1278
2280.5476053912294,1314
2282.4197511572766,1314
2284.2914665474727,1329
2286.162751841943,1351
2288.0336073208937,1263
2289.904033264608,1307
2291.774029953448,1287
2293.6435976678554,1291
2295.5127366883517,1347
2297.381447295534,1272
2299.2497297700825,1231
2301.1175843927526,1246
2302.9850114443825,1196
2304.852011205885,1206
2306.7185839582553,1190
2308.5847299825664,1219
2310.4504495599676,1241
2312.3157429716925,1186
2314.1806104990483,1182
2316.0450524234247,1184
2317.9090690262888,1194
2319.772660589186,1181
2321.635827393742,1149
2323.498569721661,1137
2325.3608878547248,1180
2327.2227820747967,1201
2329.0842526638157,1189
2330.945299903803,1225
2332.805924076857,1157
2334.6661254651535,1139
2336.525904350951,1157
2338.3852610165827,1166
2340.244195744464,1199
2342.102708817088,1231
2343.9608005170253,1184
2345.8184711269287,1139
2347.675720929526,1175
2349.532550207628,1159
2351.38895924412,1153
2353.24494832197,1164
2355.100517724223,1209
2356.955667734004,1148
2358.810398634514,1129
2360.664710709037,1183
2362.5186042409337,1172
2364.3720795136437,1202
2366.225136810686,1151
2368.0777764156583,1192
2369.929998612237,1166
2371.7818036841777,1192
2373.633191915315,1187
2375.484163589562,1226
2377.3347189909114,1118
2379.184858403434,1164
2381.03458211128,1256
2382.8838903986775,1179
2384.732783549936,1136
2386.5812618494406,1196
2388.4293255816588,1170
2390.2769750311327,1212
2392.1242104824883,1210
2393.971032220427,1180
2395.8174405297295,1155
2397.6634356952563,1172
2399.509018001947,1176
2401.3541877348193,1132
2403.1989451789705,1167
2405.043290619576,1238
2406.8872243418905,1202
2408.730746631247,1172
2410.5738577730594,1195
2412.4165580528183,1202
2414.258847756095,1239
2416.100727168537,1211
2417.9421965758734,1237
2419.783256263912,1178
2421.623906518538,1235
2423.4641476257157,1169
2425.303979871491,1181
2427.143403541984,1184
2428.9824189233977,1204
2430.821026302012,1199
2432.6592259641866,1211
2434.497018196361,1159
2436.33440328505,1228
2438.171381516851,1232
2440.00795317844,1169
2441.844118556569,1162
2443.6798779380724,1258
2445.5152316098606,1253
2447.3501798589255,1193
2449.1847229723357,1163
2451.0188612372403,1111
2452.8525949408663,1228
2454.6859243705203,1165
2456.518849813587,1126
2458.3513715575314,1172
2460.183489889895,1165
2462.015205098301,1181
2463.8465174704493,1251
2465.67742729412,1145
2467.5079348571717,1194
2469.338040447542,1193
2471.1677443532476,1224
2472.9970468623833,1214
2474.825948263123,1142
2476.6544488437207,1170
2478.482548892508,1210
2480.310248697896,1219
2482.137548548374,1153
2483.9644487325118,1214
2485.790949538956,1149
2487.617051256433,1168
2489.44275417375,1214
2491.26805857979,1197
2493.0929647635157,1186
2494.917473013971,1177
2496.741583620276,1208
2498.5652968716304,1190
2500.3886130573137,1194
2502.2115324666834,1184
2504.0340553891765,1165
2505.856182114308,1167
2507.6779129316733,1234
2509.499248130945,1238
2511.3201880018764,1149
2513.140732834298,1219
2514.9608829181198,1201
2516.780638543331,1232
2518.6,1247
2520.418967578273,1244
2522.237541568376,1224
2524.0557222606144,1162
2525.8735099453706,1163
2527.6909049131086,1240
2529.507907454368,1184
2531.32451785977,1173
2533.140736420014,1193
2534.9565634258774,1226
2536.771999168218,1204
2538.5870439379714,1256
2540.4016980261526,1208
2542.2159617238544,1263
2544.02983532225,1230
2545.8433191125914,1232
2547.656413386209,1233
2549.4691184345115,1231
2551.2814345489874,1193
2553.093362021204,1180
2554.904901142808,1247
2556.716052205523,1239
2558.526815501153,1206
2560.3371913215824,1197
2562.147179958771,1291
2563.956781704761,1275
2565.7659968516705,1248
2567.5748256916986,1245
2569.3832685171224,1233
2571.1913256202984,1231
2572.9989972936614,1264
2574.806283829725,1268
2576.613185521084,1270
2578.4197026604074,1297
2580.2258355404483,1339
2582.031584454035,1238
2583.836949694077,1252
2585.6419315535613,1259
2587.4465303255533,1272
2589.2507463032002,1262
2591.0545797797245,1261
2592.8580310484303,1223
2594.6611004026995,1298
2596.463788135992,1307
2598.266094541849,1312
2600.0680199138874,1297
2601.869564545807,1252
2603.670728731383,1336
2605.4715127644704,1299
2607.2719169390048,1307
2609.071941548998,1300
2610.8715868885433,1292
2612.670853251811,1342
2614.469740933052,1350
2616.268250226594,1355
2618.0663814268455,1306
2619.864134828292,1268
2621.6615107255006,1295
2623.458509413115,1271
2625.2551311858597,1272
2627.0513763385347,1286
2628.8472451660223,1260
2630.6427379632833,1258
2632.4378550253564,1290
2634.232596647359,1320
2636.026963124488,1353
2637.8209547520187,1321
2639.6145718253065,1284
2641.407814639785,1276
2643.200683490966,1305
2644.9931786744414,1251
2646.7853004858807,1297
2648.577049221034,1298
2650.3684251757277,1332
2652.1594286458712,1288
2653.9500599274484,1306
2655.740319316525,1267
2657.5302071092437,1244
2659.3197236018286,1296
2661.10886909058,1258
2662.8976438718782,1261
2664.686048242183,1256
2666.4740824980327,1252
2668.2617469360443,1269
2670.0490418529134,1239
2671.8359675454153,1217
2673.622524310403,1222
2675.408712444811,1270
2677.1945322456495,1238
2678.979984010009,1265
2680.76506803506,1212
2682.5497846180497,1240
2684.334134056306,1270
2686.1181166472343,1262
2687.9017326883213,1239
2689.6849824771293,1226
2691.4678663113013,1174
2693.2503844885596,1216
2695.032537306705,1252
2696.8143250636167,1237
2698.5957480572542,1216
2700.3768065856534,1231
2702.1575009469316,1156
2703.937831439283,1169
2705.717798360982,1166
2707.4974020103837,1171
2709.276642685917,1228
2711.055520686095,1205
2712.834036309506,1188
2714.612189854819,1226
2716.389981620782,1230
2718.1674119062204,1240
2719.944481010041,1204
2721.721189231226,1212
2723.4975368688415,1163
2725.273524222027,1202
2727.0491515900053,1150
2728.824419272075,1208
2730.5993275676146,1237
2732.3738767760838,1186
2734.148067197016,1199
2735.921899130031,1182
2737.6953728748194,1228
2739.468488731156,1192
2741.2412469988926,1212
2743.0136479779617,1225
2744.785691968372,1216
2746.5573792702116,1209
2748.3287101836504,1220
2750.099685008934,1210
2751.870304046388,1166
2753.640567596418,1194
2755.4104759595057,1180
2757.1800294362156,1178
2758.949228327187,1201
2760.7180729331412,1212
2762.486563554877,1175
2764.254700493272,1197
2766.022484049284,1115
2767.789914523947,1170
2769.5569922183786,1192
2771.3237174337705,1180
2773.090090471394,1138
2774.8561116326036,1184
2776.6217812188274,1171
2778.3870995315756,1182
2780.1520668724356,1184
2781.9166835430747,1173
2783.6809498452394,1249
2785.444866080754,1205
2787.2084325515225,1181
2788.971649559527,1160
2790.73451740683,1220
2792.4970363955713,1197
2794.2592068279705,1204
2796.0210290063264,1193
2797.7825032330147,1150
2799.543629810493,1186
2801.304409041296,1179
2803.0648412280366,1204
2804.8249266734088,1182
2806.5846656801846,1199
2808.344058551212,1194
2810.1031055894246,1188
2811.8618070978273,1224
2813.6201633795085,1169
2815.378174737636,1164
2817.1358414754536,1152
2818.893163896285,1154
2820.6501423035334,1224
2822.4067770006814,1192
2824.1630682912883,1192
2825.9190164789957,1196
2827.6746218675207,1189
2829.429884760661,1200
2831.184805462294,1190
2832.9393842763743,1234
2834.693621506936,1216
2836.4475174580916,1208
2838.201072434034,1208
2839.954286739034,1238
2841.707160677441,1171
2843.459694553685,1204
2845.2118886722724,1180
2846.96374333779,1171
2848.7152588549034,1229
2850.4664355283567,1219
2852.217273662973,1210
2853.9677735636546,1190
2855.7179355353833,1213
2857.4677598832186,1252
2859.217246912299,1187
2860.9663969278427,1203
2862.715210235146,1193
2864.4636871395846,1171
2866.211827946614,1150
2867.9596329617652,1193
2869.7071024906536,1191
2871.4542368389684,1220
2873.20103631248,1175
2874.947501217038,1145
2876.6936318585695,1208
2878.4394285430812,1219
2880.1848915766604,1160
2881.9300212654707,1208
2883.6748179157553,1171
2885.4192818338374,1207
2887.1634133261173,1181
2888.907212699077,1232
2890.6506802592744,1250
2892.393816313348,1187
2894.1366211680142,1244
2895.8790951300693,1139
2897.621238506388,1145
2899.363051603925,1186
2901.1045347297118,1184
2902.8456881908596,1165
2904.58651229456,1134
2906.327007348081,1140
2908.067173658772,1140
2909.8070115340597,1183
2911.5465212814497,1178
2913.285703208527,1173
2915.0245576229563,1204
2916.7630848324807,1155
2918.5012851449196,1169
2920.2391588681758,1169
2921.976706310227,1160
2923.7139277791334,1211
2925.4508235830313,1194
2927.187394030137,1152
2928.923639428745,1178
2930.6595600872306,1199
2932.395156314046,1168
2934.1304284177218,1209
2935.8653767068713,1199
2937.6000014901815,1182
2939.3343030764227,1182
2941.068281774442,1194
2942.8019378931644,1221
2944.5352717415976,1212
2946.2682836288236,1179
2948.0009738640065,1178
2949.7333427563885,1226
2951.465390615289,1204
2953.1971177501086,1200
2954.9285244703265,1181
2956.6596110855,1192
2958.3903779052657,1177
2960.1208252393385,1160
2961.8509533975125,1123
2963.5807626896617,1158
2965.3102534257378,1173
2967.0394259157715,1173
2968.768280469873,1108
2970.496817398232,1171
2972.2250370111146,1168
2973.952939618869,1140
2975.6805255319196,1191
2977.4077950607707,1180
2979.134748516006,1241
2980.861386208289,1245
2982.587708448359,1154
2984.313715547037,1170
2986.039407815222,1161
2987.764785563891,1145
2989.489849104102,1203
2991.2145987469908,1134
2992.9390348037705,1199
2994.6631575857346,1139
2996.3869674042576,1177
2998.1104645707887,1151
2999.83364939686,1155
3001.5565221940783,1136
3003.2790832741334,1145
3005.0013329487924,1183
3006.7232715298996,1174
3008.4448993293804,1126
3010.166216659239,1164
3011.887223831558,1149
3013.607921158498,1140
3015.3283089522993,1155
3017.0483875252826,1164
3018.7681571898443,1167
3020.4876182584626,1184
3022.2067710436927,1098
3023.9256158581707,1125
3025.644153014609,1101
3027.362382825801,1172
3029.0803056046193,1208
3030.797921664012,1156
3032.5152313170106,1161
3034.2322348767225,1160
3035.9489326563353,1116
3037.665324969115,1167
3039.3814121284063,1151
3041.097194447633,1156
3042.812672240299,1105
3044.5278458199855,1192
3046.2427155003525,1145
3047.9572815951406,1102
3049.671544418167,1139
3051.38550428333,1096
3053.0991615046073,1077
3054.812516396051,1156
3056.5255692717974,1099
3058.2383204460575,1186
3059.9507702331257,1141
3061.662918947372,1093
3063.3747669032446,1146
3065.0863144152736,1142
3066.7975617980674,1128
3068.508509366309,1159
3070.219157434767,1131
3071.9295063182844,1111
3073.639556331785,1154
3075.3493077902704,1176
3077.058761008821,1112
3078.7679163025964,1173
3080.476773986837,1126
3082.1853343768594,1087
3083.89359778806,1101
3085.6015645359153,1097
3087.3092349359786,1139
3089.016609303884,1078
3090.7236879553434,1117
3092.4304712061476,1101
3094.136959372166,1154
3095.843152769349,1125
3097.5490517137237,1154
3099.2546565213966,1140
3100.959967508554,1102
3102.66498499146,1143
3104.3697092864577,1150
3106.0741407099695,1115
3107.778279578498,1145
3109.482126208622,1179
3111.1856809170004,1136
3112.8889440203716,1109
3114.5919158355528,1127
3116.294596679439,1106
3117.996986869006,1152
3119.6990867213062,1142
3121.4008965534726,1158
3123.102416682717,1166
3124.803647426329,1175
3126.5045891016784,1140
3128.205242026213,1184
3129.90560651746,1192
3131.605682893025,1117
3133.3054714705922,1154
3135.0049725679282,1177
3136.7041865028714,1145
3138.4031135933465,1136
3140.101754157353,1171
3141.800108512971,1144
3143.498176978357,1171
3145.1959598717494,1163
3146.8934575114636,1171
3148.5906702158954,1116
3150.2875983035183,1086
3151.9842420928853,1139
3153.680601902627,1116
3155.376678051456,1095
3157.07247085816,1116
3158.767980641609,1087
3160.463207720748,1148
3162.158152414606,1145
3163.8528150422862,1124
3165.5471959229726,1148
3167.2412953759303,1144
3168.9351137204976,1131
3170.628651276098,1136
3172.3219083622307,1152
3174.014885298474,1120
3175.707582404485,1114
3177.4000000000005,1134
3179.092138404835,1157
3180.7839979388846,1115
3182.47557892212,1149
3184.166881674594,1162
3185.8579065164386,1073
3187.5486537678626,1169
3189.2391237491547,1143
3190.9293167806827,1155
3192.6192331828934,1165
3194.3088732763117,1134
3195.998237381542,1131
3197.687325819268,1119
3199.376138910251,1192
3201.064676975334,1151
3202.7529403354347,1108
3204.4409293115523,1118
3206.1286442247647,1125
3207.816085396229,1096
3209.5032531471825,1114
3211.190147798936,1147
3212.8767696728846,1138
3214.5631190905015,1159
3216.2491963733373,1122
3217.9350018430214,1167
3219.6205358212637,1159
3221.305798629851,1099
3222.990790590651,1158
3224.6755120256103,1107
3226.359963256751,1105
3228.0441446061795,1177
3229.7280563960758,1108
3231.411698948703,1145
3233.0950725863995,1145
3234.778177631587,1139
3236.461014406761,1091
3238.1435832345005,1154
3239.8258844374595,1122
3241.507918338374,1170
3243.1896852600576,1128
3244.8711855254023,1092
3246.552419457381,1154
3248.233387379042,1121
3249.914089613516,1171
3251.59452648401,1126
3253.274698313813,1133
3254.95460542629,1161
3256.6342481448855,1137
3258.313626793125,1136
3259.9927416946084,1085
3261.6715931730196,1139
3263.3501815521176,1092
3265.0285071557437,1084
3266.706570307815,1156
3268.3843713323286,1157
3270.0619105533615,1133
3271.739188295068,1138
3273.4162048816834,1106
3275.0929606375184,1117
3276.769455886966,1089
3278.445690954498,1094
3280.1216661646613,1139
3281.797381842087,1126
3283.4728383114807,1145
3285.1480358976296,1157
3286.8229749253996,1085
3288.4976557197333,1105
3290.172078605655,1141
3291.846243908266,1122
3293.5201519527463,1146
3295.193803064357,1126
3296.8671975684374,1093
3298.5403357904024,1076
3300.21321805575,1136
3301.8858446900567,1132
3303.558216018975,1088
3305.23033236824,1170
3306.9021940636603,1070
3308.57380143113,1126
3310.2451547966184,1071
3311.916254486174,1169
3313.5871008259246,1079
3315.2576941420766,1119
3316.9280347609147,1123
3318.5981230088046,1068
3320.2679592121895,1119
3321.9375436975924,1101
3323.606876791612,1105
3325.27595882093,1106
3326.944790112305,1090
3328.6133709925753,1088
3330.2817017886573,1109
3331.949782827547,1092
3333.617614436319,1127
3335.2851969421245,1128
3336.952530672199,1134
3338.619615953853,1075
3340.286453114475,1184
3341.9530424815357,1127
3343.619384382583,1184
3345.2854791452437,1123
3346.951327097224,1090
3348.6169285663073,1120
3350.2822838803577,1079
3351.947393367319,1182
3353.61225735521,1103
3355.2768761721345,1112
3356.9412501462693,1125
3358.605379605873,1102
3360.2692648792827,1105
3361.9329062949146,1176
3363.596304181263,1070
