CollectionTime,7/9/2024 4:02:19 PM
ExposureUsed,3
CalibratedSpectrum
-962.7078968117929,442
-959.9714848408522,464
-957.2358232597828,482
-954.5009119013725,479
-951.7667505983302,464
-949.0333391832855,489
-946.3006774887896,498
-943.5687653473143,487
-940.837602591253,473
-938.1071890529199,459
-935.3775245645503,464
-932.6486089583007,503
-929.9204420662485,494
-927.1930237203925,464
-924.4663537526524,483
-921.7404319948689,458
-919.0152582788041,493
-916.2908324361409,534
-913.5671542984834,532
-910.8442236973568,478
-908.1220404642074,501
-905.4006044304027,495
-902.679915427231,510
-899.959973285902,491
-897.2407778375464,493
-894.5223289132158,460
-891.8046263438832,459
-889.0876699604426,466
-886.3714595937089,444
-883.6559950744183,452
-880.9412762332282,482
-878.2273029007168,455
-875.5140749073835,453
-872.8015920836489,474
-870.0898542598545,471
-867.3788612662631,465
-864.6686129330585,485
-861.9591090903457,525
-859.2503495681506,507
-856.5423341964203,482
-853.8350628050229,483
-851.1285352237478,467
-848.4227512823054,473
-845.7177108103272,465
-843.0134136373656,455
-840.3098595928943,465
-837.6070485063082,499
-834.9049802069229,496
-832.2036545239757,491
-829.5030712866244,493
-826.8032303239481,484
-824.1041314649472,507
-821.4057745385428,475
-818.7081593735775,487
-816.0112857988148,487
-813.3151536429393,496
-810.6197627345566,482
-807.9251129021936,501
-805.2312039742981,520
-802.5380357792392,497
-799.8456081453069,496
-797.1539209007124,533
-794.462973873588,527
-791.772766891987,551
-789.083299783884,517
-786.3945723771743,502
-783.7065844996748,479
-781.0193359791231,497
-778.3328266431781,521
-775.6470563194197,494
-772.9620248353489,477
-770.2777320183878,484
-767.5941776958798,504
-764.9113616950891,507
-762.2292838432011,498
-759.5479439673222,503
-756.8673418944801,484
-754.1874774516235,526
-751.5083504656222,504
-748.8299607632671,533
-746.15230817127,532
-743.475392516264,504
-740.7992136248035,522
-738.1237713233636,507
-735.4490654383407,505
-732.7750957960521,538
-730.1018622227365,528
-727.4293645445534,512
-724.7576025875837,532
-722.0865761778291,529
-719.4162851412126,533
-716.7467293035781,521
-714.0779084906909,547
-711.409822528237,525
-708.7424712418238,527
-706.0758544569796,525
-703.4099719991541,532
-700.7448236937178,517
-698.0804093659622,528
-695.4167288411002,535
-692.7537819442656,510
-690.0915685005134,532
-687.4300883348199,526
-684.7693412720819,524
-682.1093271371178,538
-679.4500457546669,530
-676.7914969493897,539
-674.1336805458676,513
-671.4765963686034,548
-668.8202442420206,571
-666.1646239904642,542
-663.5097354382001,567
-660.8555784094151,521
-658.2021527282176,539
-655.5494582186366,568
-652.8974947046223,551
-650.2462620100463,541
-647.5957599587009,561
-644.9459883742998,554
-642.2969470804776,566
-639.6486359007902,582
-637.0010546587141,583
-634.3542031776476,592
-631.7080812809096,559
-629.0626887917401,568
-626.4180255333008,555
-623.7740913286734,560
-621.1308860008619,585
-618.4884093727904,572
-615.8466612673046,588
-613.2056415071715,614
-610.5653499150785,583
-607.9257863136347,587
-605.28695052537,609
-602.6488423727357,558
-600.0114616781036,590
-597.3748082637674,591
-594.7388819519412,606
-592.1036825647604,641
-589.4692099242818,660
-586.8354638524829,618
-584.2024441712624,628
-581.5701507024403,637
-578.9385832677575,604
-576.3077416888759,621
-573.6776257873787,635
-571.0482353847704,614
-568.4195703024757,605
-565.7916303618415,582
-563.164415384135,612
-560.5379251905453,612
-557.9121596021815,628
-555.2871184400748,640
-552.6628015251767,630
-550.0392086783606,642
-547.4163397204204,615
-544.794194472071,613
-542.1727727539491,611
-539.5520743866118,663
-536.9320991905377,677
-534.3128469861261,702
-531.6943175936979,717
-529.0765108334947,761
-526.4594265256793,838
-523.8430644903358,900
-521.2274245474689,1016
-518.612506517005,1016
-515.9983102187913,1051
-513.3848354725959,1149
-510.77208209810846,1254
-508.16004991493924,1507
-505.5487387426199,1661
-502.9381484006032,1717
-500.3282787082628,1675
-497.71912948489364,1461
-495.1107005497117,1271
-492.5029917218539,1092
-489.8960028203786,935
-487.28973366426493,888
-484.68418407241325,831
-482.07935386364494,799
-479.47524285670266,836
-476.87185087025,773
-474.2691777228715,797
-471.66722323307334,772
-469.0659872192821,767
-466.4654694998459,798
-463.86566989303384,786
-461.26658821703614,787
-458.66822428996414,792
-456.07057792985,816
-453.4736489546475,764
-450.877437182231,795
-448.28194243039627,756
-445.68716451686,778
-443.09310325926003,776
-440.49975847515555,778
-437.9071299820263,794
-435.31521759727354,745
-432.72402113821954,773
-430.13354042210767,824
-427.5437752661022,827
-424.95472548728867,806
-422.36639090267386,755
-419.7787713291855,800
-417.1918665836721,906
-414.60567648290385,872
-412.0202008435715,775
-409.4354394822874,825
-406.8513922155845,872
-404.26805885991723,859
-401.685439231661,891
-399.103533147112,893
-396.522340422488,895
-393.9418608739278,830
-391.3620943174908,828
-388.7830405691583,819
-386.2046994448317,788
-383.6270707603344,777
-381.05015433141045,775
-378.473949973725,762
-375.8984575028645,713
-373.32367673433623,661
-370.74960748356875,605
-368.1762495659117,606
-365.60360279663576,591
-363.03166699093265,550
-360.4604419639154,542
-357.8899275306178,495
-355.32012350599507,500
-352.7510297049233,507
-350.1826459421999,502
-347.61497203254316,474
-345.04800779059235,458
-342.4817530309082,471
-339.91620756797226,526
-337.35137121618743,506
-334.7872437898774,506
-332.22382510328725,499
-329.66111497058273,487
-327.09911320585127,499
-324.53781962310075,508
-321.9772340362607,554
-319.4173562591816,484
-316.8581861056348,485
-314.2997233893127,471
-311.7419679238294,449
-309.1849195227194,499
-306.62857799943856,499
-304.0729431673641,553
-301.51801483979375,565
-298.963792829947,555
-296.41027695096386,556
-293.85746701590574,559
-291.3053628377552,567
-288.7539642294155,636
-286.2032710037115,552
-283.65328297338897,535
-281.1039999511146,570
-278.5554217494762,605
-276.007548180983,607
-273.4603790580651,573
-270.9139141930734,556
-268.3681533982807,519
-265.8230964858798,553
-263.27874326798565,573
-260.7350935566336,583
-258.1921471637804,572
-255.6499039013039,577
-253.10836358100266,638
-250.56752601459698,627
-248.02739101372765,591
-245.48795838995704,634
-242.94922795476816,610
-240.41119951956557,602
-237.8738728956746,675
-235.33724789434166,752
-232.80132432673452,603
-230.2661020039418,619
-227.73158073697357,682
-225.19776033676033,724
-222.66464061415422,708
-220.1322213799284,670
-217.60050244477725,618
-215.06948361931552,661
-212.53916471408013,744
-210.00954553952818,785
-207.48062590603843,701
-204.9524056239104,658
-202.4248845033651,737
-199.8980623545441,767
-197.37193898751036,709
-194.84651421224817,715
-192.32178783866232,824
-189.79775967657952,881
-187.27442953574644,879
-184.7517972258321,895
-182.2298625564256,860
-179.7086253370378,810
-177.18808537710026,724
-174.66824248596583,816
-172.14909647290835,923
-169.6306471471229,954
-167.11289431772548,892
-164.59583779375328,856
-162.07947738416453,865
-159.5638128978386,925
-157.04884414357605,1192
-154.53457093009854,1336
-152.02099306604828,1113
-149.50811035998936,843
-146.99592262040665,838
-144.48442965570587,938
-141.97363127421409,999
-139.46352728417958,1208
-136.95411749377126,1252
-134.44540171107985,1200
-131.93737974411636,966
-129.43005140081357,1100
-126.92341648902493,1612
-124.41747481652521,1977
-121.91222619101006,2272
-119.40767042009657,3093
-116.90380731132257,3744
-114.40063667214702,3475
-111.8981583099503,2383
-109.3963720320337,1708
-106.89527764561933,1882
-104.39487495785067,2291
-101.89516377579241,3104
-99.39614390642998,3664
-96.89781515667039,3920
-94.40017733334128,4107
-91.90323024319173,4685
-89.40697369289148,6255
-86.91140748903172,8146
-84.41653143812482,7929
-81.92234534660395,5308
-79.42884902082358,3865
-76.93604226705907,6787
-74.4439248915071,12775
-71.95249670028534,17764
-69.46175749943245,20929
-66.97170709490854,18756
-64.48234529259423,15089
-61.99367189829195,11462
-59.50568671772464,9204
-57.01838955653636,7553
-54.53178022029283,6157
-52.045858514480074,6463
-49.560624244506016,8726
-47.07607721569923,10035
-44.59221723330904,10483
-42.10904410250669,11273
-39.62655762838392,11038
-37.14475761595372,9651
-34.66364387015028,8400
-32.18321619582866,8133
-29.70347439776515,8165
-27.224418280657005,8877
-24.74604764912317,10962
-22.26836230770266,17002
-19.7913620608565,33001
-17.315046712966478,60818
-14.83941606833514,65037
-12.36446993118659,65037
-9.89020810566592,65037
-7.416630395839093,65037
-4.94373660569363,65037
-2.471526539137585,65037
-6.821210263296962E-13,65037
2.47084320796705,65037
4.941003281093458,65037
7.410480415786196,65037
9.879274808531363,65037
12.347386655893956,65037
14.814816154518212,65037
17.28156350112681,65037
19.74762889252179,65037
22.21301252558385,65037
24.67771459727237,20735
27.141735304626195,4295
29.605074844762612,2555
32.06773341487792,2114
34.52971121224755,2093
36.99100843422559,2096
39.45162527824516,2126
41.91156194181792,1915
44.370818622535126,1642
46.82939551806646,1423
49.287292826160524,1458
51.74451074464503,1559
54.201049471426245,1445
56.65690920448981,1407
59.112090141899785,1402
61.56659248179983,1211
64.02041642241159,1142
66.4735621620365,1051
68.92602989905402,1019
71.37781983192338,1094
73.82893215918205,1063
76.27936707944684,1303
78.72912479141326,1272
81.17820549385567,1230
83.62660938562783,1275
86.07433666566146,1159
88.5213875329681,932
90.96776218663751,889
93.41346082583925,898
95.85848364982041,953
98.30283085790859,1102
100.7465026495089,1191
103.18949922410604,1148
105.63182078126385,1023
108.07346752062438,1102
110.51443964190923,951
112.95473734491827,816
115.39436082953114,959
117.83331029570547,991
120.27158594347827,937
122.7091879729652,1053
125.1461165843615,1019
127.58237197794062,930
130.01795435405518,919
132.4528639131364,861
134.88710085569494,900
137.32066538231982,861
139.75355769367923,832
142.1857779905207,760
144.61732647366978,792
147.04820334403132,919
149.47840880258934,916
151.90794305040674,889
154.33680628862487,926
156.76499871846443,1090
159.19252054122433,1187
161.61937195828352,1287
164.04555317109896,1414
166.47106438120693,1602
168.89590579022217,1743
171.320077599839,1821
173.7435800118302,1758
176.16641322804742,1820
178.58857745042144,1988
181.01007288096173,2073
183.43089972175687,2047
185.85105817497413,2065
188.27054844285988,2128
190.6893707277394,2057
193.10752523201643,2127
195.5250121581745,2087
197.9418317087751,2117
200.3579840864594,2091
202.7734694939469,2147
205.18828813403627,2156
207.6024402096051,2423
210.01592592360964,2390
212.42874547908548,2456
214.84089907914665,2294
217.2523869269868,2284
219.66320922587727,2269
222.0733661791695,2220
224.48285799029293,2205
226.8916848627572,2257
229.29984700014882,2228
231.7073446061355,2270
234.11417788446204,2144
236.520347038953,2221
238.92585227351185,2207
241.33069379212054,2214
243.73487179884035,2273
246.1383864978112,2247
248.541238093252,2192
250.9434267894609,2318
253.34495279081432,2339
255.74581630176783,2219
258.1460175268563,2225
260.54555667069314,2201
262.9444339379703,2209
265.3426495334594,2267
267.7402036620107,2252
270.1370965285529,2325
272.53332833809407,2330
274.9288992957214,2269
277.32380960660055,2282
279.718059475976,2313
282.1116491091717,2365
284.5045787115897,2365
286.89684848871195,2402
289.2884586460981,2313
291.67940938938807,2296
294.0697009242996,2328
296.4593334566299,2379
298.84830719225477,2380
301.23662233712923,2310
303.6242790972866,2304
306.01127767884,2241
308.39761828798066,2297
310.78330113097934,2181
313.16832641418534,2253
315.5526943440269,2241
317.9364051270112,2124
320.3194589697242,2208
322.70185607883093,2103
325.0835966610754,2154
327.4646809232805,2059
329.8451090723478,2059
332.2248813152577,2003
334.6039978590701,2117
336.9824589109231,2079
339.36026467803447,2054
341.7374153677,2029
344.113911187295,1976
346.48975234427337,1943
348.8649390461686,1939
351.2394715005918,1936
353.61334991523415,1998
355.9865744978655,1926
358.35914545633375,2028
360.73106299856715,1961
363.10232733257146,1896
365.47293866643247,1984
367.84289720831396,2010
370.2122031664593,1896
372.5808567491905,1913
374.9488581649083,1866
377.31620762209275,1821
379.6829053293021,1892
382.0489514951745,1934
384.4143463284262,1941
386.7790900378528,1788
389.14318283232853,1836
391.50662492080653,1892
393.86941651231916,1999
396.23155781597745,2016
398.5930490409713,1975
400.9538903965696,2000
403.3140820921202,1860
405.6736243370498,1792
408.03251734086336,1818
410.3907613131465,1874
412.74835646356166,1796
415.10530300185144,1798
417.4616011378372,1858
419.81725108141893,1833
422.1722530425758,1818
424.5266072313656,1895
426.880313857925,1822
429.2333731324701,1850
431.58578526529516,1948
433.9375504667738,1844
436.2886689473588,1832
438.63914091758113,1843
440.9889665880513,1748
443.33814616945835,1742
445.68667987257015,1723
448.03456790823395,1763
450.3818104873759,1800
452.72840782100013,1788
455.07436012019105,1792
457.41966759611057,1749
459.7643304600007,1821
462.10834892318155,1769
464.4517231970525,1822
466.79445349309174,1798
469.1365400228566,1818
471.4779829979826,1825
473.81878263018564,1846
476.15893913125876,1765
478.4984527130747,1850
480.8373235875855,1941
483.17555196682144,2023
485.5131380628919,1924
487.8500820879857,2048
490.1863842543697,2123
492.52204477439034,2298
494.8570638604725,2535
497.1914417251204,2844
499.52517858091653,3227
501.85827464052306,3693
504.19073011668036,4063
506.5225452222086,4165
508.85372017000566,4255
511.18425517304956,4146
513.514150444396,4202
515.8434061971808,4570
518.1720226446176,5300
520.4999999999999,5405
522.8273384766991,5015
525.1540382881666,4503
527.480099647932,3791
529.8055227696037,3124
532.1303078668694,2498
534.454455153496,2233
536.777964843328,2130
539.1008371502907,2085
541.4230722883866,1959
543.744670471698,1977
546.0656319143858,1934
548.3859568306899,1966
550.7056454349294,1887
553.0246979415016,1972
555.3431145648834,1876
557.6608955196306,1914
559.978041020377,1782
562.2945512818363,1782
564.6104265188006,1872
566.9256669461412,1866
569.2402727788082,1908
571.5542442318302,1879
573.8675815203156,1893
576.1802848594508,1858
578.4923544645015,1866
580.8037905508126,1893
583.114593333807,1947
585.4247630289875,1913
587.7342998519354,1907
590.0432040183106,1861
592.3514757438526,1926
594.6591152443794,1923
596.9661227357875,1908
599.2724984340531,1921
601.578242555231,1896
603.8833553154542,1909
606.1878369309362,1931
608.4916876179676,1917
610.7949075929192,1881
613.0974970722403,1916
615.3994562724587,1915
617.7007854101818,1827
620.0014847020951,1882
622.3015543649641,1917
624.6009946156324,1904
626.8998056710224,1860
629.1979877481361,1828
631.4955410640538,1885
633.7924658359349,1867
636.0887622810175,1893
638.3844306166192,1829
640.6794710601358,1826
642.9738838290426,1847
645.2676691408932,1831
647.5608272133207,1900
649.853358264037,1848
652.1452625108324,1895
654.4365401715764,1860
656.7271914642178,1830
659.0172166067838,1933
661.3066158173809,1866
663.5953893141935,1828
665.8835373154867,1903
668.1710600396028,1897
670.4579577049639,1842
672.7442305300709,1850
675.0298787335033,1865
677.3149025339197,1839
679.599302150058,1862
681.8830778007342,1878
684.1662297048437,1897
686.4487580813608,1857
688.7306631493387,1849
691.0119451279091,1900
693.2926042362834,1851
695.5726406937516,1843
697.8520547196814,1825
700.1308465335215,1876
702.4090163547982,1876
704.6865644031171,1847
706.9634908981619,1842
709.2397960596965,1866
711.5154801075631,1835
713.7905432616823,1843
716.0649857420548,1838
718.3388077687592,1844
720.612009561953,1839
722.8845913418733,1818
725.1565533288352,1954
727.427895743234,1900
729.6986188055427,1849
731.9687227363137,1874
734.238207756178,1835
736.5070740858458,1937
738.7753219461066,1809
741.0429515578281,1875
743.3099631419569,1849
745.5763569195191,1926
747.8421331116193,1956
750.1072919394409,1860
752.3718336242467,1864
754.6357583873777,1901
756.8990664502545,1891
759.1617580343765,1866
761.423833361321,1857
763.6852926527457,1919
765.9461361303862,1844
768.206364016058,1946
770.4659765316536,1885
772.7249738991469,1959
774.9833563405886,1911
777.2411240781092,1958
779.4982773339183,1963
781.7548163303044,1898
784.010741289634,1901
786.2660524343538,1963
788.5207499869881,1905
790.7748341701416,1907
793.0283052064964,1933
795.2811633188143,1891
797.5334087299362,1964
799.7850416627813,1930
802.0360623403484,1891
804.2864709857143,1950
806.5362678220353,1952
808.7854530725468,1967
811.0340269605625,1915
813.2819897094754,1854
815.5293415427581,1937
817.77608268396,1944
820.0222133567116,1940
822.2677337847211,1907
824.5126441917765,1869
826.7569448017433,1960
829.0006358385675,1864
831.2437175262731,1864
833.4861900889629,1956
835.7280537508192,1939
837.9693087361026,1855
840.2099552691533,1905
842.4499935743896,1848
844.689423876309,1898
846.9282463994886,1907
849.1664613685833,1940
851.4040690083276,1915
853.6410695435349,1875
855.877463199097,1895
858.1132501999847,1926
860.3484307712487,1925
862.5830051380175,1920
864.8169735254988,1967
867.0503361589791,1913
869.2830932638243,1942
871.5152450654786,1892
873.7467917894654,1962
875.9777336613873,1893
878.2080709069252,1958
880.4378037518389,1947
882.666932421968,1963
884.8954571432301,1993
887.1233781416219,1914
889.3506956432192,1980
891.5774098741766,1947
893.803521060728,1942
896.0290294291852,1970
898.2539352059397,1967
900.4782386174619,1916
902.7019398903011,1928
904.925039251085,2010
907.147536926521,1975
909.3694331433943,2026
911.59072812857,2009
913.8114221089921,1929
916.0315153116827,1939
918.2510079637437,1929
920.4699002923547,1956
922.6881925247761,1985
924.905884888345,1982
927.1229776104793,1940
929.3394709186747,1932
931.555365040506,1941
933.7706602036275,1945
935.9853566357709,1928
938.1994545647489,1915
940.4129542184515,1998
942.6258558248488,1938
944.8381596119883,1920
947.0498658079974,1914
949.2609746410825,1950
951.4714863395287,1946
953.6814011316998,1904
955.8907192460387,1845
958.0994409110671,1900
960.3075663553858,1885
962.5150958076741,1846
964.7220294966913,1826
966.928367651274,1909
969.1341105003388,1854
971.3392582728806,1887
973.5438111979742,1807
975.747769504772,1817
977.9511334225061,1770
980.153903180487,1925
982.3560790081052,1731
984.5576611348289,1760
986.7586497902058,1744
988.9590452038618,1755
991.158847605503,1721
993.3580572249133,1691
995.5566742919558,1748
997.7546990365728,1677
999.952131688785,1714
1002.1489724786926,1706
1004.3452216364743,1621
1006.5408793923874,1609
1008.7359459767691,1595
1010.9304216200343,1572
1013.1243065526781,1585
1015.3176010052733,1514
1017.510305208472,1532
1019.7024193930064,1503
1021.8939437896848,1539
1024.0848786293977,1542
1026.2752241431122,1549
1028.4649805618747,1523
1030.6541481168115,1484
1032.842727039127,1559
1035.0307175601051,1571
1037.2181199111074,1502
1039.4049343235752,1496
1041.591161029029,1553
1043.7768002590683,1491
1045.9618522453698,1458
1048.1463172196918,1540
1050.3301954138697,1536
1052.513487059818,1499
1054.69619238953,1497
1056.8783116350783,1509
1059.0598450286152,1461
1061.2407928023704,1457
1063.4211551886528,1461
1065.6009324198508,1489
1067.780124728432,1498
1069.9587323469414,1487
1072.1367555080046,1480
1074.314194444325,1490
1076.4910493886855,1452
1078.667320573947,1418
1080.843008233051,1441
1083.0181125990161,1499
1085.1926339049414,1490
1087.3665723840027,1447
1089.5399282694575,1508
1091.7127017946405,1484
1093.8848931929647,1434
1096.0565026979243,1470
1098.2275305430899,1410
1100.3979769621128,1414
1102.567842188722,1436
1104.737126456726,1406
1106.9058300000124,1391
1109.0739530525475,1335
1111.2414958483764,1392
1113.4084586216231,1457
1115.5748416064907,1399
1117.7406450372605,1419
1119.9058691482942,1400
1122.0705141740304,1386
1124.2345803489884,1437
1126.3980679077658,1401
1128.5609770850388,1363
1130.7233081155623,1457
1132.8850612341707,1475
1135.0462366757774,1434
1137.2068346753745,1450
1139.3668554680326,1467
1141.526299288901,1412
1143.68516637321,1411
1145.8434569562655,1369
1148.001171273455,1387
1150.158309560244,1409
1152.3148720521767,1493
1154.470858984876,1388
1156.626270594044,1302
1158.7811071154629,1362
1160.9353687849912,1395
1163.089055838569,1335
1165.242168512213,1329
1167.3947070420209,1341
1169.5466716641677,1383
1171.6980626149075,1345
1173.8488801305748,1329
1175.9991244475814,1334
1178.1487958024186,1354
1180.2978944316555,1377
1182.4464205719428,1362
1184.5943744600072,1314
1186.7417563326567,1410
1188.8885664267755,1387
1191.0348049793297,1362
1193.1804722273619,1306
1195.325568407995,1356
1197.4700937584303,1350
1199.614048515948,1334
1201.7574329179074,1361
1203.900247201746,1360
1206.042491604982,1385
1208.1841663652099,1388
1210.3252717201053,1336
1212.465807907422,1338
1214.6057751649923,1321
1216.7451737307279,1367
1218.8840038426192,1310
1221.0222657387353,1362
1223.1599596572241,1373
1225.2970858363137,1400
1227.4336445143094,1343
1229.5696359295966,1433
1231.705060320639,1378
1233.8399179259786,1414
1235.9742089842384,1385
1238.107933734118,1314
1240.2410924143974,1381
1242.373685263935,1397
1244.5057125216676,1320
1246.6371744266116,1411
1248.7680712178621,1423
1250.898403134593,1410
1253.028170416058,1417
1255.1573733015875,1396
1257.2860120305932,1412
1259.4140868425648,1405
1261.54159797707,1431
1263.6685456737569,1433
1265.7949301723515,1377
1267.9207517126597,1419
1270.046010534565,1387
1272.1707068780306,1367
1274.2948409830983,1401
1276.4184130898889,1366
1278.541423438603,1410
1280.6638722695184,1406
1282.785759822993,1431
1284.9070863394636,1391
1287.0278520594447,1441
1289.1480572235314,1363
1291.2677020723963,1391
1293.3867868467923,1403
1295.5053117875495,1410
1297.623277135579,1466
1299.740683131868,1430
1301.8575300174857,1421
1303.973818033578,1420
1306.0895474213703,1451
1308.2047184221678,1525
1310.3193312773528,1553
1312.4333862283888,1441
1314.5468835168163,1464
1316.659823384255,1468
1318.7722060724045,1480
1320.8840318230418,1419
1322.9953008780249,1410
1325.1060134792888,1471
1327.2161698688478,1421
1329.3257702887959,1466
1331.4348149813054,1398
1333.5433041886276,1405
1335.6512381530933,1428
1337.7586171171101,1360
1339.8654413231675,1471
1341.9717110138317,1412
1344.0774264317488,1448
1346.1825878196432,1400
1348.2871954203192,1427
1350.3912494766587,1405
1352.4947502316231,1452
1354.5976979282532,1376
1356.7000928096686,1426
1358.8019351190665,1475
1360.9032250997243,1427
1363.0039629949988,1432
1365.1041490483235,1379
1367.2037835032133,1454
1369.3028666032606,1386
1371.401398592137,1414
1373.4993797135926,1361
1375.5968102114575,1432
1377.6936903296396,1485
1379.7900203121262,1449
1381.8858004029835,1457
1383.9810308463561,1418
1386.075711886469,1429
1388.1698437676241,1417
1390.2634267342032,1490
1392.356461030667,1500
1394.4489469015557,1490
1396.5408845914872,1487
1398.6322743451592,1439
1400.7231164073469,1489
1402.813411022907,1536
1404.903158436773,1440
1406.9923588939578,1487
1409.0810126395531,1441
1411.1691199187303,1466
1413.2566809767386,1438
1415.343696058907,1493
1417.4301654106425,1448
1419.5160892774315,1431
1421.6014679048399,1470
1423.6863015385125,1509
1425.7705904241707,1472
1427.8543348076178,1403
1429.9375349347342,1515
1432.0201910514802,1421
1434.102303403894,1471
1436.1838722380944,1470
1438.2648978002767,1497
1440.3453803367174,1504
1442.4253200937692,1523
1444.5047173178677,1464
1446.5835722555234,1485
1448.6618851533285,1493
1450.739656257952,1543
1452.8168858161434,1472
1454.8935740747306,1516
1456.96972128062,1518
1459.045327680797,1538
1461.120393522327,1560
1463.1949190523528,1521
1465.2689045180973,1481
1467.3423501668608,1523
1469.415256246024,1497
1471.4876230030463,1536
1473.559450685465,1514
1475.6307395408976,1513
1477.7014898170391,1484
1479.771701761665,1519
1481.8413756226287,1557
1483.9105116478618,1485
1485.9791100853772,1506
1488.0471711832643,1532
1490.1146951896926,1499
1492.1816823529098,1461
1494.2481329212433,1461
1496.3140471430984,1552
1498.3794252669609,1559
1500.4442675413939,1505
1502.5085742150404,1530
1504.572345536622,1516
1506.6355817549388,1521
1508.6982831188702,1527
1510.7604498773744,1451
1512.8220822794883,1549
1514.8831805743293,1515
1516.9437450110909,1566
1519.003775839048,1540
1521.0632733075522,1454
1523.1222376660367,1516
1525.1806691640113,1502
1527.2385680510652,1511
1529.2959345768668,1543
1531.3527689911643,1527
1533.4090715437833,1571
1535.4648424846291,1538
1537.5200820636855,1569
1539.5747905310159,1567
1541.6289681367616,1553
1543.6826151311434,1521
1545.7357317644614,1524
1547.7883182870937,1529
1549.8403749494987,1564
1551.8919020022113,1617
1553.9428996958477,1539
1555.9933682811015,1584
1558.0433080087469,1585
1560.0927191296346,1605
1562.1416018946961,1634
1564.1899565549415,1608
1566.2377833614592,1587
1568.2850825654164,1579
1570.3318544180606,1593
1572.3780991707158,1679
1574.423817074788,1594
1576.4690083817595,1565
1578.5136733431923,1604
1580.5578122107272,1602
1582.601425236085,1614
1584.6445126710646,1557
1586.6870747675434,1607
1588.7291117774776,1507
1590.7706239529034,1500
1592.8116115459347,1536
1594.8520748087658,1487
1596.8920139936686,1485
1598.9314293529933,1427
1600.9703211391711,1503
1603.008689604711,1414
1605.0465350022005,1489
1607.0838575843068,1433
1609.1206576037753,1490
1611.1569353134305,1497
1613.1926909661765,1474
1615.2279248149953,1427
1617.2626371129481,1439
1619.2968281131757,1450
1621.3304980688963,1461
1623.3636472334088,1422
1625.39627586009,1463
1627.428384202396,1442
1629.459972513861,1463
1631.4910410480993,1442
1633.5215900588028,1403
1635.551619799744,1384
1637.5811305247717,1415
1639.6101224878166,1411
1641.6385959428862,1400
1643.6665511440683,1435
1645.693988345528,1482
1647.7209078015112,1364
1649.7473097663405,1382
1651.7731944944203,1422
1653.7985622402307,1422
1655.823413258333,1474
1657.847747803366,1404
1659.8715661300494,1383
1661.8948684931793,1408
1663.9176551476316,1417
1665.9399263483624,1376
1667.9616823504057,1359
1669.982923408873,1344
1672.0036497789574,1406
1674.0238617159293,1412
1676.043559475138,1405
1678.0627433120121,1402
1680.081413482059,1390
1682.0995702408654,1399
1684.117213844096,1432
1686.134344547495,1391
1688.1509626068864,1395
1690.1670682781705,1330
1692.182661817329,1379
1694.1977434804217,1312
1696.2123135235875,1413
1698.226372203043,1377
1700.2399197750851,1363
1702.2529564960905,1390
1704.2654826225112,1380
1706.277498410882,1365
1708.2890041178139,1432
1710.2999999999988,1370
1712.3104863142066,1405
1714.3204633172854,1377
1716.329931266163,1376
1718.3388904178469,1441
1720.3473410294214,1373
1722.3552833580516,1453
1724.3627176609807,1384
1726.3696441955308,1384
1728.3760632191033,1432
1730.3819749891782,1390
1732.3873797633146,1413
1734.3922777991502,1398
1736.3966693544012,1326
1738.4005546868639,1378
1740.4039340544127,1346
1742.406807715001,1398
1744.4091759266616,1424
1746.4110389475054,1410
1748.4123970357223,1371
1750.413250449582,1408
1752.4135994474318,1349
1754.4134442876993,1437
1756.4127852288902,1431
1758.4116225295893,1373
1760.4099564484595,1441
1762.407787244244,1423
1764.405115175764,1365
1766.4019405019203,1400
1768.3982634816916,1422
1770.3940843741357,1396
1772.3894034383907,1409
1774.3842209336717,1419
1776.378537119274,1346
1778.372352254571,1385
1780.3656665990156,1319
1782.3584804121397,1409
1784.3507939535534,1348
1786.3426074829463,1370
1788.3339212600863,1390
1790.3247355448211,1398
1792.3150505970766,1384
1794.3048666768573,1373
1796.2941840442477,1367
1798.2830029594106,1359
1800.2713236825884,1410
1802.2591464741004,1433
1804.2464715943465,1376
1806.2332993038058,1372
1808.2196298630352,1436
1810.2054635326708,1405
1812.190800573428,1409
1814.175641246101,1338
1816.1599858115628,1390
1818.1438345307652,1441
1820.127187664738,1417
1822.1100454745924,1436
1824.092408221516,1415
1826.0742761667766,1417
1828.055649571721,1409
1830.0365286977735,1450
1832.0169138064398,1409
1833.9968051593014,1406
1835.9762030180214,1416
1837.9551076443408,1414
1839.9335193000788,1448
1841.9114382471344,1409
1843.888864747485,1404
1845.8657990631878,1308
1847.842241456378,1338
1849.8181921892697,1331
1851.7936515241558,1375
1853.7686197234098,1379
1855.7430970494815,1377
1857.7170837649014,1398
1859.6905801322787,1431
1861.6635864143004,1363
1863.6361028737338,1424
1865.608129773424,1406
1867.5796673762961,1414
1869.5507159453537,1371
1871.521275743678,1459
1873.4913470344313,1365
1875.4609300808534,1384
1877.4300251462632,1363
1879.3986324940588,1398
1881.366752387717,1386
1883.3343850907936,1439
1885.3015308669228,1394
1887.268189979819,1399
1889.2343626932739,1359
1891.2000492711595,1381
1893.1652499774254,1433
1895.1299650761011,1402
1897.0941948312952,1309
1899.0579395071945,1423
1901.0211993680641,1383
1902.98397467825,1369
1904.9462657021745,1402
1906.9080727043415,1382
1908.869395949332,1391
1910.8302357018065,1373
1912.790592226504,1401
1914.7504657882428,1380
1916.7098566519212,1406
1918.6687650825133,1412
1920.6271913450764,1410
1922.5851357047422,1378
1924.5425984267245,1383
1926.499579776314,1426
1928.4560800188833,1409
1930.4120994198802,1447
1932.367638244833,1417
1934.32269675935,1456
1936.2772752291175,1382
1938.231373919899,1409
1940.1849930975404,1454
1942.1381330279637,1365
1944.0907939771696,1373
1946.0429762112412,1414
1947.9946799963363,1401
1949.9459055986945,1392
1951.896653284633,1422
1953.8469233205478,1480
1955.7967159729142,1341
1957.7460315082863,1383
1959.6948701932974,1439
1961.6432322946594,1419
1963.5911180791632,1444
1965.5385278136787,1345
1967.4854617651545,1399
1969.4319202006182,1395
1971.377903387176,1374
1973.3234115920136,1280
1975.268445082395,1431
1977.2130041256642,1389
1979.1570889892423,1379
1981.1006999406304,1437
1983.04383724741,1419
1984.986501177238,1402
1986.928691997853,1382
1988.8704099770712,1308
1990.811655382789,1400
1992.7524284829801,1367
1994.692729545698,1352
1996.6325588390755,1381
1998.5719166313224,1404
2000.5108031907307,1407
2002.4492187856677,1390
2004.387163684583,1402
2006.3246381560011,1371
2008.2616424685298,1368
2010.1981768908527,1388
2012.1342416917332,1365
2014.069837140014,1389
2016.0049635046162,1348
2017.9396210545406,1412
2019.8738100588666,1375
2021.8075307867502,1357
2023.740783507431,1358
2025.6735684902228,1336
2027.6058860045214,1357
2029.5377363198004,1364
2031.4691197056118,1403
2033.4000364315875,1401
2035.3304867674374,1376
2037.260470982952,1385
2039.189989347998,1428
2041.1190421325232,1331
2043.047629606554,1366
2044.9757520401945,1391
2046.9034097036288,1358
2048.8306028671195,1377
2050.7573318010086,1377
2052.683596775716,1366
2054.609398061742,1363
2056.5347359296647,1372
2058.4596106501403,1371
2060.384022493906,1305
2062.3079717317764,1377
2064.231458634646,1368
2066.1544834734873,1333
2068.077046519352,1392
2069.99914804337,1343
2071.9207883167524,1372
2073.8419676107865,1330
2075.7626861968406,1348
2077.6829443463607,1335
2079.6027423308715,1349
2081.522080421977,1351
2083.440958891362,1399
2085.359378010786,1338
2087.2773380520907,1337
2089.194839287196,1445
2091.111881988101,1351
2093.0284664268825,1355
2094.9445928756973,1409
2096.86026160678,1373
2098.775472892446,1368
2100.690227005088,1359
2102.604524217178,1333
2104.5183648012676,1385
2106.431749029985,1365
2108.34467717604,1405
2110.2571495122206,1370
2112.169166311393,1349
2114.080727846503,1387
2115.9918343905747,1353
2117.902486216711,1409
2119.8126835980956,1410
2121.722426807987,1359
2123.6317161197285,1328
2125.5405518067364,1381
2127.448934142509,1430
2129.356863400624,1387
2131.264339854737,1384
2133.1713637785815,1422
2135.077935445972,1447
2136.9840551308002,1431
2138.889723107037,1410
2140.7949396487334,1408
2142.699705030018,1415
2144.6040195250994,1450
2146.507883408264,1449
2148.4112969538774,1390
2150.3142604363848,1381
2152.2167741303097,1439
2154.1188383102535,1464
2156.0204532508997,1433
2157.9216192270064,1401
2159.822336513414,1431
2161.7226053850413,1406
2163.622426116884,1414
2165.5217989840185,1482
2167.4207242616,1426
2169.319202224862,1423
2171.2172331491165,1482
2173.1148173097563,1409
2175.0119549822507,1419
2176.90864644215,1401
2178.8048919650823,1460
2180.7006918267534,1411
2182.596046302952,1451
2184.4909556695407,1490
2186.3854202024645,1452
2188.279440177746,1482
2190.173015871487,1479
2192.066147559868,1461
2193.958835519149,1463
2195.851080025667,1455
2197.7428813558417,1491
2199.6342397861667,1450
2201.5251555932186,1480
2203.415629053651,1508
2205.3056604441986,1477
2207.19525004167,1497
2209.084398122958,1483
2210.9731049650327,1506
2212.861370844941,1467
2214.749196039812,1544
2216.636580826851,1445
2218.523525483344,1551
2220.410030286655,1519
2222.296095514226,1511
2224.1817214435805,1550
2226.066908352319,1525
2227.951656518121,1523
2229.835966218746,1549
2231.71983773203,1538
2233.6032713358913,1501
2235.486267308324,1498
2237.3688259274036,1477
2239.2509474712824,1456
2241.132632218193,1519
2243.013880446447,1555
2244.8946924344323,1516
2246.7750684606203,1503
2248.6550088035574,1486
2250.534513741871,1515
2252.413583554265,1559
2254.292218519526,1511
2256.170418916517,1532
2258.0481850241786,1528
2259.925517121534,1497
2261.8024154876825,1478
2263.678880401803,1515
2265.5549121431536,1521
2267.430510991071,1561
2269.305677224971,1553
2271.180411124348,1474
2273.0547129687766,1470
2274.9285830379076,1579
2276.8020216114737,1493
2278.6750289692845,1436
2280.5476053912294,1564
2282.4197511572766,1553
2284.2914665474727,1578
2286.162751841943,1599
2288.0336073208937,1590
2289.904033264608,1552
2291.774029953448,1603
2293.6435976678554,1528
2295.5127366883517,1527
2297.381447295534,1494
2299.2497297700825,1431
2301.1175843927526,1381
2302.9850114443825,1366
2304.852011205885,1325
2306.7185839582553,1303
2308.5847299825664,1286
2310.4504495599676,1308
2312.3157429716925,1260
2314.1806104990483,1236
2316.0450524234247,1241
2317.9090690262888,1237
2319.772660589186,1288
2321.635827393742,1275
2323.498569721661,1265
2325.3608878547248,1227
2327.2227820747967,1223
2329.0842526638157,1240
2330.945299903803,1213
2332.805924076857,1237
2334.6661254651535,1152
2336.525904350951,1209
2338.3852610165827,1213
2340.244195744464,1153
2342.102708817088,1198
2343.9608005170253,1218
2345.8184711269287,1239
2347.675720929526,1213
2349.532550207628,1202
2351.38895924412,1212
2353.24494832197,1184
2355.100517724223,1198
2356.955667734004,1224
2358.810398634514,1229
2360.664710709037,1181
2362.5186042409337,1251
2364.3720795136437,1220
2366.225136810686,1232
2368.0777764156583,1235
2369.929998612237,1214
2371.7818036841777,1229
2373.633191915315,1218
2375.484163589562,1237
2377.3347189909114,1223
2379.184858403434,1187
2381.03458211128,1225
2382.8838903986775,1194
2384.732783549936,1225
2386.5812618494406,1205
2388.4293255816588,1201
2390.2769750311327,1264
2392.1242104824883,1258
2393.971032220427,1206
2395.8174405297295,1217
2397.6634356952563,1245
2399.509018001947,1253
2401.3541877348193,1267
2403.1989451789705,1275
2405.043290619576,1181
2406.8872243418905,1207
2408.730746631247,1274
2410.5738577730594,1212
2412.4165580528183,1217
2414.258847756095,1248
2416.100727168537,1201
2417.9421965758734,1232
2419.783256263912,1242
2421.623906518538,1249
2423.4641476257157,1247
2425.303979871491,1252
2427.143403541984,1218
2428.9824189233977,1247
2430.821026302012,1217
2432.6592259641866,1258
2434.497018196361,1304
2436.33440328505,1301
2438.171381516851,1313
2440.00795317844,1235
2441.844118556569,1212
2443.6798779380724,1277
2445.5152316098606,1307
2447.3501798589255,1340
2449.1847229723357,1254
2451.0188612372403,1314
2452.8525949408663,1267
2454.6859243705203,1203
2456.518849813587,1233
2458.3513715575314,1261
2460.183489889895,1235
2462.015205098301,1238
2463.8465174704493,1245
2465.67742729412,1243
2467.5079348571717,1226
2469.338040447542,1248
2471.1677443532476,1246
2472.9970468623833,1218
2474.825948263123,1266
2476.6544488437207,1256
2478.482548892508,1249
2480.310248697896,1227
2482.137548548374,1215
2483.9644487325118,1254
2485.790949538956,1206
2487.617051256433,1258
2489.44275417375,1189
2491.26805857979,1257
2493.0929647635157,1236
2494.917473013971,1222
2496.741583620276,1305
2498.5652968716304,1253
2500.3886130573137,1229
2502.2115324666834,1258
2504.0340553891765,1260
2505.856182114308,1273
2507.6779129316733,1284
2509.499248130945,1288
2511.3201880018764,1224
2513.140732834298,1204
2514.9608829181198,1211
2516.780638543331,1215
2518.6,1220
2520.418967578273,1258
2522.237541568376,1271
2524.0557222606144,1209
2525.8735099453706,1301
2527.6909049131086,1276
2529.507907454368,1178
2531.32451785977,1262
2533.140736420014,1258
2534.9565634258774,1228
2536.771999168218,1242
2538.5870439379714,1250
2540.4016980261526,1301
2542.2159617238544,1183
2544.02983532225,1205
2545.8433191125914,1268
2547.656413386209,1238
2549.4691184345115,1215
2551.2814345489874,1237
2553.093362021204,1273
2554.904901142808,1259
2556.716052205523,1253
2558.526815501153,1180
2560.3371913215824,1196
2562.147179958771,1329
2563.956781704761,1233
2565.7659968516705,1256
2567.5748256916986,1257
2569.3832685171224,1276
2571.1913256202984,1293
2572.9989972936614,1266
2574.806283829725,1215
2576.613185521084,1242
2578.4197026604074,1266
2580.2258355404483,1262
2582.031584454035,1262
2583.836949694077,1227
2585.6419315535613,1269
2587.4465303255533,1250
2589.2507463032002,1249
2591.0545797797245,1269
2592.8580310484303,1267
2594.6611004026995,1302
2596.463788135992,1276
2598.266094541849,1290
2600.0680199138874,1259
2601.869564545807,1316
2603.670728731383,1275
2605.4715127644704,1247
2607.2719169390048,1261
2609.071941548998,1268
2610.8715868885433,1270
2612.670853251811,1222
2614.469740933052,1243
2616.268250226594,1244
2618.0663814268455,1240
2619.864134828292,1253
2621.6615107255006,1230
2623.458509413115,1304
2625.2551311858597,1290
2627.0513763385347,1259
2628.8472451660223,1280
2630.6427379632833,1213
2632.4378550253564,1235
2634.232596647359,1284
2636.026963124488,1247
2637.8209547520187,1265
2639.6145718253065,1265
2641.407814639785,1214
2643.200683490966,1220
2644.9931786744414,1226
2646.7853004858807,1232
2648.577049221034,1246
2650.3684251757277,1221
2652.1594286458712,1249
2653.9500599274484,1218
2655.740319316525,1257
2657.5302071092437,1265
2659.3197236018286,1255
2661.10886909058,1281
2662.8976438718782,1279
2664.686048242183,1266
2666.4740824980327,1228
2668.2617469360443,1214
2670.0490418529134,1255
2671.8359675454153,1213
2673.622524310403,1300
2675.408712444811,1255
2677.1945322456495,1338
2678.979984010009,1260
2680.76506803506,1270
2682.5497846180497,1326
2684.334134056306,1241
2686.1181166472343,1256
2687.9017326883213,1202
2689.6849824771293,1229
2691.4678663113013,1220
2693.2503844885596,1261
2695.032537306705,1230
2696.8143250636167,1204
2698.5957480572542,1255
2700.3768065856534,1286
2702.1575009469316,1257
2703.937831439283,1234
2705.717798360982,1254
2707.4974020103837,1146
2709.276642685917,1272
2711.055520686095,1248
2712.834036309506,1274
2714.612189854819,1266
2716.389981620782,1231
2718.1674119062204,1188
2719.944481010041,1236
2721.721189231226,1248
2723.4975368688415,1222
2725.273524222027,1207
2727.0491515900053,1182
2728.824419272075,1236
2730.5993275676146,1272
2732.3738767760838,1237
2734.148067197016,1225
2735.921899130031,1261
2737.6953728748194,1269
2739.468488731156,1241
2741.2412469988926,1224
2743.0136479779617,1221
2744.785691968372,1209
2746.5573792702116,1217
2748.3287101836504,1213
2750.099685008934,1204
2751.870304046388,1201
2753.640567596418,1191
2755.4104759595057,1197
2757.1800294362156,1194
2758.949228327187,1220
2760.7180729331412,1228
2762.486563554877,1298
2764.254700493272,1271
2766.022484049284,1181
2767.789914523947,1257
2769.5569922183786,1234
2771.3237174337705,1239
2773.090090471394,1269
2774.8561116326036,1241
2776.6217812188274,1174
2778.3870995315756,1235
2780.1520668724356,1188
2781.9166835430747,1277
2783.6809498452394,1250
2785.444866080754,1204
2787.2084325515225,1276
2788.971649559527,1224
2790.73451740683,1207
2792.4970363955713,1236
2794.2592068279705,1256
2796.0210290063264,1233
2797.7825032330147,1227
2799.543629810493,1237
2801.304409041296,1228
2803.0648412280366,1233
2804.8249266734088,1202
2806.5846656801846,1207
2808.344058551212,1255
2810.1031055894246,1294
2811.8618070978273,1215
2813.6201633795085,1290
2815.378174737636,1244
2817.1358414754536,1216
2818.893163896285,1248
2820.6501423035334,1228
2822.4067770006814,1277
2824.1630682912883,1264
2825.9190164789957,1245
2827.6746218675207,1213
2829.429884760661,1268
2831.184805462294,1221
2832.9393842763743,1255
2834.693621506936,1227
2836.4475174580916,1236
2838.201072434034,1244
2839.954286739034,1220
2841.707160677441,1221
2843.459694553685,1209
2845.2118886722724,1234
2846.96374333779,1237
2848.7152588549034,1224
2850.4664355283567,1196
2852.217273662973,1225
2853.9677735636546,1226
2855.7179355353833,1229
2857.4677598832186,1172
2859.217246912299,1231
2860.9663969278427,1259
2862.715210235146,1227
2864.4636871395846,1270
2866.211827946614,1198
2867.9596329617652,1166
2869.7071024906536,1200
2871.4542368389684,1247
2873.20103631248,1240
2874.947501217038,1220
2876.6936318585695,1238
2878.4394285430812,1272
2880.1848915766604,1248
2881.9300212654707,1216
2883.6748179157553,1211
2885.4192818338374,1271
2887.1634133261173,1206
2888.907212699077,1257
2890.6506802592744,1218
2892.393816313348,1264
2894.1366211680142,1270
2895.8790951300693,1251
2897.621238506388,1280
2899.363051603925,1204
2901.1045347297118,1213
2902.8456881908596,1193
2904.58651229456,1220
2906.327007348081,1218
2908.067173658772,1258
2909.8070115340597,1277
2911.5465212814497,1262
2913.285703208527,1294
2915.0245576229563,1226
2916.7630848324807,1271
2918.5012851449196,1225
2920.2391588681758,1248
2921.976706310227,1265
2923.7139277791334,1311
2925.4508235830313,1216
2927.187394030137,1185
2928.923639428745,1202
2930.6595600872306,1273
2932.395156314046,1278
2934.1304284177218,1299
2935.8653767068713,1257
2937.6000014901815,1215
2939.3343030764227,1234
2941.068281774442,1242
2942.8019378931644,1185
2944.5352717415976,1285
2946.2682836288236,1238
2948.0009738640065,1285
2949.7333427563885,1256
2951.465390615289,1290
2953.1971177501086,1211
2954.9285244703265,1227
2956.6596110855,1296
2958.3903779052657,1228
2960.1208252393385,1250
2961.8509533975125,1266
2963.5807626896617,1292
2965.3102534257378,1212
2967.0394259157715,1264
2968.768280469873,1285
2970.496817398232,1254
2972.2250370111146,1229
2973.952939618869,1280
2975.6805255319196,1228
2977.4077950607707,1276
2979.134748516006,1270
2980.861386208289,1296
2982.587708448359,1222
2984.313715547037,1228
2986.039407815222,1251
2987.764785563891,1254
2989.489849104102,1225
2991.2145987469908,1178
2992.9390348037705,1268
2994.6631575857346,1238
2996.3869674042576,1258
2998.1104645707887,1247
2999.83364939686,1210
3001.5565221940783,1183
3003.2790832741334,1169
3005.0013329487924,1211
3006.7232715298996,1231
3008.4448993293804,1202
3010.166216659239,1163
3011.887223831558,1210
3013.607921158498,1236
3015.3283089522993,1201
3017.0483875252826,1265
3018.7681571898443,1247
3020.4876182584626,1212
3022.2067710436927,1247
3023.9256158581707,1294
3025.644153014609,1228
3027.362382825801,1289
3029.0803056046193,1237
3030.797921664012,1220
3032.5152313170106,1280
3034.2322348767225,1200
3035.9489326563353,1180
3037.665324969115,1192
3039.3814121284063,1175
3041.097194447633,1274
3042.812672240299,1245
3044.5278458199855,1259
3046.2427155003525,1205
3047.9572815951406,1210
3049.671544418167,1224
3051.38550428333,1236
3053.0991615046073,1211
3054.812516396051,1221
3056.5255692717974,1193
3058.2383204460575,1231
3059.9507702331257,1242
3061.662918947372,1263
3063.3747669032446,1251
3065.0863144152736,1237
3066.7975617980674,1231
3068.508509366309,1207
3070.219157434767,1207
3071.9295063182844,1140
3073.639556331785,1230
3075.3493077902704,1184
3077.058761008821,1208
3078.7679163025964,1281
3080.476773986837,1244
3082.1853343768594,1253
3083.89359778806,1196
3085.6015645359153,1275
3087.3092349359786,1200
3089.016609303884,1250
3090.7236879553434,1253
3092.4304712061476,1254
3094.136959372166,1208
3095.843152769349,1266
3097.5490517137237,1223
3099.2546565213966,1239
3100.959967508554,1145
3102.66498499146,1204
3104.3697092864577,1166
3106.0741407099695,1238
3107.778279578498,1227
3109.482126208622,1215
3111.1856809170004,1209
3112.8889440203716,1232
3114.5919158355528,1257
3116.294596679439,1207
3117.996986869006,1201
3119.6990867213062,1211
3121.4008965534726,1247
3123.102416682717,1242
3124.803647426329,1232
3126.5045891016784,1208
3128.205242026213,1206
3129.90560651746,1285
3131.605682893025,1210
3133.3054714705922,1244
3135.0049725679282,1236
3136.7041865028714,1208
3138.4031135933465,1248
3140.101754157353,1216
3141.800108512971,1217
3143.498176978357,1223
3145.1959598717494,1235
3146.8934575114636,1241
3148.5906702158954,1211
3150.2875983035183,1214
3151.9842420928853,1219
3153.680601902627,1212
3155.376678051456,1168
3157.07247085816,1170
3158.767980641609,1171
3160.463207720748,1191
3162.158152414606,1216
3163.8528150422862,1252
3165.5471959229726,1275
3167.2412953759303,1203
3168.9351137204976,1235
3170.628651276098,1206
3172.3219083622307,1195
3174.014885298474,1220
3175.707582404485,1284
3177.4000000000005,1253
3179.092138404835,1212
3180.7839979388846,1196
3182.47557892212,1229
3184.166881674594,1245
3185.8579065164386,1205
3187.5486537678626,1283
3189.2391237491547,1240
3190.9293167806827,1233
3192.6192331828934,1207
3194.3088732763117,1260
3195.998237381542,1221
3197.687325819268,1199
3199.376138910251,1251
3201.064676975334,1223
3202.7529403354347,1163
3204.4409293115523,1144
3206.1286442247647,1167
3207.816085396229,1196
3209.5032531471825,1214
3211.190147798936,1188
3212.8767696728846,1240
3214.5631190905015,1201
3216.2491963733373,1219
3217.9350018430214,1204
3219.6205358212637,1183
3221.305798629851,1196
3222.990790590651,1191
3224.6755120256103,1203
3226.359963256751,1161
3228.0441446061795,1159
3229.7280563960758,1209
3231.411698948703,1232
3233.0950725863995,1201
3234.778177631587,1251
3236.461014406761,1191
3238.1435832345005,1219
3239.8258844374595,1308
3241.507918338374,1207
3243.1896852600576,1199
3244.8711855254023,1193
3246.552419457381,1224
3248.233387379042,1208
3249.914089613516,1241
3251.59452648401,1180
3253.274698313813,1206
3254.95460542629,1228
3256.6342481448855,1226
3258.313626793125,1249
3259.9927416946084,1253
3261.6715931730196,1212
3263.3501815521176,1176
3265.0285071557437,1216
3266.706570307815,1204
3268.3843713323286,1177
3270.0619105533615,1212
3271.739188295068,1180
3273.4162048816834,1220
3275.0929606375184,1250
3276.769455886966,1159
3278.445690954498,1204
3280.1216661646613,1196
3281.797381842087,1200
3283.4728383114807,1260
3285.1480358976296,1235
3286.8229749253996,1245
3288.4976557197333,1156
3290.172078605655,1221
3291.846243908266,1212
3293.5201519527463,1206
3295.193803064357,1192
3296.8671975684374,1192
3298.5403357904024,1184
3300.21321805575,1226
3301.8858446900567,1234
3303.558216018975,1211
3305.23033236824,1187
3306.9021940636603,1205
3308.57380143113,1220
3310.2451547966184,1214
3311.916254486174,1226
3313.5871008259246,1200
3315.2576941420766,1164
3316.9280347609147,1169
3318.5981230088046,1186
3320.2679592121895,1227
3321.9375436975924,1198
3323.606876791612,1217
3325.27595882093,1218
3326.944790112305,1194
3328.6133709925753,1180
3330.2817017886573,1188
3331.949782827547,1233
3333.617614436319,1198
3335.2851969421245,1228
3336.952530672199,1196
3338.619615953853,1194
3340.286453114475,1183
3341.9530424815357,1181
3343.619384382583,1259
3345.2854791452437,1264
3346.951327097224,1228
3348.6169285663073,1246
3350.2822838803577,1245
3351.947393367319,1213
3353.61225735521,1187
3355.2768761721345,1170
3356.9412501462693,1196
3358.605379605873,1182
3360.2692648792827,1210
3361.9329062949146,1183
3363.596304181263,1219
