CollectionTime,7/9/2024 4:06:40 PM
ExposureUsed,3
CalibratedSpectrum
-962.7078968117929,452
-959.9714848408522,472
-957.2358232597828,473
-954.5009119013725,496
-951.7667505983302,462
-949.0333391832855,474
-946.3006774887896,507
-943.5687653473143,525
-940.837602591253,483
-938.1071890529199,505
-935.3775245645503,475
-932.6486089583007,490
-929.9204420662485,478
-927.1930237203925,496
-924.4663537526524,476
-921.7404319948689,462
-919.0152582788041,484
-916.2908324361409,489
-913.5671542984834,499
-910.8442236973568,489
-908.1220404642074,500
-905.4006044304027,509
-902.679915427231,502
-899.959973285902,493
-897.2407778375464,483
-894.5223289132158,479
-891.8046263438832,516
-889.0876699604426,466
-886.3714595937089,486
-883.6559950744183,474
-880.9412762332282,491
-878.2273029007168,478
-875.5140749073835,501
-872.8015920836489,489
-870.0898542598545,498
-867.3788612662631,508
-864.6686129330585,494
-861.9591090903457,503
-859.2503495681506,499
-856.5423341964203,484
-853.8350628050229,519
-851.1285352237478,480
-848.4227512823054,496
-845.7177108103272,503
-843.0134136373656,510
-840.3098595928943,503
-837.6070485063082,520
-834.9049802069229,511
-832.2036545239757,528
-829.5030712866244,512
-826.8032303239481,506
-824.1041314649472,520
-821.4057745385428,487
-818.7081593735775,502
-816.0112857988148,479
-813.3151536429393,502
-810.6197627345566,537
-807.9251129021936,489
-805.2312039742981,506
-802.5380357792392,515
-799.8456081453069,520
-797.1539209007124,524
-794.462973873588,487
-791.772766891987,506
-789.083299783884,521
-786.3945723771743,527
-783.7065844996748,520
-781.0193359791231,496
-778.3328266431781,539
-775.6470563194197,520
-772.9620248353489,520
-770.2777320183878,502
-767.5941776958798,532
-764.9113616950891,528
-762.2292838432011,496
-759.5479439673222,481
-756.8673418944801,506
-754.1874774516235,507
-751.5083504656222,542
-748.8299607632671,535
-746.15230817127,542
-743.475392516264,562
-740.7992136248035,500
-738.1237713233636,523
-735.4490654383407,524
-732.7750957960521,502
-730.1018622227365,546
-727.4293645445534,532
-724.7576025875837,539
-722.0865761778291,548
-719.4162851412126,520
-716.7467293035781,542
-714.0779084906909,555
-711.409822528237,548
-708.7424712418238,541
-706.0758544569796,529
-703.4099719991541,563
-700.7448236937178,572
-698.0804093659622,527
-695.4167288411002,504
-692.7537819442656,554
-690.0915685005134,527
-687.4300883348199,542
-684.7693412720819,548
-682.1093271371178,534
-679.4500457546669,560
-676.7914969493897,555
-674.1336805458676,552
-671.4765963686034,553
-668.8202442420206,565
-666.1646239904642,529
-663.5097354382001,562
-660.8555784094151,552
-658.2021527282176,556
-655.5494582186366,546
-652.8974947046223,534
-650.2462620100463,580
-647.5957599587009,572
-644.9459883742998,563
-642.2969470804776,553
-639.6486359007902,591
-637.0010546587141,558
-634.3542031776476,550
-631.7080812809096,563
-629.0626887917401,559
-626.4180255333008,566
-623.7740913286734,548
-621.1308860008619,600
-618.4884093727904,556
-615.8466612673046,584
-613.2056415071715,585
-610.5653499150785,598
-607.9257863136347,539
-605.28695052537,564
-602.6488423727357,569
-600.0114616781036,586
-597.3748082637674,596
-594.7388819519412,603
-592.1036825647604,586
-589.4692099242818,603
-586.8354638524829,572
-584.2024441712624,629
-581.5701507024403,593
-578.9385832677575,580
-576.3077416888759,585
-573.6776257873787,547
-571.0482353847704,617
-568.4195703024757,585
-565.7916303618415,568
-563.164415384135,613
-560.5379251905453,581
-557.9121596021815,596
-555.2871184400748,575
-552.6628015251767,625
-550.0392086783606,599
-547.4163397204204,585
-544.794194472071,585
-542.1727727539491,605
-539.5520743866118,589
-536.9320991905377,632
-534.3128469861261,611
-531.6943175936979,658
-529.0765108334947,659
-526.4594265256793,732
-523.8430644903358,768
-521.2274245474689,843
-518.612506517005,873
-515.9983102187913,828
-513.3848354725959,845
-510.77208209810846,847
-508.16004991493924,938
-505.5487387426199,986
-502.9381484006032,996
-500.3282787082628,999
-497.71912948489364,956
-495.1107005497117,876
-492.5029917218539,806
-489.8960028203786,733
-487.28973366426493,750
-484.68418407241325,731
-482.07935386364494,732
-479.47524285670266,711
-476.87185087025,702
-474.2691777228715,716
-471.66722323307334,745
-469.0659872192821,700
-466.4654694998459,684
-463.86566989303384,701
-461.26658821703614,759
-458.66822428996414,731
-456.07057792985,679
-453.4736489546475,735
-450.877437182231,709
-448.28194243039627,727
-445.68716451686,733
-443.09310325926003,738
-440.49975847515555,710
-437.9071299820263,724
-435.31521759727354,724
-432.72402113821954,715
-430.13354042210767,759
-427.5437752661022,728
-424.95472548728867,752
-422.36639090267386,730
-419.7787713291855,769
-417.1918665836721,799
-414.60567648290385,748
-412.0202008435715,762
-409.4354394822874,780
-406.8513922155845,752
-404.26805885991723,810
-401.685439231661,761
-399.103533147112,812
-396.522340422488,776
-393.9418608739278,752
-391.3620943174908,780
-388.7830405691583,748
-386.2046994448317,722
-383.6270707603344,709
-381.05015433141045,697
-378.473949973725,634
-375.8984575028645,596
-373.32367673433623,563
-370.74960748356875,576
-368.1762495659117,524
-365.60360279663576,514
-363.03166699093265,490
-360.4604419639154,453
-357.8899275306178,417
-355.32012350599507,437
-352.7510297049233,418
-350.1826459421999,423
-347.61497203254316,405
-345.04800779059235,401
-342.4817530309082,390
-339.91620756797226,406
-337.35137121618743,419
-334.7872437898774,390
-332.22382510328725,417
-329.66111497058273,412
-327.09911320585127,428
-324.53781962310075,447
-321.9772340362607,430
-319.4173562591816,402
-316.8581861056348,420
-314.2997233893127,389
-311.7419679238294,414
-309.1849195227194,405
-306.62857799943856,451
-304.0729431673641,442
-301.51801483979375,426
-298.963792829947,441
-296.41027695096386,444
-293.85746701590574,429
-291.3053628377552,439
-288.7539642294155,435
-286.2032710037115,427
-283.65328297338897,439
-281.1039999511146,421
-278.5554217494762,456
-276.007548180983,465
-273.4603790580651,461
-270.9139141930734,467
-268.3681533982807,452
-265.8230964858798,487
-263.27874326798565,464
-260.7350935566336,439
-258.1921471637804,461
-255.6499039013039,477
-253.10836358100266,473
-250.56752601459698,479
-248.02739101372765,448
-245.48795838995704,436
-242.94922795476816,454
-240.41119951956557,481
-237.8738728956746,484
-235.33724789434166,504
-232.80132432673452,491
-230.2661020039418,492
-227.73158073697357,520
-225.19776033676033,532
-222.66464061415422,520
-220.1322213799284,485
-217.60050244477725,492
-215.06948361931552,499
-212.53916471408013,519
-210.00954553952818,530
-207.48062590603843,499
-204.9524056239104,520
-202.4248845033651,572
-199.8980623545441,549
-197.37193898751036,499
-194.84651421224817,560
-192.32178783866232,531
-189.79775967657952,549
-187.27442953574644,566
-184.7517972258321,569
-182.2298625564256,558
-179.7086253370378,534
-177.18808537710026,530
-174.66824248596583,536
-172.14909647290835,540
-169.6306471471229,531
-167.11289431772548,573
-164.59583779375328,553
-162.07947738416453,560
-159.5638128978386,564
-157.04884414357605,553
-154.53457093009854,599
-152.02099306604828,583
-149.50811035998936,572
-146.99592262040665,564
-144.48442965570587,577
-141.97363127421409,587
-139.46352728417958,561
-136.95411749377126,598
-134.44540171107985,592
-131.93737974411636,590
-129.43005140081357,605
-126.92341648902493,650
-124.41747481652521,685
-121.91222619101006,752
-119.40767042009657,862
-116.90380731132257,920
-114.40063667214702,884
-111.8981583099503,878
-109.3963720320337,833
-106.89527764561933,867
-104.39487495785067,816
-101.89516377579241,922
-99.39614390642998,1017
-96.89781515667039,1191
-94.40017733334128,1341
-91.90323024319173,1373
-89.40697369289148,1491
-86.91140748903172,1619
-84.41653143812482,1437
-81.92234534660395,1444
-79.42884902082358,1437
-76.93604226705907,2049
-74.4439248915071,2769
-71.95249670028534,3534
-69.46175749943245,4216
-66.97170709490854,4547
-64.48234529259423,4599
-61.99367189829195,4499
-59.50568671772464,4444
-57.01838955653636,3745
-54.53178022029283,3457
-52.045858514480074,4297
-49.560624244506016,6071
-47.07607721569923,6944
-44.59221723330904,6893
-42.10904410250669,6882
-39.62655762838392,6176
-37.14475761595372,5508
-34.66364387015028,5346
-32.18321619582866,5383
-29.70347439776515,5395
-27.224418280657005,5981
-24.74604764912317,6588
-22.26836230770266,7267
-19.7913620608565,10117
-17.315046712966478,17272
-14.83941606833514,24147
-12.36446993118659,31065
-9.89020810566592,65040
-7.416630395839093,65040
-4.94373660569363,65040
-2.471526539137585,65040
-6.821210263296962E-13,65040
2.47084320796705,65040
4.941003281093458,65040
7.410480415786196,65040
9.879274808531363,65040
12.347386655893956,65040
14.814816154518212,65040
17.28156350112681,65040
19.74762889252179,65040
22.21301252558385,65040
24.67771459727237,19406
27.141735304626195,2954
29.605074844762612,1672
32.06773341487792,1458
34.52971121224755,1359
36.99100843422559,1170
39.45162527824516,1172
41.91156194181792,1148
44.370818622535126,955
46.82939551806646,944
49.287292826160524,906
51.74451074464503,925
54.201049471426245,862
56.65690920448981,776
59.112090141899785,793
61.56659248179983,783
64.02041642241159,915
66.4735621620365,894
68.92602989905402,709
71.37781983192338,702
73.82893215918205,779
76.27936707944684,860
78.72912479141326,776
81.17820549385567,814
83.62660938562783,790
86.07433666566146,755
88.5213875329681,700
90.96776218663751,685
93.41346082583925,634
95.85848364982041,641
98.30283085790859,738
100.7465026495089,690
103.18949922410604,735
105.63182078126385,678
108.07346752062438,691
110.51443964190923,662
112.95473734491827,612
115.39436082953114,646
117.83331029570547,647
120.27158594347827,653
122.7091879729652,616
125.1461165843615,602
127.58237197794062,578
130.01795435405518,651
132.4528639131364,695
134.88710085569494,662
137.32066538231982,676
139.75355769367923,685
142.1857779905207,581
144.61732647366978,584
147.04820334403132,648
149.47840880258934,648
151.90794305040674,650
154.33680628862487,686
156.76499871846443,844
159.19252054122433,884
161.61937195828352,938
164.04555317109896,1092
166.47106438120693,1249
168.89590579022217,1263
171.320077599839,1348
173.7435800118302,1342
176.16641322804742,1440
178.58857745042144,1490
181.01007288096173,1503
183.43089972175687,1515
185.85105817497413,1500
188.27054844285988,1540
190.6893707277394,1576
193.10752523201643,1659
195.5250121581745,1699
197.9418317087751,1712
200.3579840864594,1600
202.7734694939469,1691
205.18828813403627,1724
207.6024402096051,1787
210.01592592360964,1791
212.42874547908548,1805
214.84089907914665,1789
217.2523869269868,1860
219.66320922587727,1773
222.0733661791695,1831
224.48285799029293,1768
226.8916848627572,1796
229.29984700014882,1812
231.7073446061355,1871
234.11417788446204,1823
236.520347038953,1849
238.92585227351185,1872
241.33069379212054,1868
243.73487179884035,1871
246.1383864978112,1935
248.541238093252,1847
250.9434267894609,1861
253.34495279081432,1844
255.74581630176783,1908
258.1460175268563,1788
260.54555667069314,1883
262.9444339379703,1909
265.3426495334594,1833
267.7402036620107,1885
270.1370965285529,1821
272.53332833809407,1867
274.9288992957214,1868
277.32380960660055,1790
279.718059475976,1797
282.1116491091717,1872
284.5045787115897,1797
286.89684848871195,1829
289.2884586460981,1782
291.67940938938807,1844
294.0697009242996,1861
296.4593334566299,1815
298.84830719225477,1808
301.23662233712923,1841
303.6242790972866,1835
306.01127767884,1799
308.39761828798066,1827
310.78330113097934,1804
313.16832641418534,1715
315.5526943440269,1733
317.9364051270112,1687
320.3194589697242,1698
322.70185607883093,1662
325.0835966610754,1677
327.4646809232805,1713
329.8451090723478,1678
332.2248813152577,1675
334.6039978590701,1695
336.9824589109231,1704
339.36026467803447,1588
341.7374153677,1662
344.113911187295,1707
346.48975234427337,1653
348.8649390461686,1720
351.2394715005918,1609
353.61334991523415,1663
355.9865744978655,1579
358.35914545633375,1636
360.73106299856715,1610
363.10232733257146,1648
365.47293866643247,1556
367.84289720831396,1609
370.2122031664593,1647
372.5808567491905,1636
374.9488581649083,1600
377.31620762209275,1633
379.6829053293021,1619
382.0489514951745,1624
384.4143463284262,1556
386.7790900378528,1623
389.14318283232853,1581
391.50662492080653,1577
393.86941651231916,1609
396.23155781597745,1569
398.5930490409713,1601
400.9538903965696,1610
403.3140820921202,1590
405.6736243370498,1572
408.03251734086336,1575
410.3907613131465,1548
412.74835646356166,1530
415.10530300185144,1500
417.4616011378372,1548
419.81725108141893,1555
422.1722530425758,1525
424.5266072313656,1509
426.880313857925,1534
429.2333731324701,1532
431.58578526529516,1502
433.9375504667738,1524
436.2886689473588,1528
438.63914091758113,1542
440.9889665880513,1498
443.33814616945835,1521
445.68667987257015,1477
448.03456790823395,1516
450.3818104873759,1522
452.72840782100013,1562
455.07436012019105,1452
457.41966759611057,1506
459.7643304600007,1532
462.10834892318155,1491
464.4517231970525,1493
466.79445349309174,1516
469.1365400228566,1481
471.4779829979826,1454
473.81878263018564,1476
476.15893913125876,1477
478.4984527130747,1517
480.8373235875855,1561
483.17555196682144,1577
485.5131380628919,1613
487.8500820879857,1630
490.1863842543697,1613
492.52204477439034,1673
494.8570638604725,1796
497.1914417251204,1880
499.52517858091653,2051
501.85827464052306,2242
504.19073011668036,2310
506.5225452222086,2430
508.85372017000566,2407
511.18425517304956,2440
513.514150444396,2592
515.8434061971808,3054
518.1720226446176,3866
520.4999999999999,3943
522.8273384766991,3773
525.1540382881666,3314
527.480099647932,3042
529.8055227696037,2393
532.1303078668694,2017
534.454455153496,1764
536.777964843328,1625
539.1008371502907,1548
541.4230722883866,1584
543.744670471698,1598
546.0656319143858,1594
548.3859568306899,1567
550.7056454349294,1522
553.0246979415016,1497
555.3431145648834,1498
557.6608955196306,1508
559.978041020377,1506
562.2945512818363,1553
564.6104265188006,1498
566.9256669461412,1519
569.2402727788082,1484
571.5542442318302,1543
573.8675815203156,1476
576.1802848594508,1532
578.4923544645015,1513
580.8037905508126,1515
583.114593333807,1568
585.4247630289875,1478
587.7342998519354,1473
590.0432040183106,1516
592.3514757438526,1525
594.6591152443794,1495
596.9661227357875,1511
599.2724984340531,1491
601.578242555231,1535
603.8833553154542,1502
606.1878369309362,1467
608.4916876179676,1440
610.7949075929192,1537
613.0974970722403,1548
615.3994562724587,1520
617.7007854101818,1487
620.0014847020951,1505
622.3015543649641,1533
624.6009946156324,1536
626.8998056710224,1534
629.1979877481361,1534
631.4955410640538,1546
633.7924658359349,1494
636.0887622810175,1533
638.3844306166192,1530
640.6794710601358,1464
642.9738838290426,1550
645.2676691408932,1554
647.5608272133207,1575
649.853358264037,1581
652.1452625108324,1565
654.4365401715764,1532
656.7271914642178,1580
659.0172166067838,1593
661.3066158173809,1507
663.5953893141935,1557
665.8835373154867,1552
668.1710600396028,1586
670.4579577049639,1576
672.7442305300709,1550
675.0298787335033,1521
677.3149025339197,1526
679.599302150058,1568
681.8830778007342,1504
684.1662297048437,1566
686.4487580813608,1563
688.7306631493387,1577
691.0119451279091,1509
693.2926042362834,1562
695.5726406937516,1588
697.8520547196814,1575
700.1308465335215,1516
702.4090163547982,1581
704.6865644031171,1533
706.9634908981619,1515
709.2397960596965,1538
711.5154801075631,1567
713.7905432616823,1583
716.0649857420548,1584
718.3388077687592,1524
720.612009561953,1539
722.8845913418733,1566
725.1565533288352,1610
727.427895743234,1533
729.6986188055427,1606
731.9687227363137,1586
734.238207756178,1575
736.5070740858458,1637
738.7753219461066,1579
741.0429515578281,1601
743.3099631419569,1567
745.5763569195191,1607
747.8421331116193,1561
750.1072919394409,1539
752.3718336242467,1633
754.6357583873777,1614
756.8990664502545,1546
759.1617580343765,1552
761.423833361321,1634
763.6852926527457,1544
765.9461361303862,1620
768.206364016058,1593
770.4659765316536,1599
772.7249738991469,1624
774.9833563405886,1573
777.2411240781092,1583
779.4982773339183,1582
781.7548163303044,1594
784.010741289634,1560
786.2660524343538,1708
788.5207499869881,1627
790.7748341701416,1615
793.0283052064964,1636
795.2811633188143,1630
797.5334087299362,1596
799.7850416627813,1644
802.0360623403484,1656
804.2864709857143,1627
806.5362678220353,1668
808.7854530725468,1632
811.0340269605625,1652
813.2819897094754,1603
815.5293415427581,1579
817.77608268396,1577
820.0222133567116,1666
822.2677337847211,1584
824.5126441917765,1612
826.7569448017433,1654
829.0006358385675,1613
831.2437175262731,1612
833.4861900889629,1553
835.7280537508192,1605
837.9693087361026,1545
840.2099552691533,1652
842.4499935743896,1626
844.689423876309,1586
846.9282463994886,1605
849.1664613685833,1595
851.4040690083276,1580
853.6410695435349,1586
855.877463199097,1617
858.1132501999847,1583
860.3484307712487,1629
862.5830051380175,1649
864.8169735254988,1674
867.0503361589791,1624
869.2830932638243,1658
871.5152450654786,1593
873.7467917894654,1632
875.9777336613873,1650
878.2080709069252,1609
880.4378037518389,1615
882.666932421968,1599
884.8954571432301,1691
887.1233781416219,1641
889.3506956432192,1660
891.5774098741766,1621
893.803521060728,1623
896.0290294291852,1646
898.2539352059397,1571
900.4782386174619,1603
902.7019398903011,1569
904.925039251085,1641
907.147536926521,1593
909.3694331433943,1614
911.59072812857,1573
913.8114221089921,1613
916.0315153116827,1571
918.2510079637437,1558
920.4699002923547,1564
922.6881925247761,1590
924.905884888345,1628
927.1229776104793,1532
929.3394709186747,1658
931.555365040506,1573
933.7706602036275,1546
935.9853566357709,1547
938.1994545647489,1609
940.4129542184515,1625
942.6258558248488,1551
944.8381596119883,1608
947.0498658079974,1555
949.2609746410825,1626
951.4714863395287,1570
953.6814011316998,1615
955.8907192460387,1502
958.0994409110671,1545
960.3075663553858,1580
962.5150958076741,1575
964.7220294966913,1541
966.928367651274,1572
969.1341105003388,1591
971.3392582728806,1552
973.5438111979742,1558
975.747769504772,1561
977.9511334225061,1559
980.153903180487,1568
982.3560790081052,1573
984.5576611348289,1575
986.7586497902058,1557
988.9590452038618,1502
991.158847605503,1468
993.3580572249133,1519
995.5566742919558,1482
997.7546990365728,1427
999.952131688785,1434
1002.1489724786926,1430
1004.3452216364743,1473
1006.5408793923874,1418
1008.7359459767691,1485
1010.9304216200343,1407
1013.1243065526781,1458
1015.3176010052733,1409
1017.510305208472,1348
1019.7024193930064,1438
1021.8939437896848,1359
1024.0848786293977,1392
1026.2752241431122,1333
1028.4649805618747,1405
1030.6541481168115,1405
1032.842727039127,1302
1035.0307175601051,1306
1037.2181199111074,1338
1039.4049343235752,1369
1041.591161029029,1379
1043.7768002590683,1283
1045.9618522453698,1368
1048.1463172196918,1272
1050.3301954138697,1344
1052.513487059818,1336
1054.69619238953,1330
1056.8783116350783,1363
1059.0598450286152,1333
1061.2407928023704,1356
1063.4211551886528,1386
1065.6009324198508,1340
1067.780124728432,1308
1069.9587323469414,1325
1072.1367555080046,1380
1074.314194444325,1338
1076.4910493886855,1310
1078.667320573947,1299
1080.843008233051,1316
1083.0181125990161,1251
1085.1926339049414,1291
1087.3665723840027,1265
1089.5399282694575,1272
1091.7127017946405,1302
1093.8848931929647,1272
1096.0565026979243,1290
1098.2275305430899,1247
1100.3979769621128,1259
1102.567842188722,1300
1104.737126456726,1294
1106.9058300000124,1268
1109.0739530525475,1314
1111.2414958483764,1285
1113.4084586216231,1288
1115.5748416064907,1243
1117.7406450372605,1267
1119.9058691482942,1330
1122.0705141740304,1254
1124.2345803489884,1272
1126.3980679077658,1291
1128.5609770850388,1266
1130.7233081155623,1204
1132.8850612341707,1272
1135.0462366757774,1310
1137.2068346753745,1270
1139.3668554680326,1264
1141.526299288901,1260
1143.68516637321,1185
1145.8434569562655,1217
1148.001171273455,1243
1150.158309560244,1240
1152.3148720521767,1294
1154.470858984876,1226
1156.626270594044,1293
1158.7811071154629,1233
1160.9353687849912,1272
1163.089055838569,1257
1165.242168512213,1275
1167.3947070420209,1235
1169.5466716641677,1287
1171.6980626149075,1208
1173.8488801305748,1187
1175.9991244475814,1214
1178.1487958024186,1267
1180.2978944316555,1264
1182.4464205719428,1217
1184.5943744600072,1255
1186.7417563326567,1232
1188.8885664267755,1233
1191.0348049793297,1247
1193.1804722273619,1218
1195.325568407995,1275
1197.4700937584303,1248
1199.614048515948,1220
1201.7574329179074,1273
1203.900247201746,1207
1206.042491604982,1239
1208.1841663652099,1215
1210.3252717201053,1203
1212.465807907422,1252
1214.6057751649923,1302
1216.7451737307279,1238
1218.8840038426192,1180
1221.0222657387353,1207
1223.1599596572241,1249
1225.2970858363137,1248
1227.4336445143094,1276
1229.5696359295966,1263
1231.705060320639,1276
1233.8399179259786,1241
1235.9742089842384,1273
1238.107933734118,1279
1240.2410924143974,1260
1242.373685263935,1254
1244.5057125216676,1258
1246.6371744266116,1294
1248.7680712178621,1308
1250.898403134593,1268
1253.028170416058,1325
1255.1573733015875,1284
1257.2860120305932,1294
1259.4140868425648,1329
1261.54159797707,1276
1263.6685456737569,1286
1265.7949301723515,1287
1267.9207517126597,1290
1270.046010534565,1288
1272.1707068780306,1334
1274.2948409830983,1307
1276.4184130898889,1313
1278.541423438603,1373
1280.6638722695184,1306
1282.785759822993,1355
1284.9070863394636,1369
1287.0278520594447,1410
1289.1480572235314,1354
1291.2677020723963,1350
1293.3867868467923,1317
1295.5053117875495,1357
1297.623277135579,1396
1299.740683131868,1334
1301.8575300174857,1449
1303.973818033578,1465
1306.0895474213703,1503
1308.2047184221678,1457
1310.3193312773528,1443
1312.4333862283888,1475
1314.5468835168163,1426
1316.659823384255,1475
1318.7722060724045,1458
1320.8840318230418,1469
1322.9953008780249,1516
1325.1060134792888,1473
1327.2161698688478,1453
1329.3257702887959,1446
1331.4348149813054,1506
1333.5433041886276,1488
1335.6512381530933,1440
1337.7586171171101,1432
1339.8654413231675,1490
1341.9717110138317,1428
1344.0774264317488,1504
1346.1825878196432,1446
1348.2871954203192,1442
1350.3912494766587,1438
1352.4947502316231,1446
1354.5976979282532,1417
1356.7000928096686,1467
1358.8019351190665,1445
1360.9032250997243,1359
1363.0039629949988,1456
1365.1041490483235,1411
1367.2037835032133,1406
1369.3028666032606,1415
1371.401398592137,1434
1373.4993797135926,1410
1375.5968102114575,1358
1377.6936903296396,1400
1379.7900203121262,1409
1381.8858004029835,1400
1383.9810308463561,1402
1386.075711886469,1367
1388.1698437676241,1397
1390.2634267342032,1313
1392.356461030667,1362
1394.4489469015557,1380
1396.5408845914872,1310
1398.6322743451592,1378
1400.7231164073469,1342
1402.813411022907,1383
1404.903158436773,1391
1406.9923588939578,1401
1409.0810126395531,1346
1411.1691199187303,1400
1413.2566809767386,1427
1415.343696058907,1403
1417.4301654106425,1388
1419.5160892774315,1350
1421.6014679048399,1440
1423.6863015385125,1375
1425.7705904241707,1416
1427.8543348076178,1418
1429.9375349347342,1353
1432.0201910514802,1412
1434.102303403894,1392
1436.1838722380944,1376
1438.2648978002767,1387
1440.3453803367174,1388
1442.4253200937692,1359
1444.5047173178677,1377
1446.5835722555234,1451
1448.6618851533285,1407
1450.739656257952,1425
1452.8168858161434,1482
1454.8935740747306,1446
1456.96972128062,1435
1459.045327680797,1453
1461.120393522327,1453
1463.1949190523528,1454
1465.2689045180973,1492
1467.3423501668608,1431
1469.415256246024,1415
1471.4876230030463,1494
1473.559450685465,1483
1475.6307395408976,1524
1477.7014898170391,1476
1479.771701761665,1513
1481.8413756226287,1484
1483.9105116478618,1487
1485.9791100853772,1534
1488.0471711832643,1524
1490.1146951896926,1498
1492.1816823529098,1556
1494.2481329212433,1523
1496.3140471430984,1555
1498.3794252669609,1573
1500.4442675413939,1512
1502.5085742150404,1570
1504.572345536622,1582
1506.6355817549388,1529
1508.6982831188702,1555
1510.7604498773744,1590
1512.8220822794883,1609
1514.8831805743293,1543
1516.9437450110909,1538
1519.003775839048,1612
1521.0632733075522,1614
1523.1222376660367,1654
1525.1806691640113,1646
1527.2385680510652,1644
1529.2959345768668,1663
1531.3527689911643,1658
1533.4090715437833,1713
1535.4648424846291,1704
1537.5200820636855,1703
1539.5747905310159,1723
1541.6289681367616,1693
1543.6826151311434,1751
1545.7357317644614,1775
1547.7883182870937,1778
1549.8403749494987,1850
1551.8919020022113,1812
1553.9428996958477,1874
1555.9933682811015,1916
1558.0433080087469,1951
1560.0927191296346,1971
1562.1416018946961,1917
1564.1899565549415,1915
1566.2377833614592,1888
1568.2850825654164,1987
1570.3318544180606,1952
1572.3780991707158,1898
1574.423817074788,1894
1576.4690083817595,1940
1578.5136733431923,1820
1580.5578122107272,1928
1582.601425236085,1764
1584.6445126710646,1758
1586.6870747675434,1777
1588.7291117774776,1638
1590.7706239529034,1662
1592.8116115459347,1680
1594.8520748087658,1586
1596.8920139936686,1660
1598.9314293529933,1572
1600.9703211391711,1584
1603.008689604711,1547
1605.0465350022005,1515
1607.0838575843068,1558
1609.1206576037753,1487
1611.1569353134305,1503
1613.1926909661765,1481
1615.2279248149953,1460
1617.2626371129481,1444
1619.2968281131757,1445
1621.3304980688963,1430
1623.3636472334088,1388
1625.39627586009,1395
1627.428384202396,1362
1629.459972513861,1347
1631.4910410480993,1323
1633.5215900588028,1332
1635.551619799744,1366
1637.5811305247717,1375
1639.6101224878166,1388
1641.6385959428862,1357
1643.6665511440683,1296
1645.693988345528,1297
1647.7209078015112,1324
1649.7473097663405,1314
1651.7731944944203,1305
1653.7985622402307,1378
1655.823413258333,1321
1657.847747803366,1304
1659.8715661300494,1323
1661.8948684931793,1282
1663.9176551476316,1332
1665.9399263483624,1320
1667.9616823504057,1301
1669.982923408873,1342
1672.0036497789574,1377
1674.0238617159293,1288
1676.043559475138,1277
1678.0627433120121,1266
1680.081413482059,1223
1682.0995702408654,1231
1684.117213844096,1305
1686.134344547495,1245
1688.1509626068864,1295
1690.1670682781705,1294
1692.182661817329,1236
1694.1977434804217,1287
1696.2123135235875,1297
1698.226372203043,1253
1700.2399197750851,1304
1702.2529564960905,1272
1704.2654826225112,1320
1706.277498410882,1296
1708.2890041178139,1316
1710.2999999999988,1305
1712.3104863142066,1284
1714.3204633172854,1308
1716.329931266163,1236
1718.3388904178469,1233
1720.3473410294214,1264
1722.3552833580516,1253
1724.3627176609807,1268
1726.3696441955308,1217
1728.3760632191033,1263
1730.3819749891782,1291
1732.3873797633146,1331
1734.3922777991502,1236
1736.3966693544012,1274
1738.4005546868639,1272
1740.4039340544127,1292
1742.406807715001,1294
1744.4091759266616,1262
1746.4110389475054,1253
1748.4123970357223,1238
1750.413250449582,1269
1752.4135994474318,1243
1754.4134442876993,1254
1756.4127852288902,1269
1758.4116225295893,1236
1760.4099564484595,1297
1762.407787244244,1232
1764.405115175764,1268
1766.4019405019203,1288
1768.3982634816916,1224
1770.3940843741357,1198
1772.3894034383907,1199
1774.3842209336717,1218
1776.378537119274,1230
1778.372352254571,1250
1780.3656665990156,1268
1782.3584804121397,1268
1784.3507939535534,1227
1786.3426074829463,1227
1788.3339212600863,1273
1790.3247355448211,1248
1792.3150505970766,1257
1794.3048666768573,1308
1796.2941840442477,1304
1798.2830029594106,1191
1800.2713236825884,1247
1802.2591464741004,1273
1804.2464715943465,1271
1806.2332993038058,1238
1808.2196298630352,1226
1810.2054635326708,1309
1812.190800573428,1262
1814.175641246101,1303
1816.1599858115628,1280
1818.1438345307652,1246
1820.127187664738,1303
1822.1100454745924,1244
1824.092408221516,1242
1826.0742761667766,1249
1828.055649571721,1233
1830.0365286977735,1213
1832.0169138064398,1241
1833.9968051593014,1245
1835.9762030180214,1209
1837.9551076443408,1261
1839.9335193000788,1259
1841.9114382471344,1206
1843.888864747485,1218
1845.8657990631878,1222
1847.842241456378,1155
1849.8181921892697,1247
1851.7936515241558,1188
1853.7686197234098,1223
1855.7430970494815,1235
1857.7170837649014,1161
1859.6905801322787,1217
1861.6635864143004,1222
1863.6361028737338,1239
1865.608129773424,1234
1867.5796673762961,1243
1869.5507159453537,1255
1871.521275743678,1264
1873.4913470344313,1297
1875.4609300808534,1239
1877.4300251462632,1268
1879.3986324940588,1266
1881.366752387717,1226
1883.3343850907936,1249
1885.3015308669228,1324
1887.268189979819,1249
1889.2343626932739,1260
1891.2000492711595,1280
1893.1652499774254,1288
1895.1299650761011,1288
1897.0941948312952,1291
1899.0579395071945,1323
1901.0211993680641,1267
1902.98397467825,1209
1904.9462657021745,1236
1906.9080727043415,1231
1908.869395949332,1271
1910.8302357018065,1221
1912.790592226504,1236
1914.7504657882428,1253
1916.7098566519212,1237
1918.6687650825133,1271
1920.6271913450764,1268
1922.5851357047422,1237
1924.5425984267245,1284
1926.499579776314,1247
1928.4560800188833,1247
1930.4120994198802,1211
1932.367638244833,1266
1934.32269675935,1237
1936.2772752291175,1236
1938.231373919899,1281
1940.1849930975404,1226
1942.1381330279637,1231
1944.0907939771696,1297
1946.0429762112412,1225
1947.9946799963363,1265
1949.9459055986945,1275
1951.896653284633,1240
1953.8469233205478,1247
1955.7967159729142,1275
1957.7460315082863,1194
1959.6948701932974,1236
1961.6432322946594,1251
1963.5911180791632,1240
1965.5385278136787,1277
1967.4854617651545,1248
1969.4319202006182,1244
1971.377903387176,1257
1973.3234115920136,1259
1975.268445082395,1259
1977.2130041256642,1275
1979.1570889892423,1311
1981.1006999406304,1241
1983.04383724741,1235
1984.986501177238,1262
1986.928691997853,1251
1988.8704099770712,1252
1990.811655382789,1275
1992.7524284829801,1191
1994.692729545698,1225
1996.6325588390755,1202
1998.5719166313224,1208
2000.5108031907307,1293
2002.4492187856677,1226
2004.387163684583,1250
2006.3246381560011,1314
2008.2616424685298,1258
2010.1981768908527,1287
2012.1342416917332,1213
2014.069837140014,1260
2016.0049635046162,1198
2017.9396210545406,1225
2019.8738100588666,1199
2021.8075307867502,1199
2023.740783507431,1230
2025.6735684902228,1265
2027.6058860045214,1252
2029.5377363198004,1232
2031.4691197056118,1259
2033.4000364315875,1195
2035.3304867674374,1264
2037.260470982952,1219
2039.189989347998,1258
2041.1190421325232,1244
2043.047629606554,1292
2044.9757520401945,1248
2046.9034097036288,1203
2048.8306028671195,1188
2050.7573318010086,1241
2052.683596775716,1178
2054.609398061742,1241
2056.5347359296647,1224
2058.4596106501403,1264
2060.384022493906,1255
2062.3079717317764,1237
2064.231458634646,1292
2066.1544834734873,1260
2068.077046519352,1264
2069.99914804337,1200
2071.9207883167524,1200
2073.8419676107865,1204
2075.7626861968406,1190
2077.6829443463607,1247
2079.6027423308715,1260
2081.522080421977,1252
2083.440958891362,1249
2085.359378010786,1202
2087.2773380520907,1276
2089.194839287196,1294
2091.111881988101,1232
2093.0284664268825,1216
2094.9445928756973,1248
2096.86026160678,1231
2098.775472892446,1266
2100.690227005088,1233
2102.604524217178,1238
2104.5183648012676,1171
2106.431749029985,1220
2108.34467717604,1233
2110.2571495122206,1266
2112.169166311393,1264
2114.080727846503,1195
2115.9918343905747,1251
2117.902486216711,1243
2119.8126835980956,1239
2121.722426807987,1262
2123.6317161197285,1203
2125.5405518067364,1302
2127.448934142509,1242
2129.356863400624,1209
2131.264339854737,1240
2133.1713637785815,1263
2135.077935445972,1282
2136.9840551308002,1206
2138.889723107037,1248
2140.7949396487334,1262
2142.699705030018,1294
2144.6040195250994,1245
2146.507883408264,1256
2148.4112969538774,1240
2150.3142604363848,1248
2152.2167741303097,1274
2154.1188383102535,1263
2156.0204532508997,1225
2157.9216192270064,1267
2159.822336513414,1287
2161.7226053850413,1255
2163.622426116884,1246
2165.5217989840185,1285
2167.4207242616,1233
2169.319202224862,1233
2171.2172331491165,1283
2173.1148173097563,1263
2175.0119549822507,1306
2176.90864644215,1265
2178.8048919650823,1268
2180.7006918267534,1231
2182.596046302952,1253
2184.4909556695407,1250
2186.3854202024645,1298
2188.279440177746,1251
2190.173015871487,1295
2192.066147559868,1229
2193.958835519149,1251
2195.851080025667,1309
2197.7428813558417,1249
2199.6342397861667,1234
2201.5251555932186,1214
2203.415629053651,1296
2205.3056604441986,1289
2207.19525004167,1250
2209.084398122958,1230
2210.9731049650327,1252
2212.861370844941,1268
2214.749196039812,1291
2216.636580826851,1304
2218.523525483344,1259
2220.410030286655,1317
2222.296095514226,1332
2224.1817214435805,1272
2226.066908352319,1279
2227.951656518121,1305
2229.835966218746,1270
2231.71983773203,1296
2233.6032713358913,1309
2235.486267308324,1300
2237.3688259274036,1276
2239.2509474712824,1255
2241.132632218193,1237
2243.013880446447,1299
2244.8946924344323,1251
2246.7750684606203,1305
2248.6550088035574,1274
2250.534513741871,1285
2252.413583554265,1280
2254.292218519526,1281
2256.170418916517,1239
2258.0481850241786,1245
2259.925517121534,1243
2261.8024154876825,1296
2263.678880401803,1308
2265.5549121431536,1314
2267.430510991071,1306
2269.305677224971,1295
2271.180411124348,1304
2273.0547129687766,1298
2274.9285830379076,1262
2276.8020216114737,1275
2278.6750289692845,1330
2280.5476053912294,1270
2282.4197511572766,1267
2284.2914665474727,1313
2286.162751841943,1287
2288.0336073208937,1318
2289.904033264608,1318
2291.774029953448,1314
2293.6435976678554,1306
2295.5127366883517,1250
2297.381447295534,1264
2299.2497297700825,1268
2301.1175843927526,1195
2302.9850114443825,1239
2304.852011205885,1228
2306.7185839582553,1202
2308.5847299825664,1230
2310.4504495599676,1176
2312.3157429716925,1210
2314.1806104990483,1195
2316.0450524234247,1238
2317.9090690262888,1186
2319.772660589186,1162
2321.635827393742,1155
2323.498569721661,1213
2325.3608878547248,1184
2327.2227820747967,1153
2329.0842526638157,1192
2330.945299903803,1187
2332.805924076857,1169
2334.6661254651535,1183
2336.525904350951,1134
2338.3852610165827,1187
2340.244195744464,1180
2342.102708817088,1170
2343.9608005170253,1172
2345.8184711269287,1186
2347.675720929526,1221
2349.532550207628,1207
2351.38895924412,1168
2353.24494832197,1165
2355.100517724223,1178
2356.955667734004,1160
2358.810398634514,1242
2360.664710709037,1168
2362.5186042409337,1213
2364.3720795136437,1184
2366.225136810686,1201
2368.0777764156583,1184
2369.929998612237,1194
2371.7818036841777,1172
2373.633191915315,1214
2375.484163589562,1174
2377.3347189909114,1237
2379.184858403434,1131
2381.03458211128,1191
2382.8838903986775,1253
2384.732783549936,1167
2386.5812618494406,1211
2388.4293255816588,1182
2390.2769750311327,1194
2392.1242104824883,1222
2393.971032220427,1172
2395.8174405297295,1211
2397.6634356952563,1204
2399.509018001947,1195
2401.3541877348193,1221
2403.1989451789705,1187
2405.043290619576,1223
2406.8872243418905,1229
2408.730746631247,1267
2410.5738577730594,1223
2412.4165580528183,1161
2414.258847756095,1190
2416.100727168537,1171
2417.9421965758734,1208
2419.783256263912,1195
2421.623906518538,1188
2423.4641476257157,1193
2425.303979871491,1210
2427.143403541984,1215
2428.9824189233977,1204
2430.821026302012,1260
2432.6592259641866,1196
2434.497018196361,1176
2436.33440328505,1207
2438.171381516851,1196
2440.00795317844,1269
2441.844118556569,1220
2443.6798779380724,1209
2445.5152316098606,1188
2447.3501798589255,1213
2449.1847229723357,1204
2451.0188612372403,1216
2452.8525949408663,1197
2454.6859243705203,1223
2456.518849813587,1209
2458.3513715575314,1190
2460.183489889895,1227
2462.015205098301,1218
2463.8465174704493,1262
2465.67742729412,1183
2467.5079348571717,1224
2469.338040447542,1225
2471.1677443532476,1124
2472.9970468623833,1176
2474.825948263123,1217
2476.6544488437207,1167
2478.482548892508,1200
2480.310248697896,1201
2482.137548548374,1182
2483.9644487325118,1161
2485.790949538956,1238
2487.617051256433,1181
2489.44275417375,1259
2491.26805857979,1239
2493.0929647635157,1229
2494.917473013971,1251
2496.741583620276,1180
2498.5652968716304,1281
2500.3886130573137,1198
2502.2115324666834,1218
2504.0340553891765,1218
2505.856182114308,1269
2507.6779129316733,1220
2509.499248130945,1268
2511.3201880018764,1230
2513.140732834298,1187
2514.9608829181198,1190
2516.780638543331,1258
2518.6,1192
2520.418967578273,1257
2522.237541568376,1273
2524.0557222606144,1235
2525.8735099453706,1197
2527.6909049131086,1260
2529.507907454368,1257
2531.32451785977,1239
2533.140736420014,1210
2534.9565634258774,1213
2536.771999168218,1226
2538.5870439379714,1208
2540.4016980261526,1240
2542.2159617238544,1268
2544.02983532225,1226
2545.8433191125914,1216
2547.656413386209,1220
2549.4691184345115,1230
2551.2814345489874,1223
2553.093362021204,1248
2554.904901142808,1268
2556.716052205523,1266
2558.526815501153,1288
2560.3371913215824,1227
2562.147179958771,1267
2563.956781704761,1294
2565.7659968516705,1268
2567.5748256916986,1300
2569.3832685171224,1257
2571.1913256202984,1233
2572.9989972936614,1286
2574.806283829725,1311
2576.613185521084,1238
2578.4197026604074,1316
2580.2258355404483,1262
2582.031584454035,1294
2583.836949694077,1292
2585.6419315535613,1306
2587.4465303255533,1284
2589.2507463032002,1240
2591.0545797797245,1284
2592.8580310484303,1314
2594.6611004026995,1288
2596.463788135992,1328
2598.266094541849,1290
2600.0680199138874,1290
2601.869564545807,1285
2603.670728731383,1280
2605.4715127644704,1334
2607.2719169390048,1313
2609.071941548998,1313
2610.8715868885433,1288
2612.670853251811,1290
2614.469740933052,1314
2616.268250226594,1298
2618.0663814268455,1291
2619.864134828292,1304
2621.6615107255006,1352
2623.458509413115,1355
2625.2551311858597,1315
2627.0513763385347,1235
2628.8472451660223,1245
2630.6427379632833,1284
2632.4378550253564,1315
2634.232596647359,1312
2636.026963124488,1338
2637.8209547520187,1316
2639.6145718253065,1264
2641.407814639785,1304
2643.200683490966,1257
2644.9931786744414,1246
2646.7853004858807,1321
2648.577049221034,1338
2650.3684251757277,1293
2652.1594286458712,1309
2653.9500599274484,1267
2655.740319316525,1303
2657.5302071092437,1272
2659.3197236018286,1231
2661.10886909058,1244
2662.8976438718782,1249
2664.686048242183,1247
2666.4740824980327,1252
2668.2617469360443,1237
2670.0490418529134,1231
2671.8359675454153,1243
2673.622524310403,1176
2675.408712444811,1217
2677.1945322456495,1232
2678.979984010009,1219
2680.76506803506,1183
2682.5497846180497,1297
2684.334134056306,1220
2686.1181166472343,1200
2687.9017326883213,1254
2689.6849824771293,1237
2691.4678663113013,1183
2693.2503844885596,1257
2695.032537306705,1179
2696.8143250636167,1196
2698.5957480572542,1258
2700.3768065856534,1201
2702.1575009469316,1212
2703.937831439283,1179
2705.717798360982,1178
2707.4974020103837,1230
2709.276642685917,1178
2711.055520686095,1170
2712.834036309506,1175
2714.612189854819,1251
2716.389981620782,1203
2718.1674119062204,1212
2719.944481010041,1158
2721.721189231226,1176
2723.4975368688415,1216
2725.273524222027,1142
2727.0491515900053,1134
2728.824419272075,1198
2730.5993275676146,1235
2732.3738767760838,1117
2734.148067197016,1171
2735.921899130031,1164
2737.6953728748194,1140
2739.468488731156,1142
2741.2412469988926,1139
2743.0136479779617,1212
2744.785691968372,1176
2746.5573792702116,1180
2748.3287101836504,1138
2750.099685008934,1130
2751.870304046388,1235
2753.640567596418,1165
2755.4104759595057,1165
2757.1800294362156,1156
2758.949228327187,1201
2760.7180729331412,1169
2762.486563554877,1129
2764.254700493272,1133
2766.022484049284,1172
2767.789914523947,1197
2769.5569922183786,1136
2771.3237174337705,1179
2773.090090471394,1149
2774.8561116326036,1192
2776.6217812188274,1177
2778.3870995315756,1217
2780.1520668724356,1167
2781.9166835430747,1153
2783.6809498452394,1171
2785.444866080754,1184
2787.2084325515225,1200
2788.971649559527,1172
2790.73451740683,1184
2792.4970363955713,1193
2794.2592068279705,1190
2796.0210290063264,1151
2797.7825032330147,1132
2799.543629810493,1136
2801.304409041296,1132
2803.0648412280366,1132
2804.8249266734088,1177
2806.5846656801846,1200
2808.344058551212,1148
2810.1031055894246,1139
2811.8618070978273,1215
2813.6201633795085,1168
2815.378174737636,1199
2817.1358414754536,1199
2818.893163896285,1187
2820.6501423035334,1170
2822.4067770006814,1147
2824.1630682912883,1135
2825.9190164789957,1133
2827.6746218675207,1170
2829.429884760661,1183
2831.184805462294,1166
2832.9393842763743,1205
2834.693621506936,1201
2836.4475174580916,1141
2838.201072434034,1157
2839.954286739034,1162
2841.707160677441,1161
2843.459694553685,1189
2845.2118886722724,1205
2846.96374333779,1157
2848.7152588549034,1164
2850.4664355283567,1155
2852.217273662973,1132
2853.9677735636546,1154
2855.7179355353833,1103
2857.4677598832186,1199
2859.217246912299,1177
2860.9663969278427,1170
2862.715210235146,1146
2864.4636871395846,1176
2866.211827946614,1161
2867.9596329617652,1149
2869.7071024906536,1132
2871.4542368389684,1161
2873.20103631248,1194
2874.947501217038,1140
2876.6936318585695,1103
2878.4394285430812,1163
2880.1848915766604,1167
2881.9300212654707,1182
2883.6748179157553,1172
2885.4192818338374,1205
2887.1634133261173,1179
2888.907212699077,1152
2890.6506802592744,1192
2892.393816313348,1192
2894.1366211680142,1160
2895.8790951300693,1179
2897.621238506388,1194
2899.363051603925,1145
2901.1045347297118,1153
2902.8456881908596,1169
2904.58651229456,1180
2906.327007348081,1149
2908.067173658772,1170
2909.8070115340597,1205
2911.5465212814497,1205
2913.285703208527,1218
2915.0245576229563,1208
2916.7630848324807,1109
2918.5012851449196,1195
2920.2391588681758,1154
2921.976706310227,1185
2923.7139277791334,1151
2925.4508235830313,1163
2927.187394030137,1164
2928.923639428745,1153
2930.6595600872306,1196
2932.395156314046,1121
2934.1304284177218,1146
2935.8653767068713,1159
2937.6000014901815,1170
2939.3343030764227,1193
2941.068281774442,1143
2942.8019378931644,1160
2944.5352717415976,1112
2946.2682836288236,1221
2948.0009738640065,1205
2949.7333427563885,1246
2951.465390615289,1215
2953.1971177501086,1194
2954.9285244703265,1169
2956.6596110855,1194
2958.3903779052657,1150
2960.1208252393385,1167
2961.8509533975125,1151
2963.5807626896617,1139
2965.3102534257378,1151
2967.0394259157715,1132
2968.768280469873,1170
2970.496817398232,1153
2972.2250370111146,1172
2973.952939618869,1142
2975.6805255319196,1144
2977.4077950607707,1164
2979.134748516006,1159
2980.861386208289,1163
2982.587708448359,1166
2984.313715547037,1172
2986.039407815222,1136
2987.764785563891,1173
2989.489849104102,1191
2991.2145987469908,1143
2992.9390348037705,1170
2994.6631575857346,1153
2996.3869674042576,1127
2998.1104645707887,1167
2999.83364939686,1185
3001.5565221940783,1137
3003.2790832741334,1143
3005.0013329487924,1156
3006.7232715298996,1121
3008.4448993293804,1128
3010.166216659239,1120
3011.887223831558,1116
3013.607921158498,1156
3015.3283089522993,1108
3017.0483875252826,1204
3018.7681571898443,1187
3020.4876182584626,1178
3022.2067710436927,1152
3023.9256158581707,1165
3025.644153014609,1122
3027.362382825801,1110
3029.0803056046193,1132
3030.797921664012,1170
3032.5152313170106,1192
3034.2322348767225,1150
3035.9489326563353,1168
3037.665324969115,1129
3039.3814121284063,1139
3041.097194447633,1126
3042.812672240299,1137
3044.5278458199855,1168
3046.2427155003525,1099
3047.9572815951406,1110
3049.671544418167,1148
3051.38550428333,1083
3053.0991615046073,1136
3054.812516396051,1152
3056.5255692717974,1175
3058.2383204460575,1139
3059.9507702331257,1125
3061.662918947372,1163
3063.3747669032446,1180
3065.0863144152736,1150
3066.7975617980674,1176
3068.508509366309,1155
3070.219157434767,1177
3071.9295063182844,1117
3073.639556331785,1152
3075.3493077902704,1183
3077.058761008821,1163
3078.7679163025964,1140
3080.476773986837,1139
3082.1853343768594,1176
3083.89359778806,1114
3085.6015645359153,1176
3087.3092349359786,1169
3089.016609303884,1176
3090.7236879553434,1136
3092.4304712061476,1156
3094.136959372166,1151
3095.843152769349,1168
3097.5490517137237,1150
3099.2546565213966,1211
3100.959967508554,1167
3102.66498499146,1144
3104.3697092864577,1172
3106.0741407099695,1152
3107.778279578498,1200
3109.482126208622,1183
3111.1856809170004,1142
3112.8889440203716,1127
3114.5919158355528,1170
3116.294596679439,1144
3117.996986869006,1180
3119.6990867213062,1186
3121.4008965534726,1100
3123.102416682717,1164
3124.803647426329,1128
3126.5045891016784,1139
3128.205242026213,1162
3129.90560651746,1097
3131.605682893025,1152
3133.3054714705922,1187
3135.0049725679282,1141
3136.7041865028714,1167
3138.4031135933465,1197
3140.101754157353,1152
3141.800108512971,1155
3143.498176978357,1189
3145.1959598717494,1197
3146.8934575114636,1163
3148.5906702158954,1118
3150.2875983035183,1185
3151.9842420928853,1148
3153.680601902627,1170
3155.376678051456,1156
3157.07247085816,1175
3158.767980641609,1139
3160.463207720748,1104
3162.158152414606,1162
3163.8528150422862,1133
3165.5471959229726,1170
3167.2412953759303,1144
3168.9351137204976,1150
3170.628651276098,1169
3172.3219083622307,1173
3174.014885298474,1138
3175.707582404485,1135
3177.4000000000005,1120
3179.092138404835,1143
3180.7839979388846,1165
3182.47557892212,1184
3184.166881674594,1144
3185.8579065164386,1163
3187.5486537678626,1160
3189.2391237491547,1165
3190.9293167806827,1146
3192.6192331828934,1184
3194.3088732763117,1136
3195.998237381542,1178
3197.687325819268,1154
3199.376138910251,1154
3201.064676975334,1184
3202.7529403354347,1112
3204.4409293115523,1130
3206.1286442247647,1154
3207.816085396229,1182
3209.5032531471825,1129
3211.190147798936,1132
3212.8767696728846,1144
3214.5631190905015,1129
3216.2491963733373,1165
3217.9350018430214,1100
3219.6205358212637,1144
3221.305798629851,1146
3222.990790590651,1143
3224.6755120256103,1133
3226.359963256751,1124
3228.0441446061795,1146
3229.7280563960758,1161
3231.411698948703,1157
3233.0950725863995,1133
3234.778177631587,1105
3236.461014406761,1111
3238.1435832345005,1165
3239.8258844374595,1172
3241.507918338374,1137
3243.1896852600576,1147
3244.8711855254023,1112
3246.552419457381,1169
3248.233387379042,1171
3249.914089613516,1155
3251.59452648401,1166
3253.274698313813,1164
3254.95460542629,1129
3256.6342481448855,1155
3258.313626793125,1175
3259.9927416946084,1131
3261.6715931730196,1108
3263.3501815521176,1150
3265.0285071557437,1129
3266.706570307815,1168
3268.3843713323286,1193
3270.0619105533615,1114
3271.739188295068,1187
3273.4162048816834,1158
3275.0929606375184,1145
3276.769455886966,1143
3278.445690954498,1161
3280.1216661646613,1126
3281.797381842087,1091
3283.4728383114807,1149
3285.1480358976296,1109
3286.8229749253996,1132
3288.4976557197333,1097
3290.172078605655,1131
3291.846243908266,1137
3293.5201519527463,1154
3295.193803064357,1145
3296.8671975684374,1077
3298.5403357904024,1119
3300.21321805575,1131
3301.8858446900567,1125
3303.558216018975,1142
3305.23033236824,1138
3306.9021940636603,1115
3308.57380143113,1159
3310.2451547966184,1142
3311.916254486174,1167
3313.5871008259246,1147
3315.2576941420766,1145
3316.9280347609147,1164
3318.5981230088046,1111
3320.2679592121895,1096
3321.9375436975924,1064
3323.606876791612,1113
3325.27595882093,1129
3326.944790112305,1119
3328.6133709925753,1119
3330.2817017886573,1105
3331.949782827547,1121
3333.617614436319,1157
3335.2851969421245,1128
3336.952530672199,1179
3338.619615953853,1117
3340.286453114475,1169
3341.9530424815357,1111
3343.619384382583,1174
3345.2854791452437,1139
3346.951327097224,1119
3348.6169285663073,1127
3350.2822838803577,1164
3351.947393367319,1146
3353.61225735521,1181
3355.2768761721345,1107
3356.9412501462693,1153
3358.605379605873,1149
3360.2692648792827,1133
3361.9329062949146,1127
3363.596304181263,1112
