CollectionTime,7/9/2024 1:19:38 PM
ExposureUsed,3
CalibratedSpectrum
-962.7078968117929,532
-959.9714848408522,534
-957.2358232597828,564
-954.5009119013725,548
-951.7667505983302,547
-949.0333391832855,563
-946.3006774887896,562
-943.5687653473143,558
-940.837602591253,549
-938.1071890529199,570
-935.3775245645503,580
-932.6486089583007,555
-929.9204420662485,557
-927.1930237203925,580
-924.4663537526524,580
-921.7404319948689,574
-919.0152582788041,566
-916.2908324361409,605
-913.5671542984834,567
-910.8442236973568,569
-908.1220404642074,541
-905.4006044304027,558
-902.679915427231,547
-899.959973285902,531
-897.2407778375464,565
-894.5223289132158,537
-891.8046263438832,534
-889.0876699604426,546
-886.3714595937089,568
-883.6559950744183,513
-880.9412762332282,553
-878.2273029007168,540
-875.5140749073835,539
-872.8015920836489,537
-870.0898542598545,542
-867.3788612662631,539
-864.6686129330585,544
-861.9591090903457,544
-859.2503495681506,571
-856.5423341964203,568
-853.8350628050229,536
-851.1285352237478,526
-848.4227512823054,565
-845.7177108103272,541
-843.0134136373656,524
-840.3098595928943,541
-837.6070485063082,556
-834.9049802069229,566
-832.2036545239757,564
-829.5030712866244,531
-826.8032303239481,577
-824.1041314649472,554
-821.4057745385428,573
-818.7081593735775,551
-816.0112857988148,529
-813.3151536429393,567
-810.6197627345566,532
-807.9251129021936,550
-805.2312039742981,546
-802.5380357792392,571
-799.8456081453069,578
-797.1539209007124,551
-794.462973873588,595
-791.772766891987,602
-789.083299783884,588
-786.3945723771743,578
-783.7065844996748,586
-781.0193359791231,550
-778.3328266431781,587
-775.6470563194197,614
-772.9620248353489,587
-770.2777320183878,579
-767.5941776958798,571
-764.9113616950891,561
-762.2292838432011,572
-759.5479439673222,542
-756.8673418944801,590
-754.1874774516235,577
-751.5083504656222,580
-748.8299607632671,545
-746.15230817127,588
-743.475392516264,602
-740.7992136248035,615
-738.1237713233636,589
-735.4490654383407,578
-732.7750957960521,573
-730.1018622227365,603
-727.4293645445534,601
-724.7576025875837,627
-722.0865761778291,617
-719.4162851412126,587
-716.7467293035781,651
-714.0779084906909,617
-711.409822528237,633
-708.7424712418238,639
-706.0758544569796,638
-703.4099719991541,627
-700.7448236937178,636
-698.0804093659622,626
-695.4167288411002,633
-692.7537819442656,601
-690.0915685005134,625
-687.4300883348199,654
-684.7693412720819,598
-682.1093271371178,643
-679.4500457546669,621
-676.7914969493897,616
-674.1336805458676,666
-671.4765963686034,640
-668.8202442420206,645
-666.1646239904642,633
-663.5097354382001,655
-660.8555784094151,647
-658.2021527282176,647
-655.5494582186366,647
-652.8974947046223,632
-650.2462620100463,647
-647.5957599587009,634
-644.9459883742998,661
-642.2969470804776,667
-639.6486359007902,689
-637.0010546587141,697
-634.3542031776476,657
-631.7080812809096,634
-629.0626887917401,698
-626.4180255333008,677
-623.7740913286734,685
-621.1308860008619,688
-618.4884093727904,661
-615.8466612673046,672
-613.2056415071715,703
-610.5653499150785,664
-607.9257863136347,683
-605.28695052537,655
-602.6488423727357,685
-600.0114616781036,657
-597.3748082637674,675
-594.7388819519412,649
-592.1036825647604,694
-589.4692099242818,730
-586.8354638524829,688
-584.2024441712624,718
-581.5701507024403,679
-578.9385832677575,692
-576.3077416888759,684
-573.6776257873787,727
-571.0482353847704,681
-568.4195703024757,710
-565.7916303618415,691
-563.164415384135,696
-560.5379251905453,714
-557.9121596021815,699
-555.2871184400748,693
-552.6628015251767,712
-550.0392086783606,692
-547.4163397204204,704
-544.794194472071,733
-542.1727727539491,737
-539.5520743866118,727
-536.9320991905377,789
-534.3128469861261,743
-531.6943175936979,762
-529.0765108334947,792
-526.4594265256793,865
-523.8430644903358,963
-521.2274245474689,1090
-518.612506517005,1121
-515.9983102187913,1143
-513.3848354725959,1157
-510.77208209810846,1180
-508.16004991493924,1255
-505.5487387426199,1353
-502.9381484006032,1527
-500.3282787082628,1660
-497.71912948489364,1571
-495.1107005497117,1539
-492.5029917218539,1327
-489.8960028203786,1130
-487.28973366426493,1094
-484.68418407241325,1009
-482.07935386364494,977
-479.47524285670266,944
-476.87185087025,885
-474.2691777228715,940
-471.66722323307334,937
-469.0659872192821,922
-466.4654694998459,919
-463.86566989303384,887
-461.26658821703614,901
-458.66822428996414,911
-456.07057792985,935
-453.4736489546475,902
-450.877437182231,909
-448.28194243039627,857
-445.68716451686,815
-443.09310325926003,870
-440.49975847515555,888
-437.9071299820263,888
-435.31521759727354,892
-432.72402113821954,873
-430.13354042210767,917
-427.5437752661022,926
-424.95472548728867,916
-422.36639090267386,915
-419.7787713291855,925
-417.1918665836721,934
-414.60567648290385,981
-412.0202008435715,936
-409.4354394822874,944
-406.8513922155845,960
-404.26805885991723,913
-401.685439231661,928
-399.103533147112,992
-396.522340422488,916
-393.9418608739278,961
-391.3620943174908,941
-388.7830405691583,981
-386.2046994448317,905
-383.6270707603344,860
-381.05015433141045,845
-378.473949973725,803
-375.8984575028645,726
-373.32367673433623,661
-370.74960748356875,652
-368.1762495659117,662
-365.60360279663576,606
-363.03166699093265,579
-360.4604419639154,524
-357.8899275306178,518
-355.32012350599507,496
-352.7510297049233,484
-350.1826459421999,494
-347.61497203254316,490
-345.04800779059235,489
-342.4817530309082,507
-339.91620756797226,484
-337.35137121618743,460
-334.7872437898774,469
-332.22382510328725,503
-329.66111497058273,498
-327.09911320585127,472
-324.53781962310075,482
-321.9772340362607,507
-319.4173562591816,488
-316.8581861056348,476
-314.2997233893127,517
-311.7419679238294,472
-309.1849195227194,486
-306.62857799943856,500
-304.0729431673641,520
-301.51801483979375,555
-298.963792829947,533
-296.41027695096386,576
-293.85746701590574,596
-291.3053628377552,585
-288.7539642294155,582
-286.2032710037115,521
-283.65328297338897,549
-281.1039999511146,555
-278.5554217494762,619
-276.007548180983,604
-273.4603790580651,594
-270.9139141930734,616
-268.3681533982807,630
-265.8230964858798,605
-263.27874326798565,600
-260.7350935566336,592
-258.1921471637804,640
-255.6499039013039,653
-253.10836358100266,654
-250.56752601459698,641
-248.02739101372765,627
-245.48795838995704,653
-242.94922795476816,581
-240.41119951956557,629
-237.8738728956746,679
-235.33724789434166,736
-232.80132432673452,665
-230.2661020039418,604
-227.73158073697357,711
-225.19776033676033,771
-222.66464061415422,687
-220.1322213799284,686
-217.60050244477725,634
-215.06948361931552,650
-212.53916471408013,733
-210.00954553952818,760
-207.48062590603843,663
-204.9524056239104,681
-202.4248845033651,714
-199.8980623545441,765
-197.37193898751036,723
-194.84651421224817,733
-192.32178783866232,738
-189.79775967657952,821
-187.27442953574644,846
-184.7517972258321,901
-182.2298625564256,772
-179.7086253370378,745
-177.18808537710026,748
-174.66824248596583,836
-172.14909647290835,882
-169.6306471471229,832
-167.11289431772548,924
-164.59583779375328,888
-162.07947738416453,969
-159.5638128978386,1049
-157.04884414357605,1124
-154.53457093009854,1249
-152.02099306604828,1199
-149.50811035998936,993
-146.99592262040665,903
-144.48442965570587,1047
-141.97363127421409,1097
-139.46352728417958,1165
-136.95411749377126,1341
-134.44540171107985,1183
-131.93737974411636,959
-129.43005140081357,991
-126.92341648902493,1632
-124.41747481652521,2230
-121.91222619101006,2749
-119.40767042009657,3355
-116.90380731132257,3740
-114.40063667214702,3682
-111.8981583099503,2933
-109.3963720320337,2111
-106.89527764561933,1910
-104.39487495785067,2395
-101.89516377579241,3482
-99.39614390642998,5286
-96.89781515667039,6194
-94.40017733334128,5687
-91.90323024319173,4702
-89.40697369289148,4174
-86.91140748903172,4408
-84.41653143812482,4905
-81.92234534660395,4548
-79.42884902082358,4129
-76.93604226705907,4764
-74.4439248915071,7099
-71.95249670028534,10322
-69.46175749943245,12497
-66.97170709490854,13079
-64.48234529259423,12074
-61.99367189829195,10463
-59.50568671772464,9050
-57.01838955653636,7048
-54.53178022029283,6924
-52.045858514480074,8853
-49.560624244506016,11430
-47.07607721569923,12620
-44.59221723330904,12961
-42.10904410250669,11888
-39.62655762838392,10399
-37.14475761595372,8825
-34.66364387015028,8973
-32.18321619582866,9575
-29.70347439776515,9966
-27.224418280657005,12486
-24.74604764912317,14300
-22.26836230770266,18137
-19.7913620608565,31863
-17.315046712966478,56206
-14.83941606833514,65037
-12.36446993118659,65037
-9.89020810566592,65037
-7.416630395839093,65037
-4.94373660569363,65037
-2.471526539137585,65037
-6.821210263296962E-13,65037
2.47084320796705,65037
4.941003281093458,65037
7.410480415786196,65037
9.879274808531363,65037
12.347386655893956,65037
14.814816154518212,65037
17.28156350112681,65037
19.74762889252179,65037
22.21301252558385,65037
24.67771459727237,20549
27.141735304626195,4081
29.605074844762612,2998
32.06773341487792,2211
34.52971121224755,2100
36.99100843422559,2503
39.45162527824516,2027
41.91156194181792,1648
44.370818622535126,1470
46.82939551806646,1341
49.287292826160524,1380
51.74451074464503,1510
54.201049471426245,1248
56.65690920448981,1193
59.112090141899785,1360
61.56659248179983,1098
64.02041642241159,1166
66.4735621620365,1098
68.92602989905402,1074
71.37781983192338,1066
73.82893215918205,1082
76.27936707944684,1234
78.72912479141326,1187
81.17820549385567,1209
83.62660938562783,1240
86.07433666566146,1052
88.5213875329681,881
90.96776218663751,919
93.41346082583925,988
95.85848364982041,1118
98.30283085790859,1249
100.7465026495089,1216
103.18949922410604,1200
105.63182078126385,1134
108.07346752062438,1189
110.51443964190923,1179
112.95473734491827,1023
115.39436082953114,1021
117.83331029570547,981
120.27158594347827,952
122.7091879729652,1017
125.1461165843615,1056
127.58237197794062,963
130.01795435405518,948
132.4528639131364,939
134.88710085569494,1097
137.32066538231982,970
139.75355769367923,871
142.1857779905207,809
144.61732647366978,875
147.04820334403132,939
149.47840880258934,960
151.90794305040674,979
154.33680628862487,995
156.76499871846443,1170
159.19252054122433,1316
161.61937195828352,1447
164.04555317109896,1570
166.47106438120693,1704
168.89590579022217,1864
171.320077599839,2013
173.7435800118302,2078
176.16641322804742,2201
178.58857745042144,2288
181.01007288096173,2450
183.43089972175687,2531
185.85105817497413,2458
188.27054844285988,2427
190.6893707277394,2498
193.10752523201643,2565
195.5250121581745,2449
197.9418317087751,2561
200.3579840864594,2617
202.7734694939469,2603
205.18828813403627,2744
207.6024402096051,2663
210.01592592360964,2820
212.42874547908548,2717
214.84089907914665,2820
217.2523869269868,2757
219.66320922587727,2703
222.0733661791695,2684
224.48285799029293,2721
226.8916848627572,2766
229.29984700014882,2713
231.7073446061355,2773
234.11417788446204,2812
236.520347038953,2825
238.92585227351185,2865
241.33069379212054,2900
243.73487179884035,3004
246.1383864978112,2974
248.541238093252,2891
250.9434267894609,2978
253.34495279081432,2965
255.74581630176783,2988
258.1460175268563,3146
260.54555667069314,3129
262.9444339379703,3001
265.3426495334594,2952
267.7402036620107,3024
270.1370965285529,2848
272.53332833809407,2750
274.9288992957214,2758
277.32380960660055,2637
279.718059475976,2555
282.1116491091717,2703
284.5045787115897,2617
286.89684848871195,2586
289.2884586460981,2621
291.67940938938807,2611
294.0697009242996,2661
296.4593334566299,2624
298.84830719225477,2766
301.23662233712923,2549
303.6242790972866,2478
306.01127767884,2434
308.39761828798066,2548
310.78330113097934,2421
313.16832641418534,2447
315.5526943440269,2483
317.9364051270112,2440
320.3194589697242,2278
322.70185607883093,2425
325.0835966610754,2339
327.4646809232805,2274
329.8451090723478,2303
332.2248813152577,2314
334.6039978590701,2268
336.9824589109231,2203
339.36026467803447,2136
341.7374153677,2165
344.113911187295,2260
346.48975234427337,2270
348.8649390461686,2228
351.2394715005918,2179
353.61334991523415,2228
355.9865744978655,2134
358.35914545633375,2206
360.73106299856715,2162
363.10232733257146,2126
365.47293866643247,2172
367.84289720831396,2228
370.2122031664593,2164
372.5808567491905,2144
374.9488581649083,2129
377.31620762209275,2049
379.6829053293021,2087
382.0489514951745,2071
384.4143463284262,2097
386.7790900378528,2053
389.14318283232853,2047
391.50662492080653,2091
393.86941651231916,2055
396.23155781597745,2108
398.5930490409713,2088
400.9538903965696,2127
403.3140820921202,2009
405.6736243370498,2019
408.03251734086336,2010
410.3907613131465,2031
412.74835646356166,2065
415.10530300185144,2066
417.4616011378372,1994
419.81725108141893,2006
422.1722530425758,2072
424.5266072313656,2050
426.880313857925,2021
429.2333731324701,1946
431.58578526529516,1977
433.9375504667738,1969
436.2886689473588,2009
438.63914091758113,1966
440.9889665880513,1975
443.33814616945835,1942
445.68667987257015,1884
448.03456790823395,1984
450.3818104873759,1963
452.72840782100013,1930
455.07436012019105,1987
457.41966759611057,2025
459.7643304600007,1972
462.10834892318155,1928
464.4517231970525,1924
466.79445349309174,1986
469.1365400228566,1951
471.4779829979826,2018
473.81878263018564,1940
476.15893913125876,1976
478.4984527130747,2035
480.8373235875855,2134
483.17555196682144,2131
485.5131380628919,2146
487.8500820879857,2201
490.1863842543697,2347
492.52204477439034,2487
494.8570638604725,2724
497.1914417251204,3029
499.52517858091653,3432
501.85827464052306,3693
504.19073011668036,3660
506.5225452222086,3637
508.85372017000566,3638
511.18425517304956,3548
513.514150444396,3569
515.8434061971808,4237
518.1720226446176,5208
520.4999999999999,5270
522.8273384766991,5098
525.1540382881666,4615
527.480099647932,3968
529.8055227696037,3341
532.1303078668694,2742
534.454455153496,2327
536.777964843328,2241
539.1008371502907,2162
541.4230722883866,2222
543.744670471698,2161
546.0656319143858,2143
548.3859568306899,2091
550.7056454349294,2091
553.0246979415016,2052
555.3431145648834,2037
557.6608955196306,2087
559.978041020377,2061
562.2945512818363,2024
564.6104265188006,2012
566.9256669461412,2058
569.2402727788082,2146
571.5542442318302,2091
573.8675815203156,2102
576.1802848594508,2150
578.4923544645015,2034
580.8037905508126,2093
583.114593333807,2083
585.4247630289875,2078
587.7342998519354,2037
590.0432040183106,2100
592.3514757438526,2084
594.6591152443794,2178
596.9661227357875,2117
599.2724984340531,2163
601.578242555231,2133
603.8833553154542,2092
606.1878369309362,2110
608.4916876179676,2094
610.7949075929192,1991
613.0974970722403,1999
615.3994562724587,2110
617.7007854101818,2083
620.0014847020951,2051
622.3015543649641,2019
624.6009946156324,2076
626.8998056710224,1993
629.1979877481361,2105
631.4955410640538,2050
633.7924658359349,2050
636.0887622810175,2055
638.3844306166192,2061
640.6794710601358,2017
642.9738838290426,2094
645.2676691408932,2075
647.5608272133207,2133
649.853358264037,2089
652.1452625108324,2114
654.4365401715764,2058
656.7271914642178,2097
659.0172166067838,2071
661.3066158173809,2051
663.5953893141935,2060
665.8835373154867,2107
668.1710600396028,2098
670.4579577049639,2123
672.7442305300709,2070
675.0298787335033,2092
677.3149025339197,2060
679.599302150058,2034
681.8830778007342,2027
684.1662297048437,2037
686.4487580813608,2016
688.7306631493387,2116
691.0119451279091,2110
693.2926042362834,2113
695.5726406937516,2098
697.8520547196814,2113
700.1308465335215,2098
702.4090163547982,2056
704.6865644031171,1985
706.9634908981619,2035
709.2397960596965,2137
711.5154801075631,2071
713.7905432616823,2023
716.0649857420548,2034
718.3388077687592,2054
720.612009561953,2061
722.8845913418733,2033
725.1565533288352,2073
727.427895743234,2039
729.6986188055427,2037
731.9687227363137,2107
734.238207756178,2065
736.5070740858458,2072
738.7753219461066,2044
741.0429515578281,2056
743.3099631419569,2110
745.5763569195191,2017
747.8421331116193,2023
750.1072919394409,1974
752.3718336242467,2113
754.6357583873777,2068
756.8990664502545,2029
759.1617580343765,2051
761.423833361321,2080
763.6852926527457,2079
765.9461361303862,2080
768.206364016058,2014
770.4659765316536,2063
772.7249738991469,2076
774.9833563405886,2091
777.2411240781092,2103
779.4982773339183,1995
781.7548163303044,2052
784.010741289634,2134
786.2660524343538,2124
788.5207499869881,2126
790.7748341701416,2022
793.0283052064964,2129
795.2811633188143,2105
797.5334087299362,2126
799.7850416627813,2123
802.0360623403484,2108
804.2864709857143,2168
806.5362678220353,2107
808.7854530725468,2063
811.0340269605625,2143
813.2819897094754,2112
815.5293415427581,2144
817.77608268396,2102
820.0222133567116,2149
822.2677337847211,2078
824.5126441917765,2179
826.7569448017433,2079
829.0006358385675,2085
831.2437175262731,2060
833.4861900889629,2098
835.7280537508192,2046
837.9693087361026,2144
840.2099552691533,2070
842.4499935743896,2044
844.689423876309,2138
846.9282463994886,2084
849.1664613685833,2097
851.4040690083276,2058
853.6410695435349,2044
855.877463199097,2126
858.1132501999847,2063
860.3484307712487,2041
862.5830051380175,2067
864.8169735254988,2110
867.0503361589791,2154
869.2830932638243,2190
871.5152450654786,2209
873.7467917894654,2095
875.9777336613873,2189
878.2080709069252,2158
880.4378037518389,2126
882.666932421968,2153
884.8954571432301,2195
887.1233781416219,2255
889.3506956432192,2210
891.5774098741766,2224
893.803521060728,2120
896.0290294291852,2129
898.2539352059397,2277
900.4782386174619,2154
902.7019398903011,2160
904.925039251085,2180
907.147536926521,2188
909.3694331433943,2104
911.59072812857,2193
913.8114221089921,2259
916.0315153116827,2216
918.2510079637437,2165
920.4699002923547,2153
922.6881925247761,2080
924.905884888345,2113
927.1229776104793,2170
929.3394709186747,2120
931.555365040506,2028
933.7706602036275,2069
935.9853566357709,2094
938.1994545647489,2069
940.4129542184515,2144
942.6258558248488,2131
944.8381596119883,2038
947.0498658079974,2100
949.2609746410825,2067
951.4714863395287,2064
953.6814011316998,2122
955.8907192460387,2122
958.0994409110671,2090
960.3075663553858,2111
962.5150958076741,2096
964.7220294966913,2025
966.928367651274,2017
969.1341105003388,1973
971.3392582728806,2065
973.5438111979742,2071
975.747769504772,1978
977.9511334225061,1960
980.153903180487,1941
982.3560790081052,1984
984.5576611348289,2012
986.7586497902058,2026
988.9590452038618,1976
991.158847605503,1971
993.3580572249133,1898
995.5566742919558,1868
997.7546990365728,1874
999.952131688785,1815
1002.1489724786926,1820
1004.3452216364743,1893
1006.5408793923874,1788
1008.7359459767691,1790
1010.9304216200343,1852
1013.1243065526781,1732
1015.3176010052733,1799
1017.510305208472,1792
1019.7024193930064,1712
1021.8939437896848,1684
1024.0848786293977,1729
1026.2752241431122,1684
1028.4649805618747,1703
1030.6541481168115,1730
1032.842727039127,1735
1035.0307175601051,1713
1037.2181199111074,1761
1039.4049343235752,1719
1041.591161029029,1672
1043.7768002590683,1647
1045.9618522453698,1661
1048.1463172196918,1632
1050.3301954138697,1709
1052.513487059818,1710
1054.69619238953,1738
1056.8783116350783,1621
1059.0598450286152,1685
1061.2407928023704,1672
1063.4211551886528,1666
1065.6009324198508,1654
1067.780124728432,1585
1069.9587323469414,1701
1072.1367555080046,1740
1074.314194444325,1668
1076.4910493886855,1678
1078.667320573947,1647
1080.843008233051,1591
1083.0181125990161,1664
1085.1926339049414,1612
1087.3665723840027,1668
1089.5399282694575,1709
1091.7127017946405,1582
1093.8848931929647,1568
1096.0565026979243,1640
1098.2275305430899,1558
1100.3979769621128,1578
1102.567842188722,1622
1104.737126456726,1537
1106.9058300000124,1570
1109.0739530525475,1542
1111.2414958483764,1564
1113.4084586216231,1582
1115.5748416064907,1564
1117.7406450372605,1583
1119.9058691482942,1540
1122.0705141740304,1625
1124.2345803489884,1618
1126.3980679077658,1594
1128.5609770850388,1615
1130.7233081155623,1569
1132.8850612341707,1594
1135.0462366757774,1577
1137.2068346753745,1584
1139.3668554680326,1595
1141.526299288901,1522
1143.68516637321,1559
1145.8434569562655,1526
1148.001171273455,1560
1150.158309560244,1480
1152.3148720521767,1596
1154.470858984876,1510
1156.626270594044,1538
1158.7811071154629,1530
1160.9353687849912,1521
1163.089055838569,1538
1165.242168512213,1538
1167.3947070420209,1559
1169.5466716641677,1573
1171.6980626149075,1516
1173.8488801305748,1545
1175.9991244475814,1543
1178.1487958024186,1489
1180.2978944316555,1483
1182.4464205719428,1564
1184.5943744600072,1567
1186.7417563326567,1533
1188.8885664267755,1495
1191.0348049793297,1456
1193.1804722273619,1536
1195.325568407995,1516
1197.4700937584303,1513
1199.614048515948,1524
1201.7574329179074,1507
1203.900247201746,1444
1206.042491604982,1511
1208.1841663652099,1530
1210.3252717201053,1579
1212.465807907422,1509
1214.6057751649923,1510
1216.7451737307279,1540
1218.8840038426192,1561
1221.0222657387353,1543
1223.1599596572241,1594
1225.2970858363137,1598
1227.4336445143094,1529
1229.5696359295966,1579
1231.705060320639,1548
1233.8399179259786,1550
1235.9742089842384,1577
1238.107933734118,1637
1240.2410924143974,1573
1242.373685263935,1580
1244.5057125216676,1566
1246.6371744266116,1569
1248.7680712178621,1575
1250.898403134593,1607
1253.028170416058,1623
1255.1573733015875,1604
1257.2860120305932,1595
1259.4140868425648,1568
1261.54159797707,1594
1263.6685456737569,1594
1265.7949301723515,1570
1267.9207517126597,1550
1270.046010534565,1550
1272.1707068780306,1649
1274.2948409830983,1583
1276.4184130898889,1612
1278.541423438603,1643
1280.6638722695184,1637
1282.785759822993,1677
1284.9070863394636,1576
1287.0278520594447,1621
1289.1480572235314,1643
1291.2677020723963,1633
1293.3867868467923,1674
1295.5053117875495,1675
1297.623277135579,1619
1299.740683131868,1673
1301.8575300174857,1692
1303.973818033578,1676
1306.0895474213703,1654
1308.2047184221678,1714
1310.3193312773528,1707
1312.4333862283888,1715
1314.5468835168163,1618
1316.659823384255,1747
1318.7722060724045,1639
1320.8840318230418,1686
1322.9953008780249,1661
1325.1060134792888,1722
1327.2161698688478,1703
1329.3257702887959,1718
1331.4348149813054,1635
1333.5433041886276,1716
1335.6512381530933,1693
1337.7586171171101,1672
1339.8654413231675,1625
1341.9717110138317,1694
1344.0774264317488,1742
1346.1825878196432,1701
1348.2871954203192,1679
1350.3912494766587,1621
1352.4947502316231,1677
1354.5976979282532,1674
1356.7000928096686,1654
1358.8019351190665,1726
1360.9032250997243,1698
1363.0039629949988,1661
1365.1041490483235,1690
1367.2037835032133,1689
1369.3028666032606,1693
1371.401398592137,1676
1373.4993797135926,1691
1375.5968102114575,1688
1377.6936903296396,1728
1379.7900203121262,1690
1381.8858004029835,1660
1383.9810308463561,1697
1386.075711886469,1700
1388.1698437676241,1714
1390.2634267342032,1716
1392.356461030667,1674
1394.4489469015557,1719
1396.5408845914872,1767
1398.6322743451592,1759
1400.7231164073469,1803
1402.813411022907,1774
1404.903158436773,1740
1406.9923588939578,1739
1409.0810126395531,1743
1411.1691199187303,1751
1413.2566809767386,1782
1415.343696058907,1737
1417.4301654106425,1827
1419.5160892774315,1771
1421.6014679048399,1784
1423.6863015385125,1833
1425.7705904241707,1898
1427.8543348076178,1836
1429.9375349347342,1913
1432.0201910514802,1856
1434.102303403894,1832
1436.1838722380944,1886
1438.2648978002767,1890
1440.3453803367174,1921
1442.4253200937692,1954
1444.5047173178677,1971
1446.5835722555234,1913
1448.6618851533285,2086
1450.739656257952,2077
1452.8168858161434,2081
1454.8935740747306,2104
1456.96972128062,2044
1459.045327680797,2073
1461.120393522327,2165
1463.1949190523528,2157
1465.2689045180973,2295
1467.3423501668608,2155
1469.415256246024,2178
1471.4876230030463,2280
1473.559450685465,2250
1475.6307395408976,2415
1477.7014898170391,2335
1479.771701761665,2418
1481.8413756226287,2307
1483.9105116478618,2431
1485.9791100853772,2437
1488.0471711832643,2550
1490.1146951896926,2473
1492.1816823529098,2553
1494.2481329212433,2552
1496.3140471430984,2555
1498.3794252669609,2509
1500.4442675413939,2616
1502.5085742150404,2618
1504.572345536622,2562
1506.6355817549388,2632
1508.6982831188702,2705
1510.7604498773744,2653
1512.8220822794883,2623
1514.8831805743293,2664
1516.9437450110909,2705
1519.003775839048,2703
1521.0632733075522,2727
1523.1222376660367,2767
1525.1806691640113,2703
1527.2385680510652,2720
1529.2959345768668,2765
1531.3527689911643,2832
1533.4090715437833,2936
1535.4648424846291,2950
1537.5200820636855,2910
1539.5747905310159,2903
1541.6289681367616,2871
1543.6826151311434,3041
1545.7357317644614,2891
1547.7883182870937,3051
1549.8403749494987,3126
1551.8919020022113,3176
1553.9428996958477,3184
1555.9933682811015,3217
1558.0433080087469,3307
1560.0927191296346,3252
1562.1416018946961,3328
1564.1899565549415,3388
1566.2377833614592,3412
1568.2850825654164,3343
1570.3318544180606,3297
1572.3780991707158,3130
1574.423817074788,3173
1576.4690083817595,3018
1578.5136733431923,2964
1580.5578122107272,2819
1582.601425236085,2714
1584.6445126710646,2679
1586.6870747675434,2581
1588.7291117774776,2444
1590.7706239529034,2410
1592.8116115459347,2277
1594.8520748087658,2241
1596.8920139936686,2136
1598.9314293529933,2129
1600.9703211391711,2020
1603.008689604711,2029
1605.0465350022005,2049
1607.0838575843068,1950
1609.1206576037753,1895
1611.1569353134305,1897
1613.1926909661765,1903
1615.2279248149953,1881
1617.2626371129481,1837
1619.2968281131757,1742
1621.3304980688963,1759
1623.3636472334088,1716
1625.39627586009,1780
1627.428384202396,1794
1629.459972513861,1790
1631.4910410480993,1628
1633.5215900588028,1696
1635.551619799744,1703
1637.5811305247717,1766
1639.6101224878166,1710
1641.6385959428862,1663
1643.6665511440683,1668
1645.693988345528,1609
1647.7209078015112,1632
1649.7473097663405,1577
1651.7731944944203,1617
1653.7985622402307,1653
1655.823413258333,1624
1657.847747803366,1617
1659.8715661300494,1607
1661.8948684931793,1675
1663.9176551476316,1722
1665.9399263483624,1627
1667.9616823504057,1626
1669.982923408873,1652
1672.0036497789574,1628
1674.0238617159293,1621
1676.043559475138,1666
1678.0627433120121,1647
1680.081413482059,1649
1682.0995702408654,1621
1684.117213844096,1595
1686.134344547495,1528
1688.1509626068864,1598
1690.1670682781705,1624
1692.182661817329,1592
1694.1977434804217,1589
1696.2123135235875,1597
1698.226372203043,1541
1700.2399197750851,1586
1702.2529564960905,1617
1704.2654826225112,1646
1706.277498410882,1655
1708.2890041178139,1599
1710.2999999999988,1643
1712.3104863142066,1583
1714.3204633172854,1591
1716.329931266163,1584
1718.3388904178469,1578
1720.3473410294214,1621
1722.3552833580516,1597
1724.3627176609807,1582
1726.3696441955308,1557
1728.3760632191033,1562
1730.3819749891782,1561
1732.3873797633146,1564
1734.3922777991502,1576
1736.3966693544012,1561
1738.4005546868639,1605
1740.4039340544127,1554
1742.406807715001,1528
1744.4091759266616,1567
1746.4110389475054,1518
1748.4123970357223,1598
1750.413250449582,1557
1752.4135994474318,1563
1754.4134442876993,1512
1756.4127852288902,1599
1758.4116225295893,1552
1760.4099564484595,1549
1762.407787244244,1498
1764.405115175764,1498
1766.4019405019203,1491
1768.3982634816916,1478
1770.3940843741357,1550
1772.3894034383907,1537
1774.3842209336717,1479
1776.378537119274,1580
1778.372352254571,1516
1780.3656665990156,1451
1782.3584804121397,1501
1784.3507939535534,1457
1786.3426074829463,1467
1788.3339212600863,1515
1790.3247355448211,1501
1792.3150505970766,1495
1794.3048666768573,1474
1796.2941840442477,1473
1798.2830029594106,1531
1800.2713236825884,1518
1802.2591464741004,1495
1804.2464715943465,1529
1806.2332993038058,1512
1808.2196298630352,1526
1810.2054635326708,1541
1812.190800573428,1534
1814.175641246101,1480
1816.1599858115628,1450
1818.1438345307652,1495
1820.127187664738,1473
1822.1100454745924,1446
1824.092408221516,1525
1826.0742761667766,1546
1828.055649571721,1455
1830.0365286977735,1484
1832.0169138064398,1522
1833.9968051593014,1464
1835.9762030180214,1518
1837.9551076443408,1494
1839.9335193000788,1433
1841.9114382471344,1482
1843.888864747485,1535
1845.8657990631878,1483
1847.842241456378,1478
1849.8181921892697,1501
1851.7936515241558,1465
1853.7686197234098,1445
1855.7430970494815,1449
1857.7170837649014,1413
1859.6905801322787,1468
1861.6635864143004,1434
1863.6361028737338,1439
1865.608129773424,1503
1867.5796673762961,1443
1869.5507159453537,1514
1871.521275743678,1427
1873.4913470344313,1480
1875.4609300808534,1415
1877.4300251462632,1481
1879.3986324940588,1517
1881.366752387717,1467
1883.3343850907936,1510
1885.3015308669228,1496
1887.268189979819,1541
1889.2343626932739,1430
1891.2000492711595,1475
1893.1652499774254,1467
1895.1299650761011,1482
1897.0941948312952,1452
1899.0579395071945,1441
1901.0211993680641,1502
1902.98397467825,1495
1904.9462657021745,1483
1906.9080727043415,1561
1908.869395949332,1510
1910.8302357018065,1463
1912.790592226504,1499
1914.7504657882428,1496
1916.7098566519212,1464
1918.6687650825133,1533
1920.6271913450764,1521
1922.5851357047422,1520
1924.5425984267245,1519
1926.499579776314,1479
1928.4560800188833,1491
1930.4120994198802,1427
1932.367638244833,1490
1934.32269675935,1482
1936.2772752291175,1525
1938.231373919899,1482
1940.1849930975404,1498
1942.1381330279637,1468
1944.0907939771696,1543
1946.0429762112412,1526
1947.9946799963363,1535
1949.9459055986945,1508
1951.896653284633,1536
1953.8469233205478,1488
1955.7967159729142,1516
1957.7460315082863,1507
1959.6948701932974,1524
1961.6432322946594,1476
1963.5911180791632,1417
1965.5385278136787,1485
1967.4854617651545,1445
1969.4319202006182,1522
1971.377903387176,1472
1973.3234115920136,1477
1975.268445082395,1488
1977.2130041256642,1429
1979.1570889892423,1450
1981.1006999406304,1508
1983.04383724741,1495
1984.986501177238,1478
1986.928691997853,1488
1988.8704099770712,1487
1990.811655382789,1436
1992.7524284829801,1441
1994.692729545698,1484
1996.6325588390755,1493
1998.5719166313224,1462
2000.5108031907307,1470
2002.4492187856677,1444
2004.387163684583,1484
2006.3246381560011,1424
2008.2616424685298,1440
2010.1981768908527,1443
2012.1342416917332,1503
2014.069837140014,1407
2016.0049635046162,1470
2017.9396210545406,1446
2019.8738100588666,1466
2021.8075307867502,1488
2023.740783507431,1417
2025.6735684902228,1427
2027.6058860045214,1436
2029.5377363198004,1424
2031.4691197056118,1465
2033.4000364315875,1464
2035.3304867674374,1447
2037.260470982952,1473
2039.189989347998,1385
2041.1190421325232,1454
2043.047629606554,1467
2044.9757520401945,1439
2046.9034097036288,1417
2048.8306028671195,1437
2050.7573318010086,1413
2052.683596775716,1411
2054.609398061742,1436
2056.5347359296647,1427
2058.4596106501403,1453
2060.384022493906,1425
2062.3079717317764,1445
2064.231458634646,1482
2066.1544834734873,1424
2068.077046519352,1405
2069.99914804337,1435
2071.9207883167524,1461
2073.8419676107865,1417
2075.7626861968406,1397
2077.6829443463607,1427
2079.6027423308715,1393
2081.522080421977,1447
2083.440958891362,1428
2085.359378010786,1464
2087.2773380520907,1418
2089.194839287196,1455
2091.111881988101,1390
2093.0284664268825,1478
2094.9445928756973,1424
2096.86026160678,1425
2098.775472892446,1449
2100.690227005088,1469
2102.604524217178,1402
2104.5183648012676,1420
2106.431749029985,1420
2108.34467717604,1399
2110.2571495122206,1477
2112.169166311393,1480
2114.080727846503,1445
2115.9918343905747,1420
2117.902486216711,1474
2119.8126835980956,1501
2121.722426807987,1447
2123.6317161197285,1490
2125.5405518067364,1445
2127.448934142509,1455
2129.356863400624,1424
2131.264339854737,1459
2133.1713637785815,1458
2135.077935445972,1478
2136.9840551308002,1456
2138.889723107037,1540
2140.7949396487334,1539
2142.699705030018,1508
2144.6040195250994,1485
2146.507883408264,1493
2148.4112969538774,1428
2150.3142604363848,1463
2152.2167741303097,1515
2154.1188383102535,1500
2156.0204532508997,1496
2157.9216192270064,1522
2159.822336513414,1504
2161.7226053850413,1473
2163.622426116884,1482
2165.5217989840185,1525
2167.4207242616,1554
2169.319202224862,1448
2171.2172331491165,1553
2173.1148173097563,1552
2175.0119549822507,1520
2176.90864644215,1573
2178.8048919650823,1521
2180.7006918267534,1528
2182.596046302952,1561
2184.4909556695407,1482
2186.3854202024645,1529
2188.279440177746,1577
2190.173015871487,1573
2192.066147559868,1443
2193.958835519149,1525
2195.851080025667,1525
2197.7428813558417,1528
2199.6342397861667,1515
2201.5251555932186,1528
2203.415629053651,1515
2205.3056604441986,1526
2207.19525004167,1532
2209.084398122958,1638
2210.9731049650327,1558
2212.861370844941,1645
2214.749196039812,1613
2216.636580826851,1609
2218.523525483344,1625
2220.410030286655,1581
2222.296095514226,1560
2224.1817214435805,1602
2226.066908352319,1617
2227.951656518121,1542
2229.835966218746,1577
2231.71983773203,1524
2233.6032713358913,1600
2235.486267308324,1573
2237.3688259274036,1642
2239.2509474712824,1610
2241.132632218193,1675
2243.013880446447,1624
2244.8946924344323,1614
2246.7750684606203,1630
2248.6550088035574,1559
2250.534513741871,1598
2252.413583554265,1618
2254.292218519526,1609
2256.170418916517,1619
2258.0481850241786,1634
2259.925517121534,1558
2261.8024154876825,1561
2263.678880401803,1611
2265.5549121431536,1617
2267.430510991071,1570
2269.305677224971,1544
2271.180411124348,1599
2273.0547129687766,1599
2274.9285830379076,1496
2276.8020216114737,1528
2278.6750289692845,1549
2280.5476053912294,1509
2282.4197511572766,1607
2284.2914665474727,1614
2286.162751841943,1634
2288.0336073208937,1687
2289.904033264608,1636
2291.774029953448,1595
2293.6435976678554,1589
2295.5127366883517,1528
2297.381447295534,1583
2299.2497297700825,1496
2301.1175843927526,1552
2302.9850114443825,1458
2304.852011205885,1429
2306.7185839582553,1349
2308.5847299825664,1364
2310.4504495599676,1332
2312.3157429716925,1363
2314.1806104990483,1333
2316.0450524234247,1349
2317.9090690262888,1357
2319.772660589186,1385
2321.635827393742,1383
2323.498569721661,1319
2325.3608878547248,1355
2327.2227820747967,1378
2329.0842526638157,1358
2330.945299903803,1338
2332.805924076857,1340
2334.6661254651535,1281
2336.525904350951,1334
2338.3852610165827,1309
2340.244195744464,1328
2342.102708817088,1293
2343.9608005170253,1330
2345.8184711269287,1232
2347.675720929526,1302
2349.532550207628,1313
2351.38895924412,1285
2353.24494832197,1390
2355.100517724223,1352
2356.955667734004,1380
2358.810398634514,1304
2360.664710709037,1409
2362.5186042409337,1382
2364.3720795136437,1296
2366.225136810686,1347
2368.0777764156583,1346
2369.929998612237,1325
2371.7818036841777,1370
2373.633191915315,1371
2375.484163589562,1378
2377.3347189909114,1388
2379.184858403434,1336
2381.03458211128,1358
2382.8838903986775,1341
2384.732783549936,1407
2386.5812618494406,1346
2388.4293255816588,1410
2390.2769750311327,1347
2392.1242104824883,1389
2393.971032220427,1336
2395.8174405297295,1304
2397.6634356952563,1362
2399.509018001947,1369
2401.3541877348193,1350
2403.1989451789705,1379
2405.043290619576,1365
2406.8872243418905,1335
2408.730746631247,1336
2410.5738577730594,1381
2412.4165580528183,1427
2414.258847756095,1376
2416.100727168537,1391
2417.9421965758734,1345
2419.783256263912,1340
2421.623906518538,1331
2423.4641476257157,1396
2425.303979871491,1353
2427.143403541984,1398
2428.9824189233977,1410
2430.821026302012,1389
2432.6592259641866,1362
2434.497018196361,1449
2436.33440328505,1412
2438.171381516851,1374
2440.00795317844,1407
2441.844118556569,1346
2443.6798779380724,1390
2445.5152316098606,1388
2447.3501798589255,1366
2449.1847229723357,1388
2451.0188612372403,1367
2452.8525949408663,1414
2454.6859243705203,1391
2456.518849813587,1408
2458.3513715575314,1391
2460.183489889895,1372
2462.015205098301,1420
2463.8465174704493,1466
2465.67742729412,1387
2467.5079348571717,1422
2469.338040447542,1371
2471.1677443532476,1366
2472.9970468623833,1401
2474.825948263123,1382
2476.6544488437207,1347
2478.482548892508,1431
2480.310248697896,1361
2482.137548548374,1415
2483.9644487325118,1377
2485.790949538956,1378
2487.617051256433,1383
2489.44275417375,1388
2491.26805857979,1427
2493.0929647635157,1468
2494.917473013971,1377
2496.741583620276,1376
2498.5652968716304,1445
2500.3886130573137,1406
2502.2115324666834,1456
2504.0340553891765,1441
2505.856182114308,1431
2507.6779129316733,1467
2509.499248130945,1479
2511.3201880018764,1449
2513.140732834298,1434
2514.9608829181198,1424
2516.780638543331,1439
2518.6,1400
2520.418967578273,1502
2522.237541568376,1420
2524.0557222606144,1458
2525.8735099453706,1504
2527.6909049131086,1414
2529.507907454368,1441
2531.32451785977,1479
2533.140736420014,1451
2534.9565634258774,1482
2536.771999168218,1463
2538.5870439379714,1508
2540.4016980261526,1472
2542.2159617238544,1541
2544.02983532225,1496
2545.8433191125914,1452
2547.656413386209,1543
2549.4691184345115,1538
2551.2814345489874,1489
2553.093362021204,1532
2554.904901142808,1622
2556.716052205523,1602
2558.526815501153,1596
2560.3371913215824,1588
2562.147179958771,1624
2563.956781704761,1616
2565.7659968516705,1597
2567.5748256916986,1644
2569.3832685171224,1609
2571.1913256202984,1641
2572.9989972936614,1690
2574.806283829725,1647
2576.613185521084,1622
2578.4197026604074,1728
2580.2258355404483,1670
2582.031584454035,1701
2583.836949694077,1713
2585.6419315535613,1628
2587.4465303255533,1674
2589.2507463032002,1670
2591.0545797797245,1699
2592.8580310484303,1714
2594.6611004026995,1670
2596.463788135992,1662
2598.266094541849,1678
2600.0680199138874,1701
2601.869564545807,1749
2603.670728731383,1688
2605.4715127644704,1726
2607.2719169390048,1733
2609.071941548998,1701
2610.8715868885433,1714
2612.670853251811,1738
2614.469740933052,1662
2616.268250226594,1739
2618.0663814268455,1730
2619.864134828292,1720
2621.6615107255006,1697
2623.458509413115,1639
2625.2551311858597,1686
2627.0513763385347,1670
2628.8472451660223,1609
2630.6427379632833,1654
2632.4378550253564,1705
2634.232596647359,1652
2636.026963124488,1626
2637.8209547520187,1595
2639.6145718253065,1648
2641.407814639785,1587
2643.200683490966,1601
2644.9931786744414,1615
2646.7853004858807,1553
2648.577049221034,1606
2650.3684251757277,1580
2652.1594286458712,1566
2653.9500599274484,1566
2655.740319316525,1443
2657.5302071092437,1574
2659.3197236018286,1518
2661.10886909058,1513
2662.8976438718782,1507
2664.686048242183,1483
2666.4740824980327,1450
2668.2617469360443,1490
2670.0490418529134,1546
2671.8359675454153,1429
2673.622524310403,1476
2675.408712444811,1478
2677.1945322456495,1431
2678.979984010009,1415
2680.76506803506,1369
2682.5497846180497,1472
2684.334134056306,1435
2686.1181166472343,1387
2687.9017326883213,1470
2689.6849824771293,1361
2691.4678663113013,1403
2693.2503844885596,1431
2695.032537306705,1375
2696.8143250636167,1407
2698.5957480572542,1412
2700.3768065856534,1335
2702.1575009469316,1386
2703.937831439283,1377
2705.717798360982,1347
2707.4974020103837,1317
2709.276642685917,1371
2711.055520686095,1333
2712.834036309506,1362
2714.612189854819,1350
2716.389981620782,1388
2718.1674119062204,1382
2719.944481010041,1371
2721.721189231226,1381
2723.4975368688415,1409
2725.273524222027,1416
2727.0491515900053,1351
2728.824419272075,1401
2730.5993275676146,1397
2732.3738767760838,1331
2734.148067197016,1362
2735.921899130031,1262
2737.6953728748194,1358
2739.468488731156,1377
2741.2412469988926,1370
2743.0136479779617,1304
2744.785691968372,1314
2746.5573792702116,1285
2748.3287101836504,1280
2750.099685008934,1354
2751.870304046388,1344
2753.640567596418,1331
2755.4104759595057,1331
2757.1800294362156,1335
2758.949228327187,1323
2760.7180729331412,1339
2762.486563554877,1320
2764.254700493272,1297
2766.022484049284,1323
2767.789914523947,1356
2769.5569922183786,1297
2771.3237174337705,1376
2773.090090471394,1367
2774.8561116326036,1339
2776.6217812188274,1311
2778.3870995315756,1341
2780.1520668724356,1310
2781.9166835430747,1326
2783.6809498452394,1329
2785.444866080754,1379
2787.2084325515225,1342
2788.971649559527,1308
2790.73451740683,1341
2792.4970363955713,1353
2794.2592068279705,1324
2796.0210290063264,1333
2797.7825032330147,1296
2799.543629810493,1337
2801.304409041296,1365
2803.0648412280366,1288
2804.8249266734088,1289
2806.5846656801846,1285
2808.344058551212,1320
2810.1031055894246,1319
2811.8618070978273,1320
2813.6201633795085,1346
2815.378174737636,1361
2817.1358414754536,1361
2818.893163896285,1277
2820.6501423035334,1351
2822.4067770006814,1346
2824.1630682912883,1347
2825.9190164789957,1282
2827.6746218675207,1361
2829.429884760661,1342
2831.184805462294,1315
2832.9393842763743,1423
2834.693621506936,1312
2836.4475174580916,1380
2838.201072434034,1378
2839.954286739034,1328
2841.707160677441,1295
2843.459694553685,1356
2845.2118886722724,1340
2846.96374333779,1314
2848.7152588549034,1324
2850.4664355283567,1406
2852.217273662973,1410
2853.9677735636546,1383
2855.7179355353833,1369
2857.4677598832186,1305
2859.217246912299,1362
2860.9663969278427,1317
2862.715210235146,1297
2864.4636871395846,1340
2866.211827946614,1302
2867.9596329617652,1299
2869.7071024906536,1337
2871.4542368389684,1280
2873.20103631248,1297
2874.947501217038,1263
2876.6936318585695,1292
2878.4394285430812,1276
2880.1848915766604,1349
2881.9300212654707,1372
2883.6748179157553,1313
2885.4192818338374,1346
2887.1634133261173,1307
2888.907212699077,1335
2890.6506802592744,1342
2892.393816313348,1331
2894.1366211680142,1347
2895.8790951300693,1346
2897.621238506388,1338
2899.363051603925,1323
2901.1045347297118,1363
2902.8456881908596,1334
2904.58651229456,1304
2906.327007348081,1294
2908.067173658772,1355
2909.8070115340597,1307
2911.5465212814497,1355
2913.285703208527,1324
2915.0245576229563,1280
2916.7630848324807,1280
2918.5012851449196,1295
2920.2391588681758,1270
2921.976706310227,1297
2923.7139277791334,1323
2925.4508235830313,1344
2927.187394030137,1351
2928.923639428745,1329
2930.6595600872306,1348
2932.395156314046,1344
2934.1304284177218,1371
2935.8653767068713,1295
2937.6000014901815,1334
2939.3343030764227,1313
2941.068281774442,1339
2942.8019378931644,1297
2944.5352717415976,1317
2946.2682836288236,1325
2948.0009738640065,1411
2949.7333427563885,1310
2951.465390615289,1326
2953.1971177501086,1288
2954.9285244703265,1380
2956.6596110855,1366
2958.3903779052657,1353
2960.1208252393385,1318
2961.8509533975125,1334
2963.5807626896617,1343
2965.3102534257378,1302
2967.0394259157715,1300
2968.768280469873,1273
2970.496817398232,1316
2972.2250370111146,1356
2973.952939618869,1392
2975.6805255319196,1377
2977.4077950607707,1374
2979.134748516006,1312
2980.861386208289,1354
2982.587708448359,1337
2984.313715547037,1357
2986.039407815222,1327
2987.764785563891,1365
2989.489849104102,1323
2991.2145987469908,1361
2992.9390348037705,1318
2994.6631575857346,1323
2996.3869674042576,1300
2998.1104645707887,1265
2999.83364939686,1357
3001.5565221940783,1315
3003.2790832741334,1306
3005.0013329487924,1311
3006.7232715298996,1269
3008.4448993293804,1233
3010.166216659239,1260
3011.887223831558,1281
3013.607921158498,1279
3015.3283089522993,1269
3017.0483875252826,1279
3018.7681571898443,1283
3020.4876182584626,1299
3022.2067710436927,1317
3023.9256158581707,1306
3025.644153014609,1321
3027.362382825801,1326
3029.0803056046193,1311
3030.797921664012,1309
3032.5152313170106,1318
3034.2322348767225,1313
3035.9489326563353,1256
3037.665324969115,1273
3039.3814121284063,1289
3041.097194447633,1305
3042.812672240299,1385
3044.5278458199855,1348
3046.2427155003525,1305
3047.9572815951406,1327
3049.671544418167,1319
3051.38550428333,1300
3053.0991615046073,1300
3054.812516396051,1278
3056.5255692717974,1357
3058.2383204460575,1339
3059.9507702331257,1292
3061.662918947372,1333
3063.3747669032446,1294
3065.0863144152736,1305
3066.7975617980674,1312
3068.508509366309,1305
3070.219157434767,1263
3071.9295063182844,1275
3073.639556331785,1313
3075.3493077902704,1243
3077.058761008821,1344
3078.7679163025964,1296
3080.476773986837,1287
3082.1853343768594,1333
3083.89359778806,1298
3085.6015645359153,1313
3087.3092349359786,1297
3089.016609303884,1355
3090.7236879553434,1346
3092.4304712061476,1354
3094.136959372166,1292
3095.843152769349,1361
3097.5490517137237,1334
3099.2546565213966,1325
3100.959967508554,1328
3102.66498499146,1305
3104.3697092864577,1356
3106.0741407099695,1288
3107.778279578498,1321
3109.482126208622,1276
3111.1856809170004,1359
3112.8889440203716,1296
3114.5919158355528,1308
3116.294596679439,1352
3117.996986869006,1320
3119.6990867213062,1275
3121.4008965534726,1278
3123.102416682717,1316
3124.803647426329,1338
3126.5045891016784,1298
3128.205242026213,1368
3129.90560651746,1297
3131.605682893025,1321
3133.3054714705922,1351
3135.0049725679282,1350
3136.7041865028714,1350
3138.4031135933465,1372
3140.101754157353,1309
3141.800108512971,1310
3143.498176978357,1328
3145.1959598717494,1314
3146.8934575114636,1329
3148.5906702158954,1276
3150.2875983035183,1307
3151.9842420928853,1357
3153.680601902627,1366
3155.376678051456,1297
3157.07247085816,1360
3158.767980641609,1315
3160.463207720748,1293
3162.158152414606,1312
3163.8528150422862,1310
3165.5471959229726,1311
3167.2412953759303,1321
3168.9351137204976,1303
3170.628651276098,1271
3172.3219083622307,1317
3174.014885298474,1298
3175.707582404485,1306
3177.4000000000005,1305
3179.092138404835,1346
3180.7839979388846,1295
3182.47557892212,1317
3184.166881674594,1255
3185.8579065164386,1301
3187.5486537678626,1317
3189.2391237491547,1321
3190.9293167806827,1337
3192.6192331828934,1294
3194.3088732763117,1242
3195.998237381542,1342
3197.687325819268,1324
3199.376138910251,1280
3201.064676975334,1280
3202.7529403354347,1329
3204.4409293115523,1327
3206.1286442247647,1319
3207.816085396229,1277
3209.5032531471825,1333
3211.190147798936,1306
3212.8767696728846,1293
3214.5631190905015,1261
3216.2491963733373,1285
3217.9350018430214,1271
3219.6205358212637,1313
3221.305798629851,1266
3222.990790590651,1236
3224.6755120256103,1263
3226.359963256751,1259
3228.0441446061795,1259
3229.7280563960758,1269
3231.411698948703,1258
3233.0950725863995,1271
3234.778177631587,1280
3236.461014406761,1233
3238.1435832345005,1290
3239.8258844374595,1303
3241.507918338374,1300
3243.1896852600576,1272
3244.8711855254023,1304
3246.552419457381,1325
3248.233387379042,1303
3249.914089613516,1236
3251.59452648401,1329
3253.274698313813,1335
3254.95460542629,1295
3256.6342481448855,1272
3258.313626793125,1251
3259.9927416946084,1298
3261.6715931730196,1278
3263.3501815521176,1282
3265.0285071557437,1261
3266.706570307815,1267
3268.3843713323286,1257
3270.0619105533615,1316
3271.739188295068,1301
3273.4162048816834,1315
3275.0929606375184,1285
3276.769455886966,1290
3278.445690954498,1296
3280.1216661646613,1301
3281.797381842087,1318
3283.4728383114807,1323
3285.1480358976296,1329
3286.8229749253996,1241
3288.4976557197333,1238
3290.172078605655,1266
3291.846243908266,1288
3293.5201519527463,1269
3295.193803064357,1258
3296.8671975684374,1336
3298.5403357904024,1246
3300.21321805575,1338
3301.8858446900567,1300
3303.558216018975,1304
3305.23033236824,1266
3306.9021940636603,1308
3308.57380143113,1300
3310.2451547966184,1291
3311.916254486174,1269
3313.5871008259246,1301
3315.2576941420766,1247
3316.9280347609147,1325
3318.5981230088046,1274
3320.2679592121895,1172
3321.9375436975924,1278
3323.606876791612,1267
3325.27595882093,1269
3326.944790112305,1268
3328.6133709925753,1242
3330.2817017886573,1247
3331.949782827547,1237
3333.617614436319,1283
3335.2851969421245,1316
3336.952530672199,1278
3338.619615953853,1307
3340.286453114475,1270
3341.9530424815357,1243
3343.619384382583,1258
3345.2854791452437,1329
3346.951327097224,1256
3348.6169285663073,1250
3350.2822838803577,1278
3351.947393367319,1255
3353.61225735521,1308
3355.2768761721345,1298
3356.9412501462693,1318
3358.605379605873,1313
3360.2692648792827,1288
3361.9329062949146,1278
3363.596304181263,1309
