CollectionTime,7/9/2024 1:22:03 PM
ExposureUsed,3
CalibratedSpectrum
-962.7078968117929,1008
-959.9714848408522,1027
-957.2358232597828,1016
-954.5009119013725,1004
-951.7667505983302,1044
-949.0333391832855,1061
-946.3006774887896,1034
-943.5687653473143,1055
-940.837602591253,1061
-938.1071890529199,1071
-935.3775245645503,1093
-932.6486089583007,1049
-929.9204420662485,1042
-927.1930237203925,1037
-924.4663537526524,1025
-921.7404319948689,1049
-919.0152582788041,1013
-916.2908324361409,1085
-913.5671542984834,1037
-910.8442236973568,1104
-908.1220404642074,1063
-905.4006044304027,1067
-902.679915427231,1039
-899.959973285902,1018
-897.2407778375464,1069
-894.5223289132158,1032
-891.8046263438832,1095
-889.0876699604426,1057
-886.3714595937089,1054
-883.6559950744183,1074
-880.9412762332282,1041
-878.2273029007168,976
-875.5140749073835,1065
-872.8015920836489,1086
-870.0898542598545,1066
-867.3788612662631,1010
-864.6686129330585,1033
-861.9591090903457,1070
-859.2503495681506,1076
-856.5423341964203,1063
-853.8350628050229,1039
-851.1285352237478,1070
-848.4227512823054,1031
-845.7177108103272,1036
-843.0134136373656,1033
-840.3098595928943,1069
-837.6070485063082,1055
-834.9049802069229,1081
-832.2036545239757,1076
-829.5030712866244,1052
-826.8032303239481,1092
-824.1041314649472,1044
-821.4057745385428,1060
-818.7081593735775,1052
-816.0112857988148,1097
-813.3151536429393,1050
-810.6197627345566,1140
-807.9251129021936,1103
-805.2312039742981,1107
-802.5380357792392,1056
-799.8456081453069,1050
-797.1539209007124,1182
-794.462973873588,1069
-791.772766891987,1096
-789.083299783884,1105
-786.3945723771743,1064
-783.7065844996748,1128
-781.0193359791231,1160
-778.3328266431781,1100
-775.6470563194197,1135
-772.9620248353489,1146
-770.2777320183878,1107
-767.5941776958798,1150
-764.9113616950891,1094
-762.2292838432011,1132
-759.5479439673222,1135
-756.8673418944801,1120
-754.1874774516235,1130
-751.5083504656222,1111
-748.8299607632671,1150
-746.15230817127,1111
-743.475392516264,1142
-740.7992136248035,1155
-738.1237713233636,1129
-735.4490654383407,1193
-732.7750957960521,1115
-730.1018622227365,1158
-727.4293645445534,1100
-724.7576025875837,1106
-722.0865761778291,1177
-719.4162851412126,1168
-716.7467293035781,1176
-714.0779084906909,1185
-711.409822528237,1231
-708.7424712418238,1208
-706.0758544569796,1149
-703.4099719991541,1234
-700.7448236937178,1192
-698.0804093659622,1142
-695.4167288411002,1162
-692.7537819442656,1139
-690.0915685005134,1176
-687.4300883348199,1198
-684.7693412720819,1157
-682.1093271371178,1183
-679.4500457546669,1219
-676.7914969493897,1222
-674.1336805458676,1251
-671.4765963686034,1267
-668.8202442420206,1201
-666.1646239904642,1226
-663.5097354382001,1251
-660.8555784094151,1246
-658.2021527282176,1264
-655.5494582186366,1244
-652.8974947046223,1249
-650.2462620100463,1247
-647.5957599587009,1225
-644.9459883742998,1248
-642.2969470804776,1242
-639.6486359007902,1290
-637.0010546587141,1242
-634.3542031776476,1263
-631.7080812809096,1285
-629.0626887917401,1234
-626.4180255333008,1236
-623.7740913286734,1259
-621.1308860008619,1309
-618.4884093727904,1276
-615.8466612673046,1294
-613.2056415071715,1283
-610.5653499150785,1251
-607.9257863136347,1251
-605.28695052537,1297
-602.6488423727357,1270
-600.0114616781036,1313
-597.3748082637674,1291
-594.7388819519412,1252
-592.1036825647604,1275
-589.4692099242818,1264
-586.8354638524829,1246
-584.2024441712624,1326
-581.5701507024403,1315
-578.9385832677575,1272
-576.3077416888759,1268
-573.6776257873787,1289
-571.0482353847704,1277
-568.4195703024757,1269
-565.7916303618415,1259
-563.164415384135,1267
-560.5379251905453,1247
-557.9121596021815,1294
-555.2871184400748,1239
-552.6628015251767,1314
-550.0392086783606,1314
-547.4163397204204,1265
-544.794194472071,1302
-542.1727727539491,1365
-539.5520743866118,1371
-536.9320991905377,1278
-534.3128469861261,1350
-531.6943175936979,1403
-529.0765108334947,1393
-526.4594265256793,1405
-523.8430644903358,1515
-521.2274245474689,1644
-518.612506517005,1672
-515.9983102187913,1707
-513.3848354725959,1732
-510.77208209810846,1705
-508.16004991493924,1763
-505.5487387426199,1843
-502.9381484006032,2063
-500.3282787082628,2095
-497.71912948489364,1990
-495.1107005497117,2036
-492.5029917218539,1838
-489.8960028203786,1788
-487.28973366426493,1658
-484.68418407241325,1566
-482.07935386364494,1480
-479.47524285670266,1499
-476.87185087025,1524
-474.2691777228715,1516
-471.66722323307334,1576
-469.0659872192821,1539
-466.4654694998459,1593
-463.86566989303384,1512
-461.26658821703614,1564
-458.66822428996414,1578
-456.07057792985,1538
-453.4736489546475,1496
-450.877437182231,1520
-448.28194243039627,1552
-445.68716451686,1529
-443.09310325926003,1479
-440.49975847515555,1468
-437.9071299820263,1457
-435.31521759727354,1465
-432.72402113821954,1504
-430.13354042210767,1522
-427.5437752661022,1553
-424.95472548728867,1489
-422.36639090267386,1483
-419.7787713291855,1557
-417.1918665836721,1575
-414.60567648290385,1620
-412.0202008435715,1575
-409.4354394822874,1480
-406.8513922155845,1598
-404.26805885991723,1599
-401.685439231661,1578
-399.103533147112,1598
-396.522340422488,1522
-393.9418608739278,1556
-391.3620943174908,1525
-388.7830405691583,1516
-386.2046994448317,1391
-383.6270707603344,1325
-381.05015433141045,1244
-378.473949973725,1207
-375.8984575028645,1094
-373.32367673433623,1014
-370.74960748356875,916
-368.1762495659117,811
-365.60360279663576,736
-363.03166699093265,690
-360.4604419639154,610
-357.8899275306178,549
-355.32012350599507,531
-352.7510297049233,510
-350.1826459421999,494
-347.61497203254316,468
-345.04800779059235,481
-342.4817530309082,499
-339.91620756797226,479
-337.35137121618743,489
-334.7872437898774,452
-332.22382510328725,482
-329.66111497058273,482
-327.09911320585127,488
-324.53781962310075,488
-321.9772340362607,483
-319.4173562591816,473
-316.8581861056348,467
-314.2997233893127,488
-311.7419679238294,463
-309.1849195227194,475
-306.62857799943856,492
-304.0729431673641,466
-301.51801483979375,489
-298.963792829947,489
-296.41027695096386,509
-293.85746701590574,551
-291.3053628377552,562
-288.7539642294155,546
-286.2032710037115,506
-283.65328297338897,477
-281.1039999511146,547
-278.5554217494762,557
-276.007548180983,514
-273.4603790580651,501
-270.9139141930734,544
-268.3681533982807,593
-265.8230964858798,573
-263.27874326798565,551
-260.7350935566336,533
-258.1921471637804,556
-255.6499039013039,574
-253.10836358100266,574
-250.56752601459698,565
-248.02739101372765,553
-245.48795838995704,526
-242.94922795476816,550
-240.41119951956557,598
-237.8738728956746,581
-235.33724789434166,618
-232.80132432673452,588
-230.2661020039418,598
-227.73158073697357,618
-225.19776033676033,707
-222.66464061415422,708
-220.1322213799284,617
-217.60050244477725,624
-215.06948361931552,596
-212.53916471408013,636
-210.00954553952818,638
-207.48062590603843,621
-204.9524056239104,624
-202.4248845033651,706
-199.8980623545441,739
-197.37193898751036,690
-194.84651421224817,720
-192.32178783866232,688
-189.79775967657952,702
-187.27442953574644,754
-184.7517972258321,728
-182.2298625564256,734
-179.7086253370378,695
-177.18808537710026,707
-174.66824248596583,686
-172.14909647290835,801
-169.6306471471229,785
-167.11289431772548,779
-164.59583779375328,828
-162.07947738416453,850
-159.5638128978386,861
-157.04884414357605,995
-154.53457093009854,993
-152.02099306604828,1015
-149.50811035998936,862
-146.99592262040665,822
-144.48442965570587,839
-141.97363127421409,876
-139.46352728417958,893
-136.95411749377126,1074
-134.44540171107985,1074
-131.93737974411636,901
-129.43005140081357,940
-126.92341648902493,1227
-124.41747481652521,1539
-121.91222619101006,1839
-119.40767042009657,2092
-116.90380731132257,2254
-114.40063667214702,2005
-111.8981583099503,1641
-109.3963720320337,1312
-106.89527764561933,1633
-104.39487495785067,2264
-101.89516377579241,2842
-99.39614390642998,3540
-96.89781515667039,3956
-94.40017733334128,3443
-91.90323024319173,2679
-89.40697369289148,1992
-86.91140748903172,1988
-84.41653143812482,2638
-81.92234534660395,3025
-79.42884902082358,3426
-76.93604226705907,4249
-74.4439248915071,5738
-71.95249670028534,7592
-69.46175749943245,9166
-66.97170709490854,9331
-64.48234529259423,8927
-61.99367189829195,8166
-59.50568671772464,7514
-57.01838955653636,5619
-54.53178022029283,5779
-52.045858514480074,8099
-49.560624244506016,10015
-47.07607721569923,11325
-44.59221723330904,11816
-42.10904410250669,10557
-39.62655762838392,9362
-37.14475761595372,7674
-34.66364387015028,7747
-32.18321619582866,8366
-29.70347439776515,8259
-27.224418280657005,10096
-24.74604764912317,11525
-22.26836230770266,13712
-19.7913620608565,23638
-17.315046712966478,42406
-14.83941606833514,57898
-12.36446993118659,65038
-9.89020810566592,65038
-7.416630395839093,65038
-4.94373660569363,65038
-2.471526539137585,65038
-6.821210263296962E-13,65038
2.47084320796705,65038
4.941003281093458,65038
7.410480415786196,65038
9.879274808531363,65038
12.347386655893956,65038
14.814816154518212,65038
17.28156350112681,65038
19.74762889252179,65038
22.21301252558385,65038
24.67771459727237,20428
27.141735304626195,3714
29.605074844762612,2547
32.06773341487792,2076
34.52971121224755,1596
36.99100843422559,1787
39.45162527824516,1796
41.91156194181792,1607
44.370818622535126,1494
46.82939551806646,1312
49.287292826160524,1238
51.74451074464503,1502
54.201049471426245,1233
56.65690920448981,1082
59.112090141899785,1119
61.56659248179983,1024
64.02041642241159,1058
66.4735621620365,1065
68.92602989905402,939
71.37781983192338,962
73.82893215918205,971
76.27936707944684,1025
78.72912479141326,961
81.17820549385567,1058
83.62660938562783,1058
86.07433666566146,939
88.5213875329681,854
90.96776218663751,871
93.41346082583925,957
95.85848364982041,1010
98.30283085790859,1145
100.7465026495089,953
103.18949922410604,921
105.63182078126385,927
108.07346752062438,985
110.51443964190923,958
112.95473734491827,865
115.39436082953114,908
117.83331029570547,800
120.27158594347827,827
122.7091879729652,776
125.1461165843615,768
127.58237197794062,757
130.01795435405518,851
132.4528639131364,874
134.88710085569494,921
137.32066538231982,842
139.75355769367923,856
142.1857779905207,796
144.61732647366978,789
147.04820334403132,822
149.47840880258934,876
151.90794305040674,986
154.33680628862487,1021
156.76499871846443,1223
159.19252054122433,1449
161.61937195828352,1622
164.04555317109896,1735
166.47106438120693,1918
168.89590579022217,2136
171.320077599839,2419
173.7435800118302,2547
176.16641322804742,2657
178.58857745042144,2792
181.01007288096173,3028
183.43089972175687,2988
185.85105817497413,2959
188.27054844285988,2995
190.6893707277394,3049
193.10752523201643,2996
195.5250121581745,3172
197.9418317087751,3330
200.3579840864594,3399
202.7734694939469,3366
205.18828813403627,3459
207.6024402096051,3389
210.01592592360964,3444
212.42874547908548,3500
214.84089907914665,3479
217.2523869269868,3452
219.66320922587727,3420
222.0733661791695,3481
224.48285799029293,3466
226.8916848627572,3463
229.29984700014882,3532
231.7073446061355,3632
234.11417788446204,3487
236.520347038953,3597
238.92585227351185,3609
241.33069379212054,3763
243.73487179884035,3883
246.1383864978112,3652
248.541238093252,3775
250.9434267894609,3678
253.34495279081432,3795
255.74581630176783,3798
258.1460175268563,3737
260.54555667069314,3755
262.9444339379703,3667
265.3426495334594,3675
267.7402036620107,3553
270.1370965285529,3645
272.53332833809407,3424
274.9288992957214,3374
277.32380960660055,3371
279.718059475976,3188
282.1116491091717,3304
284.5045787115897,3254
286.89684848871195,3176
289.2884586460981,3338
291.67940938938807,3288
294.0697009242996,3192
296.4593334566299,3259
298.84830719225477,3274
301.23662233712923,3246
303.6242790972866,3157
306.01127767884,3092
308.39761828798066,3153
310.78330113097934,3158
313.16832641418534,3183
315.5526943440269,3130
317.9364051270112,3165
320.3194589697242,3142
322.70185607883093,3050
325.0835966610754,2997
327.4646809232805,2930
329.8451090723478,3054
332.2248813152577,2994
334.6039978590701,2952
336.9824589109231,3051
339.36026467803447,3038
341.7374153677,2905
344.113911187295,2996
346.48975234427337,2891
348.8649390461686,2962
351.2394715005918,2910
353.61334991523415,2865
355.9865744978655,2930
358.35914545633375,2879
360.73106299856715,2905
363.10232733257146,2951
365.47293866643247,2881
367.84289720831396,2824
370.2122031664593,2854
372.5808567491905,2947
374.9488581649083,2942
377.31620762209275,2905
379.6829053293021,2899
382.0489514951745,2799
384.4143463284262,2785
386.7790900378528,2903
389.14318283232853,2811
391.50662492080653,2821
393.86941651231916,2803
396.23155781597745,2775
398.5930490409713,2851
400.9538903965696,2801
403.3140820921202,2709
405.6736243370498,2818
408.03251734086336,2825
410.3907613131465,2738
412.74835646356166,2754
415.10530300185144,2810
417.4616011378372,2771
419.81725108141893,2770
422.1722530425758,2794
424.5266072313656,2744
426.880313857925,2801
429.2333731324701,2805
431.58578526529516,2851
433.9375504667738,2788
436.2886689473588,2726
438.63914091758113,2784
440.9889665880513,2725
443.33814616945835,2730
445.68667987257015,2742
448.03456790823395,2664
450.3818104873759,2795
452.72840782100013,2743
455.07436012019105,2827
457.41966759611057,2749
459.7643304600007,2652
462.10834892318155,2717
464.4517231970525,2722
466.79445349309174,2665
469.1365400228566,2720
471.4779829979826,2730
473.81878263018564,2800
476.15893913125876,2791
478.4984527130747,2701
480.8373235875855,2807
483.17555196682144,2848
485.5131380628919,2873
487.8500820879857,3009
490.1863842543697,3032
492.52204477439034,3200
494.8570638604725,3340
497.1914417251204,3586
499.52517858091653,3918
501.85827464052306,4100
504.19073011668036,4134
506.5225452222086,4092
508.85372017000566,3942
511.18425517304956,3987
513.514150444396,4104
515.8434061971808,4709
518.1720226446176,5664
520.4999999999999,5946
522.8273384766991,5579
525.1540382881666,5062
527.480099647932,4528
529.8055227696037,4037
532.1303078668694,3421
534.454455153496,3131
536.777964843328,2996
539.1008371502907,2851
541.4230722883866,2881
543.744670471698,2917
546.0656319143858,2904
548.3859568306899,2868
550.7056454349294,2831
553.0246979415016,2843
555.3431145648834,2793
557.6608955196306,2836
559.978041020377,2835
562.2945512818363,2812
564.6104265188006,2837
566.9256669461412,2823
569.2402727788082,2709
571.5542442318302,2848
573.8675815203156,2808
576.1802848594508,2941
578.4923544645015,2779
580.8037905508126,2842
583.114593333807,2827
585.4247630289875,2955
587.7342998519354,2823
590.0432040183106,2849
592.3514757438526,3002
594.6591152443794,2880
596.9661227357875,2930
599.2724984340531,3000
601.578242555231,2879
603.8833553154542,2988
606.1878369309362,2878
608.4916876179676,2874
610.7949075929192,2926
613.0974970722403,2865
615.3994562724587,2915
617.7007854101818,2898
620.0014847020951,2859
622.3015543649641,2942
624.6009946156324,2794
626.8998056710224,2883
629.1979877481361,2829
631.4955410640538,2882
633.7924658359349,2908
636.0887622810175,3005
638.3844306166192,2946
640.6794710601358,3003
642.9738838290426,2894
645.2676691408932,2924
647.5608272133207,2971
649.853358264037,2855
652.1452625108324,2924
654.4365401715764,2962
656.7271914642178,2909
659.0172166067838,2967
661.3066158173809,3014
663.5953893141935,3010
665.8835373154867,3042
668.1710600396028,2994
670.4579577049639,2961
672.7442305300709,2987
675.0298787335033,2978
677.3149025339197,2937
679.599302150058,3028
681.8830778007342,2895
684.1662297048437,2865
686.4487580813608,2977
688.7306631493387,3010
691.0119451279091,2948
693.2926042362834,3009
695.5726406937516,2967
697.8520547196814,2968
700.1308465335215,2959
702.4090163547982,2982
704.6865644031171,2963
706.9634908981619,2842
709.2397960596965,2960
711.5154801075631,2966
713.7905432616823,2929
716.0649857420548,3045
718.3388077687592,2996
720.612009561953,2919
722.8845913418733,2945
725.1565533288352,2953
727.427895743234,2906
729.6986188055427,2937
731.9687227363137,2960
734.238207756178,2970
736.5070740858458,2906
738.7753219461066,2978
741.0429515578281,2846
743.3099631419569,3001
745.5763569195191,2956
747.8421331116193,2973
750.1072919394409,2867
752.3718336242467,2944
754.6357583873777,2996
756.8990664502545,2973
759.1617580343765,3022
761.423833361321,2962
763.6852926527457,2960
765.9461361303862,3087
768.206364016058,3020
770.4659765316536,2921
772.7249738991469,2998
774.9833563405886,2975
777.2411240781092,2893
779.4982773339183,3028
781.7548163303044,3002
784.010741289634,2978
786.2660524343538,3098
788.5207499869881,3038
790.7748341701416,3010
793.0283052064964,3028
795.2811633188143,3075
797.5334087299362,3000
799.7850416627813,2998
802.0360623403484,2999
804.2864709857143,3024
806.5362678220353,3015
808.7854530725468,3047
811.0340269605625,3140
813.2819897094754,3016
815.5293415427581,2974
817.77608268396,2957
820.0222133567116,3040
822.2677337847211,3125
824.5126441917765,2968
826.7569448017433,3101
829.0006358385675,3071
831.2437175262731,3066
833.4861900889629,3021
835.7280537508192,3013
837.9693087361026,3002
840.2099552691533,3080
842.4499935743896,3012
844.689423876309,3022
846.9282463994886,3063
849.1664613685833,3101
851.4040690083276,3032
853.6410695435349,3153
855.877463199097,2971
858.1132501999847,3050
860.3484307712487,3075
862.5830051380175,3090
864.8169735254988,3108
867.0503361589791,3080
869.2830932638243,3141
871.5152450654786,3113
873.7467917894654,3223
875.9777336613873,3113
878.2080709069252,3141
880.4378037518389,3108
882.666932421968,3104
884.8954571432301,3183
887.1233781416219,3148
889.3506956432192,3156
891.5774098741766,3096
893.803521060728,3165
896.0290294291852,3242
898.2539352059397,3244
900.4782386174619,3039
902.7019398903011,3281
904.925039251085,3193
907.147536926521,3229
909.3694331433943,3175
911.59072812857,3099
913.8114221089921,3108
916.0315153116827,3059
918.2510079637437,3187
920.4699002923547,3119
922.6881925247761,3109
924.905884888345,3194
927.1229776104793,3085
929.3394709186747,3182
931.555365040506,3175
933.7706602036275,3146
935.9853566357709,3164
938.1994545647489,3048
940.4129542184515,3159
942.6258558248488,3121
944.8381596119883,3105
947.0498658079974,3065
949.2609746410825,3048
951.4714863395287,3041
953.6814011316998,3041
955.8907192460387,3070
958.0994409110671,3066
960.3075663553858,3098
962.5150958076741,3163
964.7220294966913,3075
966.928367651274,3061
969.1341105003388,3127
971.3392582728806,2997
973.5438111979742,3055
975.747769504772,3047
977.9511334225061,2975
980.153903180487,3006
982.3560790081052,3016
984.5576611348289,2956
986.7586497902058,2951
988.9590452038618,3058
991.158847605503,2897
993.3580572249133,2875
995.5566742919558,2953
997.7546990365728,3007
999.952131688785,3032
1002.1489724786926,2887
1004.3452216364743,2865
1006.5408793923874,2804
1008.7359459767691,2854
1010.9304216200343,2817
1013.1243065526781,2757
1015.3176010052733,2836
1017.510305208472,2809
1019.7024193930064,2755
1021.8939437896848,2746
1024.0848786293977,2811
1026.2752241431122,2801
1028.4649805618747,2749
1030.6541481168115,2783
1032.842727039127,2931
1035.0307175601051,2730
1037.2181199111074,2725
1039.4049343235752,2818
1041.591161029029,2768
1043.7768002590683,2809
1045.9618522453698,2756
1048.1463172196918,2732
1050.3301954138697,2793
1052.513487059818,2755
1054.69619238953,2784
1056.8783116350783,2772
1059.0598450286152,2791
1061.2407928023704,2847
1063.4211551886528,2782
1065.6009324198508,2714
1067.780124728432,2842
1069.9587323469414,2717
1072.1367555080046,2832
1074.314194444325,2794
1076.4910493886855,2773
1078.667320573947,2697
1080.843008233051,2777
1083.0181125990161,2741
1085.1926339049414,2661
1087.3665723840027,2797
1089.5399282694575,2720
1091.7127017946405,2742
1093.8848931929647,2722
1096.0565026979243,2702
1098.2275305430899,2666
1100.3979769621128,2696
1102.567842188722,2612
1104.737126456726,2686
1106.9058300000124,2763
1109.0739530525475,2736
1111.2414958483764,2727
1113.4084586216231,2676
1115.5748416064907,2677
1117.7406450372605,2703
1119.9058691482942,2679
1122.0705141740304,2729
1124.2345803489884,2730
1126.3980679077658,2703
1128.5609770850388,2661
1130.7233081155623,2681
1132.8850612341707,2711
1135.0462366757774,2738
1137.2068346753745,2826
1139.3668554680326,2677
1141.526299288901,2602
1143.68516637321,2692
1145.8434569562655,2661
1148.001171273455,2713
1150.158309560244,2651
1152.3148720521767,2665
1154.470858984876,2703
1156.626270594044,2701
1158.7811071154629,2700
1160.9353687849912,2645
1163.089055838569,2643
1165.242168512213,2703
1167.3947070420209,2718
1169.5466716641677,2665
1171.6980626149075,2677
1173.8488801305748,2558
1175.9991244475814,2640
1178.1487958024186,2642
1180.2978944316555,2674
1182.4464205719428,2650
1184.5943744600072,2606
1186.7417563326567,2643
1188.8885664267755,2646
1191.0348049793297,2621
1193.1804722273619,2656
1195.325568407995,2683
1197.4700937584303,2742
1199.614048515948,2715
1201.7574329179074,2682
1203.900247201746,2637
1206.042491604982,2703
1208.1841663652099,2728
1210.3252717201053,2700
1212.465807907422,2746
1214.6057751649923,2779
1216.7451737307279,2619
1218.8840038426192,2685
1221.0222657387353,2694
1223.1599596572241,2714
1225.2970858363137,2678
1227.4336445143094,2715
1229.5696359295966,2727
1231.705060320639,2742
1233.8399179259786,2725
1235.9742089842384,2725
1238.107933734118,2835
1240.2410924143974,2794
1242.373685263935,2810
1244.5057125216676,2718
1246.6371744266116,2734
1248.7680712178621,2819
1250.898403134593,2828
1253.028170416058,2688
1255.1573733015875,2767
1257.2860120305932,2784
1259.4140868425648,2757
1261.54159797707,2761
1263.6685456737569,2731
1265.7949301723515,2880
1267.9207517126597,2893
1270.046010534565,2788
1272.1707068780306,2773
1274.2948409830983,2861
1276.4184130898889,2793
1278.541423438603,2816
1280.6638722695184,2829
1282.785759822993,2842
1284.9070863394636,2870
1287.0278520594447,2791
1289.1480572235314,2876
1291.2677020723963,2850
1293.3867868467923,2977
1295.5053117875495,2855
1297.623277135579,3007
1299.740683131868,2879
1301.8575300174857,2942
1303.973818033578,2982
1306.0895474213703,2963
1308.2047184221678,2935
1310.3193312773528,2956
1312.4333862283888,3008
1314.5468835168163,2995
1316.659823384255,2898
1318.7722060724045,2973
1320.8840318230418,2993
1322.9953008780249,2962
1325.1060134792888,2991
1327.2161698688478,2875
1329.3257702887959,2922
1331.4348149813054,2946
1333.5433041886276,2940
1335.6512381530933,2989
1337.7586171171101,2911
1339.8654413231675,2968
1341.9717110138317,2954
1344.0774264317488,2932
1346.1825878196432,2951
1348.2871954203192,2964
1350.3912494766587,2974
1352.4947502316231,2933
1354.5976979282532,2965
1356.7000928096686,2935
1358.8019351190665,3022
1360.9032250997243,2873
1363.0039629949988,2922
1365.1041490483235,2899
1367.2037835032133,2996
1369.3028666032606,2940
1371.401398592137,2941
1373.4993797135926,2954
1375.5968102114575,2999
1377.6936903296396,2930
1379.7900203121262,3048
1381.8858004029835,2967
1383.9810308463561,2964
1386.075711886469,2992
1388.1698437676241,3004
1390.2634267342032,2968
1392.356461030667,3062
1394.4489469015557,3063
1396.5408845914872,2997
1398.6322743451592,3051
1400.7231164073469,3081
1402.813411022907,3132
1404.903158436773,3111
1406.9923588939578,3116
1409.0810126395531,3155
1411.1691199187303,3136
1413.2566809767386,3088
1415.343696058907,3050
1417.4301654106425,3100
1419.5160892774315,3094
1421.6014679048399,3138
1423.6863015385125,3138
1425.7705904241707,3144
1427.8543348076178,3205
1429.9375349347342,3082
1432.0201910514802,3151
1434.102303403894,3150
1436.1838722380944,3195
1438.2648978002767,3277
1440.3453803367174,3295
1442.4253200937692,3194
1444.5047173178677,3276
1446.5835722555234,3305
1448.6618851533285,3327
1450.739656257952,3339
1452.8168858161434,3366
1454.8935740747306,3410
1456.96972128062,3433
1459.045327680797,3567
1461.120393522327,3509
1463.1949190523528,3582
1465.2689045180973,3513
1467.3423501668608,3587
1469.415256246024,3665
1471.4876230030463,3637
1473.559450685465,3689
1475.6307395408976,3790
1477.7014898170391,3806
1479.771701761665,3891
1481.8413756226287,4015
1483.9105116478618,3945
1485.9791100853772,3976
1488.0471711832643,3967
1490.1146951896926,4160
1492.1816823529098,4076
1494.2481329212433,4088
1496.3140471430984,4123
1498.3794252669609,4165
1500.4442675413939,4060
1502.5085742150404,4162
1504.572345536622,4202
1506.6355817549388,4327
1508.6982831188702,4361
1510.7604498773744,4317
1512.8220822794883,4370
1514.8831805743293,4409
1516.9437450110909,4430
1519.003775839048,4506
1521.0632733075522,4543
1523.1222376660367,4492
1525.1806691640113,4589
1527.2385680510652,4639
1529.2959345768668,4635
1531.3527689911643,4729
1533.4090715437833,4755
1535.4648424846291,4779
1537.5200820636855,4898
1539.5747905310159,4857
1541.6289681367616,4943
1543.6826151311434,5042
1545.7357317644614,5069
1547.7883182870937,4945
1549.8403749494987,5074
1551.8919020022113,5179
1553.9428996958477,5297
1555.9933682811015,5398
1558.0433080087469,5475
1560.0927191296346,5484
1562.1416018946961,5599
1564.1899565549415,5607
1566.2377833614592,5536
1568.2850825654164,5416
1570.3318544180606,5373
1572.3780991707158,5237
1574.423817074788,5186
1576.4690083817595,4981
1578.5136733431923,4736
1580.5578122107272,4657
1582.601425236085,4441
1584.6445126710646,4398
1586.6870747675434,4255
1588.7291117774776,4061
1590.7706239529034,4008
1592.8116115459347,3941
1594.8520748087658,3927
1596.8920139936686,3786
1598.9314293529933,3643
1600.9703211391711,3619
1603.008689604711,3552
1605.0465350022005,3387
1607.0838575843068,3350
1609.1206576037753,3343
1611.1569353134305,3366
1613.1926909661765,3312
1615.2279248149953,3251
1617.2626371129481,3226
1619.2968281131757,3202
1621.3304980688963,3234
1623.3636472334088,3125
1625.39627586009,3091
1627.428384202396,3115
1629.459972513861,3128
1631.4910410480993,3060
1633.5215900588028,2999
1635.551619799744,3061
1637.5811305247717,3007
1639.6101224878166,2972
1641.6385959428862,2998
1643.6665511440683,2901
1645.693988345528,3005
1647.7209078015112,2914
1649.7473097663405,2979
1651.7731944944203,2947
1653.7985622402307,2914
1655.823413258333,2895
1657.847747803366,2868
1659.8715661300494,2941
1661.8948684931793,2874
1663.9176551476316,2842
1665.9399263483624,2938
1667.9616823504057,2881
1669.982923408873,3006
1672.0036497789574,2980
1674.0238617159293,2978
1676.043559475138,2920
1678.0627433120121,2875
1680.081413482059,2864
1682.0995702408654,2917
1684.117213844096,2934
1686.134344547495,2926
1688.1509626068864,2941
1690.1670682781705,2934
1692.182661817329,2961
1694.1977434804217,2902
1696.2123135235875,2833
1698.226372203043,2892
1700.2399197750851,2935
1702.2529564960905,2941
1704.2654826225112,2882
1706.277498410882,2929
1708.2890041178139,2909
1710.2999999999988,2988
1712.3104863142066,2860
1714.3204633172854,2969
1716.329931266163,2897
1718.3388904178469,2847
1720.3473410294214,2800
1722.3552833580516,2845
1724.3627176609807,2830
1726.3696441955308,2835
1728.3760632191033,2842
1730.3819749891782,2903
1732.3873797633146,2823
1734.3922777991502,2863
1736.3966693544012,2864
1738.4005546868639,2808
1740.4039340544127,2827
1742.406807715001,2739
1744.4091759266616,2846
1746.4110389475054,2861
1748.4123970357223,2876
1750.413250449582,2802
1752.4135994474318,2813
1754.4134442876993,2744
1756.4127852288902,2778
1758.4116225295893,2828
1760.4099564484595,2799
1762.407787244244,2834
1764.405115175764,2791
1766.4019405019203,2781
1768.3982634816916,2852
1770.3940843741357,2721
1772.3894034383907,2761
1774.3842209336717,2711
1776.378537119274,2884
1778.372352254571,2760
1780.3656665990156,2688
1782.3584804121397,2753
1784.3507939535534,2760
1786.3426074829463,2773
1788.3339212600863,2822
1790.3247355448211,2763
1792.3150505970766,2771
1794.3048666768573,2697
1796.2941840442477,2755
1798.2830029594106,2728
1800.2713236825884,2635
1802.2591464741004,2689
1804.2464715943465,2835
1806.2332993038058,2821
1808.2196298630352,2706
1810.2054635326708,2770
1812.190800573428,2700
1814.175641246101,2807
1816.1599858115628,2760
1818.1438345307652,2699
1820.127187664738,2814
1822.1100454745924,2789
1824.092408221516,2801
1826.0742761667766,2833
1828.055649571721,2770
1830.0365286977735,2707
1832.0169138064398,2705
1833.9968051593014,2784
1835.9762030180214,2759
1837.9551076443408,2750
1839.9335193000788,2715
1841.9114382471344,2755
1843.888864747485,2706
1845.8657990631878,2717
1847.842241456378,2742
1849.8181921892697,2678
1851.7936515241558,2706
1853.7686197234098,2764
1855.7430970494815,2724
1857.7170837649014,2710
1859.6905801322787,2672
1861.6635864143004,2738
1863.6361028737338,2767
1865.608129773424,2724
1867.5796673762961,2704
1869.5507159453537,2752
1871.521275743678,2760
1873.4913470344313,2755
1875.4609300808534,2758
1877.4300251462632,2769
1879.3986324940588,2786
1881.366752387717,2899
1883.3343850907936,2730
1885.3015308669228,2763
1887.268189979819,2824
1889.2343626932739,2850
1891.2000492711595,2734
1893.1652499774254,2838
1895.1299650761011,2800
1897.0941948312952,2861
1899.0579395071945,2822
1901.0211993680641,2877
1902.98397467825,2858
1904.9462657021745,2792
1906.9080727043415,2774
1908.869395949332,2767
1910.8302357018065,2844
1912.790592226504,2783
1914.7504657882428,2732
1916.7098566519212,2851
1918.6687650825133,2751
1920.6271913450764,2825
1922.5851357047422,2783
1924.5425984267245,2781
1926.499579776314,2846
1928.4560800188833,2736
1930.4120994198802,2763
1932.367638244833,2832
1934.32269675935,2740
1936.2772752291175,2802
1938.231373919899,2803
1940.1849930975404,2815
1942.1381330279637,2789
1944.0907939771696,2798
1946.0429762112412,2775
1947.9946799963363,2711
1949.9459055986945,2804
1951.896653284633,2750
1953.8469233205478,2795
1955.7967159729142,2703
1957.7460315082863,2842
1959.6948701932974,2854
1961.6432322946594,2772
1963.5911180791632,2727
1965.5385278136787,2856
1967.4854617651545,2795
1969.4319202006182,2739
1971.377903387176,2837
1973.3234115920136,2734
1975.268445082395,2806
1977.2130041256642,2770
1979.1570889892423,2860
1981.1006999406304,2803
1983.04383724741,2856
1984.986501177238,2780
1986.928691997853,2667
1988.8704099770712,2640
1990.811655382789,2814
1992.7524284829801,2725
1994.692729545698,2778
1996.6325588390755,2752
1998.5719166313224,2784
2000.5108031907307,2808
2002.4492187856677,2712
2004.387163684583,2697
2006.3246381560011,2802
2008.2616424685298,2805
2010.1981768908527,2798
2012.1342416917332,2649
2014.069837140014,2729
2016.0049635046162,2732
2017.9396210545406,2737
2019.8738100588666,2844
2021.8075307867502,2708
2023.740783507431,2732
2025.6735684902228,2744
2027.6058860045214,2861
2029.5377363198004,2741
2031.4691197056118,2790
2033.4000364315875,2872
2035.3304867674374,2733
2037.260470982952,2685
2039.189989347998,2859
2041.1190421325232,2774
2043.047629606554,2701
2044.9757520401945,2719
2046.9034097036288,2736
2048.8306028671195,2800
2050.7573318010086,2765
2052.683596775716,2754
2054.609398061742,2727
2056.5347359296647,2746
2058.4596106501403,2788
2060.384022493906,2735
2062.3079717317764,2800
2064.231458634646,2755
2066.1544834734873,2750
2068.077046519352,2752
2069.99914804337,2712
2071.9207883167524,2708
2073.8419676107865,2782
2075.7626861968406,2769
2077.6829443463607,2771
2079.6027423308715,2691
2081.522080421977,2769
2083.440958891362,2687
2085.359378010786,2807
2087.2773380520907,2740
2089.194839287196,2836
2091.111881988101,2775
2093.0284664268825,2824
2094.9445928756973,2774
2096.86026160678,2798
2098.775472892446,2805
2100.690227005088,2767
2102.604524217178,2795
2104.5183648012676,2756
2106.431749029985,2756
2108.34467717604,2818
2110.2571495122206,2938
2112.169166311393,2844
2114.080727846503,2780
2115.9918343905747,2818
2117.902486216711,2781
2119.8126835980956,2687
2121.722426807987,2762
2123.6317161197285,2828
2125.5405518067364,2853
2127.448934142509,2844
2129.356863400624,2744
2131.264339854737,2861
2133.1713637785815,2850
2135.077935445972,2792
2136.9840551308002,2806
2138.889723107037,2864
2140.7949396487334,2823
2142.699705030018,2827
2144.6040195250994,2870
2146.507883408264,2887
2148.4112969538774,2856
2150.3142604363848,2772
2152.2167741303097,2857
2154.1188383102535,2835
2156.0204532508997,2879
2157.9216192270064,2805
2159.822336513414,2833
2161.7226053850413,2845
2163.622426116884,2806
2165.5217989840185,2905
2167.4207242616,2785
2169.319202224862,2853
2171.2172331491165,2893
2173.1148173097563,2908
2175.0119549822507,2859
2176.90864644215,2970
2178.8048919650823,2866
2180.7006918267534,2914
2182.596046302952,2896
2184.4909556695407,2836
2186.3854202024645,2819
2188.279440177746,2899
2190.173015871487,2860
2192.066147559868,2814
2193.958835519149,2867
2195.851080025667,2918
2197.7428813558417,2863
2199.6342397861667,2900
2201.5251555932186,2929
2203.415629053651,2888
2205.3056604441986,2860
2207.19525004167,2968
2209.084398122958,2869
2210.9731049650327,2943
2212.861370844941,2931
2214.749196039812,2937
2216.636580826851,2931
2218.523525483344,2988
2220.410030286655,2868
2222.296095514226,3047
2224.1817214435805,2921
2226.066908352319,2928
2227.951656518121,2997
2229.835966218746,2950
2231.71983773203,2974
2233.6032713358913,2918
2235.486267308324,2915
2237.3688259274036,2973
2239.2509474712824,2971
2241.132632218193,3038
2243.013880446447,3034
2244.8946924344323,2966
2246.7750684606203,2900
2248.6550088035574,2901
2250.534513741871,2961
2252.413583554265,2914
2254.292218519526,2865
2256.170418916517,2913
2258.0481850241786,2887
2259.925517121534,2956
2261.8024154876825,2944
2263.678880401803,2986
2265.5549121431536,2962
2267.430510991071,3003
2269.305677224971,2802
2271.180411124348,2944
2273.0547129687766,2876
2274.9285830379076,2931
2276.8020216114737,2944
2278.6750289692845,2928
2280.5476053912294,2872
2282.4197511572766,2946
2284.2914665474727,2963
2286.162751841943,2930
2288.0336073208937,2932
2289.904033264608,3074
2291.774029953448,2897
2293.6435976678554,2892
2295.5127366883517,2963
2297.381447295534,2907
2299.2497297700825,2857
2301.1175843927526,2906
2302.9850114443825,2840
2304.852011205885,2772
2306.7185839582553,2708
2308.5847299825664,2804
2310.4504495599676,2689
2312.3157429716925,2717
2314.1806104990483,2764
2316.0450524234247,2724
2317.9090690262888,2754
2319.772660589186,2766
2321.635827393742,2687
2323.498569721661,2675
2325.3608878547248,2757
2327.2227820747967,2701
2329.0842526638157,2692
2330.945299903803,2651
2332.805924076857,2764
2334.6661254651535,2703
2336.525904350951,2674
2338.3852610165827,2702
2340.244195744464,2678
2342.102708817088,2702
2343.9608005170253,2697
2345.8184711269287,2729
2347.675720929526,2696
2349.532550207628,2658
2351.38895924412,2745
2353.24494832197,2652
2355.100517724223,2723
2356.955667734004,2807
2358.810398634514,2652
2360.664710709037,2788
2362.5186042409337,2731
2364.3720795136437,2663
2366.225136810686,2745
2368.0777764156583,2700
2369.929998612237,2634
2371.7818036841777,2824
2373.633191915315,2757
2375.484163589562,2766
2377.3347189909114,2709
2379.184858403434,2788
2381.03458211128,2869
2382.8838903986775,2757
2384.732783549936,2760
2386.5812618494406,2791
2388.4293255816588,2782
2390.2769750311327,2728
2392.1242104824883,2733
2393.971032220427,2713
2395.8174405297295,2722
2397.6634356952563,2779
2399.509018001947,2713
2401.3541877348193,2714
2403.1989451789705,2765
2405.043290619576,2779
2406.8872243418905,2751
2408.730746631247,2758
2410.5738577730594,2759
2412.4165580528183,2713
2414.258847756095,2752
2416.100727168537,2724
2417.9421965758734,2783
2419.783256263912,2826
2421.623906518538,2789
2423.4641476257157,2752
2425.303979871491,2818
2427.143403541984,2746
2428.9824189233977,2731
2430.821026302012,2748
2432.6592259641866,2813
2434.497018196361,2707
2436.33440328505,2761
2438.171381516851,2844
2440.00795317844,2735
2441.844118556569,2820
2443.6798779380724,2811
2445.5152316098606,2794
2447.3501798589255,2763
2449.1847229723357,2775
2451.0188612372403,2822
2452.8525949408663,2818
2454.6859243705203,2853
2456.518849813587,2798
2458.3513715575314,2806
2460.183489889895,2771
2462.015205098301,2681
2463.8465174704493,2730
2465.67742729412,2830
2467.5079348571717,2725
2469.338040447542,2732
2471.1677443532476,2890
2472.9970468623833,2792
2474.825948263123,2784
2476.6544488437207,2801
2478.482548892508,2818
2480.310248697896,2804
2482.137548548374,2742
2483.9644487325118,2780
2485.790949538956,2766
2487.617051256433,2739
2489.44275417375,2876
2491.26805857979,2721
2493.0929647635157,2808
2494.917473013971,2861
2496.741583620276,2868
2498.5652968716304,2788
2500.3886130573137,2767
2502.2115324666834,2883
2504.0340553891765,2827
2505.856182114308,2855
2507.6779129316733,2844
2509.499248130945,2791
2511.3201880018764,2869
2513.140732834298,2810
2514.9608829181198,2953
2516.780638543331,2815
2518.6,2783
2520.418967578273,2818
2522.237541568376,2782
2524.0557222606144,2868
2525.8735099453706,2863
2527.6909049131086,2896
2529.507907454368,2827
2531.32451785977,2880
2533.140736420014,2925
2534.9565634258774,2912
2536.771999168218,2907
2538.5870439379714,3013
2540.4016980261526,2924
2542.2159617238544,2857
2544.02983532225,2972
2545.8433191125914,3014
2547.656413386209,2976
2549.4691184345115,2972
2551.2814345489874,2885
2553.093362021204,3062
2554.904901142808,2990
2556.716052205523,2958
2558.526815501153,2954
2560.3371913215824,3037
2562.147179958771,2936
2563.956781704761,2949
2565.7659968516705,3031
2567.5748256916986,3114
2569.3832685171224,3011
2571.1913256202984,3053
2572.9989972936614,3055
2574.806283829725,2996
2576.613185521084,2946
2578.4197026604074,3066
2580.2258355404483,3089
2582.031584454035,3069
2583.836949694077,3083
2585.6419315535613,3167
2587.4465303255533,3062
2589.2507463032002,3165
2591.0545797797245,3034
2592.8580310484303,3058
2594.6611004026995,3091
2596.463788135992,3136
2598.266094541849,3093
2600.0680199138874,3140
2601.869564545807,3188
2603.670728731383,3138
2605.4715127644704,3220
2607.2719169390048,3149
2609.071941548998,3092
2610.8715868885433,3236
2612.670853251811,3154
2614.469740933052,3098
2616.268250226594,3137
2618.0663814268455,3199
2619.864134828292,3116
2621.6615107255006,3202
2623.458509413115,3083
2625.2551311858597,3097
2627.0513763385347,3096
2628.8472451660223,3121
2630.6427379632833,3092
2632.4378550253564,3015
2634.232596647359,3099
2636.026963124488,2961
2637.8209547520187,3036
2639.6145718253065,2990
2641.407814639785,3063
2643.200683490966,3004
2644.9931786744414,2996
2646.7853004858807,3013
2648.577049221034,2968
2650.3684251757277,3034
2652.1594286458712,2842
2653.9500599274484,2911
2655.740319316525,2849
2657.5302071092437,3024
2659.3197236018286,2893
2661.10886909058,2927
2662.8976438718782,2938
2664.686048242183,2892
2666.4740824980327,2751
2668.2617469360443,2923
2670.0490418529134,2797
2671.8359675454153,2788
2673.622524310403,2774
2675.408712444811,2842
2677.1945322456495,2721
2678.979984010009,2802
2680.76506803506,2824
2682.5497846180497,2768
2684.334134056306,2883
2686.1181166472343,2708
2687.9017326883213,2757
2689.6849824771293,2720
2691.4678663113013,2762
2693.2503844885596,2757
2695.032537306705,2690
2696.8143250636167,2798
2698.5957480572542,2697
2700.3768065856534,2674
2702.1575009469316,2664
2703.937831439283,2693
2705.717798360982,2660
2707.4974020103837,2655
2709.276642685917,2753
2711.055520686095,2712
2712.834036309506,2686
2714.612189854819,2688
2716.389981620782,2717
2718.1674119062204,2698
2719.944481010041,2628
2721.721189231226,2539
2723.4975368688415,2628
2725.273524222027,2689
2727.0491515900053,2657
2728.824419272075,2658
2730.5993275676146,2695
2732.3738767760838,2696
2734.148067197016,2702
2735.921899130031,2616
2737.6953728748194,2572
2739.468488731156,2645
2741.2412469988926,2606
2743.0136479779617,2644
2744.785691968372,2576
2746.5573792702116,2586
2748.3287101836504,2619
2750.099685008934,2635
2751.870304046388,2622
2753.640567596418,2590
2755.4104759595057,2647
2757.1800294362156,2607
2758.949228327187,2606
2760.7180729331412,2671
2762.486563554877,2683
2764.254700493272,2586
2766.022484049284,2657
2767.789914523947,2625
2769.5569922183786,2607
2771.3237174337705,2634
2773.090090471394,2643
2774.8561116326036,2619
2776.6217812188274,2553
2778.3870995315756,2605
2780.1520668724356,2623
2781.9166835430747,2636
2783.6809498452394,2551
2785.444866080754,2686
2787.2084325515225,2560
2788.971649559527,2597
2790.73451740683,2553
2792.4970363955713,2597
2794.2592068279705,2596
2796.0210290063264,2693
2797.7825032330147,2606
2799.543629810493,2573
2801.304409041296,2559
2803.0648412280366,2666
2804.8249266734088,2662
2806.5846656801846,2577
2808.344058551212,2624
2810.1031055894246,2628
2811.8618070978273,2543
2813.6201633795085,2562
2815.378174737636,2560
2817.1358414754536,2617
2818.893163896285,2635
2820.6501423035334,2625
2822.4067770006814,2594
2824.1630682912883,2627
2825.9190164789957,2634
2827.6746218675207,2548
2829.429884760661,2466
2831.184805462294,2642
2832.9393842763743,2600
2834.693621506936,2656
2836.4475174580916,2569
2838.201072434034,2607
2839.954286739034,2589
2841.707160677441,2601
2843.459694553685,2658
2845.2118886722724,2607
2846.96374333779,2565
2848.7152588549034,2568
2850.4664355283567,2642
2852.217273662973,2704
2853.9677735636546,2587
2855.7179355353833,2624
2857.4677598832186,2659
2859.217246912299,2592
2860.9663969278427,2622
2862.715210235146,2633
2864.4636871395846,2574
2866.211827946614,2557
2867.9596329617652,2672
2869.7071024906536,2533
2871.4542368389684,2590
2873.20103631248,2532
2874.947501217038,2525
2876.6936318585695,2538
2878.4394285430812,2602
2880.1848915766604,2553
2881.9300212654707,2635
2883.6748179157553,2586
2885.4192818338374,2560
2887.1634133261173,2519
2888.907212699077,2575
2890.6506802592744,2571
2892.393816313348,2672
2894.1366211680142,2609
2895.8790951300693,2614
2897.621238506388,2623
2899.363051603925,2589
2901.1045347297118,2594
2902.8456881908596,2568
2904.58651229456,2622
2906.327007348081,2571
2908.067173658772,2581
2909.8070115340597,2546
2911.5465212814497,2483
2913.285703208527,2541
2915.0245576229563,2576
2916.7630848324807,2551
2918.5012851449196,2516
2920.2391588681758,2551
2921.976706310227,2539
2923.7139277791334,2452
2925.4508235830313,2619
2927.187394030137,2545
2928.923639428745,2537
2930.6595600872306,2579
2932.395156314046,2610
2934.1304284177218,2542
2935.8653767068713,2547
2937.6000014901815,2689
2939.3343030764227,2591
2941.068281774442,2558
2942.8019378931644,2634
2944.5352717415976,2576
2946.2682836288236,2603
2948.0009738640065,2699
2949.7333427563885,2681
2951.465390615289,2605
2953.1971177501086,2638
2954.9285244703265,2527
2956.6596110855,2521
2958.3903779052657,2617
2960.1208252393385,2546
2961.8509533975125,2595
2963.5807626896617,2528
2965.3102534257378,2637
2967.0394259157715,2590
2968.768280469873,2579
2970.496817398232,2584
2972.2250370111146,2496
2973.952939618869,2591
2975.6805255319196,2577
2977.4077950607707,2582
2979.134748516006,2566
2980.861386208289,2651
2982.587708448359,2586
2984.313715547037,2535
2986.039407815222,2557
2987.764785563891,2587
2989.489849104102,2621
2991.2145987469908,2605
2992.9390348037705,2640
2994.6631575857346,2525
2996.3869674042576,2574
2998.1104645707887,2563
2999.83364939686,2626
3001.5565221940783,2553
3003.2790832741334,2554
3005.0013329487924,2602
3006.7232715298996,2510
3008.4448993293804,2538
3010.166216659239,2560
3011.887223831558,2541
3013.607921158498,2521
3015.3283089522993,2514
3017.0483875252826,2596
3018.7681571898443,2622
3020.4876182584626,2541
3022.2067710436927,2549
3023.9256158581707,2561
3025.644153014609,2493
3027.362382825801,2493
3029.0803056046193,2587
3030.797921664012,2539
3032.5152313170106,2541
3034.2322348767225,2519
3035.9489326563353,2591
3037.665324969115,2630
3039.3814121284063,2568
3041.097194447633,2566
3042.812672240299,2472
3044.5278458199855,2569
3046.2427155003525,2553
3047.9572815951406,2528
3049.671544418167,2533
3051.38550428333,2556
3053.0991615046073,2547
3054.812516396051,2553
3056.5255692717974,2606
3058.2383204460575,2581
3059.9507702331257,2519
3061.662918947372,2578
3063.3747669032446,2572
3065.0863144152736,2652
3066.7975617980674,2582
3068.508509366309,2576
3070.219157434767,2577
3071.9295063182844,2553
3073.639556331785,2561
3075.3493077902704,2621
3077.058761008821,2596
3078.7679163025964,2568
3080.476773986837,2609
3082.1853343768594,2648
3083.89359778806,2581
3085.6015645359153,2586
3087.3092349359786,2657
3089.016609303884,2570
3090.7236879553434,2666
3092.4304712061476,2564
3094.136959372166,2586
3095.843152769349,2565
3097.5490517137237,2637
3099.2546565213966,2632
3100.959967508554,2549
3102.66498499146,2599
3104.3697092864577,2568
3106.0741407099695,2573
3107.778279578498,2643
3109.482126208622,2664
3111.1856809170004,2685
3112.8889440203716,2608
3114.5919158355528,2575
3116.294596679439,2693
3117.996986869006,2500
3119.6990867213062,2533
3121.4008965534726,2661
3123.102416682717,2638
3124.803647426329,2680
3126.5045891016784,2708
3128.205242026213,2682
3129.90560651746,2609
3131.605682893025,2667
3133.3054714705922,2640
3135.0049725679282,2575
3136.7041865028714,2654
3138.4031135933465,2683
3140.101754157353,2691
3141.800108512971,2628
3143.498176978357,2687
3145.1959598717494,2674
3146.8934575114636,2611
3148.5906702158954,2603
3150.2875983035183,2563
3151.9842420928853,2608
3153.680601902627,2570
3155.376678051456,2610
3157.07247085816,2551
3158.767980641609,2584
3160.463207720748,2525
3162.158152414606,2552
3163.8528150422862,2752
3165.5471959229726,2639
3167.2412953759303,2649
3168.9351137204976,2606
3170.628651276098,2655
3172.3219083622307,2614
3174.014885298474,2576
3175.707582404485,2587
3177.4000000000005,2574
3179.092138404835,2639
3180.7839979388846,2640
3182.47557892212,2624
3184.166881674594,2543
3185.8579065164386,2586
3187.5486537678626,2607
3189.2391237491547,2617
3190.9293167806827,2615
3192.6192331828934,2629
3194.3088732763117,2663
3195.998237381542,2561
3197.687325819268,2511
3199.376138910251,2588
3201.064676975334,2621
3202.7529403354347,2614
3204.4409293115523,2506
3206.1286442247647,2558
3207.816085396229,2561
3209.5032531471825,2536
3211.190147798936,2566
3212.8767696728846,2529
3214.5631190905015,2603
3216.2491963733373,2516
3217.9350018430214,2534
3219.6205358212637,2475
3221.305798629851,2524
3222.990790590651,2498
3224.6755120256103,2507
3226.359963256751,2430
3228.0441446061795,2505
3229.7280563960758,2497
3231.411698948703,2540
3233.0950725863995,2526
3234.778177631587,2550
3236.461014406761,2576
3238.1435832345005,2648
3239.8258844374595,2636
3241.507918338374,2568
3243.1896852600576,2503
3244.8711855254023,2617
3246.552419457381,2596
3248.233387379042,2499
3249.914089613516,2590
3251.59452648401,2596
3253.274698313813,2610
3254.95460542629,2523
3256.6342481448855,2559
3258.313626793125,2578
3259.9927416946084,2507
3261.6715931730196,2468
3263.3501815521176,2580
3265.0285071557437,2549
3266.706570307815,2440
3268.3843713323286,2615
3270.0619105533615,2530
3271.739188295068,2601
3273.4162048816834,2578
3275.0929606375184,2566
3276.769455886966,2561
3278.445690954498,2504
3280.1216661646613,2602
3281.797381842087,2543
3283.4728383114807,2545
3285.1480358976296,2575
3286.8229749253996,2489
3288.4976557197333,2526
3290.172078605655,2521
3291.846243908266,2512
3293.5201519527463,2545
3295.193803064357,2550
3296.8671975684374,2476
3298.5403357904024,2586
3300.21321805575,2534
3301.8858446900567,2475
3303.558216018975,2615
3305.23033236824,2502
3306.9021940636603,2565
3308.57380143113,2575
3310.2451547966184,2527
3311.916254486174,2647
3313.5871008259246,2561
3315.2576941420766,2600
3316.9280347609147,2525
3318.5981230088046,2560
3320.2679592121895,2515
3321.9375436975924,2536
3323.606876791612,2532
3325.27595882093,2541
3326.944790112305,2503
3328.6133709925753,2516
3330.2817017886573,2497
3331.949782827547,2496
3333.617614436319,2517
3335.2851969421245,2488
3336.952530672199,2481
3338.619615953853,2545
3340.286453114475,2553
3341.9530424815357,2547
3343.619384382583,2614
3345.2854791452437,2561
3346.951327097224,2473
3348.6169285663073,2596
3350.2822838803577,2573
3351.947393367319,2544
3353.61225735521,2593
3355.2768761721345,2580
3356.9412501462693,2526
3358.605379605873,2507
3360.2692648792827,2603
3361.9329062949146,2599
3363.596304181263,2554
