CollectionTime,7/9/2024 1:20:34 PM
ExposureUsed,3
CalibratedSpectrum
-962.7078968117929,687
-959.9714848408522,702
-957.2358232597828,736
-954.5009119013725,749
-951.7667505983302,736
-949.0333391832855,740
-946.3006774887896,747
-943.5687653473143,737
-940.837602591253,751
-938.1071890529199,719
-935.3775245645503,688
-932.6486089583007,704
-929.9204420662485,727
-927.1930237203925,767
-924.4663537526524,757
-921.7404319948689,742
-919.0152582788041,722
-916.2908324361409,806
-913.5671542984834,808
-910.8442236973568,767
-908.1220404642074,753
-905.4006044304027,735
-902.679915427231,676
-899.959973285902,759
-897.2407778375464,726
-894.5223289132158,729
-891.8046263438832,710
-889.0876699604426,757
-886.3714595937089,724
-883.6559950744183,762
-880.9412762332282,691
-878.2273029007168,738
-875.5140749073835,722
-872.8015920836489,761
-870.0898542598545,788
-867.3788612662631,717
-864.6686129330585,730
-861.9591090903457,749
-859.2503495681506,764
-856.5423341964203,774
-853.8350628050229,744
-851.1285352237478,737
-848.4227512823054,773
-845.7177108103272,785
-843.0134136373656,761
-840.3098595928943,749
-837.6070485063082,805
-834.9049802069229,809
-832.2036545239757,796
-829.5030712866244,777
-826.8032303239481,779
-824.1041314649472,740
-821.4057745385428,779
-818.7081593735775,748
-816.0112857988148,770
-813.3151536429393,758
-810.6197627345566,770
-807.9251129021936,767
-805.2312039742981,762
-802.5380357792392,784
-799.8456081453069,801
-797.1539209007124,791
-794.462973873588,833
-791.772766891987,813
-789.083299783884,787
-786.3945723771743,767
-783.7065844996748,811
-781.0193359791231,771
-778.3328266431781,766
-775.6470563194197,777
-772.9620248353489,799
-770.2777320183878,780
-767.5941776958798,829
-764.9113616950891,822
-762.2292838432011,855
-759.5479439673222,778
-756.8673418944801,795
-754.1874774516235,797
-751.5083504656222,818
-748.8299607632671,838
-746.15230817127,854
-743.475392516264,812
-740.7992136248035,849
-738.1237713233636,836
-735.4490654383407,868
-732.7750957960521,811
-730.1018622227365,877
-727.4293645445534,872
-724.7576025875837,830
-722.0865761778291,863
-719.4162851412126,867
-716.7467293035781,897
-714.0779084906909,852
-711.409822528237,893
-708.7424712418238,893
-706.0758544569796,892
-703.4099719991541,903
-700.7448236937178,896
-698.0804093659622,941
-695.4167288411002,886
-692.7537819442656,900
-690.0915685005134,922
-687.4300883348199,894
-684.7693412720819,897
-682.1093271371178,915
-679.4500457546669,902
-676.7914969493897,915
-674.1336805458676,923
-671.4765963686034,933
-668.8202442420206,897
-666.1646239904642,932
-663.5097354382001,936
-660.8555784094151,898
-658.2021527282176,917
-655.5494582186366,937
-652.8974947046223,929
-650.2462620100463,942
-647.5957599587009,939
-644.9459883742998,930
-642.2969470804776,982
-639.6486359007902,950
-637.0010546587141,991
-634.3542031776476,964
-631.7080812809096,947
-629.0626887917401,929
-626.4180255333008,993
-623.7740913286734,930
-621.1308860008619,976
-618.4884093727904,948
-615.8466612673046,943
-613.2056415071715,1023
-610.5653499150785,950
-607.9257863136347,922
-605.28695052537,992
-602.6488423727357,931
-600.0114616781036,946
-597.3748082637674,992
-594.7388819519412,943
-592.1036825647604,951
-589.4692099242818,964
-586.8354638524829,992
-584.2024441712624,987
-581.5701507024403,959
-578.9385832677575,982
-576.3077416888759,968
-573.6776257873787,1012
-571.0482353847704,951
-568.4195703024757,941
-565.7916303618415,994
-563.164415384135,965
-560.5379251905453,973
-557.9121596021815,985
-555.2871184400748,951
-552.6628015251767,961
-550.0392086783606,1014
-547.4163397204204,1000
-544.794194472071,1010
-542.1727727539491,992
-539.5520743866118,1000
-536.9320991905377,1019
-534.3128469861261,1079
-531.6943175936979,1015
-529.0765108334947,1090
-526.4594265256793,1160
-523.8430644903358,1275
-521.2274245474689,1308
-518.612506517005,1384
-515.9983102187913,1402
-513.3848354725959,1367
-510.77208209810846,1432
-508.16004991493924,1483
-505.5487387426199,1625
-502.9381484006032,1748
-500.3282787082628,1772
-497.71912948489364,1768
-495.1107005497117,1672
-492.5029917218539,1466
-489.8960028203786,1390
-487.28973366426493,1276
-484.68418407241325,1250
-482.07935386364494,1164
-479.47524285670266,1178
-476.87185087025,1160
-474.2691777228715,1166
-471.66722323307334,1202
-469.0659872192821,1174
-466.4654694998459,1207
-463.86566989303384,1193
-461.26658821703614,1182
-458.66822428996414,1155
-456.07057792985,1206
-453.4736489546475,1139
-450.877437182231,1154
-448.28194243039627,1198
-445.68716451686,1151
-443.09310325926003,1163
-440.49975847515555,1157
-437.9071299820263,1176
-435.31521759727354,1148
-432.72402113821954,1118
-430.13354042210767,1167
-427.5437752661022,1174
-424.95472548728867,1181
-422.36639090267386,1159
-419.7787713291855,1187
-417.1918665836721,1256
-414.60567648290385,1278
-412.0202008435715,1219
-409.4354394822874,1224
-406.8513922155845,1270
-404.26805885991723,1252
-401.685439231661,1248
-399.103533147112,1212
-396.522340422488,1209
-393.9418608739278,1236
-391.3620943174908,1210
-388.7830405691583,1185
-386.2046994448317,1124
-383.6270707603344,1072
-381.05015433141045,982
-378.473949973725,937
-375.8984575028645,831
-373.32367673433623,777
-370.74960748356875,699
-368.1762495659117,640
-365.60360279663576,616
-363.03166699093265,579
-360.4604419639154,545
-357.8899275306178,526
-355.32012350599507,468
-352.7510297049233,483
-350.1826459421999,446
-347.61497203254316,453
-345.04800779059235,444
-342.4817530309082,451
-339.91620756797226,459
-337.35137121618743,469
-334.7872437898774,453
-332.22382510328725,469
-329.66111497058273,464
-327.09911320585127,465
-324.53781962310075,452
-321.9772340362607,501
-319.4173562591816,446
-316.8581861056348,441
-314.2997233893127,473
-311.7419679238294,482
-309.1849195227194,473
-306.62857799943856,497
-304.0729431673641,526
-301.51801483979375,521
-298.963792829947,509
-296.41027695096386,507
-293.85746701590574,535
-291.3053628377552,565
-288.7539642294155,545
-286.2032710037115,500
-283.65328297338897,507
-281.1039999511146,531
-278.5554217494762,539
-276.007548180983,513
-273.4603790580651,550
-270.9139141930734,549
-268.3681533982807,535
-265.8230964858798,550
-263.27874326798565,579
-260.7350935566336,576
-258.1921471637804,586
-255.6499039013039,582
-253.10836358100266,604
-250.56752601459698,577
-248.02739101372765,594
-245.48795838995704,606
-242.94922795476816,575
-240.41119951956557,574
-237.8738728956746,635
-235.33724789434166,674
-232.80132432673452,622
-230.2661020039418,580
-227.73158073697357,615
-225.19776033676033,663
-222.66464061415422,680
-220.1322213799284,605
-217.60050244477725,585
-215.06948361931552,622
-212.53916471408013,594
-210.00954553952818,677
-207.48062590603843,668
-204.9524056239104,688
-202.4248845033651,704
-199.8980623545441,710
-197.37193898751036,678
-194.84651421224817,676
-192.32178783866232,654
-189.79775967657952,685
-187.27442953574644,700
-184.7517972258321,731
-182.2298625564256,725
-179.7086253370378,669
-177.18808537710026,665
-174.66824248596583,663
-172.14909647290835,700
-169.6306471471229,774
-167.11289431772548,778
-164.59583779375328,722
-162.07947738416453,797
-159.5638128978386,784
-157.04884414357605,906
-154.53457093009854,978
-152.02099306604828,883
-149.50811035998936,778
-146.99592262040665,793
-144.48442965570587,918
-141.97363127421409,870
-139.46352728417958,954
-136.95411749377126,1116
-134.44540171107985,1052
-131.93737974411636,847
-129.43005140081357,842
-126.92341648902493,1215
-124.41747481652521,1650
-121.91222619101006,2082
-119.40767042009657,2458
-116.90380731132257,2794
-114.40063667214702,2610
-111.8981583099503,2284
-109.3963720320337,1732
-106.89527764561933,1743
-104.39487495785067,2094
-101.89516377579241,2841
-99.39614390642998,4276
-96.89781515667039,4816
-94.40017733334128,4397
-91.90323024319173,3674
-89.40697369289148,3115
-86.91140748903172,3237
-84.41653143812482,3653
-81.92234534660395,3653
-79.42884902082358,3476
-76.93604226705907,4182
-74.4439248915071,5525
-71.95249670028534,8184
-69.46175749943245,9583
-66.97170709490854,10345
-64.48234529259423,9298
-61.99367189829195,8573
-59.50568671772464,7254
-57.01838955653636,5405
-54.53178022029283,5216
-52.045858514480074,5751
-49.560624244506016,6287
-47.07607721569923,6761
-44.59221723330904,7297
-42.10904410250669,7869
-39.62655762838392,7088
-37.14475761595372,6825
-34.66364387015028,7780
-32.18321619582866,8310
-29.70347439776515,8463
-27.224418280657005,9068
-24.74604764912317,9477
-22.26836230770266,12970
-19.7913620608565,22401
-17.315046712966478,38442
-14.83941606833514,51121
-12.36446993118659,65038
-9.89020810566592,65038
-7.416630395839093,65038
-4.94373660569363,65038
-2.471526539137585,65038
-6.821210263296962E-13,65038
2.47084320796705,65038
4.941003281093458,65038
7.410480415786196,65038
9.879274808531363,65038
12.347386655893956,65038
14.814816154518212,65038
17.28156350112681,65038
19.74762889252179,65038
22.21301252558385,65038
24.67771459727237,21090
27.141735304626195,4060
29.605074844762612,2372
32.06773341487792,1930
34.52971121224755,1648
36.99100843422559,1676
39.45162527824516,1854
41.91156194181792,1741
44.370818622535126,1443
46.82939551806646,1184
49.287292826160524,1235
51.74451074464503,1311
54.201049471426245,1223
56.65690920448981,1162
59.112090141899785,1109
61.56659248179983,1067
64.02041642241159,915
66.4735621620365,874
68.92602989905402,987
71.37781983192338,940
73.82893215918205,992
76.27936707944684,1026
78.72912479141326,1045
81.17820549385567,1070
83.62660938562783,960
86.07433666566146,1060
88.5213875329681,958
90.96776218663751,860
93.41346082583925,880
95.85848364982041,926
98.30283085790859,1053
100.7465026495089,963
103.18949922410604,927
105.63182078126385,892
108.07346752062438,996
110.51443964190923,917
112.95473734491827,951
115.39436082953114,904
117.83331029570547,814
120.27158594347827,850
122.7091879729652,859
125.1461165843615,1001
127.58237197794062,1049
130.01795435405518,867
132.4528639131364,790
134.88710085569494,870
137.32066538231982,836
139.75355769367923,816
142.1857779905207,830
144.61732647366978,845
147.04820334403132,825
149.47840880258934,933
151.90794305040674,994
154.33680628862487,1069
156.76499871846443,1265
159.19252054122433,1444
161.61937195828352,1622
164.04555317109896,1773
166.47106438120693,2014
168.89590579022217,2102
171.320077599839,2370
173.7435800118302,2506
176.16641322804742,2524
178.58857745042144,2639
181.01007288096173,2676
183.43089972175687,2817
185.85105817497413,2766
188.27054844285988,2774
190.6893707277394,2770
193.10752523201643,2831
195.5250121581745,2989
197.9418317087751,3037
200.3579840864594,3113
202.7734694939469,3124
205.18828813403627,3101
207.6024402096051,3133
210.01592592360964,3165
212.42874547908548,3253
214.84089907914665,3131
217.2523869269868,3097
219.66320922587727,3124
222.0733661791695,3111
224.48285799029293,3101
226.8916848627572,3075
229.29984700014882,3139
231.7073446061355,3216
234.11417788446204,3232
236.520347038953,3250
238.92585227351185,3404
241.33069379212054,3343
243.73487179884035,3505
246.1383864978112,3523
248.541238093252,3499
250.9434267894609,3471
253.34495279081432,3586
255.74581630176783,3621
258.1460175268563,3702
260.54555667069314,3670
262.9444339379703,3535
265.3426495334594,3535
267.7402036620107,3364
270.1370965285529,3318
272.53332833809407,3223
274.9288992957214,3088
277.32380960660055,3012
279.718059475976,3005
282.1116491091717,2990
284.5045787115897,2879
286.89684848871195,2967
289.2884586460981,3045
291.67940938938807,2979
294.0697009242996,3057
296.4593334566299,2962
298.84830719225477,3024
301.23662233712923,2897
303.6242790972866,2876
306.01127767884,2944
308.39761828798066,2925
310.78330113097934,2856
313.16832641418534,2747
315.5526943440269,2741
317.9364051270112,2765
320.3194589697242,2711
322.70185607883093,2751
325.0835966610754,2706
327.4646809232805,2621
329.8451090723478,2569
332.2248813152577,2592
334.6039978590701,2654
336.9824589109231,2547
339.36026467803447,2643
341.7374153677,2557
344.113911187295,2582
346.48975234427337,2594
348.8649390461686,2540
351.2394715005918,2543
353.61334991523415,2572
355.9865744978655,2505
358.35914545633375,2550
360.73106299856715,2552
363.10232733257146,2500
365.47293866643247,2506
367.84289720831396,2452
370.2122031664593,2398
372.5808567491905,2529
374.9488581649083,2471
377.31620762209275,2456
379.6829053293021,2425
382.0489514951745,2445
384.4143463284262,2402
386.7790900378528,2457
389.14318283232853,2451
391.50662492080653,2531
393.86941651231916,2475
396.23155781597745,2446
398.5930490409713,2362
400.9538903965696,2466
403.3140820921202,2476
405.6736243370498,2429
408.03251734086336,2434
410.3907613131465,2380
412.74835646356166,2394
415.10530300185144,2379
417.4616011378372,2345
419.81725108141893,2389
422.1722530425758,2350
424.5266072313656,2365
426.880313857925,2355
429.2333731324701,2403
431.58578526529516,2339
433.9375504667738,2420
436.2886689473588,2413
438.63914091758113,2418
440.9889665880513,2346
443.33814616945835,2353
445.68667987257015,2280
448.03456790823395,2285
450.3818104873759,2280
452.72840782100013,2335
455.07436012019105,2323
457.41966759611057,2268
459.7643304600007,2297
462.10834892318155,2409
464.4517231970525,2320
466.79445349309174,2344
469.1365400228566,2351
471.4779829979826,2358
473.81878263018564,2348
476.15893913125876,2310
478.4984527130747,2374
480.8373235875855,2442
483.17555196682144,2453
485.5131380628919,2569
487.8500820879857,2542
490.1863842543697,2688
492.52204477439034,2762
494.8570638604725,2972
497.1914417251204,3260
499.52517858091653,3427
501.85827464052306,3814
504.19073011668036,3942
506.5225452222086,3801
508.85372017000566,3840
511.18425517304956,3804
513.514150444396,3897
515.8434061971808,4463
518.1720226446176,5386
520.4999999999999,5567
522.8273384766991,5186
525.1540382881666,4828
527.480099647932,4202
529.8055227696037,3568
532.1303078668694,2979
534.454455153496,2729
536.777964843328,2677
539.1008371502907,2577
541.4230722883866,2511
543.744670471698,2476
546.0656319143858,2504
548.3859568306899,2449
550.7056454349294,2476
553.0246979415016,2454
555.3431145648834,2389
557.6608955196306,2398
559.978041020377,2386
562.2945512818363,2398
564.6104265188006,2419
566.9256669461412,2412
569.2402727788082,2308
571.5542442318302,2473
573.8675815203156,2508
576.1802848594508,2390
578.4923544645015,2474
580.8037905508126,2422
583.114593333807,2445
585.4247630289875,2468
587.7342998519354,2415
590.0432040183106,2423
592.3514757438526,2417
594.6591152443794,2503
596.9661227357875,2442
599.2724984340531,2446
601.578242555231,2466
603.8833553154542,2544
606.1878369309362,2474
608.4916876179676,2434
610.7949075929192,2420
613.0974970722403,2412
615.3994562724587,2443
617.7007854101818,2401
620.0014847020951,2315
622.3015543649641,2382
624.6009946156324,2417
626.8998056710224,2341
629.1979877481361,2436
631.4955410640538,2450
633.7924658359349,2378
636.0887622810175,2428
638.3844306166192,2413
640.6794710601358,2494
642.9738838290426,2372
645.2676691408932,2424
647.5608272133207,2417
649.853358264037,2460
652.1452625108324,2511
654.4365401715764,2539
656.7271914642178,2529
659.0172166067838,2518
661.3066158173809,2510
663.5953893141935,2509
665.8835373154867,2479
668.1710600396028,2437
670.4579577049639,2472
672.7442305300709,2492
675.0298787335033,2396
677.3149025339197,2461
679.599302150058,2514
681.8830778007342,2479
684.1662297048437,2409
686.4487580813608,2510
688.7306631493387,2466
691.0119451279091,2478
693.2926042362834,2529
695.5726406937516,2488
697.8520547196814,2514
700.1308465335215,2471
702.4090163547982,2393
704.6865644031171,2467
706.9634908981619,2420
709.2397960596965,2460
711.5154801075631,2459
713.7905432616823,2459
716.0649857420548,2367
718.3388077687592,2469
720.612009561953,2530
722.8845913418733,2454
725.1565533288352,2415
727.427895743234,2495
729.6986188055427,2414
731.9687227363137,2444
734.238207756178,2469
736.5070740858458,2433
738.7753219461066,2408
741.0429515578281,2403
743.3099631419569,2499
745.5763569195191,2415
747.8421331116193,2493
750.1072919394409,2490
752.3718336242467,2483
754.6357583873777,2454
756.8990664502545,2435
759.1617580343765,2367
761.423833361321,2435
763.6852926527457,2463
765.9461361303862,2493
768.206364016058,2399
770.4659765316536,2442
772.7249738991469,2448
774.9833563405886,2398
777.2411240781092,2480
779.4982773339183,2454
781.7548163303044,2455
784.010741289634,2528
786.2660524343538,2616
788.5207499869881,2428
790.7748341701416,2537
793.0283052064964,2419
795.2811633188143,2537
797.5334087299362,2574
799.7850416627813,2483
802.0360623403484,2461
804.2864709857143,2468
806.5362678220353,2497
808.7854530725468,2521
811.0340269605625,2430
813.2819897094754,2451
815.5293415427581,2431
817.77608268396,2484
820.0222133567116,2573
822.2677337847211,2503
824.5126441917765,2480
826.7569448017433,2501
829.0006358385675,2541
831.2437175262731,2467
833.4861900889629,2534
835.7280537508192,2491
837.9693087361026,2458
840.2099552691533,2498
842.4499935743896,2437
844.689423876309,2544
846.9282463994886,2505
849.1664613685833,2534
851.4040690083276,2589
853.6410695435349,2450
855.877463199097,2482
858.1132501999847,2409
860.3484307712487,2437
862.5830051380175,2622
864.8169735254988,2520
867.0503361589791,2517
869.2830932638243,2505
871.5152450654786,2579
873.7467917894654,2566
875.9777336613873,2550
878.2080709069252,2543
880.4378037518389,2494
882.666932421968,2541
884.8954571432301,2522
887.1233781416219,2657
889.3506956432192,2644
891.5774098741766,2533
893.803521060728,2543
896.0290294291852,2618
898.2539352059397,2589
900.4782386174619,2606
902.7019398903011,2616
904.925039251085,2583
907.147536926521,2654
909.3694331433943,2560
911.59072812857,2617
913.8114221089921,2520
916.0315153116827,2584
918.2510079637437,2491
920.4699002923547,2558
922.6881925247761,2495
924.905884888345,2498
927.1229776104793,2484
929.3394709186747,2586
931.555365040506,2522
933.7706602036275,2520
935.9853566357709,2445
938.1994545647489,2515
940.4129542184515,2495
942.6258558248488,2496
944.8381596119883,2501
947.0498658079974,2455
949.2609746410825,2557
951.4714863395287,2522
953.6814011316998,2563
955.8907192460387,2428
958.0994409110671,2447
960.3075663553858,2585
962.5150958076741,2576
964.7220294966913,2528
966.928367651274,2415
969.1341105003388,2454
971.3392582728806,2406
973.5438111979742,2472
975.747769504772,2456
977.9511334225061,2384
980.153903180487,2438
982.3560790081052,2475
984.5576611348289,2482
986.7586497902058,2440
988.9590452038618,2384
991.158847605503,2360
993.3580572249133,2381
995.5566742919558,2259
997.7546990365728,2333
999.952131688785,2258
1002.1489724786926,2246
1004.3452216364743,2138
1006.5408793923874,2200
1008.7359459767691,2208
1010.9304216200343,2180
1013.1243065526781,2188
1015.3176010052733,2151
1017.510305208472,2183
1019.7024193930064,2223
1021.8939437896848,2163
1024.0848786293977,2136
1026.2752241431122,2155
1028.4649805618747,2165
1030.6541481168115,2134
1032.842727039127,2103
1035.0307175601051,2139
1037.2181199111074,2230
1039.4049343235752,2116
1041.591161029029,2171
1043.7768002590683,2068
1045.9618522453698,2172
1048.1463172196918,2115
1050.3301954138697,2168
1052.513487059818,2186
1054.69619238953,2098
1056.8783116350783,2080
1059.0598450286152,2183
1061.2407928023704,2127
1063.4211551886528,2119
1065.6009324198508,2154
1067.780124728432,2106
1069.9587323469414,2174
1072.1367555080046,2097
1074.314194444325,2097
1076.4910493886855,2124
1078.667320573947,2054
1080.843008233051,2049
1083.0181125990161,2057
1085.1926339049414,2059
1087.3665723840027,2049
1089.5399282694575,2077
1091.7127017946405,2079
1093.8848931929647,2035
1096.0565026979243,2072
1098.2275305430899,2023
1100.3979769621128,2036
1102.567842188722,2116
1104.737126456726,2097
1106.9058300000124,2096
1109.0739530525475,2029
1111.2414958483764,2096
1113.4084586216231,2014
1115.5748416064907,2000
1117.7406450372605,2010
1119.9058691482942,2051
1122.0705141740304,2018
1124.2345803489884,2099
1126.3980679077658,2079
1128.5609770850388,2006
1130.7233081155623,2022
1132.8850612341707,1976
1135.0462366757774,2030
1137.2068346753745,1986
1139.3668554680326,2056
1141.526299288901,1950
1143.68516637321,2000
1145.8434569562655,2063
1148.001171273455,2009
1150.158309560244,1939
1152.3148720521767,2037
1154.470858984876,1944
1156.626270594044,2038
1158.7811071154629,2044
1160.9353687849912,1999
1163.089055838569,1947
1165.242168512213,2026
1167.3947070420209,1980
1169.5466716641677,1976
1171.6980626149075,1938
1173.8488801305748,1996
1175.9991244475814,2013
1178.1487958024186,2022
1180.2978944316555,2020
1182.4464205719428,2037
1184.5943744600072,1989
1186.7417563326567,2025
1188.8885664267755,1992
1191.0348049793297,2001
1193.1804722273619,2002
1195.325568407995,2025
1197.4700937584303,1996
1199.614048515948,1999
1201.7574329179074,2032
1203.900247201746,2092
1206.042491604982,2016
1208.1841663652099,2083
1210.3252717201053,2055
1212.465807907422,2062
1214.6057751649923,1986
1216.7451737307279,2026
1218.8840038426192,2021
1221.0222657387353,2087
1223.1599596572241,2105
1225.2970858363137,2071
1227.4336445143094,2003
1229.5696359295966,2037
1231.705060320639,2073
1233.8399179259786,2024
1235.9742089842384,2032
1238.107933734118,2069
1240.2410924143974,2048
1242.373685263935,2041
1244.5057125216676,2102
1246.6371744266116,2109
1248.7680712178621,2084
1250.898403134593,2129
1253.028170416058,2059
1255.1573733015875,2029
1257.2860120305932,2114
1259.4140868425648,2134
1261.54159797707,2102
1263.6685456737569,2114
1265.7949301723515,2195
1267.9207517126597,2149
1270.046010534565,2194
1272.1707068780306,2158
1274.2948409830983,2163
1276.4184130898889,2089
1278.541423438603,2110
1280.6638722695184,2106
1282.785759822993,2172
1284.9070863394636,2081
1287.0278520594447,2223
1289.1480572235314,2154
1291.2677020723963,2180
1293.3867868467923,2186
1295.5053117875495,2178
1297.623277135579,2188
1299.740683131868,2255
1301.8575300174857,2276
1303.973818033578,2182
1306.0895474213703,2255
1308.2047184221678,2242
1310.3193312773528,2183
1312.4333862283888,2222
1314.5468835168163,2274
1316.659823384255,2191
1318.7722060724045,2216
1320.8840318230418,2277
1322.9953008780249,2170
1325.1060134792888,2241
1327.2161698688478,2169
1329.3257702887959,2181
1331.4348149813054,2263
1333.5433041886276,2199
1335.6512381530933,2228
1337.7586171171101,2175
1339.8654413231675,2206
1341.9717110138317,2183
1344.0774264317488,2164
1346.1825878196432,2217
1348.2871954203192,2276
1350.3912494766587,2140
1352.4947502316231,2222
1354.5976979282532,2243
1356.7000928096686,2223
1358.8019351190665,2245
1360.9032250997243,2181
1363.0039629949988,2242
1365.1041490483235,2286
1367.2037835032133,2241
1369.3028666032606,2223
1371.401398592137,2267
1373.4993797135926,2155
1375.5968102114575,2281
1377.6936903296396,2271
1379.7900203121262,2188
1381.8858004029835,2246
1383.9810308463561,2220
1386.075711886469,2262
1388.1698437676241,2279
1390.2634267342032,2213
1392.356461030667,2312
1394.4489469015557,2301
1396.5408845914872,2301
1398.6322743451592,2330
1400.7231164073469,2376
1402.813411022907,2350
1404.903158436773,2303
1406.9923588939578,2281
1409.0810126395531,2388
1411.1691199187303,2384
1413.2566809767386,2357
1415.343696058907,2317
1417.4301654106425,2391
1419.5160892774315,2383
1421.6014679048399,2397
1423.6863015385125,2378
1425.7705904241707,2434
1427.8543348076178,2364
1429.9375349347342,2486
1432.0201910514802,2448
1434.102303403894,2466
1436.1838722380944,2479
1438.2648978002767,2553
1440.3453803367174,2540
1442.4253200937692,2494
1444.5047173178677,2702
1446.5835722555234,2642
1448.6618851533285,2679
1450.739656257952,2666
1452.8168858161434,2674
1454.8935740747306,2807
1456.96972128062,2854
1459.045327680797,2852
1461.120393522327,2913
1463.1949190523528,2888
1465.2689045180973,2961
1467.3423501668608,2976
1469.415256246024,3012
1471.4876230030463,3048
1473.559450685465,3208
1475.6307395408976,3152
1477.7014898170391,3103
1479.771701761665,3174
1481.8413756226287,3259
1483.9105116478618,3215
1485.9791100853772,3272
1488.0471711832643,3359
1490.1146951896926,3397
1492.1816823529098,3415
1494.2481329212433,3466
1496.3140471430984,3471
1498.3794252669609,3400
1500.4442675413939,3435
1502.5085742150404,3607
1504.572345536622,3569
1506.6355817549388,3678
1508.6982831188702,3668
1510.7604498773744,3699
1512.8220822794883,3728
1514.8831805743293,3739
1516.9437450110909,3662
1519.003775839048,3715
1521.0632733075522,3760
1523.1222376660367,3817
1525.1806691640113,3949
1527.2385680510652,3831
1529.2959345768668,3898
1531.3527689911643,3944
1533.4090715437833,4060
1535.4648424846291,4043
1537.5200820636855,3997
1539.5747905310159,4004
1541.6289681367616,4097
1543.6826151311434,4217
1545.7357317644614,4349
1547.7883182870937,4286
1549.8403749494987,4239
1551.8919020022113,4331
1553.9428996958477,4412
1555.9933682811015,4466
1558.0433080087469,4609
1560.0927191296346,4700
1562.1416018946961,4678
1564.1899565549415,4770
1566.2377833614592,4755
1568.2850825654164,4678
1570.3318544180606,4636
1572.3780991707158,4437
1574.423817074788,4279
1576.4690083817595,4203
1578.5136733431923,4101
1580.5578122107272,3946
1582.601425236085,3822
1584.6445126710646,3649
1586.6870747675434,3472
1588.7291117774776,3363
1590.7706239529034,3300
1592.8116115459347,3097
1594.8520748087658,3027
1596.8920139936686,3060
1598.9314293529933,2953
1600.9703211391711,2813
1603.008689604711,2775
1605.0465350022005,2802
1607.0838575843068,2695
1609.1206576037753,2605
1611.1569353134305,2593
1613.1926909661765,2523
1615.2279248149953,2570
1617.2626371129481,2478
1619.2968281131757,2448
1621.3304980688963,2426
1623.3636472334088,2421
1625.39627586009,2342
1627.428384202396,2386
1629.459972513861,2382
1631.4910410480993,2360
1633.5215900588028,2333
1635.551619799744,2381
1637.5811305247717,2323
1639.6101224878166,2299
1641.6385959428862,2279
1643.6665511440683,2201
1645.693988345528,2222
1647.7209078015112,2270
1649.7473097663405,2297
1651.7731944944203,2247
1653.7985622402307,2316
1655.823413258333,2192
1657.847747803366,2260
1659.8715661300494,2228
1661.8948684931793,2075
1663.9176551476316,2319
1665.9399263483624,2192
1667.9616823504057,2243
1669.982923408873,2231
1672.0036497789574,2244
1674.0238617159293,2148
1676.043559475138,2253
1678.0627433120121,2228
1680.081413482059,2258
1682.0995702408654,2207
1684.117213844096,2159
1686.134344547495,2170
1688.1509626068864,2197
1690.1670682781705,2263
1692.182661817329,2182
1694.1977434804217,2283
1696.2123135235875,2165
1698.226372203043,2148
1700.2399197750851,2130
1702.2529564960905,2277
1704.2654826225112,2201
1706.277498410882,2219
1708.2890041178139,2164
1710.2999999999988,2170
1712.3104863142066,2185
1714.3204633172854,2162
1716.329931266163,2114
1718.3388904178469,2200
1720.3473410294214,2116
1722.3552833580516,2118
1724.3627176609807,2199
1726.3696441955308,2137
1728.3760632191033,2229
1730.3819749891782,2143
1732.3873797633146,2148
1734.3922777991502,2082
1736.3966693544012,2099
1738.4005546868639,2192
1740.4039340544127,2089
1742.406807715001,2135
1744.4091759266616,2092
1746.4110389475054,2038
1748.4123970357223,2153
1750.413250449582,2032
1752.4135994474318,2115
1754.4134442876993,2083
1756.4127852288902,2071
1758.4116225295893,2050
1760.4099564484595,2015
1762.407787244244,1997
1764.405115175764,2056
1766.4019405019203,1959
1768.3982634816916,2062
1770.3940843741357,2011
1772.3894034383907,1939
1774.3842209336717,1979
1776.378537119274,2041
1778.372352254571,1955
1780.3656665990156,2061
1782.3584804121397,2049
1784.3507939535534,1937
1786.3426074829463,1929
1788.3339212600863,1952
1790.3247355448211,2021
1792.3150505970766,1979
1794.3048666768573,1996
1796.2941840442477,2015
1798.2830029594106,1970
1800.2713236825884,2025
1802.2591464741004,1972
1804.2464715943465,2038
1806.2332993038058,2078
1808.2196298630352,2003
1810.2054635326708,2093
1812.190800573428,1959
1814.175641246101,1981
1816.1599858115628,2022
1818.1438345307652,2003
1820.127187664738,1958
1822.1100454745924,1932
1824.092408221516,1966
1826.0742761667766,1983
1828.055649571721,1938
1830.0365286977735,1998
1832.0169138064398,1984
1833.9968051593014,2018
1835.9762030180214,1926
1837.9551076443408,1978
1839.9335193000788,1979
1841.9114382471344,1956
1843.888864747485,1940
1845.8657990631878,1969
1847.842241456378,1954
1849.8181921892697,1965
1851.7936515241558,1943
1853.7686197234098,1946
1855.7430970494815,1939
1857.7170837649014,1991
1859.6905801322787,1972
1861.6635864143004,1875
1863.6361028737338,1943
1865.608129773424,1955
1867.5796673762961,1964
1869.5507159453537,1977
1871.521275743678,1970
1873.4913470344313,1975
1875.4609300808534,1907
1877.4300251462632,1904
1879.3986324940588,1899
1881.366752387717,1942
1883.3343850907936,1973
1885.3015308669228,1999
1887.268189979819,1967
1889.2343626932739,1957
1891.2000492711595,1900
1893.1652499774254,2010
1895.1299650761011,1942
1897.0941948312952,1966
1899.0579395071945,1931
1901.0211993680641,2001
1902.98397467825,1956
1904.9462657021745,1907
1906.9080727043415,1964
1908.869395949332,1991
1910.8302357018065,1926
1912.790592226504,1960
1914.7504657882428,1996
1916.7098566519212,2029
1918.6687650825133,1995
1920.6271913450764,1994
1922.5851357047422,1885
1924.5425984267245,1913
1926.499579776314,2015
1928.4560800188833,1934
1930.4120994198802,1969
1932.367638244833,1922
1934.32269675935,1985
1936.2772752291175,2046
1938.231373919899,1973
1940.1849930975404,1902
1942.1381330279637,1952
1944.0907939771696,1925
1946.0429762112412,1996
1947.9946799963363,1934
1949.9459055986945,1989
1951.896653284633,1993
1953.8469233205478,1921
1955.7967159729142,1936
1957.7460315082863,1986
1959.6948701932974,1994
1961.6432322946594,1972
1963.5911180791632,1996
1965.5385278136787,1929
1967.4854617651545,1968
1969.4319202006182,1939
1971.377903387176,1960
1973.3234115920136,1934
1975.268445082395,1991
1977.2130041256642,1950
1979.1570889892423,1916
1981.1006999406304,1939
1983.04383724741,1966
1984.986501177238,1935
1986.928691997853,1941
1988.8704099770712,1984
1990.811655382789,1989
1992.7524284829801,1915
1994.692729545698,1961
1996.6325588390755,2002
1998.5719166313224,1877
2000.5108031907307,1983
2002.4492187856677,1965
2004.387163684583,1974
2006.3246381560011,1956
2008.2616424685298,1966
2010.1981768908527,1939
2012.1342416917332,1986
2014.069837140014,1941
2016.0049635046162,1934
2017.9396210545406,1941
2019.8738100588666,1927
2021.8075307867502,1962
2023.740783507431,1875
2025.6735684902228,1946
2027.6058860045214,1968
2029.5377363198004,1892
2031.4691197056118,1929
2033.4000364315875,2023
2035.3304867674374,1960
2037.260470982952,1901
2039.189989347998,1976
2041.1190421325232,1997
2043.047629606554,1915
2044.9757520401945,1929
2046.9034097036288,1921
2048.8306028671195,1922
2050.7573318010086,1962
2052.683596775716,1945
2054.609398061742,1899
2056.5347359296647,1906
2058.4596106501403,1941
2060.384022493906,1960
2062.3079717317764,1992
2064.231458634646,1939
2066.1544834734873,1958
2068.077046519352,1923
2069.99914804337,1893
2071.9207883167524,1944
2073.8419676107865,1929
2075.7626861968406,1985
2077.6829443463607,1990
2079.6027423308715,1979
2081.522080421977,1929
2083.440958891362,1944
2085.359378010786,1903
2087.2773380520907,1944
2089.194839287196,1960
2091.111881988101,1981
2093.0284664268825,1958
2094.9445928756973,1975
2096.86026160678,1964
2098.775472892446,1967
2100.690227005088,2003
2102.604524217178,2002
2104.5183648012676,2033
2106.431749029985,1983
2108.34467717604,1913
2110.2571495122206,1924
2112.169166311393,1930
2114.080727846503,1977
2115.9918343905747,1930
2117.902486216711,1932
2119.8126835980956,1977
2121.722426807987,1972
2123.6317161197285,1982
2125.5405518067364,1945
2127.448934142509,2020
2129.356863400624,1965
2131.264339854737,2072
2133.1713637785815,2015
2135.077935445972,1987
2136.9840551308002,2006
2138.889723107037,2025
2140.7949396487334,2020
2142.699705030018,1970
2144.6040195250994,1914
2146.507883408264,1972
2148.4112969538774,1924
2150.3142604363848,1876
2152.2167741303097,1953
2154.1188383102535,1964
2156.0204532508997,1987
2157.9216192270064,1969
2159.822336513414,2079
2161.7226053850413,2042
2163.622426116884,1995
2165.5217989840185,1985
2167.4207242616,2023
2169.319202224862,1994
2171.2172331491165,2000
2173.1148173097563,2039
2175.0119549822507,1999
2176.90864644215,2002
2178.8048919650823,2069
2180.7006918267534,2057
2182.596046302952,2053
2184.4909556695407,1984
2186.3854202024645,2015
2188.279440177746,2008
2190.173015871487,2017
2192.066147559868,1987
2193.958835519149,1995
2195.851080025667,2043
2197.7428813558417,1991
2199.6342397861667,2006
2201.5251555932186,2033
2203.415629053651,2035
2205.3056604441986,2122
2207.19525004167,2035
2209.084398122958,2085
2210.9731049650327,2059
2212.861370844941,2117
2214.749196039812,2070
2216.636580826851,2069
2218.523525483344,2130
2220.410030286655,2106
2222.296095514226,2065
2224.1817214435805,2093
2226.066908352319,2002
2227.951656518121,2054
2229.835966218746,1973
2231.71983773203,2064
2233.6032713358913,2085
2235.486267308324,2023
2237.3688259274036,2063
2239.2509474712824,2011
2241.132632218193,2067
2243.013880446447,2022
2244.8946924344323,2016
2246.7750684606203,2001
2248.6550088035574,2034
2250.534513741871,2045
2252.413583554265,2052
2254.292218519526,2063
2256.170418916517,2007
2258.0481850241786,2049
2259.925517121534,2031
2261.8024154876825,2011
2263.678880401803,1944
2265.5549121431536,2056
2267.430510991071,2040
2269.305677224971,1991
2271.180411124348,2016
2273.0547129687766,2082
2274.9285830379076,2041
2276.8020216114737,2034
2278.6750289692845,2090
2280.5476053912294,2036
2282.4197511572766,2081
2284.2914665474727,2123
2286.162751841943,2114
2288.0336073208937,2146
2289.904033264608,2062
2291.774029953448,2117
2293.6435976678554,2027
2295.5127366883517,2044
2297.381447295534,1957
2299.2497297700825,1943
2301.1175843927526,1958
2302.9850114443825,1872
2304.852011205885,1847
2306.7185839582553,1825
2308.5847299825664,1849
2310.4504495599676,1850
2312.3157429716925,1833
2314.1806104990483,1804
2316.0450524234247,1808
2317.9090690262888,1766
2319.772660589186,1773
2321.635827393742,1924
2323.498569721661,1848
2325.3608878547248,1802
2327.2227820747967,1860
2329.0842526638157,1810
2330.945299903803,1764
2332.805924076857,1738
2334.6661254651535,1801
2336.525904350951,1857
2338.3852610165827,1757
2340.244195744464,1870
2342.102708817088,1787
2343.9608005170253,1774
2345.8184711269287,1850
2347.675720929526,1907
2349.532550207628,1868
2351.38895924412,1809
2353.24494832197,1801
2355.100517724223,1830
2356.955667734004,1866
2358.810398634514,1830
2360.664710709037,1862
2362.5186042409337,1765
2364.3720795136437,1873
2366.225136810686,1837
2368.0777764156583,1918
2369.929998612237,1808
2371.7818036841777,1876
2373.633191915315,1878
2375.484163589562,1854
2377.3347189909114,1856
2379.184858403434,1916
2381.03458211128,1910
2382.8838903986775,1903
2384.732783549936,1905
2386.5812618494406,1869
2388.4293255816588,1890
2390.2769750311327,1867
2392.1242104824883,1849
2393.971032220427,1877
2395.8174405297295,1844
2397.6634356952563,1895
2399.509018001947,1894
2401.3541877348193,1783
2403.1989451789705,1919
2405.043290619576,1919
2406.8872243418905,1915
2408.730746631247,1889
2410.5738577730594,1901
2412.4165580528183,1884
2414.258847756095,1947
2416.100727168537,1954
2417.9421965758734,1886
2419.783256263912,1926
2421.623906518538,1896
2423.4641476257157,1891
2425.303979871491,1842
2427.143403541984,1893
2428.9824189233977,1893
2430.821026302012,1945
2432.6592259641866,1866
2434.497018196361,1909
2436.33440328505,1868
2438.171381516851,1877
2440.00795317844,1895
2441.844118556569,1930
2443.6798779380724,1889
2445.5152316098606,1893
2447.3501798589255,1886
2449.1847229723357,1922
2451.0188612372403,1968
2452.8525949408663,1994
2454.6859243705203,1968
2456.518849813587,1905
2458.3513715575314,1946
2460.183489889895,1873
2462.015205098301,1913
2463.8465174704493,1927
2465.67742729412,2008
2467.5079348571717,1985
2469.338040447542,1923
2471.1677443532476,1923
2472.9970468623833,1916
2474.825948263123,1897
2476.6544488437207,1903
2478.482548892508,1938
2480.310248697896,1885
2482.137548548374,1911
2483.9644487325118,1976
2485.790949538956,1947
2487.617051256433,1913
2489.44275417375,1987
2491.26805857979,1975
2493.0929647635157,1963
2494.917473013971,1954
2496.741583620276,1952
2498.5652968716304,1984
2500.3886130573137,1955
2502.2115324666834,2033
2504.0340553891765,1995
2505.856182114308,1975
2507.6779129316733,2012
2509.499248130945,1934
2511.3201880018764,1958
2513.140732834298,1935
2514.9608829181198,2019
2516.780638543331,1935
2518.6,2013
2520.418967578273,1970
2522.237541568376,1996
2524.0557222606144,1983
2525.8735099453706,2040
2527.6909049131086,2016
2529.507907454368,2065
2531.32451785977,1996
2533.140736420014,2058
2534.9565634258774,2049
2536.771999168218,2040
2538.5870439379714,2038
2540.4016980261526,2110
2542.2159617238544,1978
2544.02983532225,2019
2545.8433191125914,2053
2547.656413386209,2040
2549.4691184345115,2043
2551.2814345489874,2067
2553.093362021204,2083
2554.904901142808,2065
2556.716052205523,2075
2558.526815501153,2148
2560.3371913215824,2149
2562.147179958771,2124
2563.956781704761,2194
2565.7659968516705,2133
2567.5748256916986,2128
2569.3832685171224,2190
2571.1913256202984,2143
2572.9989972936614,2230
2574.806283829725,2246
2576.613185521084,2203
2578.4197026604074,2205
2580.2258355404483,2252
2582.031584454035,2252
2583.836949694077,2238
2585.6419315535613,2217
2587.4465303255533,2299
2589.2507463032002,2232
2591.0545797797245,2226
2592.8580310484303,2333
2594.6611004026995,2280
2596.463788135992,2295
2598.266094541849,2350
2600.0680199138874,2247
2601.869564545807,2335
2603.670728731383,2365
2605.4715127644704,2267
2607.2719169390048,2324
2609.071941548998,2346
2610.8715868885433,2381
2612.670853251811,2305
2614.469740933052,2293
2616.268250226594,2309
2618.0663814268455,2262
2619.864134828292,2325
2621.6615107255006,2252
2623.458509413115,2248
2625.2551311858597,2245
2627.0513763385347,2263
2628.8472451660223,2224
2630.6427379632833,2192
2632.4378550253564,2181
2634.232596647359,2159
2636.026963124488,2173
2637.8209547520187,2170
2639.6145718253065,2165
2641.407814639785,2106
2643.200683490966,2106
2644.9931786744414,2152
2646.7853004858807,2037
2648.577049221034,2127
2650.3684251757277,2072
2652.1594286458712,2092
2653.9500599274484,2078
2655.740319316525,2030
2657.5302071092437,1997
2659.3197236018286,2045
2661.10886909058,1989
2662.8976438718782,1993
2664.686048242183,1916
2666.4740824980327,1965
2668.2617469360443,2010
2670.0490418529134,1954
2671.8359675454153,2024
2673.622524310403,2001
2675.408712444811,1964
2677.1945322456495,1931
2678.979984010009,1879
2680.76506803506,1861
2682.5497846180497,1957
2684.334134056306,1871
2686.1181166472343,1902
2687.9017326883213,1896
2689.6849824771293,1885
2691.4678663113013,1863
2693.2503844885596,1842
2695.032537306705,1855
2696.8143250636167,1780
2698.5957480572542,1868
2700.3768065856534,1823
2702.1575009469316,1845
2703.937831439283,1875
2705.717798360982,1795
2707.4974020103837,1838
2709.276642685917,1768
2711.055520686095,1812
2712.834036309506,1767
2714.612189854819,1843
2716.389981620782,1760
2718.1674119062204,1751
2719.944481010041,1810
2721.721189231226,1827
2723.4975368688415,1807
2725.273524222027,1736
2727.0491515900053,1726
2728.824419272075,1760
2730.5993275676146,1817
2732.3738767760838,1745
2734.148067197016,1717
2735.921899130031,1748
2737.6953728748194,1735
2739.468488731156,1769
2741.2412469988926,1703
2743.0136479779617,1698
2744.785691968372,1783
2746.5573792702116,1759
2748.3287101836504,1771
2750.099685008934,1730
2751.870304046388,1728
2753.640567596418,1681
2755.4104759595057,1779
2757.1800294362156,1738
2758.949228327187,1778
2760.7180729331412,1660
2762.486563554877,1775
2764.254700493272,1758
2766.022484049284,1746
2767.789914523947,1756
2769.5569922183786,1621
2771.3237174337705,1745
2773.090090471394,1745
2774.8561116326036,1721
2776.6217812188274,1722
2778.3870995315756,1764
2780.1520668724356,1728
2781.9166835430747,1722
2783.6809498452394,1678
2785.444866080754,1718
2787.2084325515225,1734
2788.971649559527,1673
2790.73451740683,1739
2792.4970363955713,1765
2794.2592068279705,1725
2796.0210290063264,1704
2797.7825032330147,1695
2799.543629810493,1706
2801.304409041296,1649
2803.0648412280366,1769
2804.8249266734088,1737
2806.5846656801846,1683
2808.344058551212,1695
2810.1031055894246,1751
2811.8618070978273,1717
2813.6201633795085,1759
2815.378174737636,1752
2817.1358414754536,1724
2818.893163896285,1751
2820.6501423035334,1682
2822.4067770006814,1779
2824.1630682912883,1783
2825.9190164789957,1731
2827.6746218675207,1745
2829.429884760661,1744
2831.184805462294,1712
2832.9393842763743,1711
2834.693621506936,1757
2836.4475174580916,1703
2838.201072434034,1745
2839.954286739034,1755
2841.707160677441,1744
2843.459694553685,1731
2845.2118886722724,1691
2846.96374333779,1765
2848.7152588549034,1711
2850.4664355283567,1833
2852.217273662973,1789
2853.9677735636546,1774
2855.7179355353833,1778
2857.4677598832186,1686
2859.217246912299,1746
2860.9663969278427,1700
2862.715210235146,1685
2864.4636871395846,1750
2866.211827946614,1777
2867.9596329617652,1674
2869.7071024906536,1653
2871.4542368389684,1722
2873.20103631248,1716
2874.947501217038,1670
2876.6936318585695,1750
2878.4394285430812,1669
2880.1848915766604,1711
2881.9300212654707,1650
2883.6748179157553,1706
2885.4192818338374,1705
2887.1634133261173,1733
2888.907212699077,1680
2890.6506802592744,1676
2892.393816313348,1705
2894.1366211680142,1765
2895.8790951300693,1728
2897.621238506388,1730
2899.363051603925,1685
2901.1045347297118,1721
2902.8456881908596,1735
2904.58651229456,1730
2906.327007348081,1747
2908.067173658772,1693
2909.8070115340597,1703
2911.5465212814497,1732
2913.285703208527,1687
2915.0245576229563,1749
2916.7630848324807,1738
2918.5012851449196,1742
2920.2391588681758,1700
2921.976706310227,1700
2923.7139277791334,1685
2925.4508235830313,1737
2927.187394030137,1636
2928.923639428745,1731
2930.6595600872306,1678
2932.395156314046,1650
2934.1304284177218,1732
2935.8653767068713,1738
2937.6000014901815,1727
2939.3343030764227,1730
2941.068281774442,1730
2942.8019378931644,1709
2944.5352717415976,1685
2946.2682836288236,1707
2948.0009738640065,1706
2949.7333427563885,1696
2951.465390615289,1761
2953.1971177501086,1738
2954.9285244703265,1768
2956.6596110855,1733
2958.3903779052657,1647
2960.1208252393385,1760
2961.8509533975125,1698
2963.5807626896617,1713
2965.3102534257378,1719
2967.0394259157715,1659
2968.768280469873,1686
2970.496817398232,1662
2972.2250370111146,1679
2973.952939618869,1679
2975.6805255319196,1728
2977.4077950607707,1744
2979.134748516006,1756
2980.861386208289,1644
2982.587708448359,1698
2984.313715547037,1741
2986.039407815222,1702
2987.764785563891,1681
2989.489849104102,1653
2991.2145987469908,1681
2992.9390348037705,1691
2994.6631575857346,1690
2996.3869674042576,1721
2998.1104645707887,1666
2999.83364939686,1694
3001.5565221940783,1714
3003.2790832741334,1755
3005.0013329487924,1643
3006.7232715298996,1750
3008.4448993293804,1685
3010.166216659239,1733
3011.887223831558,1688
3013.607921158498,1663
3015.3283089522993,1702
3017.0483875252826,1695
3018.7681571898443,1631
3020.4876182584626,1673
3022.2067710436927,1669
3023.9256158581707,1646
3025.644153014609,1668
3027.362382825801,1718
3029.0803056046193,1726
3030.797921664012,1710
3032.5152313170106,1647
3034.2322348767225,1637
3035.9489326563353,1667
3037.665324969115,1609
3039.3814121284063,1685
3041.097194447633,1674
3042.812672240299,1690
3044.5278458199855,1715
3046.2427155003525,1642
3047.9572815951406,1601
3049.671544418167,1614
3051.38550428333,1622
3053.0991615046073,1622
3054.812516396051,1646
3056.5255692717974,1702
3058.2383204460575,1683
3059.9507702331257,1685
3061.662918947372,1725
3063.3747669032446,1672
3065.0863144152736,1739
3066.7975617980674,1649
3068.508509366309,1663
3070.219157434767,1735
3071.9295063182844,1678
3073.639556331785,1708
3075.3493077902704,1639
3077.058761008821,1720
3078.7679163025964,1732
3080.476773986837,1666
3082.1853343768594,1711
3083.89359778806,1666
3085.6015645359153,1678
3087.3092349359786,1691
3089.016609303884,1705
3090.7236879553434,1731
3092.4304712061476,1696
3094.136959372166,1671
3095.843152769349,1680
3097.5490517137237,1692
3099.2546565213966,1679
3100.959967508554,1689
3102.66498499146,1671
3104.3697092864577,1686
3106.0741407099695,1690
3107.778279578498,1682
3109.482126208622,1687
3111.1856809170004,1684
3112.8889440203716,1636
3114.5919158355528,1678
3116.294596679439,1695
3117.996986869006,1753
3119.6990867213062,1684
3121.4008965534726,1716
3123.102416682717,1706
3124.803647426329,1706
3126.5045891016784,1720
3128.205242026213,1697
3129.90560651746,1760
3131.605682893025,1678
3133.3054714705922,1767
3135.0049725679282,1713
3136.7041865028714,1717
3138.4031135933465,1687
3140.101754157353,1645
3141.800108512971,1759
3143.498176978357,1661
3145.1959598717494,1684
3146.8934575114636,1709
3148.5906702158954,1695
3150.2875983035183,1675
3151.9842420928853,1706
3153.680601902627,1729
3155.376678051456,1691
3157.07247085816,1677
3158.767980641609,1717
3160.463207720748,1649
3162.158152414606,1744
3163.8528150422862,1705
3165.5471959229726,1696
3167.2412953759303,1724
3168.9351137204976,1720
3170.628651276098,1761
3172.3219083622307,1658
3174.014885298474,1679
3175.707582404485,1666
3177.4000000000005,1667
3179.092138404835,1728
3180.7839979388846,1665
3182.47557892212,1694
3184.166881674594,1733
3185.8579065164386,1730
3187.5486537678626,1711
3189.2391237491547,1683
3190.9293167806827,1696
3192.6192331828934,1703
3194.3088732763117,1678
3195.998237381542,1641
3197.687325819268,1736
3199.376138910251,1619
3201.064676975334,1701
3202.7529403354347,1671
3204.4409293115523,1664
3206.1286442247647,1632
3207.816085396229,1599
3209.5032531471825,1647
3211.190147798936,1648
3212.8767696728846,1682
3214.5631190905015,1614
3216.2491963733373,1670
3217.9350018430214,1632
3219.6205358212637,1687
3221.305798629851,1674
3222.990790590651,1634
3224.6755120256103,1627
3226.359963256751,1615
3228.0441446061795,1678
3229.7280563960758,1593
3231.411698948703,1649
3233.0950725863995,1666
3234.778177631587,1638
3236.461014406761,1682
3238.1435832345005,1729
3239.8258844374595,1702
3241.507918338374,1708
3243.1896852600576,1708
3244.8711855254023,1706
3246.552419457381,1787
3248.233387379042,1656
3249.914089613516,1665
3251.59452648401,1698
3253.274698313813,1633
3254.95460542629,1667
3256.6342481448855,1703
3258.313626793125,1598
3259.9927416946084,1655
3261.6715931730196,1621
3263.3501815521176,1672
3265.0285071557437,1673
3266.706570307815,1663
3268.3843713323286,1655
3270.0619105533615,1654
3271.739188295068,1627
3273.4162048816834,1655
3275.0929606375184,1678
3276.769455886966,1670
3278.445690954498,1655
3280.1216661646613,1705
3281.797381842087,1668
3283.4728383114807,1741
3285.1480358976296,1679
3286.8229749253996,1613
3288.4976557197333,1608
3290.172078605655,1667
3291.846243908266,1609
3293.5201519527463,1715
3295.193803064357,1652
3296.8671975684374,1594
3298.5403357904024,1621
3300.21321805575,1599
3301.8858446900567,1621
3303.558216018975,1691
3305.23033236824,1687
3306.9021940636603,1602
3308.57380143113,1671
3310.2451547966184,1576
3311.916254486174,1623
3313.5871008259246,1773
3315.2576941420766,1604
3316.9280347609147,1685
3318.5981230088046,1654
3320.2679592121895,1604
3321.9375436975924,1605
3323.606876791612,1656
3325.27595882093,1626
3326.944790112305,1625
3328.6133709925753,1730
3330.2817017886573,1564
3331.949782827547,1614
3333.617614436319,1638
3335.2851969421245,1643
3336.952530672199,1636
3338.619615953853,1676
3340.286453114475,1659
3341.9530424815357,1683
3343.619384382583,1632
3345.2854791452437,1673
3346.951327097224,1650
3348.6169285663073,1675
3350.2822838803577,1643
3351.947393367319,1663
3353.61225735521,1676
3355.2768761721345,1660
3356.9412501462693,1623
3358.605379605873,1647
3360.2692648792827,1673
3361.9329062949146,1616
3363.596304181263,1646
