CollectionTime,7/9/2024 1:21:20 PM
ExposureUsed,3
CalibratedSpectrum
-962.7078968117929,1029
-959.9714848408522,1056
-957.2358232597828,1049
-954.5009119013725,1041
-951.7667505983302,1066
-949.0333391832855,1100
-946.3006774887896,1059
-943.5687653473143,1079
-940.837602591253,1021
-938.1071890529199,1109
-935.3775245645503,1081
-932.6486089583007,1101
-929.9204420662485,1115
-927.1930237203925,1127
-924.4663537526524,1077
-921.7404319948689,1147
-919.0152582788041,1118
-916.2908324361409,1164
-913.5671542984834,1115
-910.8442236973568,1159
-908.1220404642074,1176
-905.4006044304027,1147
-902.679915427231,1132
-899.959973285902,1107
-897.2407778375464,1149
-894.5223289132158,1136
-891.8046263438832,1151
-889.0876699604426,1111
-886.3714595937089,1154
-883.6559950744183,1144
-880.9412762332282,1149
-878.2273029007168,1127
-875.5140749073835,1132
-872.8015920836489,1149
-870.0898542598545,1105
-867.3788612662631,1196
-864.6686129330585,1113
-861.9591090903457,1205
-859.2503495681506,1138
-856.5423341964203,1150
-853.8350628050229,1108
-851.1285352237478,1180
-848.4227512823054,1185
-845.7177108103272,1154
-843.0134136373656,1133
-840.3098595928943,1177
-837.6070485063082,1176
-834.9049802069229,1181
-832.2036545239757,1159
-829.5030712866244,1195
-826.8032303239481,1242
-824.1041314649472,1144
-821.4057745385428,1176
-818.7081593735775,1215
-816.0112857988148,1183
-813.3151536429393,1237
-810.6197627345566,1183
-807.9251129021936,1207
-805.2312039742981,1176
-802.5380357792392,1227
-799.8456081453069,1262
-797.1539209007124,1222
-794.462973873588,1238
-791.772766891987,1255
-789.083299783884,1228
-786.3945723771743,1260
-783.7065844996748,1195
-781.0193359791231,1225
-778.3328266431781,1203
-775.6470563194197,1284
-772.9620248353489,1191
-770.2777320183878,1212
-767.5941776958798,1212
-764.9113616950891,1201
-762.2292838432011,1262
-759.5479439673222,1237
-756.8673418944801,1264
-754.1874774516235,1261
-751.5083504656222,1235
-748.8299607632671,1252
-746.15230817127,1266
-743.475392516264,1203
-740.7992136248035,1247
-738.1237713233636,1242
-735.4490654383407,1227
-732.7750957960521,1226
-730.1018622227365,1274
-727.4293645445534,1223
-724.7576025875837,1255
-722.0865761778291,1296
-719.4162851412126,1316
-716.7467293035781,1291
-714.0779084906909,1306
-711.409822528237,1264
-708.7424712418238,1262
-706.0758544569796,1289
-703.4099719991541,1324
-700.7448236937178,1299
-698.0804093659622,1261
-695.4167288411002,1232
-692.7537819442656,1248
-690.0915685005134,1286
-687.4300883348199,1303
-684.7693412720819,1349
-682.1093271371178,1210
-679.4500457546669,1238
-676.7914969493897,1292
-674.1336805458676,1328
-671.4765963686034,1313
-668.8202442420206,1279
-666.1646239904642,1327
-663.5097354382001,1361
-660.8555784094151,1313
-658.2021527282176,1222
-655.5494582186366,1349
-652.8974947046223,1325
-650.2462620100463,1335
-647.5957599587009,1340
-644.9459883742998,1340
-642.2969470804776,1383
-639.6486359007902,1325
-637.0010546587141,1345
-634.3542031776476,1340
-631.7080812809096,1378
-629.0626887917401,1384
-626.4180255333008,1316
-623.7740913286734,1400
-621.1308860008619,1337
-618.4884093727904,1343
-615.8466612673046,1345
-613.2056415071715,1367
-610.5653499150785,1300
-607.9257863136347,1319
-605.28695052537,1344
-602.6488423727357,1344
-600.0114616781036,1356
-597.3748082637674,1388
-594.7388819519412,1393
-592.1036825647604,1372
-589.4692099242818,1423
-586.8354638524829,1385
-584.2024441712624,1429
-581.5701507024403,1384
-578.9385832677575,1391
-576.3077416888759,1337
-573.6776257873787,1396
-571.0482353847704,1373
-568.4195703024757,1391
-565.7916303618415,1414
-563.164415384135,1423
-560.5379251905453,1440
-557.9121596021815,1397
-555.2871184400748,1407
-552.6628015251767,1415
-550.0392086783606,1426
-547.4163397204204,1441
-544.794194472071,1369
-542.1727727539491,1408
-539.5520743866118,1486
-536.9320991905377,1471
-534.3128469861261,1532
-531.6943175936979,1516
-529.0765108334947,1562
-526.4594265256793,1553
-523.8430644903358,1657
-521.2274245474689,1739
-518.612506517005,1834
-515.9983102187913,1850
-513.3848354725959,1789
-510.77208209810846,1870
-508.16004991493924,1906
-505.5487387426199,2053
-502.9381484006032,2133
-500.3282787082628,2201
-497.71912948489364,2193
-495.1107005497117,2159
-492.5029917218539,1994
-489.8960028203786,1857
-487.28973366426493,1757
-484.68418407241325,1697
-482.07935386364494,1681
-479.47524285670266,1664
-476.87185087025,1621
-474.2691777228715,1611
-471.66722323307334,1630
-469.0659872192821,1657
-466.4654694998459,1677
-463.86566989303384,1701
-461.26658821703614,1662
-458.66822428996414,1582
-456.07057792985,1652
-453.4736489546475,1719
-450.877437182231,1637
-448.28194243039627,1601
-445.68716451686,1567
-443.09310325926003,1614
-440.49975847515555,1651
-437.9071299820263,1564
-435.31521759727354,1573
-432.72402113821954,1609
-430.13354042210767,1678
-427.5437752661022,1592
-424.95472548728867,1611
-422.36639090267386,1638
-419.7787713291855,1691
-417.1918665836721,1746
-414.60567648290385,1669
-412.0202008435715,1623
-409.4354394822874,1687
-406.8513922155845,1746
-404.26805885991723,1791
-401.685439231661,1772
-399.103533147112,1777
-396.522340422488,1682
-393.9418608739278,1661
-391.3620943174908,1615
-388.7830405691583,1503
-386.2046994448317,1488
-383.6270707603344,1418
-381.05015433141045,1357
-378.473949973725,1180
-375.8984575028645,1059
-373.32367673433623,944
-370.74960748356875,856
-368.1762495659117,756
-365.60360279663576,688
-363.03166699093265,616
-360.4604419639154,554
-357.8899275306178,553
-355.32012350599507,501
-352.7510297049233,496
-350.1826459421999,478
-347.61497203254316,454
-345.04800779059235,457
-342.4817530309082,464
-339.91620756797226,436
-337.35137121618743,454
-334.7872437898774,443
-332.22382510328725,485
-329.66111497058273,459
-327.09911320585127,462
-324.53781962310075,489
-321.9772340362607,498
-319.4173562591816,470
-316.8581861056348,463
-314.2997233893127,469
-311.7419679238294,449
-309.1849195227194,462
-306.62857799943856,498
-304.0729431673641,519
-301.51801483979375,528
-298.963792829947,522
-296.41027695096386,522
-293.85746701590574,544
-291.3053628377552,524
-288.7539642294155,524
-286.2032710037115,498
-283.65328297338897,514
-281.1039999511146,542
-278.5554217494762,549
-276.007548180983,523
-273.4603790580651,568
-270.9139141930734,547
-268.3681533982807,536
-265.8230964858798,595
-263.27874326798565,604
-260.7350935566336,604
-258.1921471637804,611
-255.6499039013039,573
-253.10836358100266,562
-250.56752601459698,585
-248.02739101372765,546
-245.48795838995704,575
-242.94922795476816,571
-240.41119951956557,543
-237.8738728956746,622
-235.33724789434166,659
-232.80132432673452,561
-230.2661020039418,620
-227.73158073697357,614
-225.19776033676033,645
-222.66464061415422,629
-220.1322213799284,599
-217.60050244477725,551
-215.06948361931552,605
-212.53916471408013,596
-210.00954553952818,629
-207.48062590603843,669
-204.9524056239104,611
-202.4248845033651,687
-199.8980623545441,634
-197.37193898751036,636
-194.84651421224817,677
-192.32178783866232,689
-189.79775967657952,678
-187.27442953574644,692
-184.7517972258321,709
-182.2298625564256,713
-179.7086253370378,666
-177.18808537710026,631
-174.66824248596583,667
-172.14909647290835,699
-169.6306471471229,775
-167.11289431772548,808
-164.59583779375328,778
-162.07947738416453,799
-159.5638128978386,846
-157.04884414357605,901
-154.53457093009854,986
-152.02099306604828,920
-149.50811035998936,775
-146.99592262040665,787
-144.48442965570587,964
-141.97363127421409,933
-139.46352728417958,938
-136.95411749377126,1072
-134.44540171107985,1062
-131.93737974411636,854
-129.43005140081357,840
-126.92341648902493,1186
-124.41747481652521,1498
-121.91222619101006,1987
-119.40767042009657,2386
-116.90380731132257,2544
-114.40063667214702,2541
-111.8981583099503,2220
-109.3963720320337,1682
-106.89527764561933,1612
-104.39487495785067,1965
-101.89516377579241,2732
-99.39614390642998,3895
-96.89781515667039,4499
-94.40017733334128,4118
-91.90323024319173,3384
-89.40697369289148,2843
-86.91140748903172,2862
-84.41653143812482,3211
-81.92234534660395,3260
-79.42884902082358,3326
-76.93604226705907,3904
-74.4439248915071,5078
-71.95249670028534,7101
-69.46175749943245,8416
-66.97170709490854,9112
-64.48234529259423,8673
-61.99367189829195,8294
-59.50568671772464,6983
-57.01838955653636,5369
-54.53178022029283,4890
-52.045858514480074,5391
-49.560624244506016,6069
-47.07607721569923,6887
-44.59221723330904,7132
-42.10904410250669,7592
-39.62655762838392,7010
-37.14475761595372,6870
-34.66364387015028,8069
-32.18321619582866,8526
-29.70347439776515,8306
-27.224418280657005,9225
-24.74604764912317,9402
-22.26836230770266,11101
-19.7913620608565,18359
-17.315046712966478,29843
-14.83941606833514,39320
-12.36446993118659,53735
-9.89020810566592,65038
-7.416630395839093,65038
-4.94373660569363,65038
-2.471526539137585,65038
-6.821210263296962E-13,65038
2.47084320796705,65038
4.941003281093458,65038
7.410480415786196,65038
9.879274808531363,65038
12.347386655893956,65038
14.814816154518212,65038
17.28156350112681,65038
19.74762889252179,65038
22.21301252558385,65038
24.67771459727237,19572
27.141735304626195,3794
29.605074844762612,2351
32.06773341487792,1745
34.52971121224755,1590
36.99100843422559,1760
39.45162527824516,1734
41.91156194181792,1623
44.370818622535126,1371
46.82939551806646,1140
49.287292826160524,1290
51.74451074464503,1310
54.201049471426245,1170
56.65690920448981,1138
59.112090141899785,1147
61.56659248179983,1019
64.02041642241159,936
66.4735621620365,874
68.92602989905402,934
71.37781983192338,974
73.82893215918205,1043
76.27936707944684,1141
78.72912479141326,1187
81.17820549385567,1095
83.62660938562783,1017
86.07433666566146,956
88.5213875329681,890
90.96776218663751,926
93.41346082583925,928
95.85848364982041,932
98.30283085790859,1047
100.7465026495089,1112
103.18949922410604,1053
105.63182078126385,984
108.07346752062438,1010
110.51443964190923,1003
112.95473734491827,969
115.39436082953114,949
117.83331029570547,867
120.27158594347827,938
122.7091879729652,914
125.1461165843615,1093
127.58237197794062,1177
130.01795435405518,1026
132.4528639131364,889
134.88710085569494,948
137.32066538231982,842
139.75355769367923,801
142.1857779905207,842
144.61732647366978,863
147.04820334403132,874
149.47840880258934,938
151.90794305040674,1026
154.33680628862487,1166
156.76499871846443,1299
159.19252054122433,1609
161.61937195828352,1726
164.04555317109896,1974
166.47106438120693,2194
168.89590579022217,2469
171.320077599839,2630
173.7435800118302,2725
176.16641322804742,2797
178.58857745042144,2957
181.01007288096173,3175
183.43089972175687,3118
185.85105817497413,3178
188.27054844285988,3282
190.6893707277394,3345
193.10752523201643,3424
195.5250121581745,3506
197.9418317087751,3609
200.3579840864594,3610
202.7734694939469,3665
205.18828813403627,3611
207.6024402096051,3884
210.01592592360964,3797
212.42874547908548,3748
214.84089907914665,3786
217.2523869269868,3771
219.66320922587727,3802
222.0733661791695,3668
224.48285799029293,3748
226.8916848627572,3798
229.29984700014882,3838
231.7073446061355,3973
234.11417788446204,3825
236.520347038953,3926
238.92585227351185,3982
241.33069379212054,4051
243.73487179884035,4080
246.1383864978112,4181
248.541238093252,4021
250.9434267894609,4079
253.34495279081432,4168
255.74581630176783,4138
258.1460175268563,4278
260.54555667069314,4133
262.9444339379703,4209
265.3426495334594,4145
267.7402036620107,4084
270.1370965285529,3897
272.53332833809407,3817
274.9288992957214,3736
277.32380960660055,3734
279.718059475976,3615
282.1116491091717,3657
284.5045787115897,3684
286.89684848871195,3699
289.2884586460981,3563
291.67940938938807,3734
294.0697009242996,3780
296.4593334566299,3643
298.84830719225477,3683
301.23662233712923,3636
303.6242790972866,3604
306.01127767884,3591
308.39761828798066,3578
310.78330113097934,3585
313.16832641418534,3603
315.5526943440269,3480
317.9364051270112,3513
320.3194589697242,3468
322.70185607883093,3402
325.0835966610754,3408
327.4646809232805,3444
329.8451090723478,3289
332.2248813152577,3344
334.6039978590701,3361
336.9824589109231,3334
339.36026467803447,3338
341.7374153677,3338
344.113911187295,3332
346.48975234427337,3322
348.8649390461686,3408
351.2394715005918,3308
353.61334991523415,3212
355.9865744978655,3304
358.35914545633375,3258
360.73106299856715,3195
363.10232733257146,3277
365.47293866643247,3269
367.84289720831396,3273
370.2122031664593,3316
372.5808567491905,3269
374.9488581649083,3209
377.31620762209275,3234
379.6829053293021,3156
382.0489514951745,3216
384.4143463284262,3224
386.7790900378528,3170
389.14318283232853,3089
391.50662492080653,3186
393.86941651231916,3185
396.23155781597745,3237
398.5930490409713,3188
400.9538903965696,3120
403.3140820921202,3162
405.6736243370498,3069
408.03251734086336,3213
410.3907613131465,3108
412.74835646356166,3134
415.10530300185144,3143
417.4616011378372,3079
419.81725108141893,3086
422.1722530425758,3145
424.5266072313656,3102
426.880313857925,3043
429.2333731324701,3145
431.58578526529516,3144
433.9375504667738,3025
436.2886689473588,3057
438.63914091758113,3090
440.9889665880513,3016
443.33814616945835,3031
445.68667987257015,3094
448.03456790823395,3057
450.3818104873759,3103
452.72840782100013,3120
455.07436012019105,3044
457.41966759611057,3190
459.7643304600007,3140
462.10834892318155,3104
464.4517231970525,3145
466.79445349309174,3117
469.1365400228566,3095
471.4779829979826,3104
473.81878263018564,3199
476.15893913125876,3086
478.4984527130747,3126
480.8373235875855,3289
483.17555196682144,3242
485.5131380628919,3276
487.8500820879857,3324
490.1863842543697,3347
492.52204477439034,3541
494.8570638604725,3678
497.1914417251204,3982
499.52517858091653,4251
501.85827464052306,4462
504.19073011668036,4659
506.5225452222086,4544
508.85372017000566,4502
511.18425517304956,4447
513.514150444396,4618
515.8434061971808,5302
518.1720226446176,6066
520.4999999999999,6424
522.8273384766991,6041
525.1540382881666,5674
527.480099647932,4955
529.8055227696037,4407
532.1303078668694,3779
534.454455153496,3475
536.777964843328,3435
539.1008371502907,3281
541.4230722883866,3234
543.744670471698,3270
546.0656319143858,3364
548.3859568306899,3214
550.7056454349294,3200
553.0246979415016,3227
555.3431145648834,3272
557.6608955196306,3188
559.978041020377,3310
562.2945512818363,3277
564.6104265188006,3219
566.9256669461412,3230
569.2402727788082,3274
571.5542442318302,3313
573.8675815203156,3182
576.1802848594508,3223
578.4923544645015,3285
580.8037905508126,3220
583.114593333807,3355
585.4247630289875,3238
587.7342998519354,3329
590.0432040183106,3353
592.3514757438526,3362
594.6591152443794,3271
596.9661227357875,3316
599.2724984340531,3249
601.578242555231,3305
603.8833553154542,3374
606.1878369309362,3293
608.4916876179676,3205
610.7949075929192,3269
613.0974970722403,3281
615.3994562724587,3292
617.7007854101818,3370
620.0014847020951,3306
622.3015543649641,3194
624.6009946156324,3308
626.8998056710224,3321
629.1979877481361,3242
631.4955410640538,3380
633.7924658359349,3265
636.0887622810175,3325
638.3844306166192,3226
640.6794710601358,3294
642.9738838290426,3285
645.2676691408932,3339
647.5608272133207,3334
649.853358264037,3354
652.1452625108324,3359
654.4365401715764,3363
656.7271914642178,3478
659.0172166067838,3372
661.3066158173809,3386
663.5953893141935,3449
665.8835373154867,3469
668.1710600396028,3466
670.4579577049639,3312
672.7442305300709,3367
675.0298787335033,3439
677.3149025339197,3443
679.599302150058,3501
681.8830778007342,3387
684.1662297048437,3383
686.4487580813608,3385
688.7306631493387,3457
691.0119451279091,3424
693.2926042362834,3373
695.5726406937516,3314
697.8520547196814,3461
700.1308465335215,3280
702.4090163547982,3410
704.6865644031171,3347
706.9634908981619,3374
709.2397960596965,3447
711.5154801075631,3354
713.7905432616823,3371
716.0649857420548,3395
718.3388077687592,3393
720.612009561953,3360
722.8845913418733,3414
725.1565533288352,3315
727.427895743234,3284
729.6986188055427,3384
731.9687227363137,3396
734.238207756178,3380
736.5070740858458,3362
738.7753219461066,3355
741.0429515578281,3416
743.3099631419569,3420
745.5763569195191,3428
747.8421331116193,3445
750.1072919394409,3227
752.3718336242467,3377
754.6357583873777,3352
756.8990664502545,3390
759.1617580343765,3442
761.423833361321,3386
763.6852926527457,3427
765.9461361303862,3522
768.206364016058,3350
770.4659765316536,3501
772.7249738991469,3378
774.9833563405886,3442
777.2411240781092,3387
779.4982773339183,3473
781.7548163303044,3443
784.010741289634,3436
786.2660524343538,3484
788.5207499869881,3521
790.7748341701416,3437
793.0283052064964,3404
795.2811633188143,3348
797.5334087299362,3443
799.7850416627813,3416
802.0360623403484,3424
804.2864709857143,3496
806.5362678220353,3452
808.7854530725468,3489
811.0340269605625,3554
813.2819897094754,3386
815.5293415427581,3472
817.77608268396,3581
820.0222133567116,3439
822.2677337847211,3445
824.5126441917765,3451
826.7569448017433,3382
829.0006358385675,3449
831.2437175262731,3440
833.4861900889629,3475
835.7280537508192,3340
837.9693087361026,3506
840.2099552691533,3461
842.4499935743896,3390
844.689423876309,3470
846.9282463994886,3409
849.1664613685833,3439
851.4040690083276,3473
853.6410695435349,3585
855.877463199097,3461
858.1132501999847,3359
860.3484307712487,3434
862.5830051380175,3478
864.8169735254988,3494
867.0503361589791,3523
869.2830932638243,3575
871.5152450654786,3584
873.7467917894654,3547
875.9777336613873,3555
878.2080709069252,3514
880.4378037518389,3472
882.666932421968,3411
884.8954571432301,3522
887.1233781416219,3555
889.3506956432192,3482
891.5774098741766,3435
893.803521060728,3586
896.0290294291852,3558
898.2539352059397,3577
900.4782386174619,3489
902.7019398903011,3513
904.925039251085,3518
907.147536926521,3566
909.3694331433943,3511
911.59072812857,3456
913.8114221089921,3423
916.0315153116827,3423
918.2510079637437,3418
920.4699002923547,3463
922.6881925247761,3460
924.905884888345,3462
927.1229776104793,3373
929.3394709186747,3519
931.555365040506,3455
933.7706602036275,3383
935.9853566357709,3424
938.1994545647489,3390
940.4129542184515,3458
942.6258558248488,3456
944.8381596119883,3484
947.0498658079974,3536
949.2609746410825,3421
951.4714863395287,3465
953.6814011316998,3441
955.8907192460387,3450
958.0994409110671,3445
960.3075663553858,3495
962.5150958076741,3455
964.7220294966913,3408
966.928367651274,3351
969.1341105003388,3421
971.3392582728806,3453
973.5438111979742,3482
975.747769504772,3507
977.9511334225061,3367
980.153903180487,3461
982.3560790081052,3452
984.5576611348289,3463
986.7586497902058,3438
988.9590452038618,3340
991.158847605503,3401
993.3580572249133,3451
995.5566742919558,3266
997.7546990365728,3271
999.952131688785,3255
1002.1489724786926,3316
1004.3452216364743,3222
1006.5408793923874,3327
1008.7359459767691,3203
1010.9304216200343,3224
1013.1243065526781,3289
1015.3176010052733,3218
1017.510305208472,3213
1019.7024193930064,3195
1021.8939437896848,3281
1024.0848786293977,3193
1026.2752241431122,3140
1028.4649805618747,3203
1030.6541481168115,3199
1032.842727039127,3163
1035.0307175601051,3183
1037.2181199111074,3168
1039.4049343235752,3074
1041.591161029029,3183
1043.7768002590683,3284
1045.9618522453698,3188
1048.1463172196918,3219
1050.3301954138697,3268
1052.513487059818,3190
1054.69619238953,3307
1056.8783116350783,3254
1059.0598450286152,3258
1061.2407928023704,3179
1063.4211551886528,3217
1065.6009324198508,3253
1067.780124728432,3212
1069.9587323469414,3170
1072.1367555080046,3206
1074.314194444325,3211
1076.4910493886855,3132
1078.667320573947,3107
1080.843008233051,3226
1083.0181125990161,3179
1085.1926339049414,3220
1087.3665723840027,3104
1089.5399282694575,3194
1091.7127017946405,3083
1093.8848931929647,3123
1096.0565026979243,3143
1098.2275305430899,3039
1100.3979769621128,3206
1102.567842188722,3166
1104.737126456726,3126
1106.9058300000124,3095
1109.0739530525475,3139
1111.2414958483764,3149
1113.4084586216231,3087
1115.5748416064907,3105
1117.7406450372605,3109
1119.9058691482942,3206
1122.0705141740304,3170
1124.2345803489884,3117
1126.3980679077658,3186
1128.5609770850388,3213
1130.7233081155623,3119
1132.8850612341707,3065
1135.0462366757774,3206
1137.2068346753745,3125
1139.3668554680326,3148
1141.526299288901,3095
1143.68516637321,3123
1145.8434569562655,3192
1148.001171273455,3119
1150.158309560244,3057
1152.3148720521767,3112
1154.470858984876,3067
1156.626270594044,3087
1158.7811071154629,3103
1160.9353687849912,3139
1163.089055838569,3017
1165.242168512213,3108
1167.3947070420209,3075
1169.5466716641677,3073
1171.6980626149075,3099
1173.8488801305748,3073
1175.9991244475814,3032
1178.1487958024186,3023
1180.2978944316555,3074
1182.4464205719428,3059
1184.5943744600072,3073
1186.7417563326567,3046
1188.8885664267755,3026
1191.0348049793297,3025
1193.1804722273619,3057
1195.325568407995,3186
1197.4700937584303,3055
1199.614048515948,3119
1201.7574329179074,3093
1203.900247201746,3031
1206.042491604982,3127
1208.1841663652099,3098
1210.3252717201053,3146
1212.465807907422,3134
1214.6057751649923,3138
1216.7451737307279,3129
1218.8840038426192,3108
1221.0222657387353,3093
1223.1599596572241,3083
1225.2970858363137,3121
1227.4336445143094,3162
1229.5696359295966,3126
1231.705060320639,3213
1233.8399179259786,3102
1235.9742089842384,3197
1238.107933734118,3082
1240.2410924143974,3099
1242.373685263935,3106
1244.5057125216676,3221
1246.6371744266116,3066
1248.7680712178621,3145
1250.898403134593,3106
1253.028170416058,3214
1255.1573733015875,3237
1257.2860120305932,3132
1259.4140868425648,3095
1261.54159797707,3115
1263.6685456737569,3111
1265.7949301723515,3076
1267.9207517126597,3122
1270.046010534565,3165
1272.1707068780306,3142
1274.2948409830983,3064
1276.4184130898889,3021
1278.541423438603,3162
1280.6638722695184,3175
1282.785759822993,3233
1284.9070863394636,3163
1287.0278520594447,3173
1289.1480572235314,3244
1291.2677020723963,3240
1293.3867868467923,3298
1295.5053117875495,3295
1297.623277135579,3177
1299.740683131868,3382
1301.8575300174857,3223
1303.973818033578,3167
1306.0895474213703,3299
1308.2047184221678,3312
1310.3193312773528,3325
1312.4333862283888,3324
1314.5468835168163,3213
1316.659823384255,3225
1318.7722060724045,3240
1320.8840318230418,3262
1322.9953008780249,3347
1325.1060134792888,3282
1327.2161698688478,3398
1329.3257702887959,3254
1331.4348149813054,3261
1333.5433041886276,3210
1335.6512381530933,3185
1337.7586171171101,3186
1339.8654413231675,3315
1341.9717110138317,3317
1344.0774264317488,3313
1346.1825878196432,3253
1348.2871954203192,3355
1350.3912494766587,3202
1352.4947502316231,3172
1354.5976979282532,3198
1356.7000928096686,3224
1358.8019351190665,3308
1360.9032250997243,3292
1363.0039629949988,3203
1365.1041490483235,3222
1367.2037835032133,3330
1369.3028666032606,3283
1371.401398592137,3199
1373.4993797135926,3340
1375.5968102114575,3248
1377.6936903296396,3333
1379.7900203121262,3317
1381.8858004029835,3259
1383.9810308463561,3270
1386.075711886469,3269
1388.1698437676241,3306
1390.2634267342032,3211
1392.356461030667,3310
1394.4489469015557,3326
1396.5408845914872,3223
1398.6322743451592,3426
1400.7231164073469,3290
1402.813411022907,3435
1404.903158436773,3425
1406.9923588939578,3394
1409.0810126395531,3323
1411.1691199187303,3480
1413.2566809767386,3414
1415.343696058907,3383
1417.4301654106425,3359
1419.5160892774315,3407
1421.6014679048399,3489
1423.6863015385125,3537
1425.7705904241707,3590
1427.8543348076178,3385
1429.9375349347342,3533
1432.0201910514802,3525
1434.102303403894,3540
1436.1838722380944,3549
1438.2648978002767,3521
1440.3453803367174,3620
1442.4253200937692,3619
1444.5047173178677,3635
1446.5835722555234,3666
1448.6618851533285,3689
1450.739656257952,3765
1452.8168858161434,3789
1454.8935740747306,3803
1456.96972128062,3853
1459.045327680797,3858
1461.120393522327,3952
1463.1949190523528,3994
1465.2689045180973,3951
1467.3423501668608,3983
1469.415256246024,4089
1471.4876230030463,4113
1473.559450685465,4150
1475.6307395408976,4304
1477.7014898170391,4232
1479.771701761665,4298
1481.8413756226287,4319
1483.9105116478618,4269
1485.9791100853772,4538
1488.0471711832643,4535
1490.1146951896926,4410
1492.1816823529098,4488
1494.2481329212433,4583
1496.3140471430984,4625
1498.3794252669609,4627
1500.4442675413939,4718
1502.5085742150404,4583
1504.572345536622,4724
1506.6355817549388,4812
1508.6982831188702,4742
1510.7604498773744,4751
1512.8220822794883,4786
1514.8831805743293,4842
1516.9437450110909,4988
1519.003775839048,4913
1521.0632733075522,4900
1523.1222376660367,5018
1525.1806691640113,4903
1527.2385680510652,5061
1529.2959345768668,4968
1531.3527689911643,5172
1533.4090715437833,5098
1535.4648424846291,5212
1537.5200820636855,5157
1539.5747905310159,5337
1541.6289681367616,5319
1543.6826151311434,5369
1545.7357317644614,5396
1547.7883182870937,5492
1549.8403749494987,5413
1551.8919020022113,5659
1553.9428996958477,5723
1555.9933682811015,5635
1558.0433080087469,5752
1560.0927191296346,5803
1562.1416018946961,5973
1564.1899565549415,5889
1566.2377833614592,5946
1568.2850825654164,5842
1570.3318544180606,5718
1572.3780991707158,5589
1574.423817074788,5533
1576.4690083817595,5247
1578.5136733431923,5210
1580.5578122107272,4974
1582.601425236085,4904
1584.6445126710646,4807
1586.6870747675434,4654
1588.7291117774776,4516
1590.7706239529034,4317
1592.8116115459347,4176
1594.8520748087658,4110
1596.8920139936686,4060
1598.9314293529933,3954
1600.9703211391711,3813
1603.008689604711,3819
1605.0465350022005,3851
1607.0838575843068,3590
1609.1206576037753,3735
1611.1569353134305,3637
1613.1926909661765,3631
1615.2279248149953,3420
1617.2626371129481,3547
1619.2968281131757,3481
1621.3304980688963,3408
1623.3636472334088,3421
1625.39627586009,3498
1627.428384202396,3392
1629.459972513861,3342
1631.4910410480993,3356
1633.5215900588028,3230
1635.551619799744,3379
1637.5811305247717,3333
1639.6101224878166,3254
1641.6385959428862,3368
1643.6665511440683,3301
1645.693988345528,3261
1647.7209078015112,3308
1649.7473097663405,3234
1651.7731944944203,3207
1653.7985622402307,3171
1655.823413258333,3244
1657.847747803366,3270
1659.8715661300494,3248
1661.8948684931793,3146
1663.9176551476316,3223
1665.9399263483624,3099
1667.9616823504057,3074
1669.982923408873,3217
1672.0036497789574,3216
1674.0238617159293,3125
1676.043559475138,3216
1678.0627433120121,3204
1680.081413482059,3132
1682.0995702408654,3170
1684.117213844096,3155
1686.134344547495,3218
1688.1509626068864,3040
1690.1670682781705,3113
1692.182661817329,3298
1694.1977434804217,3104
1696.2123135235875,3198
1698.226372203043,3129
1700.2399197750851,3141
1702.2529564960905,3129
1704.2654826225112,3109
1706.277498410882,3152
1708.2890041178139,3100
1710.2999999999988,3051
1712.3104863142066,3056
1714.3204633172854,3152
1716.329931266163,3095
1718.3388904178469,3008
1720.3473410294214,3097
1722.3552833580516,2981
1724.3627176609807,3087
1726.3696441955308,3098
1728.3760632191033,3127
1730.3819749891782,3043
1732.3873797633146,3072
1734.3922777991502,3075
1736.3966693544012,3082
1738.4005546868639,3011
1740.4039340544127,2917
1742.406807715001,2943
1744.4091759266616,2968
1746.4110389475054,3020
1748.4123970357223,2987
1750.413250449582,2982
1752.4135994474318,3043
1754.4134442876993,2935
1756.4127852288902,2957
1758.4116225295893,2861
1760.4099564484595,2947
1762.407787244244,2926
1764.405115175764,2974
1766.4019405019203,2904
1768.3982634816916,2940
1770.3940843741357,2946
1772.3894034383907,2910
1774.3842209336717,2831
1776.378537119274,2777
1778.372352254571,2932
1780.3656665990156,2908
1782.3584804121397,2938
1784.3507939535534,2915
1786.3426074829463,2925
1788.3339212600863,2935
1790.3247355448211,2962
1792.3150505970766,2889
1794.3048666768573,2818
1796.2941840442477,2835
1798.2830029594106,2950
1800.2713236825884,2831
1802.2591464741004,3001
1804.2464715943465,2822
1806.2332993038058,2880
1808.2196298630352,2882
1810.2054635326708,2885
1812.190800573428,2847
1814.175641246101,2850
1816.1599858115628,2884
1818.1438345307652,2898
1820.127187664738,2855
1822.1100454745924,2863
1824.092408221516,2931
1826.0742761667766,2810
1828.055649571721,2822
1830.0365286977735,2835
1832.0169138064398,2844
1833.9968051593014,2890
1835.9762030180214,2845
1837.9551076443408,2855
1839.9335193000788,2826
1841.9114382471344,2855
1843.888864747485,2807
1845.8657990631878,2859
1847.842241456378,2842
1849.8181921892697,2800
1851.7936515241558,2815
1853.7686197234098,2736
1855.7430970494815,2868
1857.7170837649014,2809
1859.6905801322787,2794
1861.6635864143004,2864
1863.6361028737338,2823
1865.608129773424,2878
1867.5796673762961,2892
1869.5507159453537,2809
1871.521275743678,2845
1873.4913470344313,2866
1875.4609300808534,2828
1877.4300251462632,2829
1879.3986324940588,2883
1881.366752387717,2839
1883.3343850907936,2869
1885.3015308669228,2891
1887.268189979819,2859
1889.2343626932739,2838
1891.2000492711595,2845
1893.1652499774254,2846
1895.1299650761011,2905
1897.0941948312952,2819
1899.0579395071945,2860
1901.0211993680641,2926
1902.98397467825,2959
1904.9462657021745,2967
1906.9080727043415,2861
1908.869395949332,2938
1910.8302357018065,2832
1912.790592226504,2966
1914.7504657882428,2943
1916.7098566519212,2850
1918.6687650825133,2930
1920.6271913450764,2900
1922.5851357047422,2895
1924.5425984267245,2858
1926.499579776314,2872
1928.4560800188833,2837
1930.4120994198802,2875
1932.367638244833,2921
1934.32269675935,2879
1936.2772752291175,2941
1938.231373919899,2832
1940.1849930975404,2926
1942.1381330279637,2903
1944.0907939771696,2913
1946.0429762112412,2869
1947.9946799963363,2880
1949.9459055986945,2897
1951.896653284633,2855
1953.8469233205478,2909
1955.7967159729142,2869
1957.7460315082863,3018
1959.6948701932974,2836
1961.6432322946594,2840
1963.5911180791632,2916
1965.5385278136787,2847
1967.4854617651545,2925
1969.4319202006182,2892
1971.377903387176,2875
1973.3234115920136,2892
1975.268445082395,2873
1977.2130041256642,2863
1979.1570889892423,2880
1981.1006999406304,2899
1983.04383724741,2860
1984.986501177238,2949
1986.928691997853,2800
1988.8704099770712,2796
1990.811655382789,2787
1992.7524284829801,2819
1994.692729545698,2877
1996.6325588390755,2876
1998.5719166313224,2828
2000.5108031907307,2770
2002.4492187856677,2884
2004.387163684583,2809
2006.3246381560011,2784
2008.2616424685298,2896
2010.1981768908527,2925
2012.1342416917332,2845
2014.069837140014,2824
2016.0049635046162,2860
2017.9396210545406,2788
2019.8738100588666,2760
2021.8075307867502,2815
2023.740783507431,2749
2025.6735684902228,2890
2027.6058860045214,2780
2029.5377363198004,2860
2031.4691197056118,2818
2033.4000364315875,2764
2035.3304867674374,2793
2037.260470982952,2779
2039.189989347998,2826
2041.1190421325232,2796
2043.047629606554,2789
2044.9757520401945,2875
2046.9034097036288,2822
2048.8306028671195,2798
2050.7573318010086,2887
2052.683596775716,2784
2054.609398061742,2797
2056.5347359296647,2840
2058.4596106501403,2874
2060.384022493906,2866
2062.3079717317764,2864
2064.231458634646,2847
2066.1544834734873,2798
2068.077046519352,2864
2069.99914804337,2857
2071.9207883167524,2779
2073.8419676107865,2841
2075.7626861968406,2818
2077.6829443463607,2772
2079.6027423308715,2906
2081.522080421977,2849
2083.440958891362,2859
2085.359378010786,2783
2087.2773380520907,2760
2089.194839287196,2899
2091.111881988101,2859
2093.0284664268825,2802
2094.9445928756973,2789
2096.86026160678,2722
2098.775472892446,2819
2100.690227005088,2865
2102.604524217178,2896
2104.5183648012676,2791
2106.431749029985,2748
2108.34467717604,2817
2110.2571495122206,2817
2112.169166311393,2908
2114.080727846503,2759
2115.9918343905747,2861
2117.902486216711,2706
2119.8126835980956,2765
2121.722426807987,2917
2123.6317161197285,2836
2125.5405518067364,2792
2127.448934142509,2841
2129.356863400624,2808
2131.264339854737,2803
2133.1713637785815,2863
2135.077935445972,2973
2136.9840551308002,2810
2138.889723107037,2795
2140.7949396487334,2817
2142.699705030018,2836
2144.6040195250994,2851
2146.507883408264,2783
2148.4112969538774,2863
2150.3142604363848,2897
2152.2167741303097,2830
2154.1188383102535,2796
2156.0204532508997,2866
2157.9216192270064,2938
2159.822336513414,2849
2161.7226053850413,2837
2163.622426116884,2807
2165.5217989840185,2838
2167.4207242616,2850
2169.319202224862,2852
2171.2172331491165,2979
2173.1148173097563,2845
2175.0119549822507,2959
2176.90864644215,2850
2178.8048919650823,2847
2180.7006918267534,2881
2182.596046302952,2919
2184.4909556695407,2860
2186.3854202024645,2905
2188.279440177746,2932
2190.173015871487,2886
2192.066147559868,2849
2193.958835519149,2862
2195.851080025667,2872
2197.7428813558417,2901
2199.6342397861667,2857
2201.5251555932186,2951
2203.415629053651,2782
2205.3056604441986,2909
2207.19525004167,2893
2209.084398122958,2893
2210.9731049650327,2859
2212.861370844941,2831
2214.749196039812,2881
2216.636580826851,2919
2218.523525483344,2865
2220.410030286655,2863
2222.296095514226,2938
2224.1817214435805,2888
2226.066908352319,2957
2227.951656518121,2939
2229.835966218746,2936
2231.71983773203,2842
2233.6032713358913,2906
2235.486267308324,2941
2237.3688259274036,2924
2239.2509474712824,2869
2241.132632218193,2913
2243.013880446447,2874
2244.8946924344323,2866
2246.7750684606203,2826
2248.6550088035574,2842
2250.534513741871,2935
2252.413583554265,2918
2254.292218519526,2877
2256.170418916517,2837
2258.0481850241786,2799
2259.925517121534,2831
2261.8024154876825,2844
2263.678880401803,2862
2265.5549121431536,2891
2267.430510991071,2946
2269.305677224971,2855
2271.180411124348,2884
2273.0547129687766,2817
2274.9285830379076,2808
2276.8020216114737,2775
2278.6750289692845,2838
2280.5476053912294,2771
2282.4197511572766,2871
2284.2914665474727,2877
2286.162751841943,2868
2288.0336073208937,2843
2289.904033264608,2930
2291.774029953448,2908
2293.6435976678554,2901
2295.5127366883517,2928
2297.381447295534,2798
2299.2497297700825,2830
2301.1175843927526,2739
2302.9850114443825,2766
2304.852011205885,2794
2306.7185839582553,2699
2308.5847299825664,2768
2310.4504495599676,2775
2312.3157429716925,2648
2314.1806104990483,2561
2316.0450524234247,2734
2317.9090690262888,2724
2319.772660589186,2668
2321.635827393742,2857
2323.498569721661,2735
2325.3608878547248,2685
2327.2227820747967,2656
2329.0842526638157,2711
2330.945299903803,2661
2332.805924076857,2629
2334.6661254651535,2657
2336.525904350951,2719
2338.3852610165827,2672
2340.244195744464,2671
2342.102708817088,2677
2343.9608005170253,2609
2345.8184711269287,2720
2347.675720929526,2647
2349.532550207628,2648
2351.38895924412,2641
2353.24494832197,2695
2355.100517724223,2693
2356.955667734004,2637
2358.810398634514,2689
2360.664710709037,2680
2362.5186042409337,2752
2364.3720795136437,2696
2366.225136810686,2658
2368.0777764156583,2670
2369.929998612237,2710
2371.7818036841777,2631
2373.633191915315,2712
2375.484163589562,2649
2377.3347189909114,2738
2379.184858403434,2692
2381.03458211128,2664
2382.8838903986775,2689
2384.732783549936,2731
2386.5812618494406,2735
2388.4293255816588,2702
2390.2769750311327,2735
2392.1242104824883,2750
2393.971032220427,2745
2395.8174405297295,2821
2397.6634356952563,2638
2399.509018001947,2697
2401.3541877348193,2665
2403.1989451789705,2652
2405.043290619576,2733
2406.8872243418905,2706
2408.730746631247,2679
2410.5738577730594,2648
2412.4165580528183,2725
2414.258847756095,2710
2416.100727168537,2768
2417.9421965758734,2701
2419.783256263912,2789
2421.623906518538,2816
2423.4641476257157,2731
2425.303979871491,2734
2427.143403541984,2766
2428.9824189233977,2864
2430.821026302012,2800
2432.6592259641866,2718
2434.497018196361,2813
2436.33440328505,2721
2438.171381516851,2731
2440.00795317844,2745
2441.844118556569,2799
2443.6798779380724,2713
2445.5152316098606,2737
2447.3501798589255,2795
2449.1847229723357,2807
2451.0188612372403,2842
2452.8525949408663,2714
2454.6859243705203,2756
2456.518849813587,2713
2458.3513715575314,2679
2460.183489889895,2685
2462.015205098301,2687
2463.8465174704493,2712
2465.67742729412,2752
2467.5079348571717,2758
2469.338040447542,2735
2471.1677443532476,2773
2472.9970468623833,2679
2474.825948263123,2683
2476.6544488437207,2767
2478.482548892508,2817
2480.310248697896,2733
2482.137548548374,2785
2483.9644487325118,2729
2485.790949538956,2699
2487.617051256433,2716
2489.44275417375,2753
2491.26805857979,2683
2493.0929647635157,2712
2494.917473013971,2773
2496.741583620276,2755
2498.5652968716304,2756
2500.3886130573137,2822
2502.2115324666834,2749
2504.0340553891765,2778
2505.856182114308,2791
2507.6779129316733,2782
2509.499248130945,2728
2511.3201880018764,2743
2513.140732834298,2801
2514.9608829181198,2782
2516.780638543331,2806
2518.6,2811
2520.418967578273,2839
2522.237541568376,2903
2524.0557222606144,2794
2525.8735099453706,2811
2527.6909049131086,2859
2529.507907454368,2794
2531.32451785977,2843
2533.140736420014,2826
2534.9565634258774,2884
2536.771999168218,2851
2538.5870439379714,2802
2540.4016980261526,2854
2542.2159617238544,2892
2544.02983532225,2908
2545.8433191125914,2873
2547.656413386209,2924
2549.4691184345115,2949
2551.2814345489874,2970
2553.093362021204,2941
2554.904901142808,2938
2556.716052205523,2898
2558.526815501153,2808
2560.3371913215824,2838
2562.147179958771,2909
2563.956781704761,2950
2565.7659968516705,3000
2567.5748256916986,2953
2569.3832685171224,2920
2571.1913256202984,2970
2572.9989972936614,3051
2574.806283829725,2992
2576.613185521084,2887
2578.4197026604074,3053
2580.2258355404483,3171
2582.031584454035,3058
2583.836949694077,3053
2585.6419315535613,3100
2587.4465303255533,3070
2589.2507463032002,2984
2591.0545797797245,3081
2592.8580310484303,3126
2594.6611004026995,3089
2596.463788135992,3220
2598.266094541849,3149
2600.0680199138874,3163
2601.869564545807,3158
2603.670728731383,3060
2605.4715127644704,3105
2607.2719169390048,3126
2609.071941548998,3109
2610.8715868885433,3068
2612.670853251811,3118
2614.469740933052,3067
2616.268250226594,3033
2618.0663814268455,3045
2619.864134828292,3078
2621.6615107255006,3064
2623.458509413115,3030
2625.2551311858597,3096
2627.0513763385347,3008
2628.8472451660223,3082
2630.6427379632833,3072
2632.4378550253564,2885
2634.232596647359,2947
2636.026963124488,2965
2637.8209547520187,2946
2639.6145718253065,2944
2641.407814639785,2942
2643.200683490966,2870
2644.9931786744414,2915
2646.7853004858807,2836
2648.577049221034,2951
2650.3684251757277,2841
2652.1594286458712,2748
2653.9500599274484,2947
2655.740319316525,2931
2657.5302071092437,2830
2659.3197236018286,2755
2661.10886909058,2820
2662.8976438718782,2774
2664.686048242183,2763
2666.4740824980327,2809
2668.2617469360443,2755
2670.0490418529134,2824
2671.8359675454153,2753
2673.622524310403,2767
2675.408712444811,2786
2677.1945322456495,2661
2678.979984010009,2787
2680.76506803506,2760
2682.5497846180497,2691
2684.334134056306,2691
2686.1181166472343,2663
2687.9017326883213,2709
2689.6849824771293,2645
2691.4678663113013,2671
2693.2503844885596,2756
2695.032537306705,2621
2696.8143250636167,2681
2698.5957480572542,2623
2700.3768065856534,2609
2702.1575009469316,2641
2703.937831439283,2668
2705.717798360982,2636
2707.4974020103837,2635
2709.276642685917,2637
2711.055520686095,2611
2712.834036309506,2635
2714.612189854819,2582
2716.389981620782,2577
2718.1674119062204,2623
2719.944481010041,2592
2721.721189231226,2607
2723.4975368688415,2633
2725.273524222027,2586
2727.0491515900053,2625
2728.824419272075,2583
2730.5993275676146,2494
2732.3738767760838,2636
2734.148067197016,2653
2735.921899130031,2555
2737.6953728748194,2514
2739.468488731156,2567
2741.2412469988926,2527
2743.0136479779617,2551
2744.785691968372,2566
2746.5573792702116,2596
2748.3287101836504,2531
2750.099685008934,2614
2751.870304046388,2619
2753.640567596418,2509
2755.4104759595057,2496
2757.1800294362156,2557
2758.949228327187,2548
2760.7180729331412,2473
2762.486563554877,2585
2764.254700493272,2596
2766.022484049284,2613
2767.789914523947,2489
2769.5569922183786,2532
2771.3237174337705,2521
2773.090090471394,2465
2774.8561116326036,2630
2776.6217812188274,2595
2778.3870995315756,2535
2780.1520668724356,2553
2781.9166835430747,2524
2783.6809498452394,2579
2785.444866080754,2564
2787.2084325515225,2531
2788.971649559527,2487
2790.73451740683,2577
2792.4970363955713,2549
2794.2592068279705,2525
2796.0210290063264,2586
2797.7825032330147,2464
2799.543629810493,2577
2801.304409041296,2501
2803.0648412280366,2536
2804.8249266734088,2543
2806.5846656801846,2544
2808.344058551212,2534
2810.1031055894246,2517
2811.8618070978273,2511
2813.6201633795085,2527
2815.378174737636,2477
2817.1358414754536,2549
2818.893163896285,2568
2820.6501423035334,2549
2822.4067770006814,2570
2824.1630682912883,2474
2825.9190164789957,2530
2827.6746218675207,2576
2829.429884760661,2463
2831.184805462294,2475
2832.9393842763743,2491
2834.693621506936,2603
2836.4475174580916,2527
2838.201072434034,2499
2839.954286739034,2553
2841.707160677441,2538
2843.459694553685,2520
2845.2118886722724,2520
2846.96374333779,2545
2848.7152588549034,2544
2850.4664355283567,2523
2852.217273662973,2558
2853.9677735636546,2521
2855.7179355353833,2520
2857.4677598832186,2517
2859.217246912299,2519
2860.9663969278427,2496
2862.715210235146,2470
2864.4636871395846,2529
2866.211827946614,2448
2867.9596329617652,2498
2869.7071024906536,2528
2871.4542368389684,2491
2873.20103631248,2499
2874.947501217038,2451
2876.6936318585695,2529
2878.4394285430812,2466
2880.1848915766604,2543
2881.9300212654707,2467
2883.6748179157553,2530
2885.4192818338374,2408
2887.1634133261173,2419
2888.907212699077,2490
2890.6506802592744,2474
2892.393816313348,2554
2894.1366211680142,2467
2895.8790951300693,2565
2897.621238506388,2477
2899.363051603925,2510
2901.1045347297118,2512
2902.8456881908596,2430
2904.58651229456,2444
2906.327007348081,2425
2908.067173658772,2446
2909.8070115340597,2463
2911.5465212814497,2419
2913.285703208527,2465
2915.0245576229563,2416
2916.7630848324807,2459
2918.5012851449196,2438
2920.2391588681758,2516
2921.976706310227,2515
2923.7139277791334,2459
2925.4508235830313,2469
2927.187394030137,2496
2928.923639428745,2411
2930.6595600872306,2457
2932.395156314046,2474
2934.1304284177218,2418
2935.8653767068713,2567
2937.6000014901815,2465
2939.3343030764227,2551
2941.068281774442,2549
2942.8019378931644,2455
2944.5352717415976,2515
2946.2682836288236,2478
2948.0009738640065,2390
2949.7333427563885,2564
2951.465390615289,2504
2953.1971177501086,2438
2954.9285244703265,2457
2956.6596110855,2429
2958.3903779052657,2484
2960.1208252393385,2436
2961.8509533975125,2459
2963.5807626896617,2547
2965.3102534257378,2474
2967.0394259157715,2550
2968.768280469873,2518
2970.496817398232,2434
2972.2250370111146,2489
2973.952939618869,2495
2975.6805255319196,2457
2977.4077950607707,2460
2979.134748516006,2524
2980.861386208289,2517
2982.587708448359,2555
2984.313715547037,2527
2986.039407815222,2547
2987.764785563891,2551
2989.489849104102,2540
2991.2145987469908,2490
2992.9390348037705,2564
2994.6631575857346,2447
2996.3869674042576,2401
2998.1104645707887,2433
2999.83364939686,2466
3001.5565221940783,2469
3003.2790832741334,2398
3005.0013329487924,2443
3006.7232715298996,2495
3008.4448993293804,2458
3010.166216659239,2447
3011.887223831558,2449
3013.607921158498,2433
3015.3283089522993,2502
3017.0483875252826,2455
3018.7681571898443,2479
3020.4876182584626,2504
3022.2067710436927,2456
3023.9256158581707,2398
3025.644153014609,2449
3027.362382825801,2399
3029.0803056046193,2514
3030.797921664012,2465
3032.5152313170106,2439
3034.2322348767225,2470
3035.9489326563353,2502
3037.665324969115,2449
3039.3814121284063,2462
3041.097194447633,2470
3042.812672240299,2540
3044.5278458199855,2495
3046.2427155003525,2461
3047.9572815951406,2492
3049.671544418167,2457
3051.38550428333,2389
3053.0991615046073,2491
3054.812516396051,2470
3056.5255692717974,2448
3058.2383204460575,2405
3059.9507702331257,2433
3061.662918947372,2466
3063.3747669032446,2479
3065.0863144152736,2497
3066.7975617980674,2507
3068.508509366309,2507
3070.219157434767,2487
3071.9295063182844,2526
3073.639556331785,2517
3075.3493077902704,2497
3077.058761008821,2490
3078.7679163025964,2556
3080.476773986837,2582
3082.1853343768594,2520
3083.89359778806,2513
3085.6015645359153,2515
3087.3092349359786,2479
3089.016609303884,2513
3090.7236879553434,2571
3092.4304712061476,2610
3094.136959372166,2505
3095.843152769349,2501
3097.5490517137237,2524
3099.2546565213966,2552
3100.959967508554,2548
3102.66498499146,2592
3104.3697092864577,2620
3106.0741407099695,2539
3107.778279578498,2598
3109.482126208622,2521
3111.1856809170004,2565
3112.8889440203716,2546
3114.5919158355528,2479
3116.294596679439,2550
3117.996986869006,2550
3119.6990867213062,2527
3121.4008965534726,2614
3123.102416682717,2530
3124.803647426329,2594
3126.5045891016784,2604
3128.205242026213,2561
3129.90560651746,2517
3131.605682893025,2552
3133.3054714705922,2549
3135.0049725679282,2548
3136.7041865028714,2630
3138.4031135933465,2508
3140.101754157353,2557
3141.800108512971,2624
3143.498176978357,2586
3145.1959598717494,2573
3146.8934575114636,2539
3148.5906702158954,2593
3150.2875983035183,2496
3151.9842420928853,2507
3153.680601902627,2529
3155.376678051456,2566
3157.07247085816,2553
3158.767980641609,2494
3160.463207720748,2504
3162.158152414606,2575
3163.8528150422862,2596
3165.5471959229726,2651
3167.2412953759303,2443
3168.9351137204976,2494
3170.628651276098,2574
3172.3219083622307,2612
3174.014885298474,2538
3175.707582404485,2589
3177.4000000000005,2580
3179.092138404835,2547
3180.7839979388846,2526
3182.47557892212,2504
3184.166881674594,2580
3185.8579065164386,2600
3187.5486537678626,2616
3189.2391237491547,2537
3190.9293167806827,2523
3192.6192331828934,2508
3194.3088732763117,2479
3195.998237381542,2555
3197.687325819268,2472
3199.376138910251,2477
3201.064676975334,2542
3202.7529403354347,2509
3204.4409293115523,2466
3206.1286442247647,2530
3207.816085396229,2516
3209.5032531471825,2494
3211.190147798936,2478
3212.8767696728846,2445
3214.5631190905015,2490
3216.2491963733373,2505
3217.9350018430214,2463
3219.6205358212637,2407
3221.305798629851,2437
3222.990790590651,2444
3224.6755120256103,2496
3226.359963256751,2494
3228.0441446061795,2414
3229.7280563960758,2475
3231.411698948703,2515
3233.0950725863995,2456
3234.778177631587,2501
3236.461014406761,2472
3238.1435832345005,2558
3239.8258844374595,2504
3241.507918338374,2440
3243.1896852600576,2518
3244.8711855254023,2484
3246.552419457381,2463
3248.233387379042,2490
3249.914089613516,2528
3251.59452648401,2524
3253.274698313813,2439
3254.95460542629,2500
3256.6342481448855,2405
3258.313626793125,2416
3259.9927416946084,2448
3261.6715931730196,2509
3263.3501815521176,2403
3265.0285071557437,2404
3266.706570307815,2405
3268.3843713323286,2437
3270.0619105533615,2367
3271.739188295068,2461
3273.4162048816834,2449
3275.0929606375184,2485
3276.769455886966,2447
3278.445690954498,2454
3280.1216661646613,2444
3281.797381842087,2482
3283.4728383114807,2456
3285.1480358976296,2442
3286.8229749253996,2351
3288.4976557197333,2457
3290.172078605655,2432
3291.846243908266,2355
3293.5201519527463,2449
3295.193803064357,2368
3296.8671975684374,2351
3298.5403357904024,2422
3300.21321805575,2342
3301.8858446900567,2364
3303.558216018975,2390
3305.23033236824,2390
3306.9021940636603,2420
3308.57380143113,2385
3310.2451547966184,2382
3311.916254486174,2445
3313.5871008259246,2464
3315.2576941420766,2476
3316.9280347609147,2443
3318.5981230088046,2395
3320.2679592121895,2405
3321.9375436975924,2364
3323.606876791612,2323
3325.27595882093,2433
3326.944790112305,2439
3328.6133709925753,2409
3330.2817017886573,2367
3331.949782827547,2399
3333.617614436319,2470
3335.2851969421245,2419
3336.952530672199,2402
3338.619615953853,2488
3340.286453114475,2400
3341.9530424815357,2458
3343.619384382583,2431
3345.2854791452437,2465
3346.951327097224,2433
3348.6169285663073,2419
3350.2822838803577,2470
3351.947393367319,2482
3353.61225735521,2546
3355.2768761721345,2495
3356.9412501462693,2406
3358.605379605873,2397
3360.2692648792827,2418
3361.9329062949146,2484
3363.596304181263,2343
