CollectionTime,7/9/2024 1:19:18 PM
ExposureUsed,3
CalibratedSpectrum
-962.7078968117929,450
-959.9714848408522,461
-957.2358232597828,469
-954.5009119013725,487
-951.7667505983302,499
-949.0333391832855,490
-946.3006774887896,523
-943.5687653473143,492
-940.837602591253,481
-938.1071890529199,505
-935.3775245645503,500
-932.6486089583007,507
-929.9204420662485,506
-927.1930237203925,501
-924.4663537526524,513
-921.7404319948689,497
-919.0152582788041,502
-916.2908324361409,540
-913.5671542984834,530
-910.8442236973568,520
-908.1220404642074,527
-905.4006044304027,556
-902.679915427231,501
-899.959973285902,507
-897.2407778375464,499
-894.5223289132158,523
-891.8046263438832,530
-889.0876699604426,487
-886.3714595937089,510
-883.6559950744183,470
-880.9412762332282,488
-878.2273029007168,475
-875.5140749073835,465
-872.8015920836489,448
-870.0898542598545,507
-867.3788612662631,480
-864.6686129330585,477
-861.9591090903457,493
-859.2503495681506,481
-856.5423341964203,518
-853.8350628050229,471
-851.1285352237478,479
-848.4227512823054,477
-845.7177108103272,464
-843.0134136373656,471
-840.3098595928943,490
-837.6070485063082,492
-834.9049802069229,505
-832.2036545239757,513
-829.5030712866244,505
-826.8032303239481,501
-824.1041314649472,519
-821.4057745385428,495
-818.7081593735775,501
-816.0112857988148,488
-813.3151536429393,498
-810.6197627345566,518
-807.9251129021936,490
-805.2312039742981,517
-802.5380357792392,528
-799.8456081453069,499
-797.1539209007124,527
-794.462973873588,510
-791.772766891987,557
-789.083299783884,493
-786.3945723771743,535
-783.7065844996748,503
-781.0193359791231,509
-778.3328266431781,510
-775.6470563194197,505
-772.9620248353489,503
-770.2777320183878,507
-767.5941776958798,531
-764.9113616950891,544
-762.2292838432011,544
-759.5479439673222,553
-756.8673418944801,507
-754.1874774516235,517
-751.5083504656222,532
-748.8299607632671,546
-746.15230817127,524
-743.475392516264,533
-740.7992136248035,531
-738.1237713233636,529
-735.4490654383407,512
-732.7750957960521,510
-730.1018622227365,550
-727.4293645445534,567
-724.7576025875837,574
-722.0865761778291,553
-719.4162851412126,527
-716.7467293035781,535
-714.0779084906909,544
-711.409822528237,554
-708.7424712418238,527
-706.0758544569796,542
-703.4099719991541,569
-700.7448236937178,561
-698.0804093659622,557
-695.4167288411002,563
-692.7537819442656,540
-690.0915685005134,565
-687.4300883348199,555
-684.7693412720819,562
-682.1093271371178,545
-679.4500457546669,541
-676.7914969493897,557
-674.1336805458676,557
-671.4765963686034,545
-668.8202442420206,586
-666.1646239904642,569
-663.5097354382001,602
-660.8555784094151,598
-658.2021527282176,563
-655.5494582186366,590
-652.8974947046223,592
-650.2462620100463,564
-647.5957599587009,546
-644.9459883742998,585
-642.2969470804776,623
-639.6486359007902,585
-637.0010546587141,593
-634.3542031776476,594
-631.7080812809096,591
-629.0626887917401,576
-626.4180255333008,617
-623.7740913286734,620
-621.1308860008619,628
-618.4884093727904,553
-615.8466612673046,633
-613.2056415071715,620
-610.5653499150785,624
-607.9257863136347,584
-605.28695052537,598
-602.6488423727357,607
-600.0114616781036,597
-597.3748082637674,616
-594.7388819519412,595
-592.1036825647604,635
-589.4692099242818,623
-586.8354638524829,608
-584.2024441712624,632
-581.5701507024403,650
-578.9385832677575,607
-576.3077416888759,628
-573.6776257873787,668
-571.0482353847704,603
-568.4195703024757,631
-565.7916303618415,657
-563.164415384135,647
-560.5379251905453,625
-557.9121596021815,643
-555.2871184400748,597
-552.6628015251767,660
-550.0392086783606,617
-547.4163397204204,605
-544.794194472071,658
-542.1727727539491,637
-539.5520743866118,665
-536.9320991905377,705
-534.3128469861261,674
-531.6943175936979,771
-529.0765108334947,726
-526.4594265256793,759
-523.8430644903358,913
-521.2274245474689,1005
-518.612506517005,1060
-515.9983102187913,1094
-513.3848354725959,1113
-510.77208209810846,1163
-508.16004991493924,1334
-505.5487387426199,1558
-502.9381484006032,1653
-500.3282787082628,1709
-497.71912948489364,1598
-495.1107005497117,1465
-492.5029917218539,1288
-489.8960028203786,1086
-487.28973366426493,976
-484.68418407241325,906
-482.07935386364494,823
-479.47524285670266,838
-476.87185087025,812
-474.2691777228715,836
-471.66722323307334,849
-469.0659872192821,822
-466.4654694998459,825
-463.86566989303384,838
-461.26658821703614,817
-458.66822428996414,832
-456.07057792985,828
-453.4736489546475,809
-450.877437182231,848
-448.28194243039627,790
-445.68716451686,788
-443.09310325926003,795
-440.49975847515555,780
-437.9071299820263,780
-435.31521759727354,783
-432.72402113821954,784
-430.13354042210767,841
-427.5437752661022,899
-424.95472548728867,827
-422.36639090267386,841
-419.7787713291855,826
-417.1918665836721,862
-414.60567648290385,884
-412.0202008435715,878
-409.4354394822874,880
-406.8513922155845,925
-404.26805885991723,878
-401.685439231661,854
-399.103533147112,908
-396.522340422488,868
-393.9418608739278,856
-391.3620943174908,864
-388.7830405691583,889
-386.2046994448317,805
-383.6270707603344,793
-381.05015433141045,764
-378.473949973725,702
-375.8984575028645,694
-373.32367673433623,643
-370.74960748356875,682
-368.1762495659117,646
-365.60360279663576,588
-363.03166699093265,532
-360.4604419639154,538
-357.8899275306178,511
-355.32012350599507,518
-352.7510297049233,516
-350.1826459421999,473
-347.61497203254316,478
-345.04800779059235,482
-342.4817530309082,506
-339.91620756797226,533
-337.35137121618743,527
-334.7872437898774,519
-332.22382510328725,546
-329.66111497058273,496
-327.09911320585127,485
-324.53781962310075,521
-321.9772340362607,526
-319.4173562591816,487
-316.8581861056348,495
-314.2997233893127,486
-311.7419679238294,489
-309.1849195227194,469
-306.62857799943856,518
-304.0729431673641,528
-301.51801483979375,555
-298.963792829947,528
-296.41027695096386,522
-293.85746701590574,577
-291.3053628377552,584
-288.7539642294155,601
-286.2032710037115,570
-283.65328297338897,542
-281.1039999511146,570
-278.5554217494762,563
-276.007548180983,580
-273.4603790580651,580
-270.9139141930734,574
-268.3681533982807,561
-265.8230964858798,538
-263.27874326798565,592
-260.7350935566336,586
-258.1921471637804,581
-255.6499039013039,609
-253.10836358100266,616
-250.56752601459698,607
-248.02739101372765,625
-245.48795838995704,691
-242.94922795476816,581
-240.41119951956557,617
-237.8738728956746,678
-235.33724789434166,759
-232.80132432673452,655
-230.2661020039418,624
-227.73158073697357,660
-225.19776033676033,743
-222.66464061415422,768
-220.1322213799284,678
-217.60050244477725,666
-215.06948361931552,668
-212.53916471408013,698
-210.00954553952818,745
-207.48062590603843,752
-204.9524056239104,692
-202.4248845033651,754
-199.8980623545441,771
-197.37193898751036,751
-194.84651421224817,729
-192.32178783866232,774
-189.79775967657952,834
-187.27442953574644,862
-184.7517972258321,918
-182.2298625564256,861
-179.7086253370378,804
-177.18808537710026,737
-174.66824248596583,744
-172.14909647290835,817
-169.6306471471229,877
-167.11289431772548,902
-164.59583779375328,897
-162.07947738416453,937
-159.5638128978386,997
-157.04884414357605,1128
-154.53457093009854,1220
-152.02099306604828,1082
-149.50811035998936,883
-146.99592262040665,855
-144.48442965570587,975
-141.97363127421409,1031
-139.46352728417958,1162
-136.95411749377126,1324
-134.44540171107985,1204
-131.93737974411636,945
-129.43005140081357,1112
-126.92341648902493,1701
-124.41747481652521,2365
-121.91222619101006,2970
-119.40767042009657,3517
-116.90380731132257,4025
-114.40063667214702,3988
-111.8981583099503,3157
-109.3963720320337,2293
-106.89527764561933,2077
-104.39487495785067,2604
-101.89516377579241,3768
-99.39614390642998,5887
-96.89781515667039,7029
-94.40017733334128,6255
-91.90323024319173,5134
-89.40697369289148,4721
-86.91140748903172,5565
-84.41653143812482,5785
-81.92234534660395,5058
-79.42884902082358,4550
-76.93604226705907,5853
-74.4439248915071,9016
-71.95249670028534,13235
-69.46175749943245,15640
-66.97170709490854,15619
-64.48234529259423,13918
-61.99367189829195,11620
-59.50568671772464,9100
-57.01838955653636,6605
-54.53178022029283,6186
-52.045858514480074,6916
-49.560624244506016,7405
-47.07607721569923,8289
-44.59221723330904,8375
-42.10904410250669,8831
-39.62655762838392,7610
-37.14475761595372,6968
-34.66364387015028,7530
-32.18321619582866,7519
-29.70347439776515,7571
-27.224418280657005,8205
-24.74604764912317,9528
-22.26836230770266,14942
-19.7913620608565,27776
-17.315046712966478,50190
-14.83941606833514,65037
-12.36446993118659,65037
-9.89020810566592,65037
-7.416630395839093,65037
-4.94373660569363,65037
-2.471526539137585,65037
-6.821210263296962E-13,65037
2.47084320796705,65037
4.941003281093458,65037
7.410480415786196,65037
9.879274808531363,65037
12.347386655893956,65037
14.814816154518212,65037
17.28156350112681,65037
19.74762889252179,65037
22.21301252558385,65037
24.67771459727237,22030
27.141735304626195,4560
29.605074844762612,2889
32.06773341487792,2435
34.52971121224755,2090
36.99100843422559,2259
39.45162527824516,2267
41.91156194181792,1965
44.370818622535126,1646
46.82939551806646,1510
49.287292826160524,1569
51.74451074464503,1741
54.201049471426245,1631
56.65690920448981,1417
59.112090141899785,1320
61.56659248179983,1211
64.02041642241159,1041
66.4735621620365,1045
68.92602989905402,1049
71.37781983192338,1111
73.82893215918205,1116
76.27936707944684,1148
78.72912479141326,1204
81.17820549385567,1201
83.62660938562783,1324
86.07433666566146,1384
88.5213875329681,1082
90.96776218663751,961
93.41346082583925,1002
95.85848364982041,1066
98.30283085790859,1168
100.7465026495089,1196
103.18949922410604,1117
105.63182078126385,1089
108.07346752062438,1170
110.51443964190923,1020
112.95473734491827,999
115.39436082953114,929
117.83331029570547,977
120.27158594347827,888
122.7091879729652,934
125.1461165843615,1007
127.58237197794062,1027
130.01795435405518,946
132.4528639131364,945
134.88710085569494,928
137.32066538231982,911
139.75355769367923,808
142.1857779905207,872
144.61732647366978,857
147.04820334403132,935
149.47840880258934,953
151.90794305040674,961
154.33680628862487,1048
156.76499871846443,1268
159.19252054122433,1347
161.61937195828352,1429
164.04555317109896,1511
166.47106438120693,1683
168.89590579022217,1797
171.320077599839,1909
173.7435800118302,1957
176.16641322804742,1997
178.58857745042144,2059
181.01007288096173,2216
183.43089972175687,2341
185.85105817497413,2295
188.27054844285988,2161
190.6893707277394,2175
193.10752523201643,2239
195.5250121581745,2318
197.9418317087751,2211
200.3579840864594,2358
202.7734694939469,2393
205.18828813403627,2314
207.6024402096051,2494
210.01592592360964,2570
212.42874547908548,2517
214.84089907914665,2507
217.2523869269868,2568
219.66320922587727,2488
222.0733661791695,2419
224.48285799029293,2470
226.8916848627572,2402
229.29984700014882,2440
231.7073446061355,2460
234.11417788446204,2386
236.520347038953,2350
238.92585227351185,2408
241.33069379212054,2494
243.73487179884035,2510
246.1383864978112,2527
248.541238093252,2390
250.9434267894609,2426
253.34495279081432,2404
255.74581630176783,2382
258.1460175268563,2424
260.54555667069314,2451
262.9444339379703,2463
265.3426495334594,2407
267.7402036620107,2482
270.1370965285529,2513
272.53332833809407,2472
274.9288992957214,2414
277.32380960660055,2450
279.718059475976,2422
282.1116491091717,2390
284.5045787115897,2435
286.89684848871195,2438
289.2884586460981,2478
291.67940938938807,2474
294.0697009242996,2507
296.4593334566299,2520
298.84830719225477,2478
301.23662233712923,2373
303.6242790972866,2443
306.01127767884,2367
308.39761828798066,2378
310.78330113097934,2450
313.16832641418534,2281
315.5526943440269,2272
317.9364051270112,2188
320.3194589697242,2240
322.70185607883093,2325
325.0835966610754,2273
327.4646809232805,2172
329.8451090723478,2261
332.2248813152577,2189
334.6039978590701,2193
336.9824589109231,2135
339.36026467803447,2157
341.7374153677,2113
344.113911187295,2053
346.48975234427337,2170
348.8649390461686,2087
351.2394715005918,2109
353.61334991523415,2099
355.9865744978655,2044
358.35914545633375,2086
360.73106299856715,2074
363.10232733257146,1997
365.47293866643247,2069
367.84289720831396,2025
370.2122031664593,2117
372.5808567491905,1989
374.9488581649083,2011
377.31620762209275,2009
379.6829053293021,1980
382.0489514951745,2016
384.4143463284262,1978
386.7790900378528,1999
389.14318283232853,1960
391.50662492080653,1989
393.86941651231916,2018
396.23155781597745,1976
398.5930490409713,2034
400.9538903965696,2002
403.3140820921202,1955
405.6736243370498,1964
408.03251734086336,2001
410.3907613131465,1939
412.74835646356166,1955
415.10530300185144,1944
417.4616011378372,1984
419.81725108141893,1903
422.1722530425758,1934
424.5266072313656,1909
426.880313857925,1905
429.2333731324701,2004
431.58578526529516,1947
433.9375504667738,1985
436.2886689473588,1855
438.63914091758113,1887
440.9889665880513,1911
443.33814616945835,1868
445.68667987257015,1805
448.03456790823395,1891
450.3818104873759,1854
452.72840782100013,1801
455.07436012019105,1843
457.41966759611057,1857
459.7643304600007,1912
462.10834892318155,1874
464.4517231970525,1837
466.79445349309174,1844
469.1365400228566,1953
471.4779829979826,1868
473.81878263018564,1956
476.15893913125876,1913
478.4984527130747,1897
480.8373235875855,1926
483.17555196682144,2035
485.5131380628919,2151
487.8500820879857,2170
490.1863842543697,2271
492.52204477439034,2425
494.8570638604725,2691
497.1914417251204,3007
499.52517858091653,3424
501.85827464052306,3742
504.19073011668036,3982
506.5225452222086,4091
508.85372017000566,3920
511.18425517304956,3786
513.514150444396,3831
515.8434061971808,4302
518.1720226446176,5250
520.4999999999999,5399
522.8273384766991,5115
525.1540382881666,4515
527.480099647932,4016
529.8055227696037,3267
532.1303078668694,2779
534.454455153496,2304
536.777964843328,2282
539.1008371502907,2245
541.4230722883866,2212
543.744670471698,2134
546.0656319143858,2110
548.3859568306899,2126
550.7056454349294,2063
553.0246979415016,2092
555.3431145648834,2027
557.6608955196306,1972
559.978041020377,2017
562.2945512818363,2011
564.6104265188006,2055
566.9256669461412,2103
569.2402727788082,2057
571.5542442318302,2060
573.8675815203156,2120
576.1802848594508,2012
578.4923544645015,2073
580.8037905508126,2074
583.114593333807,2118
585.4247630289875,2059
587.7342998519354,1998
590.0432040183106,2071
592.3514757438526,2095
594.6591152443794,2109
596.9661227357875,2075
599.2724984340531,2112
601.578242555231,2034
603.8833553154542,2117
606.1878369309362,2089
608.4916876179676,2002
610.7949075929192,2063
613.0974970722403,1989
615.3994562724587,2016
617.7007854101818,1945
620.0014847020951,2009
622.3015543649641,2021
624.6009946156324,1997
626.8998056710224,1994
629.1979877481361,2002
631.4955410640538,2001
633.7924658359349,1960
636.0887622810175,1958
638.3844306166192,2039
640.6794710601358,1979
642.9738838290426,2023
645.2676691408932,2055
647.5608272133207,1993
649.853358264037,2021
652.1452625108324,2035
654.4365401715764,2002
656.7271914642178,2033
659.0172166067838,2075
661.3066158173809,2059
663.5953893141935,2026
665.8835373154867,1999
668.1710600396028,1966
670.4579577049639,2045
672.7442305300709,1964
675.0298787335033,2023
677.3149025339197,2078
679.599302150058,1999
681.8830778007342,1985
684.1662297048437,2012
686.4487580813608,2009
688.7306631493387,1998
691.0119451279091,2056
693.2926042362834,2044
695.5726406937516,1984
697.8520547196814,2023
700.1308465335215,1949
702.4090163547982,1979
704.6865644031171,1954
706.9634908981619,1949
709.2397960596965,1974
711.5154801075631,1933
713.7905432616823,1966
716.0649857420548,1953
718.3388077687592,1952
720.612009561953,1943
722.8845913418733,2001
725.1565533288352,2049
727.427895743234,1999
729.6986188055427,2012
731.9687227363137,1965
734.238207756178,2022
736.5070740858458,1987
738.7753219461066,1959
741.0429515578281,2035
743.3099631419569,1988
745.5763569195191,1944
747.8421331116193,2025
750.1072919394409,2053
752.3718336242467,2006
754.6357583873777,2002
756.8990664502545,2020
759.1617580343765,2020
761.423833361321,1940
763.6852926527457,1933
765.9461361303862,2042
768.206364016058,2022
770.4659765316536,2017
772.7249738991469,2051
774.9833563405886,2066
777.2411240781092,2089
779.4982773339183,1984
781.7548163303044,2041
784.010741289634,2081
786.2660524343538,2164
788.5207499869881,2071
790.7748341701416,2081
793.0283052064964,2042
795.2811633188143,2073
797.5334087299362,2081
799.7850416627813,2064
802.0360623403484,2025
804.2864709857143,2057
806.5362678220353,2040
808.7854530725468,2105
811.0340269605625,1984
813.2819897094754,2049
815.5293415427581,1984
817.77608268396,2073
820.0222133567116,2076
822.2677337847211,2067
824.5126441917765,1990
826.7569448017433,2105
829.0006358385675,2054
831.2437175262731,2099
833.4861900889629,2015
835.7280537508192,2052
837.9693087361026,2054
840.2099552691533,2042
842.4499935743896,1987
844.689423876309,2045
846.9282463994886,1994
849.1664613685833,2087
851.4040690083276,1983
853.6410695435349,2001
855.877463199097,2027
858.1132501999847,2053
860.3484307712487,2058
862.5830051380175,2047
864.8169735254988,2032
867.0503361589791,2087
869.2830932638243,2053
871.5152450654786,2058
873.7467917894654,2076
875.9777336613873,2117
878.2080709069252,2072
880.4378037518389,2109
882.666932421968,2082
884.8954571432301,2093
887.1233781416219,2111
889.3506956432192,2079
891.5774098741766,2078
893.803521060728,2104
896.0290294291852,2052
898.2539352059397,2068
900.4782386174619,2050
902.7019398903011,2131
904.925039251085,2054
907.147536926521,2189
909.3694331433943,1968
911.59072812857,2072
913.8114221089921,2136
916.0315153116827,2094
918.2510079637437,2055
920.4699002923547,2025
922.6881925247761,2039
924.905884888345,2088
927.1229776104793,2076
929.3394709186747,2052
931.555365040506,2063
933.7706602036275,2048
935.9853566357709,2035
938.1994545647489,2048
940.4129542184515,2039
942.6258558248488,2080
944.8381596119883,1988
947.0498658079974,1985
949.2609746410825,2002
951.4714863395287,2073
953.6814011316998,2032
955.8907192460387,2050
958.0994409110671,1971
960.3075663553858,1958
962.5150958076741,1968
964.7220294966913,1953
966.928367651274,1981
969.1341105003388,1957
971.3392582728806,1882
973.5438111979742,1873
975.747769504772,1875
977.9511334225061,1862
980.153903180487,1900
982.3560790081052,1872
984.5576611348289,1924
986.7586497902058,1818
988.9590452038618,1883
991.158847605503,1867
993.3580572249133,1820
995.5566742919558,1829
997.7546990365728,1799
999.952131688785,1788
1002.1489724786926,1765
1004.3452216364743,1727
1006.5408793923874,1711
1008.7359459767691,1717
1010.9304216200343,1684
1013.1243065526781,1646
1015.3176010052733,1745
1017.510305208472,1723
1019.7024193930064,1647
1021.8939437896848,1690
1024.0848786293977,1697
1026.2752241431122,1553
1028.4649805618747,1626
1030.6541481168115,1637
1032.842727039127,1652
1035.0307175601051,1567
1037.2181199111074,1527
1039.4049343235752,1590
1041.591161029029,1681
1043.7768002590683,1539
1045.9618522453698,1621
1048.1463172196918,1627
1050.3301954138697,1554
1052.513487059818,1588
1054.69619238953,1642
1056.8783116350783,1595
1059.0598450286152,1620
1061.2407928023704,1547
1063.4211551886528,1559
1065.6009324198508,1631
1067.780124728432,1596
1069.9587323469414,1613
1072.1367555080046,1591
1074.314194444325,1523
1076.4910493886855,1549
1078.667320573947,1585
1080.843008233051,1550
1083.0181125990161,1551
1085.1926339049414,1582
1087.3665723840027,1509
1089.5399282694575,1551
1091.7127017946405,1609
1093.8848931929647,1529
1096.0565026979243,1517
1098.2275305430899,1485
1100.3979769621128,1543
1102.567842188722,1545
1104.737126456726,1509
1106.9058300000124,1523
1109.0739530525475,1476
1111.2414958483764,1532
1113.4084586216231,1477
1115.5748416064907,1549
1117.7406450372605,1583
1119.9058691482942,1525
1122.0705141740304,1518
1124.2345803489884,1532
1126.3980679077658,1509
1128.5609770850388,1449
1130.7233081155623,1467
1132.8850612341707,1521
1135.0462366757774,1477
1137.2068346753745,1453
1139.3668554680326,1590
1141.526299288901,1498
1143.68516637321,1518
1145.8434569562655,1460
1148.001171273455,1552
1150.158309560244,1462
1152.3148720521767,1470
1154.470858984876,1487
1156.626270594044,1525
1158.7811071154629,1515
1160.9353687849912,1412
1163.089055838569,1429
1165.242168512213,1432
1167.3947070420209,1439
1169.5466716641677,1389
1171.6980626149075,1451
1173.8488801305748,1394
1175.9991244475814,1430
1178.1487958024186,1486
1180.2978944316555,1444
1182.4464205719428,1485
1184.5943744600072,1461
1186.7417563326567,1431
1188.8885664267755,1406
1191.0348049793297,1456
1193.1804722273619,1464
1195.325568407995,1503
1197.4700937584303,1489
1199.614048515948,1424
1201.7574329179074,1417
1203.900247201746,1494
1206.042491604982,1446
1208.1841663652099,1417
1210.3252717201053,1475
1212.465807907422,1478
1214.6057751649923,1483
1216.7451737307279,1495
1218.8840038426192,1441
1221.0222657387353,1481
1223.1599596572241,1420
1225.2970858363137,1436
1227.4336445143094,1405
1229.5696359295966,1528
1231.705060320639,1443
1233.8399179259786,1467
1235.9742089842384,1545
1238.107933734118,1524
1240.2410924143974,1562
1242.373685263935,1490
1244.5057125216676,1534
1246.6371744266116,1489
1248.7680712178621,1496
1250.898403134593,1526
1253.028170416058,1482
1255.1573733015875,1487
1257.2860120305932,1450
1259.4140868425648,1468
1261.54159797707,1536
1263.6685456737569,1514
1265.7949301723515,1451
1267.9207517126597,1470
1270.046010534565,1496
1272.1707068780306,1460
1274.2948409830983,1544
1276.4184130898889,1480
1278.541423438603,1494
1280.6638722695184,1528
1282.785759822993,1538
1284.9070863394636,1556
1287.0278520594447,1529
1289.1480572235314,1498
1291.2677020723963,1548
1293.3867868467923,1510
1295.5053117875495,1534
1297.623277135579,1543
1299.740683131868,1578
1301.8575300174857,1506
1303.973818033578,1571
1306.0895474213703,1580
1308.2047184221678,1585
1310.3193312773528,1580
1312.4333862283888,1515
1314.5468835168163,1558
1316.659823384255,1559
1318.7722060724045,1515
1320.8840318230418,1530
1322.9953008780249,1584
1325.1060134792888,1561
1327.2161698688478,1573
1329.3257702887959,1575
1331.4348149813054,1584
1333.5433041886276,1532
1335.6512381530933,1503
1337.7586171171101,1522
1339.8654413231675,1533
1341.9717110138317,1569
1344.0774264317488,1572
1346.1825878196432,1587
1348.2871954203192,1515
1350.3912494766587,1486
1352.4947502316231,1553
1354.5976979282532,1539
1356.7000928096686,1585
1358.8019351190665,1529
1360.9032250997243,1520
1363.0039629949988,1545
1365.1041490483235,1547
1367.2037835032133,1576
1369.3028666032606,1589
1371.401398592137,1486
1373.4993797135926,1475
1375.5968102114575,1567
1377.6936903296396,1633
1379.7900203121262,1581
1381.8858004029835,1560
1383.9810308463561,1569
1386.075711886469,1548
1388.1698437676241,1545
1390.2634267342032,1612
1392.356461030667,1537
1394.4489469015557,1586
1396.5408845914872,1624
1398.6322743451592,1597
1400.7231164073469,1532
1402.813411022907,1619
1404.903158436773,1609
1406.9923588939578,1580
1409.0810126395531,1633
1411.1691199187303,1607
1413.2566809767386,1573
1415.343696058907,1551
1417.4301654106425,1598
1419.5160892774315,1616
1421.6014679048399,1618
1423.6863015385125,1630
1425.7705904241707,1641
1427.8543348076178,1656
1429.9375349347342,1635
1432.0201910514802,1610
1434.102303403894,1621
1436.1838722380944,1650
1438.2648978002767,1691
1440.3453803367174,1723
1442.4253200937692,1656
1444.5047173178677,1576
1446.5835722555234,1671
1448.6618851533285,1711
1450.739656257952,1683
1452.8168858161434,1683
1454.8935740747306,1681
1456.96972128062,1706
1459.045327680797,1656
1461.120393522327,1703
1463.1949190523528,1750
1465.2689045180973,1761
1467.3423501668608,1732
1469.415256246024,1776
1471.4876230030463,1768
1473.559450685465,1772
1475.6307395408976,1826
1477.7014898170391,1773
1479.771701761665,1799
1481.8413756226287,1831
1483.9105116478618,1822
1485.9791100853772,1855
1488.0471711832643,1849
1490.1146951896926,1821
1492.1816823529098,1816
1494.2481329212433,1845
1496.3140471430984,1858
1498.3794252669609,1819
1500.4442675413939,1917
1502.5085742150404,1936
1504.572345536622,1965
1506.6355817549388,1910
1508.6982831188702,1964
1510.7604498773744,1884
1512.8220822794883,1957
1514.8831805743293,1900
1516.9437450110909,1942
1519.003775839048,1917
1521.0632733075522,2014
1523.1222376660367,1959
1525.1806691640113,2014
1527.2385680510652,2043
1529.2959345768668,2000
1531.3527689911643,1948
1533.4090715437833,2005
1535.4648424846291,2031
1537.5200820636855,2042
1539.5747905310159,2156
1541.6289681367616,2150
1543.6826151311434,2155
1545.7357317644614,2088
1547.7883182870937,2139
1549.8403749494987,2045
1551.8919020022113,2162
1553.9428996958477,2186
1555.9933682811015,2258
1558.0433080087469,2209
1560.0927191296346,2252
1562.1416018946961,2353
1564.1899565549415,2347
1566.2377833614592,2318
1568.2850825654164,2379
1570.3318544180606,2382
1572.3780991707158,2411
1574.423817074788,2340
1576.4690083817595,2355
1578.5136733431923,2230
1580.5578122107272,2288
1582.601425236085,2291
1584.6445126710646,2114
1586.6870747675434,2087
1588.7291117774776,2072
1590.7706239529034,2026
1592.8116115459347,1942
1594.8520748087658,1850
1596.8920139936686,1896
1598.9314293529933,1844
1600.9703211391711,1801
1603.008689604711,1811
1605.0465350022005,1772
1607.0838575843068,1756
1609.1206576037753,1680
1611.1569353134305,1605
1613.1926909661765,1671
1615.2279248149953,1633
1617.2626371129481,1577
1619.2968281131757,1632
1621.3304980688963,1594
1623.3636472334088,1607
1625.39627586009,1623
1627.428384202396,1606
1629.459972513861,1598
1631.4910410480993,1598
1633.5215900588028,1622
1635.551619799744,1603
1637.5811305247717,1560
1639.6101224878166,1566
1641.6385959428862,1572
1643.6665511440683,1585
1645.693988345528,1563
1647.7209078015112,1541
1649.7473097663405,1521
1651.7731944944203,1579
1653.7985622402307,1630
1655.823413258333,1586
1657.847747803366,1624
1659.8715661300494,1546
1661.8948684931793,1558
1663.9176551476316,1541
1665.9399263483624,1533
1667.9616823504057,1523
1669.982923408873,1519
1672.0036497789574,1538
1674.0238617159293,1572
1676.043559475138,1534
1678.0627433120121,1544
1680.081413482059,1523
1682.0995702408654,1559
1684.117213844096,1516
1686.134344547495,1559
1688.1509626068864,1522
1690.1670682781705,1594
1692.182661817329,1522
1694.1977434804217,1569
1696.2123135235875,1529
1698.226372203043,1582
1700.2399197750851,1575
1702.2529564960905,1563
1704.2654826225112,1552
1706.277498410882,1520
1708.2890041178139,1547
1710.2999999999988,1518
1712.3104863142066,1510
1714.3204633172854,1598
1716.329931266163,1556
1718.3388904178469,1517
1720.3473410294214,1494
1722.3552833580516,1502
1724.3627176609807,1500
1726.3696441955308,1494
1728.3760632191033,1467
1730.3819749891782,1491
1732.3873797633146,1452
1734.3922777991502,1449
1736.3966693544012,1547
1738.4005546868639,1540
1740.4039340544127,1512
1742.406807715001,1473
1744.4091759266616,1472
1746.4110389475054,1535
1748.4123970357223,1506
1750.413250449582,1563
1752.4135994474318,1493
1754.4134442876993,1501
1756.4127852288902,1465
1758.4116225295893,1478
1760.4099564484595,1497
1762.407787244244,1499
1764.405115175764,1513
1766.4019405019203,1493
1768.3982634816916,1501
1770.3940843741357,1489
1772.3894034383907,1538
1774.3842209336717,1500
1776.378537119274,1521
1778.372352254571,1500
1780.3656665990156,1517
1782.3584804121397,1444
1784.3507939535534,1533
1786.3426074829463,1451
1788.3339212600863,1506
1790.3247355448211,1519
1792.3150505970766,1483
1794.3048666768573,1518
1796.2941840442477,1540
1798.2830029594106,1510
1800.2713236825884,1492
1802.2591464741004,1486
1804.2464715943465,1513
1806.2332993038058,1535
1808.2196298630352,1509
1810.2054635326708,1561
1812.190800573428,1480
1814.175641246101,1502
1816.1599858115628,1524
1818.1438345307652,1569
1820.127187664738,1511
1822.1100454745924,1470
1824.092408221516,1469
1826.0742761667766,1463
1828.055649571721,1489
1830.0365286977735,1504
1832.0169138064398,1501
1833.9968051593014,1521
1835.9762030180214,1549
1837.9551076443408,1533
1839.9335193000788,1551
1841.9114382471344,1488
1843.888864747485,1565
1845.8657990631878,1516
1847.842241456378,1453
1849.8181921892697,1448
1851.7936515241558,1438
1853.7686197234098,1454
1855.7430970494815,1438
1857.7170837649014,1498
1859.6905801322787,1478
1861.6635864143004,1509
1863.6361028737338,1474
1865.608129773424,1472
1867.5796673762961,1432
1869.5507159453537,1455
1871.521275743678,1449
1873.4913470344313,1529
1875.4609300808534,1462
1877.4300251462632,1485
1879.3986324940588,1524
1881.366752387717,1533
1883.3343850907936,1525
1885.3015308669228,1510
1887.268189979819,1459
1889.2343626932739,1525
1891.2000492711595,1536
1893.1652499774254,1518
1895.1299650761011,1494
1897.0941948312952,1504
1899.0579395071945,1516
1901.0211993680641,1511
1902.98397467825,1476
1904.9462657021745,1545
1906.9080727043415,1496
1908.869395949332,1521
1910.8302357018065,1532
1912.790592226504,1520
1914.7504657882428,1469
1916.7098566519212,1499
1918.6687650825133,1498
1920.6271913450764,1440
1922.5851357047422,1468
1924.5425984267245,1508
1926.499579776314,1515
1928.4560800188833,1525
1930.4120994198802,1518
1932.367638244833,1459
1934.32269675935,1459
1936.2772752291175,1503
1938.231373919899,1527
1940.1849930975404,1540
1942.1381330279637,1542
1944.0907939771696,1564
1946.0429762112412,1459
1947.9946799963363,1448
1949.9459055986945,1511
1951.896653284633,1516
1953.8469233205478,1499
1955.7967159729142,1476
1957.7460315082863,1494
1959.6948701932974,1444
1961.6432322946594,1484
1963.5911180791632,1424
1965.5385278136787,1452
1967.4854617651545,1506
1969.4319202006182,1498
1971.377903387176,1454
1973.3234115920136,1450
1975.268445082395,1423
1977.2130041256642,1451
1979.1570889892423,1519
1981.1006999406304,1459
1983.04383724741,1461
1984.986501177238,1435
1986.928691997853,1440
1988.8704099770712,1499
1990.811655382789,1418
1992.7524284829801,1449
1994.692729545698,1449
1996.6325588390755,1527
1998.5719166313224,1431
2000.5108031907307,1478
2002.4492187856677,1440
2004.387163684583,1416
2006.3246381560011,1500
2008.2616424685298,1474
2010.1981768908527,1502
2012.1342416917332,1505
2014.069837140014,1497
2016.0049635046162,1436
2017.9396210545406,1461
2019.8738100588666,1404
2021.8075307867502,1405
2023.740783507431,1509
2025.6735684902228,1480
2027.6058860045214,1488
2029.5377363198004,1463
2031.4691197056118,1467
2033.4000364315875,1466
2035.3304867674374,1459
2037.260470982952,1430
2039.189989347998,1480
2041.1190421325232,1486
2043.047629606554,1470
2044.9757520401945,1452
2046.9034097036288,1425
2048.8306028671195,1494
2050.7573318010086,1441
2052.683596775716,1445
2054.609398061742,1465
2056.5347359296647,1452
2058.4596106501403,1477
2060.384022493906,1480
2062.3079717317764,1431
2064.231458634646,1425
2066.1544834734873,1470
2068.077046519352,1417
2069.99914804337,1510
2071.9207883167524,1464
2073.8419676107865,1466
2075.7626861968406,1386
2077.6829443463607,1438
2079.6027423308715,1486
2081.522080421977,1453
2083.440958891362,1456
2085.359378010786,1430
2087.2773380520907,1447
2089.194839287196,1441
2091.111881988101,1505
2093.0284664268825,1491
2094.9445928756973,1441
2096.86026160678,1467
2098.775472892446,1490
2100.690227005088,1526
2102.604524217178,1413
2104.5183648012676,1493
2106.431749029985,1402
2108.34467717604,1431
2110.2571495122206,1492
2112.169166311393,1492
2114.080727846503,1459
2115.9918343905747,1457
2117.902486216711,1461
2119.8126835980956,1449
2121.722426807987,1550
2123.6317161197285,1531
2125.5405518067364,1476
2127.448934142509,1450
2129.356863400624,1486
2131.264339854737,1554
2133.1713637785815,1520
2135.077935445972,1483
2136.9840551308002,1494
2138.889723107037,1507
2140.7949396487334,1492
2142.699705030018,1511
2144.6040195250994,1489
2146.507883408264,1503
2148.4112969538774,1537
2150.3142604363848,1520
2152.2167741303097,1579
2154.1188383102535,1561
2156.0204532508997,1509
2157.9216192270064,1575
2159.822336513414,1484
2161.7226053850413,1571
2163.622426116884,1558
2165.5217989840185,1604
2167.4207242616,1553
2169.319202224862,1551
2171.2172331491165,1570
2173.1148173097563,1550
2175.0119549822507,1575
2176.90864644215,1558
2178.8048919650823,1560
2180.7006918267534,1552
2182.596046302952,1569
2184.4909556695407,1561
2186.3854202024645,1623
2188.279440177746,1619
2190.173015871487,1578
2192.066147559868,1652
2193.958835519149,1591
2195.851080025667,1586
2197.7428813558417,1591
2199.6342397861667,1638
2201.5251555932186,1555
2203.415629053651,1558
2205.3056604441986,1574
2207.19525004167,1594
2209.084398122958,1654
2210.9731049650327,1660
2212.861370844941,1578
2214.749196039812,1628
2216.636580826851,1598
2218.523525483344,1601
2220.410030286655,1608
2222.296095514226,1670
2224.1817214435805,1651
2226.066908352319,1593
2227.951656518121,1587
2229.835966218746,1588
2231.71983773203,1568
2233.6032713358913,1646
2235.486267308324,1595
2237.3688259274036,1615
2239.2509474712824,1531
2241.132632218193,1572
2243.013880446447,1608
2244.8946924344323,1606
2246.7750684606203,1662
2248.6550088035574,1566
2250.534513741871,1669
2252.413583554265,1663
2254.292218519526,1608
2256.170418916517,1633
2258.0481850241786,1558
2259.925517121534,1602
2261.8024154876825,1578
2263.678880401803,1581
2265.5549121431536,1592
2267.430510991071,1651
2269.305677224971,1652
2271.180411124348,1657
2273.0547129687766,1604
2274.9285830379076,1535
2276.8020216114737,1517
2278.6750289692845,1608
2280.5476053912294,1545
2282.4197511572766,1600
2284.2914665474727,1686
2286.162751841943,1635
2288.0336073208937,1657
2289.904033264608,1704
2291.774029953448,1720
2293.6435976678554,1685
2295.5127366883517,1616
2297.381447295534,1560
2299.2497297700825,1563
2301.1175843927526,1467
2302.9850114443825,1462
2304.852011205885,1488
2306.7185839582553,1339
2308.5847299825664,1366
2310.4504495599676,1387
2312.3157429716925,1291
2314.1806104990483,1344
2316.0450524234247,1358
2317.9090690262888,1271
2319.772660589186,1322
2321.635827393742,1312
2323.498569721661,1395
2325.3608878547248,1318
2327.2227820747967,1306
2329.0842526638157,1344
2330.945299903803,1337
2332.805924076857,1338
2334.6661254651535,1317
2336.525904350951,1306
2338.3852610165827,1316
2340.244195744464,1359
2342.102708817088,1305
2343.9608005170253,1271
2345.8184711269287,1274
2347.675720929526,1266
2349.532550207628,1252
2351.38895924412,1280
2353.24494832197,1239
2355.100517724223,1334
2356.955667734004,1326
2358.810398634514,1351
2360.664710709037,1314
2362.5186042409337,1305
2364.3720795136437,1332
2366.225136810686,1337
2368.0777764156583,1361
2369.929998612237,1343
2371.7818036841777,1301
2373.633191915315,1355
2375.484163589562,1313
2377.3347189909114,1305
2379.184858403434,1368
2381.03458211128,1355
2382.8838903986775,1307
2384.732783549936,1318
2386.5812618494406,1319
2388.4293255816588,1354
2390.2769750311327,1302
2392.1242104824883,1383
2393.971032220427,1302
2395.8174405297295,1336
2397.6634356952563,1336
2399.509018001947,1329
2401.3541877348193,1345
2403.1989451789705,1264
2405.043290619576,1275
2406.8872243418905,1362
2408.730746631247,1337
2410.5738577730594,1318
2412.4165580528183,1321
2414.258847756095,1331
2416.100727168537,1318
2417.9421965758734,1356
2419.783256263912,1348
2421.623906518538,1345
2423.4641476257157,1352
2425.303979871491,1334
2427.143403541984,1346
2428.9824189233977,1333
2430.821026302012,1354
2432.6592259641866,1372
2434.497018196361,1292
2436.33440328505,1309
2438.171381516851,1378
2440.00795317844,1374
2441.844118556569,1398
2443.6798779380724,1371
2445.5152316098606,1376
2447.3501798589255,1378
2449.1847229723357,1365
2451.0188612372403,1365
2452.8525949408663,1387
2454.6859243705203,1344
2456.518849813587,1365
2458.3513715575314,1366
2460.183489889895,1382
2462.015205098301,1321
2463.8465174704493,1367
2465.67742729412,1334
2467.5079348571717,1286
2469.338040447542,1300
2471.1677443532476,1350
2472.9970468623833,1355
2474.825948263123,1359
2476.6544488437207,1357
2478.482548892508,1360
2480.310248697896,1300
2482.137548548374,1371
2483.9644487325118,1327
2485.790949538956,1345
2487.617051256433,1397
2489.44275417375,1410
2491.26805857979,1403
2493.0929647635157,1372
2494.917473013971,1311
2496.741583620276,1348
2498.5652968716304,1414
2500.3886130573137,1358
2502.2115324666834,1386
2504.0340553891765,1328
2505.856182114308,1315
2507.6779129316733,1397
2509.499248130945,1389
2511.3201880018764,1369
2513.140732834298,1373
2514.9608829181198,1399
2516.780638543331,1359
2518.6,1356
2520.418967578273,1354
2522.237541568376,1396
2524.0557222606144,1351
2525.8735099453706,1377
2527.6909049131086,1413
2529.507907454368,1432
2531.32451785977,1356
2533.140736420014,1380
2534.9565634258774,1384
2536.771999168218,1462
2538.5870439379714,1443
2540.4016980261526,1475
2542.2159617238544,1427
2544.02983532225,1433
2545.8433191125914,1389
2547.656413386209,1428
2549.4691184345115,1430
2551.2814345489874,1388
2553.093362021204,1501
2554.904901142808,1495
2556.716052205523,1461
2558.526815501153,1447
2560.3371913215824,1496
2562.147179958771,1494
2563.956781704761,1481
2565.7659968516705,1491
2567.5748256916986,1449
2569.3832685171224,1468
2571.1913256202984,1517
2572.9989972936614,1451
2574.806283829725,1536
2576.613185521084,1506
2578.4197026604074,1529
2580.2258355404483,1500
2582.031584454035,1562
2583.836949694077,1575
2585.6419315535613,1500
2587.4465303255533,1558
2589.2507463032002,1591
2591.0545797797245,1570
2592.8580310484303,1553
2594.6611004026995,1663
2596.463788135992,1569
2598.266094541849,1595
2600.0680199138874,1534
2601.869564545807,1549
2603.670728731383,1555
2605.4715127644704,1542
2607.2719169390048,1535
2609.071941548998,1605
2610.8715868885433,1549
2612.670853251811,1539
2614.469740933052,1582
2616.268250226594,1560
2618.0663814268455,1627
2619.864134828292,1549
2621.6615107255006,1544
2623.458509413115,1514
2625.2551311858597,1486
2627.0513763385347,1554
2628.8472451660223,1493
2630.6427379632833,1565
2632.4378550253564,1508
2634.232596647359,1505
2636.026963124488,1488
2637.8209547520187,1470
2639.6145718253065,1456
2641.407814639785,1484
2643.200683490966,1533
2644.9931786744414,1481
2646.7853004858807,1496
2648.577049221034,1395
2650.3684251757277,1457
2652.1594286458712,1511
2653.9500599274484,1451
2655.740319316525,1390
2657.5302071092437,1441
2659.3197236018286,1373
2661.10886909058,1356
2662.8976438718782,1450
2664.686048242183,1421
2666.4740824980327,1415
2668.2617469360443,1457
2670.0490418529134,1393
2671.8359675454153,1477
2673.622524310403,1403
2675.408712444811,1350
2677.1945322456495,1331
2678.979984010009,1399
2680.76506803506,1370
2682.5497846180497,1387
2684.334134056306,1368
2686.1181166472343,1358
2687.9017326883213,1340
2689.6849824771293,1431
2691.4678663113013,1357
2693.2503844885596,1404
2695.032537306705,1305
2696.8143250636167,1387
2698.5957480572542,1418
2700.3768065856534,1356
2702.1575009469316,1358
2703.937831439283,1328
2705.717798360982,1395
2707.4974020103837,1272
2709.276642685917,1392
2711.055520686095,1359
2712.834036309506,1321
2714.612189854819,1293
2716.389981620782,1308
2718.1674119062204,1344
2719.944481010041,1335
2721.721189231226,1345
2723.4975368688415,1291
2725.273524222027,1301
2727.0491515900053,1352
2728.824419272075,1300
2730.5993275676146,1365
2732.3738767760838,1322
2734.148067197016,1336
2735.921899130031,1273
2737.6953728748194,1344
2739.468488731156,1337
2741.2412469988926,1308
2743.0136479779617,1365
2744.785691968372,1321
2746.5573792702116,1271
2748.3287101836504,1303
2750.099685008934,1331
2751.870304046388,1328
2753.640567596418,1295
2755.4104759595057,1345
2757.1800294362156,1344
2758.949228327187,1307
2760.7180729331412,1354
2762.486563554877,1304
2764.254700493272,1357
2766.022484049284,1344
2767.789914523947,1293
2769.5569922183786,1270
2771.3237174337705,1322
2773.090090471394,1336
2774.8561116326036,1289
2776.6217812188274,1299
2778.3870995315756,1343
2780.1520668724356,1294
2781.9166835430747,1295
2783.6809498452394,1271
2785.444866080754,1317
2787.2084325515225,1366
2788.971649559527,1305
2790.73451740683,1343
2792.4970363955713,1327
2794.2592068279705,1325
2796.0210290063264,1290
2797.7825032330147,1349
2799.543629810493,1304
2801.304409041296,1346
2803.0648412280366,1278
2804.8249266734088,1330
2806.5846656801846,1358
2808.344058551212,1320
2810.1031055894246,1316
2811.8618070978273,1337
2813.6201633795085,1392
2815.378174737636,1329
2817.1358414754536,1297
2818.893163896285,1331
2820.6501423035334,1317
2822.4067770006814,1388
2824.1630682912883,1294
2825.9190164789957,1335
2827.6746218675207,1321
2829.429884760661,1338
2831.184805462294,1306
2832.9393842763743,1295
2834.693621506936,1350
2836.4475174580916,1319
2838.201072434034,1322
2839.954286739034,1310
2841.707160677441,1296
2843.459694553685,1297
2845.2118886722724,1310
2846.96374333779,1296
2848.7152588549034,1283
2850.4664355283567,1367
2852.217273662973,1336
2853.9677735636546,1331
2855.7179355353833,1389
2857.4677598832186,1362
2859.217246912299,1294
2860.9663969278427,1315
2862.715210235146,1343
2864.4636871395846,1358
2866.211827946614,1278
2867.9596329617652,1291
2869.7071024906536,1319
2871.4542368389684,1284
2873.20103631248,1330
2874.947501217038,1311
2876.6936318585695,1294
2878.4394285430812,1339
2880.1848915766604,1299
2881.9300212654707,1295
2883.6748179157553,1317
2885.4192818338374,1322
2887.1634133261173,1307
2888.907212699077,1318
2890.6506802592744,1284
2892.393816313348,1374
2894.1366211680142,1357
2895.8790951300693,1337
2897.621238506388,1364
2899.363051603925,1345
2901.1045347297118,1325
2902.8456881908596,1282
2904.58651229456,1314
2906.327007348081,1297
2908.067173658772,1357
2909.8070115340597,1325
2911.5465212814497,1343
2913.285703208527,1314
2915.0245576229563,1297
2916.7630848324807,1310
2918.5012851449196,1371
2920.2391588681758,1371
2921.976706310227,1332
2923.7139277791334,1313
2925.4508235830313,1328
2927.187394030137,1324
2928.923639428745,1297
2930.6595600872306,1362
2932.395156314046,1306
2934.1304284177218,1340
2935.8653767068713,1367
2937.6000014901815,1295
2939.3343030764227,1343
2941.068281774442,1301
2942.8019378931644,1297
2944.5352717415976,1358
2946.2682836288236,1351
2948.0009738640065,1339
2949.7333427563885,1310
2951.465390615289,1369
2953.1971177501086,1274
2954.9285244703265,1313
2956.6596110855,1299
2958.3903779052657,1343
2960.1208252393385,1301
2961.8509533975125,1332
2963.5807626896617,1287
2965.3102534257378,1339
2967.0394259157715,1289
2968.768280469873,1351
2970.496817398232,1349
2972.2250370111146,1316
2973.952939618869,1349
2975.6805255319196,1269
2977.4077950607707,1319
2979.134748516006,1246
2980.861386208289,1303
2982.587708448359,1312
2984.313715547037,1345
2986.039407815222,1341
2987.764785563891,1317
2989.489849104102,1405
2991.2145987469908,1298
2992.9390348037705,1305
2994.6631575857346,1292
2996.3869674042576,1283
2998.1104645707887,1326
2999.83364939686,1323
3001.5565221940783,1297
3003.2790832741334,1290
3005.0013329487924,1277
3006.7232715298996,1341
3008.4448993293804,1262
3010.166216659239,1296
3011.887223831558,1234
3013.607921158498,1342
3015.3283089522993,1260
3017.0483875252826,1345
3018.7681571898443,1296
3020.4876182584626,1278
3022.2067710436927,1275
3023.9256158581707,1330
3025.644153014609,1331
3027.362382825801,1311
3029.0803056046193,1294
3030.797921664012,1317
3032.5152313170106,1292
3034.2322348767225,1322
3035.9489326563353,1288
3037.665324969115,1290
3039.3814121284063,1290
3041.097194447633,1309
3042.812672240299,1299
3044.5278458199855,1292
3046.2427155003525,1261
3047.9572815951406,1301
3049.671544418167,1293
3051.38550428333,1260
3053.0991615046073,1263
3054.812516396051,1328
3056.5255692717974,1322
3058.2383204460575,1335
3059.9507702331257,1340
3061.662918947372,1291
3063.3747669032446,1238
3065.0863144152736,1286
3066.7975617980674,1300
3068.508509366309,1232
3070.219157434767,1291
3071.9295063182844,1304
3073.639556331785,1308
3075.3493077902704,1274
3077.058761008821,1291
3078.7679163025964,1343
3080.476773986837,1343
3082.1853343768594,1312
3083.89359778806,1286
3085.6015645359153,1307
3087.3092349359786,1326
3089.016609303884,1305
3090.7236879553434,1311
3092.4304712061476,1289
3094.136959372166,1303
3095.843152769349,1327
3097.5490517137237,1329
3099.2546565213966,1329
3100.959967508554,1317
3102.66498499146,1341
3104.3697092864577,1374
3106.0741407099695,1313
3107.778279578498,1256
3109.482126208622,1281
3111.1856809170004,1266
3112.8889440203716,1314
3114.5919158355528,1253
3116.294596679439,1314
3117.996986869006,1311
3119.6990867213062,1277
3121.4008965534726,1268
3123.102416682717,1302
3124.803647426329,1342
3126.5045891016784,1352
3128.205242026213,1272
3129.90560651746,1301
3131.605682893025,1333
3133.3054714705922,1343
3135.0049725679282,1283
3136.7041865028714,1294
3138.4031135933465,1286
3140.101754157353,1376
3141.800108512971,1286
3143.498176978357,1309
3145.1959598717494,1318
3146.8934575114636,1291
3148.5906702158954,1274
3150.2875983035183,1351
3151.9842420928853,1289
3153.680601902627,1305
3155.376678051456,1273
3157.07247085816,1297
3158.767980641609,1337
3160.463207720748,1344
3162.158152414606,1291
3163.8528150422862,1312
3165.5471959229726,1353
3167.2412953759303,1299
3168.9351137204976,1311
3170.628651276098,1311
3172.3219083622307,1341
3174.014885298474,1338
3175.707582404485,1312
3177.4000000000005,1316
3179.092138404835,1295
3180.7839979388846,1259
3182.47557892212,1306
3184.166881674594,1314
3185.8579065164386,1391
3187.5486537678626,1363
3189.2391237491547,1301
3190.9293167806827,1290
3192.6192331828934,1299
3194.3088732763117,1333
3195.998237381542,1332
3197.687325819268,1341
3199.376138910251,1301
3201.064676975334,1280
3202.7529403354347,1306
3204.4409293115523,1301
3206.1286442247647,1367
3207.816085396229,1317
3209.5032531471825,1291
3211.190147798936,1322
3212.8767696728846,1320
3214.5631190905015,1288
3216.2491963733373,1219
3217.9350018430214,1247
3219.6205358212637,1249
3221.305798629851,1249
3222.990790590651,1223
3224.6755120256103,1302
3226.359963256751,1285
3228.0441446061795,1295
3229.7280563960758,1249
3231.411698948703,1259
3233.0950725863995,1324
3234.778177631587,1307
3236.461014406761,1347
3238.1435832345005,1310
3239.8258844374595,1289
3241.507918338374,1318
3243.1896852600576,1314
3244.8711855254023,1313
3246.552419457381,1290
3248.233387379042,1315
3249.914089613516,1268
3251.59452648401,1297
3253.274698313813,1310
3254.95460542629,1366
3256.6342481448855,1312
3258.313626793125,1374
3259.9927416946084,1299
3261.6715931730196,1299
3263.3501815521176,1276
3265.0285071557437,1317
3266.706570307815,1282
3268.3843713323286,1286
3270.0619105533615,1251
3271.739188295068,1333
3273.4162048816834,1340
3275.0929606375184,1302
3276.769455886966,1260
3278.445690954498,1289
3280.1216661646613,1299
3281.797381842087,1307
3283.4728383114807,1301
3285.1480358976296,1287
3286.8229749253996,1305
3288.4976557197333,1232
3290.172078605655,1269
3291.846243908266,1308
3293.5201519527463,1265
3295.193803064357,1298
3296.8671975684374,1265
3298.5403357904024,1267
3300.21321805575,1340
3301.8858446900567,1292
3303.558216018975,1295
3305.23033236824,1284
3306.9021940636603,1289
3308.57380143113,1247
3310.2451547966184,1268
3311.916254486174,1305
3313.5871008259246,1264
3315.2576941420766,1274
3316.9280347609147,1305
3318.5981230088046,1284
3320.2679592121895,1281
3321.9375436975924,1243
3323.606876791612,1230
3325.27595882093,1236
3326.944790112305,1264
3328.6133709925753,1254
3330.2817017886573,1277
3331.949782827547,1275
3333.617614436319,1265
3335.2851969421245,1276
3336.952530672199,1279
3338.619615953853,1268
3340.286453114475,1275
3341.9530424815357,1256
3343.619384382583,1299
3345.2854791452437,1283
3346.951327097224,1307
3348.6169285663073,1286
3350.2822838803577,1294
3351.947393367319,1275
3353.61225735521,1291
3355.2768761721345,1332
3356.9412501462693,1301
3358.605379605873,1296
3360.2692648792827,1295
3361.9329062949146,1282
3363.596304181263,1326
