CollectionTime,4/2/2024 11:10:13 AM
ExposureUsed,3
CalibratedSpectrum
-994.8464149364308,639
-991.9439705588344,702
-989.042830375826,674
-986.1429931109675,692
-983.2444574887519,828
-980.3472222346043,778
-977.4512860748813,706
-974.5566477368716,696
-971.6633059487953,718
-968.7712594398042,715
-965.8805069399822,743
-962.9910471803447,697
-960.1028788928387,629
-957.2160008103432,689
-954.3304116666687,714
-951.4461101965578,719
-948.5630951356844,713
-945.6813652206545,818
-942.8009191890055,912
-939.9217557792067,808
-937.0438737306594,765
-934.167271783696,710
-931.2919486795813,691
-928.4179031605115,686
-925.5451339696144,744
-922.67363985095,823
-919.8034195495097,828
-916.9344718112166,836
-914.0667953829256,779
-911.2003890124234,783
-908.3352514484286,721
-905.471381440591,724
-902.6087777394928,748
-899.7474390966474,827
-896.8873642645002,809
-894.0285519964284,790
-891.1710010467407,782
-888.3147101706776,745
-885.4596781244115,735
-882.6059036650465,692
-879.7533855506183,669
-876.9021225400943,723
-874.0521133933738,771
-871.2033568712878,729
-868.3558517355991,715
-865.509596749002,895
-862.6645906751228,883
-859.8208322785192,866
-856.9783203246812,829
-854.1370535800299,741
-851.2970308119186,758
-848.4582507886321,773
-845.620712279387,777
-842.7844140543316,748
-839.9493548845461,748
-837.1155335420422,712
-834.2829487997635,691
-831.4515994315852,750
-828.6214842123144,831
-825.7926019176898,805
-822.9649513243819,803
-820.138531209993,754
-817.3133403530569,860
-814.4893775330396,753
-811.6666415303382,759
-808.845131126282,761
-806.0248451031321,818
-803.2057822440808,700
-800.3879413332527,765
-797.5713211557038,865
-794.755920497422,878
-791.941738145327,804
-789.1287728872701,809
-786.3170235120342,926
-783.5064888093341,793
-780.6971675698165,703
-777.8890585850597,752
-775.0821606475735,814
-772.2764725507997,824
-769.4719930891118,700
-766.6687210578151,791
-763.8666552531465,979
-761.0657944722747,1120
-758.2661375133,987
-755.4676831752547,821
-752.6704302581027,797
-749.8743775627395,739
-747.0795238909925,746
-744.285868045621,746
-741.4934088303156,772
-738.702145049699,794
-735.9120755093254,861
-733.123199015681,1074
-730.3355143761836,1155
-727.5490203991826,906
-724.7637158939592,804
-721.9795996707265,784
-719.1966705406293,768
-716.4149273157439,731
-713.6343688090786,704
-710.8549938345734,711
-708.0768012070998,772
-705.2997897424614,828
-702.5239582573931,820
-699.7493055695622,778
-696.9758304975669,770
-694.2035318609377,738
-691.4324084801367,753
-688.6624591765578,761
-685.8936827725265,792
-683.1260780913001,857
-680.3596439570675,893
-677.5943791949499,856
-674.8302826309991,818
-672.0673530922,730
-669.3055894064685,829
-666.5449904026519,907
-663.78555491053,832
-661.0272817608139,745
-658.2701697851465,865
-655.5142178161026,919
-652.7594246871884,853
-650.0057892328422,761
-647.2533102884337,772
-644.5019866902646,822
-641.7518172755683,901
-639.0028008825099,899
-636.254936350186,948
-633.5082225186254,895
-630.7626582287882,881
-628.0182423225665,869
-625.2749736427841,809
-622.5328510331965,954
-619.7918733384909,908
-617.0520394042862,907
-614.3133480771331,887
-611.5757982045143,949
-608.8393886348437,1067
-606.1041182174672,1190
-603.3699858026625,1089
-600.6369902416393,990
-597.9051303865383,966
-595.1744050904326,1063
-592.4448132073267,1156
-589.7163535921568,1203
-586.9890251007912,1033
-584.2628265900296,935
-581.5377569176036,944
-578.8138149421764,978
-576.090999523343,998
-573.3693095216302,942
-570.6487437984965,973
-567.9293012163321,1049
-565.210980638459,1094
-562.4937809291307,1047
-559.7777009535329,991
-557.0627395777825,1001
-554.3488956689287,997
-551.6361680949519,1099
-548.9245557247644,1146
-546.2140574282107,1253
-543.5046720760662,1197
-540.7963985400388,1202
-538.0892356927677,1270
-535.3831824078238,1203
-532.6782375597103,1344
-529.9744000238613,1407
-527.2716686766433,1509
-524.5700423953542,1711
-521.8695200582238,1574
-519.1701005444136,1542
-516.4717827340166,1661
-513.7745655080581,1735
-511.0784477484944,2037
-508.38342833821423,2086
-505.68950616103757,2080
-502.9966801017163,2270
-500.3049490459341,2375
-497.61431188030633,2196
-494.9247674923801,1918
-492.2363147706342,1713
-489.54895260447927,1590
-486.86267988425755,1504
-484.1774955012431,1586
-481.4933983476417,1773
-478.8103873165908,1503
-476.1284613021596,1328
-473.44761919934945,1290
-470.7678599040928,1256
-468.089182313254,1341
-465.4115853246294,1421
-462.735067836947,1486
-460.0596287498663,1452
-457.3852669639789,1265
-454.71198138080774,1110
-452.03977090280773,1068
-449.3686344333656,1144
-446.69857087679964,1232
-444.02957913835996,1242
-441.36165812422837,1193
-438.6948067415183,1251
-436.0290238982752,1176
-433.36430850347597,1234
-430.7006594670296,1299
-428.0380756997763,1379
-425.3765561134885,1421
-422.7160996208702,1313
-420.0567051355571,1338
-417.3983715721164,1391
-414.7410978460475,1366
-412.08488287378145,1360
-409.4297255726806,1211
-406.77562486103955,1166
-404.1225796580843,1129
-401.4705888839728,1027
-398.8196514597947,989
-396.1697663075713,1047
-393.5209323502555,1048
-390.8731485117323,995
-388.22641371681823,999
-385.5807268912615,1178
-382.93608696174226,1124
-380.29249285587207,889
-377.64994350219456,788
-375.0084378301849,899
-372.36797477025016,844
-369.7285532537287,928
-367.0901722128914,991
-364.45283058094014,946
-361.8165272920089,1081
-359.1812612811634,868
-356.54703148440103,747
-353.9138368386507,789
-351.28167628177346,911
-348.6505487525617,1112
-346.02045319074,1115
-343.3913885369643,975
-340.76335373282245,977
-338.1363477208339,948
-335.5103694444499,1026
-332.8854178480535,982
-330.26149187695944,1027
-327.63859047741425,984
-325.016712596596,830
-322.3958571826148,749
-319.77602318451227,949
-317.15720955226186,1051
-314.5394152367686,1005
-311.9226391898695,983
-309.3068803643333,1015
-306.69213771386023,1117
-304.0784101930824,1379
-301.4656967575635,1353
-298.8539963637994,1222
-296.2433079692172,1110
-293.6336305321761,1103
-291.02496301196675,1078
-288.41730436881176,1252
-285.81065356386534,1197
-283.2050095592135,1170
-280.60037131787396,1348
-277.9967378037961,1656
-275.39410798186134,1370
-272.7924808178824,1685
-270.19185527860407,1556
-267.5922303317028,1302
-264.9936049457866,1340
-262.3959780903955,1342
-259.79934873600087,1628
-257.2037158540064,1664
-254.6090784167469,1763
-252.01543539748934,1749
-249.42278577043237,1359
-246.8311285107061,1183
-244.24046259437262,1177
-241.6507869984256,1190
-239.0621007007909,1493
-236.4744026803254,1661
-233.88769191681808,1758
-231.30196739098994,1733
-228.7172280844934,1462
-226.13347297991243,1432
-223.550701060763,1662
-220.9689113114929,1537
-218.3881027174814,1478
-215.8082742650397,1594
-213.22942494141068,1905
-210.65155373476898,2467
-208.07465963422078,2510
-205.49874162980439,2424
-202.92379871248932,2358
-200.34982987417743,2254
-197.7768341077018,1716
-195.20481040682762,1426
-192.63375776625162,1401
-190.0636751816021,1504
-187.49456164943945,1712
-184.92641616725564,1873
-182.3592377334743,1922
-179.79302534745102,2080
-177.2277780094729,2406
-174.66349472075865,2330
-172.10017448345923,2392
-169.5378163006569,2231
-166.97641917636565,1946
-164.41598211553162,2189
-161.8565041240322,2940
-159.29798420867678,2783
-156.74042137720642,2456
-154.18381463829382,2377
-151.6281630015436,2216
-149.07346547749228,2084
-146.51972107760753,1851
-143.96692881428908,1942
-141.41508770086864,2061
-138.86419675160937,2286
-136.31425498170609,2570
-133.7652614072856,2680
-131.21721504540642,2610
-128.67011491405844,2723
-126.12396003216395,3154
-123.57874941957618,3947
-121.03448209708074,3839
-118.49115708639465,3585
-115.94877341016684,3858
-113.40733009197788,3986
-110.86682615633993,3838
-108.32726062869733,3803
-105.78863253542556,4453
-103.25094090383243,6321
-100.71418476215695,6641
-98.17836313957025,5572
-95.64347506617503,4420
-93.10951957300585,3611
-90.57649569202886,3829
-88.04440245614194,4074
-85.51323889917478,4724
-82.98300405588896,5585
-80.45369696197747,7926
-77.925316654065,10462
-75.39786216970867,14581
-72.87133254739649,17990
-70.34572682654857,20503
-67.82104404751692,23598
-65.29728325158499,29596
-62.774443480968216,33860
-60.252523778813384,37680
-57.73152318919938,41422
-55.21144075713676,38815
-52.69227552856796,37745
-50.17402655036665,39235
-47.65669287033859,27983
-45.14027353722133,23902
-42.624767600684095,32596
-40.11017411132775,36795
-37.59649212068507,41668
-35.08372068122037,51960
-32.57185884632963,52756
-30.06090567034107,48371
-27.550860208513996,58300
-25.04172151704006,65041
-22.533488653042014,65041
-20.02616067457484,65041
-17.51973664062507,65041
-15.014215611111126,65041
-12.509596646882983,65041
-10.005878809722162,65041
-7.503061162342419,65041
-5.001142768389059,65041
-2.5001226924387083,65041
-3.410605131648481E-13,65041
2.49922624248552,65041
4.997556967646801,65041
7.494993107179766,65041
9.99153559184856,65041
12.487185351485778,65041
14.98194331499235,65041
17.475810410337544,65041
19.96878756455851,65041
22.46087570376085,65041
24.952075753118834,36206
27.442388636874625,12526
29.93181527833849,11385
32.42035659988892,11685
34.90801352297353,15502
37.39478696810693,12442
39.880677854873056,9562
42.36568710192364,9237
44.8498156269784,10184
47.33306434682618,10421
49.815434177322686,10635
52.296926033393675,9245
54.77754082903198,8269
57.25727947729865,11401
59.736142890323435,12158
62.214131979304284,7511
64.6912476545076,5975
67.16749082526735,5297
69.64286239998614,4497
72.11736328613551,6601
74.59099439025431,7008
77.06375661794982,6065
79.53565087389825,4648
82.0066780618431,4994
84.4768390845968,4513
86.94613484403999,4301
89.41456624112152,6539
91.88213417585825,6250
94.34883954733527,4408
96.81468325370679,3527
99.2796661921941,2626
101.74378925908763,3140
104.20705334974559,3727
106.66945935859462,3998
109.1310081791296,4275
111.59170070391383,6264
114.05153782457865,6037
116.5105204318238,3769
118.96864941541708,3869
121.42592566419489,4666
123.88235006606146,4400
126.3379235079899,4107
128.79264687602085,3697
131.2465210552641,3443
133.69954692989631,3498
136.15172538316415,3921
138.60305729738116,3102
141.05354355393,2804
143.50318503326116,3295
145.95198261489327,3412
148.39993717741368,3391
150.84704959847772,3615
153.29332075480897,4040
155.73875152219944,4292
158.18334277550935,4432
160.62709538866693,4016
163.0700102346691,3634
165.51208818558075,3609
167.953330112535,3443
170.39373688573346,3101
172.8333093744459,3461
175.2720484470101,3795
177.70995497083277,4119
180.14702981238815,4516
182.58327383721917,4026
185.01868790993672,3984
187.45327289422062,3875
189.88702965281777,3292
192.31995904754444,3279
194.75206193928489,3841
197.18333918799135,4035
199.61379165268454,3842
202.04342019145315,3596
204.4722256614548,3554
206.90020891891436,3490
209.32737081912592,3455
211.7537122164515,3440
214.17923396432116,3568
216.6039369152336,3841
219.0278219207553,3709
221.45088983152186,3519
223.8731414972358,3715
226.29457776666914,3549
228.71519948766172,3424
231.1350075071216,3517
233.55400267102482,3674
235.97218582441633,3749
238.38955781140908,3296
240.806119475184,3456
243.2218716579905,3618
245.6368152011462,3467
248.05095094503736,3517
250.46427972911806,3586
252.87680239191036,3569
255.28851977100544,3799
257.69943270306203,3768
260.10954202380753,3264
262.5188485680378,3282
264.92735316961557,3661
267.33505666147425,3598
269.7419598756128,3402
272.14806364310084,3748
274.5533687940747,3442
276.95787615773975,3398
279.361586562369,3317
281.7645008353045,3191
284.1666198029559,3213
286.5679442908013,3172
288.96847512338695,3404
291.3682131243279,3380
293.7671591163071,3326
296.1653139210757,3257
298.562678359453,3351
300.9592532513268,3528
303.3550394156532,3417
305.75003767045655,3373
308.14424883282936,3397
310.53767371893196,3213
312.93031314399377,3144
315.3221679223125,3007
317.71323886725304,2955
320.1035267912496,2911
322.49303250580397,2925
324.881756821487,2940
327.2697005479374,2860
329.65686449386135,2915
332.0432494670347,3013
334.4288562743004,3095
336.81368572157066,2952
339.19773861382487,2885
341.58101575511205,2797
343.96351794854786,2813
346.3452459963173,2684
348.72620069967365,2821
351.1063828589379,2979
353.48579327349967,3128
355.8644327418169,2909
358.24230206141533,2721
360.6194020288899,2716
362.99573343990255,2609
365.3712970891845,2596
367.7460937705348,2599
370.12012427682066,2701
372.493389399978,2683
374.86588993101077,2625
377.23762665999084,2624
379.6086003760588,2602
381.9788118674235,2522
384.34826192136165,2557
386.7169513242188,2483
389.08488086140824,2544
391.4520513174118,2632
393.8184634757795,2626
396.1841181191296,2774
398.54901602914856,2759
400.9131579865916,2711
403.2765447712811,2608
405.63917716210926,2654
408.00105593703483,2781
410.36218187308646,2645
412.7225557463596,2551
415.0821783320191,2486
417.4410504042976,2425
419.79917273649585,2551
422.1565461009834,2522
424.5131712691973,2474
426.869049011643,2514
429.22418009789544,2601
431.578565296596,2387
433.9322053754556,2402
436.28510110125285,2310
438.6372532398352,2383
440.98866255611733,2325
443.33932981408293,2356
445.6892557767842,2434
448.0384412063411,2418
450.38688686394175,2596
452.7345935098431,2581
455.0815619033697,2424
457.42779280291506,2526
459.7732869659403,2558
462.1180451489754,2581
464.4620681076178,2572
466.80535659653424,2487
469.1479113694588,2540
471.48973317919445,2669
473.8308227776122,2669
476.17118091565135,2846
478.51080834331924,2862
480.8497058096914,2773
483.1878740629122,3116
485.5253138501944,3237
487.8620259178176,3354
490.1980110111317,3813
492.53326987455307,3945
494.86780325156724,4037
497.201611884728,4158
499.53469651565683,4231
501.8670578850447,4142
504.1986967326493,3977
506.52961379729754,3924
508.85980981688454,3663
511.18928552837315,3401
513.5180416677952,3400
515.8460789702503,3478
518.1733981699067,4117
520.5,5055
522.8258851928354,5459
525.1510544797857,4858
527.4755085912916,4270
529.7992482568625,3868
532.1222742050759,3232
534.4445871635783,2755
536.766187859083,2472
539.0870770173726,2376
541.4072553632982,2374
543.7267236207783,2272
546.0454825128002,2357
548.363532761419,2374
550.6808750877592,2393
552.9975102120118,2397
555.3134388534377,2412
557.6286617303654,2353
559.9431795601911,2449
562.2569930593802,2327
564.570102943466,2470
566.88250992705,2375
569.1942147238021,2217
571.5052180464602,2285
573.8155206068309,2396
576.1251231157885,2559
578.4340262832759,2383
580.7422308183045,2155
583.0497374289534,2314
585.3565468223703,2343
587.6626597047714,2401
589.9680767814409,2241
592.2727987567309,2338
594.5768263340624,2256
596.8801602159238,2236
599.1828011038731,2305
601.4847496985356,2258
603.7860066996047,2217
606.0865728058427,2159
608.3864487150802,2067
610.6856351242152,2264
612.9841327292149,2249
615.2819422251141,2225
617.5790643060163,2129
619.8754996650935,2095
622.1712489945849,2214
624.466312985799,2181
626.7606923291121,2201
629.0543877139692,2314
631.347399828883,2280
633.6397293614343,2186
635.9313769982732,2282
638.2223434251173,2175
640.5126293267522,2181
642.8022353870326,2063
645.0911622888809,2097
647.3794107142876,2147
649.666981344312,2229
651.9538748590815,2204
654.2400919377915,2243
656.525633258706,2297
658.8104994991568,2319
661.0946913355442,2374
663.3782094433375,2250
665.6610544970729,2302
667.9432271703561,2309
670.22472813586,2216
672.5055580653268,2313
674.7857176295659,2275
677.065207498456,2249
679.3440283409432,2284
681.6221808250425,2255
683.899665617837,2290
686.1764833854772,2258
688.4526347931837,2217
690.7281205052436,2255
693.0029411850135,2237
695.2770974949171,2289
697.5505900964474,2345
699.8234196501651,2294
702.0955868156989,2163
704.3670922517472,2118
706.6379366160747,2211
708.9081205655159,2256
711.1776447559728,2348
713.4465098424155,2320
715.714716478883,2215
717.9822653184822,2347
720.2491570133882,2341
722.5153922148452,2270
724.7809715731639,2147
727.0458957377248,2169
729.3101653569763,2067
731.5737810784346,2207
733.8367435486853,2240
736.0990534133803,2189
738.3607113172418,2232
740.6217179040591,2314
742.8820738166899,2292
745.1417796970607,2249
747.4008361861659,2312
749.6592439240678,2331
751.9170035498973,2309
754.1741157018539,2441
756.4305810172048,2338
758.686400132286,2336
760.9415736825013,2340
763.196102302323,2299
765.4499866252911,2384
767.7032272840152,2375
769.9558249101717,2352
772.207780134506,2250
774.4590935868323,2340
776.7097658960313,2488
778.9597976900541,2410
781.2091895959184,2323
783.457942239711,2270
785.7060562465867,2353
787.9535322407687,2441
790.2003708455488,2349
792.4465726832861,2426
794.6921383754088,2431
796.9370685424128,2439
799.1813638038632,2323
801.4250247783918,2425
803.6680520837006,2373
805.9104463365579,2376
808.1522081528019,2298
810.393338147338,2354
812.6338369341406,2352
814.8737051262517,2294
817.1129433357819,2400
819.35155217391,2414
821.5895322508834,2458
823.8268841760168,2298
826.0636085576946,2188
828.2997060033681,2272
830.535177119558,2273
832.7700225118522,2250
835.0042427849078,2253
837.2378385424493,2322
839.4708103872701,2316
841.7031589212318,2285
843.9348847452643,2245
846.1659884593648,2400
848.3964706626004,2435
850.6263319531054,2414
852.8555729280824,2280
855.0841941838025,2376
857.3121963156052,2381
859.5395799178978,2298
861.7663455841566,2387
863.9924939069251,2464
866.2180254778159,2418
868.4429408875103,2422
870.6672407257561,2332
872.890925581371,2392
875.1139960422404,2305
877.336452695318,2333
879.5582961266261,2554
881.7795269212543,2437
884.0001456633613,2430
886.2201529361741,2494
888.4395493219874,2487
890.6583354021648,2548
892.8765117571375,2479
895.094078966405,2404
897.3110376085365,2442
899.5273882611671,2460
901.7431315010019,2355
903.958267903814,2265
906.1727980444443,2294
908.3867224968019,2322
910.6000418338647,2200
912.8127566276792,2354
915.0248674493587,2496
917.2363748690857,2351
919.4472794561113,2260
921.6575817787543,2314
923.867282404402,2321
926.0763818995099,2301
928.2848808296014,2271
930.4927797592693,2251
932.700079252173,2293
934.9067798710416,2254
937.112882177672,2272
939.3183867329287,2171
941.5232940967453,2138
943.727604828124,2304
945.9313194851336,2208
948.1344386249132,2207
950.3369628036685,2378
952.5388925766747,2259
954.7402284982745,2159
956.9409711218789,2179
959.1411209999676,2167
961.3406786840883,2168
963.5396447248565,2111
965.7380196719573,2169
967.9358040741427,2302
970.1329984792335,2177
972.3296034341188,2227
974.5256194847555,2151
976.72104717617,2059
978.9158870524552,2138
981.1101396567742,2217
983.3038055313566,2123
985.4968852175009,2159
987.6893792555747,2175
989.8812881850124,2126
992.072612544318,2208
994.263352871063,2070
996.453509701887,2140
998.6430835724984,2170
1000.832075017674,2119
1003.0204845712583,2022
1005.208312766164,1990
1007.3955601343728,1952
1009.5822272069338,1977
1011.7683145139652,1977
1013.9538225846525,2051
1016.1387519472505,1951
1018.3231031290818,1956
1020.5068766565371,1933
1022.6900730550753,2052
1024.872692849224,2164
1027.054736562579,1993
1029.2362047178037,1876
1031.4170978366305,1922
1033.5974164398597,1928
1035.7771610473603,1876
1037.9563321780693,1858
1040.1349303499917,1837
1042.3129560802006,1807
1044.490409884838,1802
1046.667292279115,1792
1048.8436037773079,1802
1051.0193448927644,1933
1053.1945161378994,1977
1055.3691180241954,1900
1057.5431510622038,1897
1059.7166157615447,1796
1061.8895126309053,1857
1064.0618421780423,1877
1066.2336049097798,1850
1068.4048013320107,1846
1070.5754319496955,1746
1072.745497266863,1847
1074.9149977866118,1801
1077.0839340111065,1842
1079.2523064415818,1844
1081.4201155783398,1697
1083.587361920751,1738
1085.7540459672537,1797
1087.9201682153553,1774
1090.0857291616308,1793
1092.2507293017238,1726
1094.4151691303464,1786
1096.579049141279,1753
1098.7423698273687,1748
1100.9051316805335,1751
1103.0673351917571,1792
1105.2289808510936,1794
1107.3900691476633,1763
1109.550600569657,1782
1111.710575604332,1810
1113.8699947380146,1825
1116.028858456099,1784
1118.1871672430489,1718
1120.344921582394,1723
1122.5021219567334,1829
1124.6587688477362,1844
1126.8148627361365,1755
1128.9704041017399,1838
1131.1253934234173,1758
1133.2798311791098,1766
1135.4337178458263,1792
1137.5870538996437,1732
1139.7398398157075,1658
1141.8920760682313,1678
1144.0437631304972,1706
1146.1949014748543,1702
1148.3454915727225,1736
1150.4955338945874,1728
1152.6450289100044,1700
1154.7939770875969,1779
1156.9423788950558,1730
1159.0902347991405,1773
1161.2375452656802,1743
1163.3843107595703,1658
1165.530531744775,1692
1167.6762086843282,1741
1169.8213420403304,1678
1171.9659322739503,1749
1174.1099798454266,1768
1176.2534852140639,1745
1178.3964488382376,1689
1180.538871175389,1739
1182.680752682029,1717
1184.8220938137365,1646
1186.9628950251595,1722
1189.103156770012,1766
1191.2428795010783,1720
1193.3820636702108,1642
1195.5207097283287,1722
1197.6588181254215,1694
1199.7963893105457,1687
1201.9334237318253,1638
1204.0699218364548,1710
1206.2058840706954,1738
1208.3413108798773,1712
1210.476202708397,1741
1212.6105599997222,1792
1214.7443831963874,1675
1216.877672739995,1700
1219.0104290712165,1660
1221.1426526297905,1811
1223.2743438545253,1791
1225.4055031832972,1659
1227.5361310530493,1669
1229.6662278997946,1735
1231.7957941586142,1736
1233.9248302636565,1685
1236.053336648139,1661
1238.1813137443464,1660
1240.3087619836338,1678
1242.4356817964222,1695
1244.5620736122019,1692
1246.6879378595318,1778
1248.813274966039,1608
1250.938085358418,1669
1253.062369462432,1713
1255.186127702913,1727
1257.3093605037611,1714
1259.4320682879434,1791
1261.554251477498,1747
1263.6759104935277,1641
1265.797045756206,1687
1267.9176576847744,1721
1270.0377466975428,1769
1272.1573132118879,1755
1274.2763576442567,1753
1276.394880410162,1799
1278.5128819241877,1753
1280.6303625999835,1749
1282.7473228502695,1744
1284.8637630868325,1775
1286.9796837205272,1755
1289.0950851612783,1824
1291.209967818078,1801
1293.3243320989864,1802
1295.4381784111324,1825
1297.551507160712,1741
1299.6643187529912,1804
1301.776613592303,1768
1303.888392082049,1838
1305.9996546246998,1758
1308.1104016217923,1732
1310.220633473934,1835
1312.3303505807999,1908
1314.4395533411316,1834
1316.5482421527418,1834
1318.6564174125092,1759
1320.7640795163816,1763
1322.8712288593752,1824
1324.9778658355744,1805
1327.0839908381313,1781
1329.1896042592675,1771
1331.2947064902714,1818
1333.3992979215009,1785
1335.503378942381,1770
1337.6069499414057,1825
1339.7100113061383,1829
1341.8125634232074,1700
1343.9146066783128,1702
1346.0161414562212,1810
1348.1171681407677,1803
1350.2176871148563,1785
1352.3176987604575,1779
1354.4172034586127,1831
1356.5162015894289,1803
1358.6146935320835,1829
1360.7126796648213,1762
1362.8101603649548,1802
1364.9071360088656,1786
1367.0036069720036,1743
1369.099573628886,1708
1371.195036353099,1730
1373.2899955172975,1827
1375.3844514932039,1863
1377.4784046516088,1819
1379.5718553623715,1805
1381.6648039944193,1731
1383.7572509157485,1815
1385.8491964934224,1910
1387.9406410935735,1784
1390.0315850814022,1821
1392.122028821177,1832
1394.2119726762357,1833
1396.3014170089828,1831
1398.3903621808918,1806
1400.4788085525051,1832
1402.566756483432,1721
1404.6542063323514,1778
1406.7411584570095,1775
1408.8276132142219,1826
1410.9135709598704,1776
1412.9990320489078,1805
1415.083996835353,1806
1417.1684656722937,1746
1419.2524389118867,1718
1421.3359169053565,1741
1423.4189000029946,1780
1425.5013885541634,1786
1427.5833829072913,1746
1429.664883409876,1721
1431.7458904084833,1807
1433.8264042487467,1746
1435.9064252753697,1807
1437.9859538321216,1735
1440.0649902618416,1817
1442.1435349064373,1798
1444.2215881068837,1746
1446.2991502032237,1780
1448.37622153457,1768
1450.452802439103,1823
1452.5288932540698,1815
1454.604494315788,1842
1456.6796059596427,1864
1458.7542285200866,1795
1460.8283623306415,1794
1462.902007723897,1790
1464.9751650315106,1829
1467.0478345842089,1759
1469.1200167117868,1761
1471.1917117431062,1816
1473.2629200060992,1778
1475.333641827764,1853
1477.4038775341692,1776
1479.4736274504498,1842
1481.5428919008104,1781
1483.6116712085222,1792
1485.6799656959279,1901
1487.7477756844346,1783
1489.8151014945201,1867
1491.88194344573,1837
1493.9483018566775,1776
1496.0141770450455,1832
1498.0795693275822,1776
1500.1444790201076,1811
1502.2089064375086,1799
1504.2728518937402,1767
1506.3363157018239,1809
1508.3992981738534,1785
1510.4617996209872,1835
1512.5238203534536,1791
1514.5853606805495,1826
1516.6464209106384,1836
1518.7070013511543,1851
1520.7671023085973,1875
1522.8267240885375,1840
1524.885866995612,1862
1526.9445313335268,1843
1529.002717405056,1882
1531.0604255120425,1873
1533.1176559553965,1847
1535.1744090350971,1839
1537.2306850501914,1930
1539.2864842987956,1850
1541.3418070780922,1923
1543.396653684334,1863
1545.4510244128405,1819
1547.5049195580013,1836
1549.5583394132727,1866
1551.61128427118,1909
1553.6637544233158,1845
1555.7157501603415,1844
1557.7672717719888,1887
1559.8183195470538,1946
1561.8688937734037,1911
1563.9189947379737,1858
1565.9686227267657,1873
1568.0177780248514,1917
1570.0664609163696,1923
1572.1146716845292,1895
1574.162410611605,1844
1576.2096779789413,1895
1578.2564740669518,1888
1580.3027991551157,1797
1582.3486535219831,1884
1584.3940374451709,1818
1586.4389512013645,1852
1588.4833950663178,1846
1590.5273693148533,1809
1592.5708742208603,1837
1594.6139100572982,1858
1596.6564770961936,1896
1598.698575608642,1816
1600.7402058648063,1882
1602.7813681339185,1802
1604.8220626842776,1763
1606.8622897832533,1849
1608.9020496972812,1901
1610.9413426918663,1810
1612.9801690315808,1840
1615.018528980066,1781
1617.056422800033,1866
1619.0938507532578,1860
1621.1308131005876,1873
1623.1673101019355,1788
1625.2033420162848,1795
1627.2389091016862,1842
1629.274011615259,1789
1631.3086498131897,1878
1633.3428239507352,1831
1635.376534282219,1837
1637.4097810610324,1814
1639.4425645396364,1846
1641.4748849695593,1766
1643.5067426013989,1748
1645.53813768482,1844
1647.5690704685549,1802
1649.5995412004067,1785
1651.6295501272452,1867
1653.6590974950086,1860
1655.6881835487025,1808
1657.7168085324029,1806
1659.7449726892523,1853
1661.772676261462,1899
1663.7999194903114,1787
1665.8267026161484,1794
1667.8530258783894,1844
1669.8788895155185,1830
1671.9042937650888,1719
1673.9292388637205,1794
1675.953725047103,1778
1677.977752549994,1778
1680.0013216062184,1821
1682.0244324486712,1836
1684.0470853093134,1777
1686.0692804191767,1785
1688.0910180083588,1759
1690.1122983060268,1740
1692.1331215404175,1866
1694.1534879388319,1821
1696.173397727644,1816
1698.1928511322926,1835
1700.211848377286,1892
1702.2303896862018,1895
1704.248475281684,1887
1706.2661053854458,1960
1708.2832802182684,1838
1710.300000000002,1834
1712.3162649495644,1864
1714.3320752849409,1783
1716.3474312231865,1759
1718.362332980424,1815
1720.376780771845,1767
1722.3907748117072,1786
1724.4043153133393,1796
1726.4174024891367,1830
1728.4300365505628,1833
1730.442217708151,1761
1732.4539461715008,1824
1734.465222149282,1831
1736.4760458492306,1833
1738.4864174781524,1854
1740.496337241921,1824
1742.5058053454786,1840
1744.5148219928346,1737
1746.523387387068,1793
1748.531501730325,1891
1750.5391652238209,1794
1752.5463780678388,1899
1754.55314046173,1835
1756.5594526039135,1862
1758.565314691879,1860
1760.5707269221812,1788
1762.5756894904443,1756
1764.580202591363,1904
1766.5842664186966,1828
1768.5878811652751,1837
1770.591047022996,1875
1772.593764182825,1844
1774.5960328347965,1826
1776.5978531680116,1818
1778.5992253706427,1916
1780.6001496299273,1783
1782.6006261321731,1834
1784.6006550627553,1868
1786.6002366061175,1821
1788.5993709457725,1861
1790.5980582642992,1855
1792.5962987433468,1794
1794.5940925636314,1821
1796.5914399049389,1878
1798.5883409461221,1820
1800.584795865102,1814
1802.580804838869,1868
1804.5763680434807,1862
1806.571485654064,1857
1808.566157844813,1857
1810.5603847889902,1872
1812.5541666589274,1837
1814.5475036260236,1843
1816.5403958607467,1757
1818.5328435326323,1871
1820.5248468102845,1900
1822.5164058613755,1803
1824.5075208526468,1816
1826.4981919499064,1822
1828.488419318032,1819
1830.4782031209684,1856
1832.4675435217305,1802
1834.4564406823993,1794
1836.4448947641258,1826
1838.432905927128,1922
1840.4204743306927,1816
1842.4076001331746,1780
1844.3942834919985,1864
1846.380524563654,1865
1848.366323503702,1880
1850.351680466771,1819
1852.3365956065563,1882
1854.3210690758228,1776
1856.3051010264044,1864
1858.2886916092007,1861
1860.271840974182,1879
1862.2545492703862,1869
1864.2368166459191,1881
1866.2186432479543,1914
1868.2000292227349,1889
1870.1809747155717,1829
1872.1614798708429,1862
1874.1415448319963,1841
1876.1211697415474,1811
1878.1003547410805,1938
1880.0790999712472,1878
1882.0574055717675,1869
1884.0352716814305,1908
1886.0126984380927,1945
1887.989685978679,1937
1889.9662344391836,1892
1891.9423439546672,1863
1893.9180146592607,1916
1895.893246686161,1901
1897.868040167636,1886
1899.8423952350195,1877
1901.8163120187137,1897
1903.7897906481917,1912
1905.7628312519923,1873
1907.7354339577219,1942
1909.7075988920578,1911
1911.6793261807447,1930
1913.6506159485943,1935
1915.6214683194871,1901
1917.5918834163726,1845
1919.5618613612687,1833
1921.5314022752605,1933
1923.5005062785012,1899
1925.4691734902144,1975
1927.4374040286893,1886
1929.4051980112845,1932
1931.3725555544274,1943
1933.3394767736136,1976
1935.305961783406,1963
1937.2720106974361,1893
1939.237623628404,1842
1941.2028006880778,1970
1943.167541987295,1938
1945.1318476359588,1929
1947.0957177430432,1919
1949.0591524165898,1954
1951.0221517637078,1989
1952.984715890574,1852
1954.9468449024357,1881
1956.9085389036072,1940
1958.8697979974704,1891
1960.8306222864767,1902
1962.7910118721456,1960
1964.7509668550638,1916
1966.7104873348871,1862
1968.6695734103387,1998
1970.6282251792127,1903
1972.586442738368,1835
1974.5442261837343,1979
1976.501575610307,1934
1978.4584911121533,1923
1980.4149727824056,1967
1982.3710207132658,1946
1984.326634996004,1903
1986.2818157209585,1970
1988.2365629775359,1928
1990.1908768542116,1989
1992.144757438527,1991
1994.0982048170954,1898
1996.0512190755953,1916
1998.0038002987749,1966
1999.95594857045,1909
2001.9076639735054,1900
2003.8589465898945,1901
2005.8097965006368,1935
2007.760213785822,1811
2009.7101985246077,1876
2011.6597507952201,1923
2013.6088706749524,1861
2015.5575582401675,1895
2017.5058135662953,1937
2019.4536367278351,1876
2021.4010277983534,1873
2023.347986850486,1894
2025.2945139559365,2001
2027.2406091854768,1946
2029.1862726089462,1904
2031.1315042952538,1949
2033.0763043123766,1947
2035.0206727273585,1937
2036.964609606313,1928
2038.908115014422,1854
2040.8511890159348,1958
2042.7938316741693,1877
2044.7360430515123,1904
2046.677823209417,1940
2048.6191722084077,1888
2050.5600901080743,1991
2052.5005769670765,1900
2054.440632843142,1976
2056.380257793066,1887
2058.3194518727128,1925
2060.258215137015,1973
2062.1965476399732,1930
2064.1344494346554,1890
2066.0719205732,1938
2068.008961106812,1935
2069.945571085764,1947
2071.8817505593997,1979
2073.817499576128,1879
2075.7528181834273,1906
2077.6877064278447,1865
2079.622164354995,1899
2081.556192009562,1807
2083.4897894352966,1896
2085.4229566750187,1947
2087.355693770616,1862
2089.2880007630456,1887
2091.219877692331,1872
2093.151324597566,1900
2095.0823415169107,1930
2097.012928487595,1891
2098.9430855459173,1939
2100.872812727242,1882
2102.8021100660035,1920
2104.730977595705,1869
2106.659415348917,1940
2108.5874233572777,1981
2110.5150016514945,2000
2112.442150261343,1936
2114.3688692156675,1902
2116.2951585423793,1947
2118.2210182684585,1930
2120.146448419954,1926
2122.0714490219825,1925
2123.9960200987293,1909
2125.920161673447,1965
2127.843873768458,1948
2129.767156405151,1978
2131.690009603985,1960
2133.612433384486,1984
2135.534427765249,1999
2137.4559927639366,1892
2139.37712839728,1933
2141.2978346810783,2002
2143.2181116301995,1881
2145.1379592585795,2011
2147.057377579222,1927
2148.9763666042,1951
2150.894926344655,1927
2152.813056810794,1904
2154.730758011896,1965
2156.648029956306,1971
2158.564872651437,1933
2160.481286103772,1913
2162.397270318861,1905
2164.312825301323,1923
2166.227951054844,1945
2168.14264758218,1937
2170.056914885153,1964
2171.9707529646566,1975
2173.8841618206484,1915
2175.7971414521585,2015
2177.7096918572825,1958
2179.621813033186,1942
2181.5335049761,1954
2183.444767681327,1998
2185.355601143236,1994
2187.2660053552654,1971
2189.1759803099208,1942
2191.085525998777,2000
2192.994642412475,1989
2194.903329540727,1932
2196.811587372312,1893
2198.7194158950765,1979
2200.626815095937,1936
2202.5337849608763,1959
2204.440325474948,2024
2206.346436622271,1939
2208.2521183860345,1899
2210.157370748496,1879
2212.0621936909793,1972
2213.966587193879,1981
2215.8705512366573,1977
2217.774085797842,1990
2219.677190855033,1935
2221.579866384897,1992
2223.4821123631677,2020
2225.3839287646483,2008
2227.2853155632106,1985
2229.186272731794,1939
2231.0868002424063,2039
2232.986898066123,1944
2234.8865661730892,1912
2236.785804532517,1943
2238.6846131126877,1996
2240.5829918809495,1973
2242.4809408037213,1933
2244.3784598464877,1974
2246.275548973803,1997
2248.172208149288,1968
2250.0684373356357,1978
2251.964236494603,1973
2253.859605587017,1971
2255.7545445727733,2023
2257.6490534108357,2028
2259.5431320592356,1965
2261.436780475073,1967
2263.329998614516,1997
2265.222786432802,1915
2267.1151438842344,1924
2269.0070709221877,1940
2270.8985674991022,1971
2272.789633566488,1937
2274.6802690749237,1958
2276.570473974053,1930
2278.4602482125933,1916
2280.3495917383257,1924
2282.238504498101,1931
2284.1269864378387,1993
2286.0150375025264,1966
2287.9026576362203,1945
2289.789846782043,2032
2291.6766048821873,1998
2293.5629318779147,2029
2295.4488277095534,2009
2297.3342923164996,2007
2299.2193256372193,2029
2301.1039276092465,2059
2302.9880981691817,2043
2304.871837252696,2063
2306.755144794528,1971
2308.6380207284838,2038
2310.5204649874386,2087
2312.4024775033354,1953
2314.2840582071854,2000
2316.165207029068,2045
2318.0459238981325,1951
2319.926208742594,1976
2321.8060614897363,1956
2323.6854820659137,2009
2325.5644703965463,2015
2327.443026406124,2025
2329.321150018203,2031
2331.1988411554107,1990
2333.0760997394395,2007
2334.952925691053,1965
2336.829318930082,1949
2338.705279375424,1923
2340.5808069450477,1938
2342.4559015559867,1956
2344.3305631243456,2005
2346.204791565297,2030
2348.07858679308,1945
2349.9519487210027,2032
2351.824877261443,2045
2353.6973723258448,1993
2355.5694338247226,1973
2357.4410616676564,2046
2359.312255763297,2025
2361.1830160193617,2002
2363.053342342637,1998
2364.9232346389776,2014
2366.792692813306,2029
2368.6617167696145,2005
2370.5303064109603,2087
2372.3984616394723,2015
2374.2661823563467,2018
2376.1334684618464,2050
2378.0003198553054,1991
2379.8667364351227,2015
2381.7327180987672,1995
2383.5982647427777,1967
2385.4633762627586,2009
2387.3280525533837,1991
2389.192293508395,2031
2391.0560990206027,1987
2392.919468981885,1999
2394.782403283189,2008
2396.644901814531,1999
2398.5069644649916,2083
2400.3685911227235,2045
2402.2297816749474,2016
2404.0905360079505,1980
2405.950854007089,1999
2407.8107355567886,1926
2409.670180540541,2004
2411.529188840908,2061
2413.387760339518,1943
2415.2458949170705,1973
2417.1035924533294,1989
2418.96085282713,1995
2420.8176759163744,1993
2422.6740615980334,1937
2424.5300097481468,2018
2426.38552024182,2068
2428.24059295323,2032
2430.0952277556207,2037
2431.949424521303,2052
2433.803183121658,2027
2435.6565034271343,2051
2437.5093853072485,2041
2439.361828630585,2003
2441.213833264798,2105
2443.0653990766095,2062
2444.916525931808,2032
2446.7672136952524,2054
2448.6174622308695,2107
2450.4672714016538,2082
2452.3166410696676,2029
2454.165571096043,2045
2456.0140613409794,2044
2457.8621116637432,2036
2459.709721922672,2061
2461.556891975169,2010
2463.403621677707,2003
2465.249910885827,1950
2467.0957594541383,1989
2468.9411672363167,2019
2470.78613408511,1984
2472.630659852331,2019
2474.4747443888614,2052
2476.3183875446516,1946
2478.161589168721,2037
2480.0043491091556,1949
2481.8466672131112,1975
2483.6885433268108,2003
2485.529977295547,2132
2487.370968963678,1953
2489.2115181746335,2037
2491.0516247709097,1944
2492.891288594071,1991
2494.7305094847497,1964
2496.569287282649,2057
2498.407621826537,2048
2500.2455129542523,2078
2502.0829605027,2046
2503.919964307855,2034
2505.7565242047594,2069
2507.5926400275252,2060
2509.42831160933,2072
2511.263538782423,2081
2513.0983213781174,2022
2514.9326592267994,1985
2516.76655215792,2077
2518.5999999999995,2070
2520.4330025806275,2077
2522.2655597264607,2104
2524.0976712632237,2035
2525.9293370157097,1962
2527.760556807782,2019
2529.591330462369,2050
2531.4216578014702,2073
2533.2515386461523,2010
2535.080972816548,2037
2536.9099601318626,2003
2538.738500410366,1982
2540.5665934693993,2097
2542.3942391253695,2038
2544.221437193752,1987
2546.0481874890925,2037
2547.874489825003,1950
2549.700344014164,2045
2551.5257498683245,2077
2553.350707198304,2009
2555.175215813986,2088
2556.9992755243256,2086
2558.8228861373454,2054
2560.646047460134,1972
2562.468759298852,2096
2564.2910214587255,2058
2566.1128337440496,1976
2567.93419595819,2072
2569.7551079035757,2067
2571.5755693817077,2046
2573.395580193155,1967
2575.2151401375536,1974
2577.034249013609,2007
2578.8529066190936,2019
2580.6711127508493,2089
2582.488867204785,2057
2584.3061697758794,2030
2586.1230202581787,2005
2587.939418444797,1934
2589.7553641279183,1994
2591.570857098791,2017
2593.385897147736,2003
2595.200484064141,2019
2597.014617636461,2089
2598.8282976522214,2062
2600.6415238980126,2029
2602.454296159496,2001
2604.266614221401,1992
2606.0784778675243,2025
2607.8898868807305,2027
2609.700841042955,2048
2611.5113401351973,2033
2613.32138393753,2062
2615.13097222909,2061
2616.940104788084,2096
2618.748781391788,2074
2620.557001816543,2093
2622.364765837763,2043
2624.1720732299264,2031
2625.9789237665814,2079
2627.7853172203445,2091
2629.5912533629,2059
2631.396731965001,2087
2633.2017527964676,2097
2635.0063156261904,2106
2636.810420222126,2110
2638.614066351301,2070
2640.417253779809,2040
2642.219982272813,2048
2644.022251594542,2156
2645.8240615082973,2098
2647.625411776444,2122
2649.4263021604183,1993
2651.226732420724,2033
2653.026702316933,2051
2654.8262116076858,2076
2656.625260050691,2076
2658.423847402724,2004
2660.221973419631,2011
2662.0196378563246,2051
2663.8168404667867,2029
2665.613581004068,2114
2667.4098592202854,2097
2669.2056748666246,2061
2671.0010276933417,2068
2672.7959174497596,2119
2674.5903438842674,2021
2676.384306744327,2097
2678.177805776465,2026
2679.9708407262765,2041
2681.7634113384274,2028
2683.555517356648,2062
2685.3471585237403,2107
2687.138334581574,2138
2688.9290452710843,2053
2690.7192903322784,2051
2692.50906950423,2041
2694.2983825250794,2074
2696.087229132039,2088
2697.875609061386,2103
2699.6635220484677,2147
2701.450967827699,2078
2703.237946132564,2083
2705.0244566956126,2100
2706.8104992484664,2106
2708.596073521813,2062
2710.381179245408,2138
2712.1658161480777,2088
2713.949983957714,2098
2715.7336824012773,2039
2717.516911204798,2043
2719.299670093374,2036
2721.0819587911706,2069
2722.8637770214223,2103
2724.6451245064322,2036
2726.426000967571,2025
2728.2064061252763,2085
2729.986339699057,2002
2731.765801407488,2040
2733.5447909682134,2018
2735.323308097945,2047
2737.101352512463,2009
2738.8789239266166,2088
2740.6560220543215,2090
2742.4326466085645,2055
2744.2087973013977,2076
2745.984473843944,1996
2747.7596759463922,2095
2749.534403318001,2022
2751.308655667096,2058
2753.0824327010737,2005
2754.8557341263954,2035
2756.628559648593,2081
2758.4009089722667,2109
2760.172781801083,2056
2761.944177837779,1990
2763.715096784159,1997
2765.4855383410945,2073
2767.2555022085267,2032
2769.024988085465,2055
2770.793995669988,2022
2772.5625246592385,2046
2774.3305747494323,2018
2776.098145635852,2060
2777.865237012847,2070
2779.6318485738357,2041
2781.397980011306,2046
2783.163631016813,2043
2784.928801280979,2093
2786.6934904934974,2058
2788.457698343127,2099
2790.221424517697,2085
2791.9846687041027,2117
2793.74743058831,2086
2795.5097098553515,2008
2797.2715061893286,2105
2799.0328192734105,2084
2800.793648789836,2031
2802.553994419911,2062
2804.3138558440087,2041
2806.073232741573,2111
2807.8321247911135,2133
2809.590531670211,2063
2811.3484530555115,2057
2813.105888622732,2059
2814.8628380466557,2108
2816.6193010011348,2101
2818.3752771590903,2118
2820.13076619251,2109
2821.885767772452,2041
2823.640281569041,2053
2825.3943072514703,2022
2827.147844488002,2083
2828.9008929459665,2147
2830.6534522917614,2138
2832.405522190854,2058
2834.1571023077786,2101
2835.9081923061394,2125
2837.658791848606,2080
2839.40890059692,2119
2841.1585182118874,2114
2842.907644353386,2165
2844.6562786803593,2060
2846.4044208508203,2142
2848.15207052185,2113
2849.899227349598,2092
2851.6458909892804,2149
2853.392061095185,2103
2855.137737320664,2114
2856.882919318142,2034
2858.6276067391063,2041
2860.371799234118,2059
2862.1154964528037,2074
2863.8586980438586,2105
2865.6014036550464,2042
2867.343612933199,2081
2869.0853255242173,2135
2870.826541073068,2130
2872.567259223789,2066
2874.307479619485,2124
2876.0472019023287,2164
2877.7864257135625,2116
2879.525150693495,2064
2881.263376481505,2108
2883.0011027160385,2082
2884.73832903461,2105
2886.4750550738027,2104
2888.2112804692665,2129
2889.9470048557223,2182
2891.682227866956,2145
2893.416949135825,2161
2895.151168294252,2127
2896.88488497323,2070
2898.6180988028204,2058
2900.3508094121503,2094
2902.083016429419,2088
2903.81471948189,2123
2905.5459181958972,2176
2907.276612196844,2142
2909.0068011091994,2075
2910.736484556502,2105
2912.465662161359,2051
2914.194333545445,1991
2915.922498329504,2147
2917.650156133346,2174
2919.377306575852,2101
2921.103949274969,2046
2922.830083847715,2125
2924.555709910173,2026
2926.2808270774967,2078
2928.005434963907,2026
2929.7295331826936,2175
2931.4531213462133,2088
2933.1761990658924,2077
2934.8987659522254,2147
2936.6208216147747,2106
2938.3423656621694,2134
2940.0633977021116,2062
2941.783917341366,2137
2943.503924185768,2083
2945.223417840223,2085
2946.9423979087023,2147
2948.6608639942456,2152
2950.378815698962,2165
2952.096252624029,2143
2953.81317436969,2145
2955.529580535259,2139
2957.2454707191177,2142
2958.9608445187164,2139
2960.6757015305734,2138
2962.3900413502733,2192
2964.103863572472,2175
2965.817167790894,2136
2967.529953598327,2126
2969.2422205866337,2134
2970.953968346739,2162
2972.6651964686407,2067
2974.3759045414035,2187
2976.0860921531585,2099
2977.7957588911067,2145
2979.504904341517,2225
2981.2135280897273,2126
2982.9216297201433,2134
2984.629208816238,2121
2986.336264960554,2124
2988.0427977347017,2114
2989.7488067193594,2141
2991.454291494274,2224
2993.1592516382607,2163
2994.8636867292034,2119
2996.567596344053,2094
2998.2709800588295,2128
2999.973837448621,2190
3001.6761680875857,2117
3003.377971548946,2131
3005.0792474049954,2177
3006.7799952270957,2175
3008.480214585676,2181
3010.1799050502345,2121
3011.8790661893368,2087
3013.5776975706176,2048
3015.2757987607793,2066
3016.973369325592,2169
3018.6704088298966,2072
3020.366916837598,2166
3022.0628929116747,2112
3023.7583366141675,2126
3025.4532475061915,2058
3027.147625147925,2093
3028.841469098617,2120
3030.534778916585,2060
3032.2275541592144,2084
3033.9197943829577,2147
3035.611499143338,2133
3037.302667994943,2091
3038.9933004914333,2197
3040.683396185535,2113
3042.372954629042,2121
3044.061975372817,2162
3045.7504579667934,2128
3047.4384019599684,2160
3049.1258069004116,2136
3050.812672335258,2123
3052.4989978107124,2186
3054.184782872047,2094
3055.870027063603,2126
3057.554729928791,2095
3059.238891010086,2135
3060.9225098490347,2147
3062.6055859862518,2092
3064.2881189614177,2152
3065.970108313285,2129
3067.651553579671,2166
3069.3324542974633,2115
3071.012810002616,2127
3072.6926202301543,2193
3074.3718845141702,2087
3076.050602387822,2070
3077.728773383339,2161
3079.406397032018,2103
3081.083472864223,2105
3082.7600004093874,2129
3084.4359791960137,2206
3086.11140875167,2073
3087.7862886029952,2140
3089.4606182756943,2208
3091.134397294544,2166
3092.807625183385,2110
3094.4803014651284,2142
3096.152425661755,2094
3097.8239972943097,2081
3099.49501588291,2136
3101.165480946741,2062
3102.8353920040518,2195
3104.504748572165,2135
3106.1735501674693,2171
3107.8417963054226,2178
3109.5094865005485,2203
3111.176620266441,2155
3112.8431971157625,2086
3114.5092165602427,2166
3116.1746781106813,2123
3117.839581276943,2169
3119.503925567965,2207
3121.167710491747,2141
3122.830935555364,2105
3124.493600264954,2079
3126.1557041257247,2084
3127.817246641952,2225
3129.478227316982,2164
3131.1386456532273,2201
3132.798501152168,2111
3134.4577933143537,2213
3136.116521639402,2174
3137.7746856259982,2129
3139.4322847718977,2219
3141.0893185739224,2176
3142.745786527962,2133
3144.4016881289754,2244
3146.0570228709903,2202
3147.711790247102,2181
3149.3659897494754,2175
3151.0196208693396,2106
3152.6726830969974,2185
3154.3251759218165,2071
3155.9770988322334,2146
3157.6284513157534,2145
3159.2792328589485,2150
3160.929442947461,2124
3162.579081066002,2267
3164.2281466983477,2150
3165.8766393273454,2113
3167.5245584349086,2122
3169.1719035020224,2109
3170.818674008735,2164
3172.4648694341677,2222
3174.110489256508,2197
3175.7555329530105,2232
3177.4000000000005,2161
3179.0438898728707,2132
3180.6872020460805,2257
3182.32993599316,2133
3183.972091186706,2139
3185.613667098384,2130
3187.254663198927,2115
3188.8950789581386,2170
3190.5349138448873,2233
3192.1741673271126,2186
3193.8128388718224,2123
3195.4509279450886,2154
3197.0884340120574,2186
3198.725356536939,2165
3200.361694983014,2117
3201.997448812629,2181
3203.632617487203,2081
3205.2672004672195,2104
3206.901197212229,2161
3208.5346071808563,2085
3210.167429830789,2099
3211.799664618785,2084
3213.4313110006706,2127
3215.0623684313387,2159
3216.692836364753,2058
3218.3227142539445,2195
3219.9520015510125,2244
3221.5806977071215,2141
3223.2088021725103,2176
3224.8363143964816,2074
3226.4632338274077,2034
3228.089559912728,2192
3229.715292098951,2116
3231.3404298316545,2139
3232.9649725554846,2136
3234.5889197141523,2160
3236.2122707504395,2136
3237.8350251061984,2170
3239.457182222345,2191
3241.0787415388677,2171
3242.6997024948187,2226
3244.3200645283223,2189
3245.9398270765696,2228
3247.558989575821,2112
3249.177551461403,2109
3250.7955121677123,2191
3252.412871128213,2149
3254.029627775437,2184
3255.6457815409867,2142
3257.2613318555286,2144
3258.876278148802,2104
3260.490619849613,2189
3262.1043563858348,2128
3263.717487184408,2068
3265.3300116713453,2098
3266.941929271725,2137
3268.5532394096917,2153
3270.1639415084646,2124
3271.7740349903233,2125
3273.383519276621,2259
3274.9923937877775,2163
3276.6006579432833,2194
3278.2083111616903,2084
3279.815352860627,2165
3281.421782456786,2200
3283.027599365927,2158
3284.632803002881,2219
3286.237392781545,2124
3287.841368114885,2167
3289.4447284149373,2108
3291.047473092801,2161
3292.649601558651,2119
3294.2511132217223,2185
3295.8520074903254,2154
3297.452283771835,2054
3299.051941472695,2163
3300.650979998417,2157
3302.2493987535827,2210
3303.8471971418403,2168
3305.4443745659064,2223
3307.0409304275654,2146
3308.636864127674,2127
3310.2321750661513,2188
3311.8268626419876,2204
3313.420926253242,2139
3315.01436529704,2145
3316.6071791695776,2105
3318.1993672661183,2157
3319.7909289809913,2147
3321.3818637075983,2073
3322.972170838406,2098
3324.561849764951,2175
3326.150899877838,2212
3327.7393205667386,2145
3329.3271112203956,2266
3330.9142712266166,2166
3332.5007999722793,2169
3334.08669684333,2165
3335.6719612247834,2141
3337.2565925007193,2193
3338.840590054291,2231
3340.4239532677157,2185
3342.006681522281,2165
3343.5887741983406,2208
3345.1702306753214,2233
3346.7510503317126,2183
3348.3312325450743,2267
3349.910776692037,2202
3351.4896821482953,2174
3353.0679482886153,2215
3354.645574486829,2221
3356.2225601158398,2251
3357.798904547615,2133
