CollectionTime,4/2/2024 11:09:57 AM
ExposureUsed,3
CalibratedSpectrum
-994.8464149364308,637
-991.9439705588344,675
-989.042830375826,664
-986.1429931109675,761
-983.2444574887519,814
-980.3472222346043,758
-977.4512860748813,681
-974.5566477368716,667
-971.6633059487953,625
-968.7712594398042,594
-965.8805069399822,632
-962.9910471803447,644
-960.1028788928387,647
-957.2160008103432,652
-954.3304116666687,685
-951.4461101965578,679
-948.5630951356844,735
-945.6813652206545,749
-942.8009191890055,734
-939.9217557792067,774
-937.0438737306594,754
-934.167271783696,718
-931.2919486795813,687
-928.4179031605115,696
-925.5451339696144,725
-922.67363985095,775
-919.8034195495097,735
-916.9344718112166,760
-914.0667953829256,761
-911.2003890124234,792
-908.3352514484286,705
-905.471381440591,719
-902.6087777394928,683
-899.7474390966474,684
-896.8873642645002,744
-894.0285519964284,731
-891.1710010467407,683
-888.3147101706776,708
-885.4596781244115,771
-882.6059036650465,712
-879.7533855506183,650
-876.9021225400943,653
-874.0521133933738,658
-871.2033568712878,674
-868.3558517355991,690
-865.509596749002,737
-862.6645906751228,811
-859.8208322785192,877
-856.9783203246812,790
-854.1370535800299,675
-851.2970308119186,642
-848.4582507886321,728
-845.620712279387,708
-842.7844140543316,676
-839.9493548845461,724
-837.1155335420422,671
-834.2829487997635,668
-831.4515994315852,714
-828.6214842123144,727
-825.7926019176898,747
-822.9649513243819,760
-820.138531209993,723
-817.3133403530569,730
-814.4893775330396,774
-811.6666415303382,733
-808.845131126282,721
-806.0248451031321,717
-803.2057822440808,683
-800.3879413332527,718
-797.5713211557038,774
-794.755920497422,758
-791.941738145327,723
-789.1287728872701,767
-786.3170235120342,835
-783.5064888093341,773
-780.6971675698165,672
-777.8890585850597,710
-775.0821606475735,766
-772.2764725507997,742
-769.4719930891118,687
-766.6687210578151,770
-763.8666552531465,861
-761.0657944722747,1061
-758.2661375133,939
-755.4676831752547,761
-752.6704302581027,741
-749.8743775627395,696
-747.0795238909925,714
-744.285868045621,718
-741.4934088303156,734
-738.702145049699,733
-735.9120755093254,802
-733.123199015681,980
-730.3355143761836,1033
-727.5490203991826,857
-724.7637158939592,796
-721.9795996707265,790
-719.1966705406293,721
-716.4149273157439,719
-713.6343688090786,682
-710.8549938345734,727
-708.0768012070998,744
-705.2997897424614,816
-702.5239582573931,829
-699.7493055695622,861
-696.9758304975669,864
-694.2035318609377,815
-691.4324084801367,718
-688.6624591765578,715
-685.8936827725265,771
-683.1260780913001,768
-680.3596439570675,774
-677.5943791949499,791
-674.8302826309991,687
-672.0673530922,705
-669.3055894064685,799
-666.5449904026519,806
-663.78555491053,808
-661.0272817608139,793
-658.2701697851465,843
-655.5142178161026,842
-652.7594246871884,873
-650.0057892328422,836
-647.2533102884337,767
-644.5019866902646,819
-641.7518172755683,855
-639.0028008825099,854
-636.254936350186,877
-633.5082225186254,836
-630.7626582287882,849
-628.0182423225665,817
-625.2749736427841,853
-622.5328510331965,921
-619.7918733384909,915
-617.0520394042862,881
-614.3133480771331,908
-611.5757982045143,943
-608.8393886348437,887
-606.1041182174672,1019
-603.3699858026625,1001
-600.6369902416393,938
-597.9051303865383,1010
-595.1744050904326,1078
-592.4448132073267,1028
-589.7163535921568,1029
-586.9890251007912,876
-584.2628265900296,893
-581.5377569176036,937
-578.8138149421764,1055
-576.090999523343,1001
-573.3693095216302,927
-570.6487437984965,942
-567.9293012163321,1062
-565.210980638459,1005
-562.4937809291307,959
-559.7777009535329,905
-557.0627395777825,977
-554.3488956689287,967
-551.6361680949519,1036
-548.9245557247644,1128
-546.2140574282107,1203
-543.5046720760662,1137
-540.7963985400388,1060
-538.0892356927677,1156
-535.3831824078238,1228
-532.6782375597103,1298
-529.9744000238613,1274
-527.2716686766433,1403
-524.5700423953542,1592
-521.8695200582238,1432
-519.1701005444136,1410
-516.4717827340166,1494
-513.7745655080581,1689
-511.0784477484944,1838
-508.38342833821423,1924
-505.68950616103757,2014
-502.9966801017163,2088
-500.3049490459341,2306
-497.61431188030633,2025
-494.9247674923801,1752
-492.2363147706342,1540
-489.54895260447927,1492
-486.86267988425755,1493
-484.1774955012431,1468
-481.4933983476417,1437
-478.8103873165908,1294
-476.1284613021596,1264
-473.44761919934945,1195
-470.7678599040928,1168
-468.089182313254,1315
-465.4115853246294,1284
-462.735067836947,1309
-460.0596287498663,1302
-457.3852669639789,1161
-454.71198138080774,1035
-452.03977090280773,985
-449.3686344333656,1088
-446.69857087679964,1189
-444.02957913835996,1206
-441.36165812422837,1182
-438.6948067415183,1212
-436.0290238982752,1185
-433.36430850347597,1170
-430.7006594670296,1260
-428.0380756997763,1268
-425.3765561134885,1226
-422.7160996208702,1199
-420.0567051355571,1328
-417.3983715721164,1313
-414.7410978460475,1232
-412.08488287378145,1289
-409.4297255726806,1329
-406.77562486103955,1128
-404.1225796580843,1137
-401.4705888839728,976
-398.8196514597947,999
-396.1697663075713,1074
-393.5209323502555,1018
-390.8731485117323,805
-388.22641371681823,969
-385.5807268912615,1129
-382.93608696174226,1037
-380.29249285587207,886
-377.64994350219456,806
-375.0084378301849,812
-372.36797477025016,820
-369.7285532537287,858
-367.0901722128914,832
-364.45283058094014,811
-361.8165272920089,947
-359.1812612811634,786
-356.54703148440103,630
-353.9138368386507,698
-351.28167628177346,832
-348.6505487525617,952
-346.02045319074,821
-343.3913885369643,849
-340.76335373282245,928
-338.1363477208339,868
-335.5103694444499,899
-332.8854178480535,967
-330.26149187695944,1033
-327.63859047741425,845
-325.016712596596,675
-322.3958571826148,681
-319.77602318451227,787
-317.15720955226186,868
-314.5394152367686,953
-311.9226391898695,823
-309.3068803643333,787
-306.69213771386023,1053
-304.0784101930824,1239
-301.4656967575635,1057
-298.8539963637994,894
-296.2433079692172,997
-293.6336305321761,1000
-291.02496301196675,985
-288.41730436881176,1031
-285.81065356386534,1065
-283.2050095592135,1116
-280.60037131787396,1580
-277.9967378037961,1811
-275.39410798186134,1305
-272.7924808178824,1216
-270.19185527860407,1199
-267.5922303317028,1224
-264.9936049457866,1348
-262.3959780903955,1250
-259.79934873600087,1345
-257.2037158540064,1377
-254.6090784167469,1377
-252.01543539748934,1488
-249.42278577043237,1228
-246.8311285107061,1107
-244.24046259437262,1057
-241.6507869984256,978
-239.0621007007909,1193
-236.4744026803254,1454
-233.88769191681808,1361
-231.30196739098994,1177
-228.7172280844934,1113
-226.13347297991243,1372
-223.550701060763,1347
-220.9689113114929,1126
-218.3881027174814,1213
-215.8082742650397,1491
-213.22942494141068,1776
-210.65155373476898,1960
-208.07465963422078,1903
-205.49874162980439,1903
-202.92379871248932,1963
-200.34982987417743,1798
-197.7768341077018,1348
-195.20481040682762,1267
-192.63375776625162,1425
-190.0636751816021,1489
-187.49456164943945,1482
-184.92641616725564,1536
-182.3592377334743,1606
-179.79302534745102,1727
-177.2277780094729,2059
-174.66349472075865,1807
-172.10017448345923,2007
-169.5378163006569,1958
-166.97641917636565,1874
-164.41598211553162,1943
-161.8565041240322,2297
-159.29798420867678,2122
-156.74042137720642,2215
-154.18381463829382,2355
-151.6281630015436,1796
-149.07346547749228,1594
-146.51972107760753,1692
-143.96692881428908,1998
-141.41508770086864,2335
-138.86419675160937,2231
-136.31425498170609,1781
-133.7652614072856,1929
-131.21721504540642,2105
-128.67011491405844,2444
-126.12396003216395,3201
-123.57874941957618,3902
-121.03448209708074,3230
-118.49115708639465,2928
-115.94877341016684,3011
-113.40733009197788,3081
-110.86682615633993,2912
-108.32726062869733,2986
-105.78863253542556,4145
-103.25094090383243,5805
-100.71418476215695,5958
-98.17836313957025,5124
-95.64347506617503,4118
-93.10951957300585,3387
-90.57649569202886,3626
-88.04440245614194,3411
-85.51323889917478,4017
-82.98300405588896,5191
-80.45369696197747,7760
-77.925316654065,10135
-75.39786216970867,14439
-72.87133254739649,17725
-70.34572682654857,20177
-67.82104404751692,22518
-65.29728325158499,27479
-62.774443480968216,32769
-60.252523778813384,37883
-57.73152318919938,41681
-55.21144075713676,37134
-52.69227552856796,35473
-50.17402655036665,34975
-47.65669287033859,25939
-45.14027353722133,22843
-42.624767600684095,28971
-40.11017411132775,35842
-37.59649212068507,45537
-35.08372068122037,59524
-32.57185884632963,60678
-30.06090567034107,58898
-27.550860208513996,57463
-25.04172151704006,58539
-22.533488653042014,65042
-20.02616067457484,65042
-17.51973664062507,65042
-15.014215611111126,65042
-12.509596646882983,65042
-10.005878809722162,65042
-7.503061162342419,65042
-5.001142768389059,65042
-2.5001226924387083,65042
-3.410605131648481E-13,65042
2.49922624248552,65042
4.997556967646801,65042
7.494993107179766,65042
9.99153559184856,65042
12.487185351485778,65042
14.98194331499235,65042
17.475810410337544,65042
19.96878756455851,65042
22.46087570376085,65042
24.952075753118834,39141
27.442388636874625,14168
29.93181527833849,9241
32.42035659988892,7366
34.90801352297353,11611
37.39478696810693,10604
39.880677854873056,10576
42.36568710192364,11262
44.8498156269784,11108
47.33306434682618,9710
49.815434177322686,7745
52.296926033393675,8826
54.77754082903198,8277
57.25727947729865,9439
59.736142890323435,8823
62.214131979304284,5975
64.6912476545076,4551
67.16749082526735,4102
69.64286239998614,3645
72.11736328613551,3994
74.59099439025431,3911
77.06375661794982,4224
79.53565087389825,4483
82.0066780618431,4750
84.4768390845968,4769
86.94613484403999,4340
89.41456624112152,5889
91.88213417585825,5813
94.34883954733527,4529
96.81468325370679,3801
99.2796661921941,2737
101.74378925908763,2966
104.20705334974559,3474
106.66945935859462,4031
109.1310081791296,3766
111.59170070391383,4193
114.05153782457865,3815
116.5105204318238,2805
118.96864941541708,3069
121.42592566419489,4055
123.88235006606146,3800
126.3379235079899,2785
128.79264687602085,3098
131.2465210552641,3481
133.69954692989631,2999
136.15172538316415,3108
138.60305729738116,2928
141.05354355393,2687
143.50318503326116,2880
145.95198261489327,2942
148.39993717741368,3150
150.84704959847772,3485
153.29332075480897,3889
155.73875152219944,3474
158.18334277550935,3233
160.62709538866693,2809
163.0700102346691,2978
165.51208818558075,3028
167.953330112535,3218
170.39373688573346,2884
172.8333093744459,3037
175.2720484470101,3146
177.70995497083277,3146
180.14702981238815,3554
182.58327383721917,3483
185.01868790993672,3460
187.45327289422062,3383
189.88702965281777,3109
192.31995904754444,3094
194.75206193928489,3236
197.18333918799135,2964
199.61379165268454,2918
202.04342019145315,2887
204.4722256614548,3078
206.90020891891436,3315
209.32737081912592,3449
211.7537122164515,3347
214.17923396432116,3355
216.6039369152336,3489
219.0278219207553,3387
221.45088983152186,3316
223.8731414972358,3184
226.29457776666914,3082
228.71519948766172,3080
231.1350075071216,3331
233.55400267102482,3317
235.97218582441633,3602
238.38955781140908,3461
240.806119475184,3370
243.2218716579905,3251
245.6368152011462,3177
248.05095094503736,3204
250.46427972911806,3251
252.87680239191036,3453
255.28851977100544,3510
257.69943270306203,3558
260.10954202380753,3207
262.5188485680378,3207
264.92735316961557,3356
267.33505666147425,3286
269.7419598756128,3425
272.14806364310084,3501
274.5533687940747,3416
276.95787615773975,3264
279.361586562369,3092
281.7645008353045,3088
284.1666198029559,3168
286.5679442908013,3255
288.96847512338695,3315
291.3682131243279,3257
293.7671591163071,3268
296.1653139210757,3288
298.562678359453,3194
300.9592532513268,3275
303.3550394156532,3431
305.75003767045655,3071
308.14424883282936,3076
310.53767371893196,2976
312.93031314399377,3104
315.3221679223125,3011
317.71323886725304,3008
320.1035267912496,2870
322.49303250580397,2779
324.881756821487,2822
327.2697005479374,2878
329.65686449386135,2821
332.0432494670347,2888
334.4288562743004,2691
336.81368572157066,2685
339.19773861382487,2641
341.58101575511205,2693
343.96351794854786,2764
346.3452459963173,2621
348.72620069967365,2651
351.1063828589379,2651
353.48579327349967,2682
355.8644327418169,2675
358.24230206141533,2531
360.6194020288899,2564
362.99573343990255,2539
365.3712970891845,2627
367.7460937705348,2547
370.12012427682066,2585
372.493389399978,2601
374.86588993101077,2514
377.23762665999084,2425
379.6086003760588,2431
381.9788118674235,2490
384.34826192136165,2514
386.7169513242188,2474
389.08488086140824,2420
391.4520513174118,2392
393.8184634757795,2618
396.1841181191296,2639
398.54901602914856,2579
400.9131579865916,2599
403.2765447712811,2646
405.63917716210926,2755
408.00105593703483,2677
410.36218187308646,2533
412.7225557463596,2410
415.0821783320191,2439
417.4410504042976,2368
419.79917273649585,2417
422.1565461009834,2407
424.5131712691973,2498
426.869049011643,2520
429.22418009789544,2607
431.578565296596,2381
433.9322053754556,2177
436.28510110125285,2285
438.6372532398352,2252
440.98866255611733,2298
443.33932981408293,2339
445.6892557767842,2356
448.0384412063411,2453
450.38688686394175,2434
452.7345935098431,2437
455.0815619033697,2421
457.42779280291506,2394
459.7732869659403,2385
462.1180451489754,2454
464.4620681076178,2515
466.80535659653424,2510
469.1479113694588,2421
471.48973317919445,2508
473.8308227776122,2535
476.17118091565135,2691
478.51080834331924,2710
480.8497058096914,2686
483.1878740629122,2932
485.5253138501944,2974
487.8620259178176,3089
490.1980110111317,3502
492.53326987455307,3648
494.86780325156724,3897
497.201611884728,4187
499.53469651565683,4319
501.8670578850447,4220
504.1986967326493,4118
506.52961379729754,3744
508.85980981688454,3524
511.18928552837315,3363
513.5180416677952,3317
515.8460789702503,3498
518.1733981699067,3991
520.5,4951
522.8258851928354,5225
525.1510544797857,4783
527.4755085912916,4390
529.7992482568625,3787
532.1222742050759,3173
534.4445871635783,2622
536.766187859083,2428
539.0870770173726,2381
541.4072553632982,2279
543.7267236207783,2289
546.0454825128002,2257
548.363532761419,2262
550.6808750877592,2216
552.9975102120118,2355
555.3134388534377,2282
557.6286617303654,2292
559.9431795601911,2280
562.2569930593802,2295
564.570102943466,2370
566.88250992705,2214
569.1942147238021,2115
571.5052180464602,2201
573.8155206068309,2155
576.1251231157885,2281
578.4340262832759,2334
580.7422308183045,2233
583.0497374289534,2129
585.3565468223703,2093
587.6626597047714,2203
589.9680767814409,2171
592.2727987567309,2191
594.5768263340624,2239
596.8801602159238,2153
599.1828011038731,2199
601.4847496985356,2173
603.7860066996047,2105
606.0865728058427,2113
608.3864487150802,2123
610.6856351242152,2096
612.9841327292149,2103
615.2819422251141,2012
617.5790643060163,2073
619.8754996650935,2129
622.1712489945849,2083
624.466312985799,2121
626.7606923291121,2068
629.0543877139692,2138
631.347399828883,2129
633.6397293614343,2117
635.9313769982732,2159
638.2223434251173,2192
640.5126293267522,2142
642.8022353870326,2092
645.0911622888809,2043
647.3794107142876,2185
649.666981344312,2118
651.9538748590815,2193
654.2400919377915,2129
656.525633258706,2219
658.8104994991568,2179
661.0946913355442,2294
663.3782094433375,2230
665.6610544970729,2145
667.9432271703561,2187
670.22472813586,2151
672.5055580653268,2290
674.7857176295659,2220
677.065207498456,2108
679.3440283409432,2085
681.6221808250425,2174
683.899665617837,2092
686.1764833854772,2170
688.4526347931837,2146
690.7281205052436,2220
693.0029411850135,2124
695.2770974949171,2210
697.5505900964474,2239
699.8234196501651,2135
702.0955868156989,2056
704.3670922517472,2102
706.6379366160747,2174
708.9081205655159,2189
711.1776447559728,2201
713.4465098424155,2162
715.714716478883,2224
717.9822653184822,2194
720.2491570133882,2268
722.5153922148452,2125
724.7809715731639,2123
727.0458957377248,2161
729.3101653569763,2101
731.5737810784346,2129
733.8367435486853,2168
736.0990534133803,2191
738.3607113172418,2263
740.6217179040591,2188
742.8820738166899,2264
745.1417796970607,2188
747.4008361861659,2278
749.6592439240678,2385
751.9170035498973,2305
754.1741157018539,2289
756.4305810172048,2244
758.686400132286,2235
760.9415736825013,2266
763.196102302323,2395
765.4499866252911,2287
767.7032272840152,2379
769.9558249101717,2194
772.207780134506,2242
774.4590935868323,2356
776.7097658960313,2409
778.9597976900541,2382
781.2091895959184,2290
783.457942239711,2214
785.7060562465867,2242
787.9535322407687,2417
790.2003708455488,2331
792.4465726832861,2374
794.6921383754088,2348
796.9370685424128,2384
799.1813638038632,2405
801.4250247783918,2344
803.6680520837006,2361
805.9104463365579,2258
808.1522081528019,2222
810.393338147338,2296
812.6338369341406,2238
814.8737051262517,2227
817.1129433357819,2238
819.35155217391,2345
821.5895322508834,2258
823.8268841760168,2247
826.0636085576946,2295
828.2997060033681,2329
830.535177119558,2203
832.7700225118522,2233
835.0042427849078,2201
837.2378385424493,2273
839.4708103872701,2189
841.7031589212318,2162
843.9348847452643,2247
846.1659884593648,2334
848.3964706626004,2207
850.6263319531054,2273
852.8555729280824,2156
855.0841941838025,2194
857.3121963156052,2250
859.5395799178978,2299
861.7663455841566,2358
863.9924939069251,2276
866.2180254778159,2332
868.4429408875103,2295
870.6672407257561,2271
872.890925581371,2414
875.1139960422404,2363
877.336452695318,2342
879.5582961266261,2335
881.7795269212543,2333
884.0001456633613,2416
886.2201529361741,2430
888.4395493219874,2433
890.6583354021648,2486
892.8765117571375,2444
895.094078966405,2410
897.3110376085365,2403
899.5273882611671,2298
901.7431315010019,2271
903.958267903814,2250
906.1727980444443,2257
908.3867224968019,2285
910.6000418338647,2270
912.8127566276792,2299
915.0248674493587,2338
917.2363748690857,2352
919.4472794561113,2333
921.6575817787543,2338
923.867282404402,2237
926.0763818995099,2155
928.2848808296014,2223
930.4927797592693,2196
932.700079252173,2214
934.9067798710416,2177
937.112882177672,2092
939.3183867329287,2062
941.5232940967453,2149
943.727604828124,2205
945.9313194851336,2097
948.1344386249132,2174
950.3369628036685,2197
952.5388925766747,2162
954.7402284982745,2165
956.9409711218789,2099
959.1411209999676,2043
961.3406786840883,2151
963.5396447248565,2093
965.7380196719573,2153
967.9358040741427,2141
970.1329984792335,2184
972.3296034341188,2044
974.5256194847555,2138
976.72104717617,2135
978.9158870524552,2105
981.1101396567742,2046
983.3038055313566,2102
985.4968852175009,2130
987.6893792555747,2107
989.8812881850124,2105
992.072612544318,2157
994.263352871063,2066
996.453509701887,1995
998.6430835724984,2006
1000.832075017674,1981
1003.0204845712583,2019
1005.208312766164,1931
1007.3955601343728,1863
1009.5822272069338,1846
1011.7683145139652,1953
1013.9538225846525,1924
1016.1387519472505,1818
1018.3231031290818,1913
1020.5068766565371,1905
1022.6900730550753,1806
1024.872692849224,1862
1027.054736562579,1873
1029.2362047178037,1810
1031.4170978366305,1794
1033.5974164398597,1807
1035.7771610473603,1821
1037.9563321780693,1837
1040.1349303499917,1785
1042.3129560802006,1719
1044.490409884838,1835
1046.667292279115,1798
1048.8436037773079,1683
1051.0193448927644,1744
1053.1945161378994,1758
1055.3691180241954,1833
1057.5431510622038,1818
1059.7166157615447,1851
1061.8895126309053,1867
1064.0618421780423,1837
1066.2336049097798,1772
1068.4048013320107,1710
1070.5754319496955,1702
1072.745497266863,1756
1074.9149977866118,1769
1077.0839340111065,1792
1079.2523064415818,1758
1081.4201155783398,1729
1083.587361920751,1735
1085.7540459672537,1717
1087.9201682153553,1813
1090.0857291616308,1666
1092.2507293017238,1650
1094.4151691303464,1705
1096.579049141279,1693
1098.7423698273687,1701
1100.9051316805335,1661
1103.0673351917571,1707
1105.2289808510936,1647
1107.3900691476633,1751
1109.550600569657,1677
1111.710575604332,1737
1113.8699947380146,1680
1116.028858456099,1730
1118.1871672430489,1700
1120.344921582394,1796
1122.5021219567334,1713
1124.6587688477362,1728
1126.8148627361365,1759
1128.9704041017399,1775
1131.1253934234173,1748
1133.2798311791098,1680
1135.4337178458263,1656
1137.5870538996437,1709
1139.7398398157075,1623
1141.8920760682313,1667
1144.0437631304972,1599
1146.1949014748543,1636
1148.3454915727225,1623
1150.4955338945874,1657
1152.6450289100044,1664
1154.7939770875969,1721
1156.9423788950558,1669
1159.0902347991405,1664
1161.2375452656802,1676
1163.3843107595703,1697
1165.530531744775,1734
1167.6762086843282,1664
1169.8213420403304,1691
1171.9659322739503,1676
1174.1099798454266,1630
1176.2534852140639,1694
1178.3964488382376,1617
1180.538871175389,1645
1182.680752682029,1689
1184.8220938137365,1664
1186.9628950251595,1686
1189.103156770012,1665
1191.2428795010783,1611
1193.3820636702108,1600
1195.5207097283287,1587
1197.6588181254215,1723
1199.7963893105457,1675
1201.9334237318253,1594
1204.0699218364548,1654
1206.2058840706954,1635
1208.3413108798773,1687
1210.476202708397,1678
1212.6105599997222,1689
1214.7443831963874,1669
1216.877672739995,1601
1219.0104290712165,1694
1221.1426526297905,1757
1223.2743438545253,1711
1225.4055031832972,1650
1227.5361310530493,1658
1229.6662278997946,1692
1231.7957941586142,1683
1233.9248302636565,1642
1236.053336648139,1655
1238.1813137443464,1638
1240.3087619836338,1731
1242.4356817964222,1647
1244.5620736122019,1710
1246.6879378595318,1719
1248.813274966039,1630
1250.938085358418,1607
1253.062369462432,1617
1255.186127702913,1728
1257.3093605037611,1625
1259.4320682879434,1576
1261.554251477498,1636
1263.6759104935277,1661
1265.797045756206,1721
1267.9176576847744,1642
1270.0377466975428,1707
1272.1573132118879,1689
1274.2763576442567,1736
1276.394880410162,1714
1278.5128819241877,1636
1280.6303625999835,1722
1282.7473228502695,1640
1284.8637630868325,1662
1286.9796837205272,1686
1289.0950851612783,1711
1291.209967818078,1697
1293.3243320989864,1699
1295.4381784111324,1710
1297.551507160712,1776
1299.6643187529912,1689
1301.776613592303,1703
1303.888392082049,1734
1305.9996546246998,1732
1308.1104016217923,1734
1310.220633473934,1801
1312.3303505807999,1680
1314.4395533411316,1762
1316.5482421527418,1727
1318.6564174125092,1785
1320.7640795163816,1761
1322.8712288593752,1751
1324.9778658355744,1834
1327.0839908381313,1680
1329.1896042592675,1716
1331.2947064902714,1728
1333.3992979215009,1814
1335.503378942381,1702
1337.6069499414057,1821
1339.7100113061383,1668
1341.8125634232074,1790
1343.9146066783128,1706
1346.0161414562212,1679
1348.1171681407677,1742
1350.2176871148563,1789
1352.3176987604575,1824
1354.4172034586127,1791
1356.5162015894289,1716
1358.6146935320835,1739
1360.7126796648213,1771
1362.8101603649548,1737
1364.9071360088656,1643
1367.0036069720036,1707
1369.099573628886,1692
1371.195036353099,1684
1373.2899955172975,1697
1375.3844514932039,1686
1377.4784046516088,1691
1379.5718553623715,1607
1381.6648039944193,1735
1383.7572509157485,1695
1385.8491964934224,1723
1387.9406410935735,1704
1390.0315850814022,1733
1392.122028821177,1733
1394.2119726762357,1742
1396.3014170089828,1854
1398.3903621808918,1661
1400.4788085525051,1731
1402.566756483432,1678
1404.6542063323514,1705
1406.7411584570095,1663
1408.8276132142219,1729
1410.9135709598704,1746
1412.9990320489078,1760
1415.083996835353,1705
1417.1684656722937,1748
1419.2524389118867,1682
1421.3359169053565,1687
1423.4189000029946,1665
1425.5013885541634,1722
1427.5833829072913,1655
1429.664883409876,1722
1431.7458904084833,1757
1433.8264042487467,1738
1435.9064252753697,1687
1437.9859538321216,1749
1440.0649902618416,1779
1442.1435349064373,1800
1444.2215881068837,1767
1446.2991502032237,1714
1448.37622153457,1708
1450.452802439103,1720
1452.5288932540698,1751
1454.604494315788,1775
1456.6796059596427,1669
1458.7542285200866,1774
1460.8283623306415,1745
1462.902007723897,1756
1464.9751650315106,1750
1467.0478345842089,1679
1469.1200167117868,1772
1471.1917117431062,1721
1473.2629200060992,1769
1475.333641827764,1743
1477.4038775341692,1719
1479.4736274504498,1784
1481.5428919008104,1824
1483.6116712085222,1758
1485.6799656959279,1766
1487.7477756844346,1781
1489.8151014945201,1654
1491.88194344573,1710
1493.9483018566775,1734
1496.0141770450455,1780
1498.0795693275822,1759
1500.1444790201076,1761
1502.2089064375086,1726
1504.2728518937402,1728
1506.3363157018239,1722
1508.3992981738534,1800
1510.4617996209872,1771
1512.5238203534536,1718
1514.5853606805495,1776
1516.6464209106384,1781
1518.7070013511543,1768
1520.7671023085973,1790
1522.8267240885375,1831
1524.885866995612,1818
1526.9445313335268,1758
1529.002717405056,1785
1531.0604255120425,1816
1533.1176559553965,1753
1535.1744090350971,1803
1537.2306850501914,1857
1539.2864842987956,1856
1541.3418070780922,1812
1543.396653684334,1853
1545.4510244128405,1781
1547.5049195580013,1792
1549.5583394132727,1806
1551.61128427118,1744
1553.6637544233158,1884
1555.7157501603415,1863
1557.7672717719888,1850
1559.8183195470538,1816
1561.8688937734037,1850
1563.9189947379737,1908
1565.9686227267657,1897
1568.0177780248514,1816
1570.0664609163696,1904
1572.1146716845292,1871
1574.162410611605,1873
1576.2096779789413,1845
1578.2564740669518,1768
1580.3027991551157,1761
1582.3486535219831,1802
1584.3940374451709,1779
1586.4389512013645,1743
1588.4833950663178,1777
1590.5273693148533,1738
1592.5708742208603,1722
1594.6139100572982,1788
1596.6564770961936,1766
1598.698575608642,1766
1600.7402058648063,1796
1602.7813681339185,1770
1604.8220626842776,1755
1606.8622897832533,1766
1608.9020496972812,1772
1610.9413426918663,1742
1612.9801690315808,1779
1615.018528980066,1768
1617.056422800033,1831
1619.0938507532578,1786
1621.1308131005876,1733
1623.1673101019355,1765
1625.2033420162848,1794
1627.2389091016862,1744
1629.274011615259,1707
1631.3086498131897,1744
1633.3428239507352,1768
1635.376534282219,1766
1637.4097810610324,1756
1639.4425645396364,1855
1641.4748849695593,1686
1643.5067426013989,1771
1645.53813768482,1743
1647.5690704685549,1746
1649.5995412004067,1822
1651.6295501272452,1792
1653.6590974950086,1775
1655.6881835487025,1800
1657.7168085324029,1733
1659.7449726892523,1739
1661.772676261462,1783
1663.7999194903114,1727
1665.8267026161484,1747
1667.8530258783894,1727
1669.8788895155185,1753
1671.9042937650888,1758
1673.9292388637205,1712
1675.953725047103,1716
1677.977752549994,1710
1680.0013216062184,1714
1682.0244324486712,1726
1684.0470853093134,1735
1686.0692804191767,1775
1688.0910180083588,1703
1690.1122983060268,1736
1692.1331215404175,1688
1694.1534879388319,1739
1696.173397727644,1724
1698.1928511322926,1704
1700.211848377286,1778
1702.2303896862018,1844
1704.248475281684,1860
1706.2661053854458,1828
1708.2832802182684,1827
1710.300000000002,1866
1712.3162649495644,1826
1714.3320752849409,1776
1716.3474312231865,1781
1718.362332980424,1763
1720.376780771845,1764
1722.3907748117072,1711
1724.4043153133393,1768
1726.4174024891367,1802
1728.4300365505628,1826
1730.442217708151,1766
1732.4539461715008,1825
1734.465222149282,1810
1736.4760458492306,1776
1738.4864174781524,1719
1740.496337241921,1788
1742.5058053454786,1730
1744.5148219928346,1753
1746.523387387068,1752
1748.531501730325,1733
1750.5391652238209,1713
1752.5463780678388,1810
1754.55314046173,1775
1756.5594526039135,1814
1758.565314691879,1812
1760.5707269221812,1744
1762.5756894904443,1777
1764.580202591363,1736
1766.5842664186966,1763
1768.5878811652751,1832
1770.591047022996,1733
1772.593764182825,1788
1774.5960328347965,1854
1776.5978531680116,1781
1778.5992253706427,1761
1780.6001496299273,1743
1782.6006261321731,1772
1784.6006550627553,1788
1786.6002366061175,1773
1788.5993709457725,1799
1790.5980582642992,1840
1792.5962987433468,1802
1794.5940925636314,1806
1796.5914399049389,1767
1798.5883409461221,1817
1800.584795865102,1778
1802.580804838869,1794
1804.5763680434807,1846
1806.571485654064,1794
1808.566157844813,1830
1810.5603847889902,1815
1812.5541666589274,1814
1814.5475036260236,1802
1816.5403958607467,1766
1818.5328435326323,1805
1820.5248468102845,1775
1822.5164058613755,1818
1824.5075208526468,1822
1826.4981919499064,1759
1828.488419318032,1832
1830.4782031209684,1789
1832.4675435217305,1807
1834.4564406823993,1746
1836.4448947641258,1783
1838.432905927128,1778
1840.4204743306927,1826
1842.4076001331746,1827
1844.3942834919985,1751
1846.380524563654,1805
1848.366323503702,1803
1850.351680466771,1791
1852.3365956065563,1789
1854.3210690758228,1825
1856.3051010264044,1786
1858.2886916092007,1809
1860.271840974182,1736
1862.2545492703862,1796
1864.2368166459191,1822
1866.2186432479543,1834
1868.2000292227349,1823
1870.1809747155717,1893
1872.1614798708429,1811
1874.1415448319963,1810
1876.1211697415474,1742
1878.1003547410805,1765
1880.0790999712472,1814
1882.0574055717675,1778
1884.0352716814305,1853
1886.0126984380927,1841
1887.989685978679,1836
1889.9662344391836,1764
1891.9423439546672,1792
1893.9180146592607,1799
1895.893246686161,1815
1897.868040167636,1817
1899.8423952350195,1788
1901.8163120187137,1840
1903.7897906481917,1866
1905.7628312519923,1778
1907.7354339577219,1802
1909.7075988920578,1824
1911.6793261807447,1775
1913.6506159485943,1838
1915.6214683194871,1828
1917.5918834163726,1879
1919.5618613612687,1774
1921.5314022752605,1803
1923.5005062785012,1770
1925.4691734902144,1874
1927.4374040286893,1833
1929.4051980112845,1814
1931.3725555544274,1835
1933.3394767736136,1846
1935.305961783406,1866
1937.2720106974361,1826
1939.237623628404,1791
1941.2028006880778,1889
1943.167541987295,1851
1945.1318476359588,1866
1947.0957177430432,1879
1949.0591524165898,1813
1951.0221517637078,1847
1952.984715890574,1836
1954.9468449024357,1897
1956.9085389036072,1916
1958.8697979974704,1788
1960.8306222864767,1814
1962.7910118721456,1833
1964.7509668550638,1852
1966.7104873348871,1845
1968.6695734103387,1856
1970.6282251792127,1816
1972.586442738368,1804
1974.5442261837343,1847
1976.501575610307,1824
1978.4584911121533,1847
1980.4149727824056,1847
1982.3710207132658,1901
1984.326634996004,1841
1986.2818157209585,1802
1988.2365629775359,1882
1990.1908768542116,1884
1992.144757438527,1823
1994.0982048170954,1875
1996.0512190755953,1750
1998.0038002987749,1908
1999.95594857045,1841
2001.9076639735054,1843
2003.8589465898945,1814
2005.8097965006368,1886
2007.760213785822,1818
2009.7101985246077,1825
2011.6597507952201,1868
2013.6088706749524,1855
2015.5575582401675,1841
2017.5058135662953,1862
2019.4536367278351,1822
2021.4010277983534,1825
2023.347986850486,1844
2025.2945139559365,1887
2027.2406091854768,1761
2029.1862726089462,1912
2031.1315042952538,1940
2033.0763043123766,1940
2035.0206727273585,1928
2036.964609606313,1798
2038.908115014422,1849
2040.8511890159348,1823
2042.7938316741693,1882
2044.7360430515123,1919
2046.677823209417,1865
2048.6191722084077,1772
2050.5600901080743,1843
2052.5005769670765,1854
2054.440632843142,1847
2056.380257793066,1869
2058.3194518727128,1848
2060.258215137015,1821
2062.1965476399732,1857
2064.1344494346554,1869
2066.0719205732,1846
2068.008961106812,1850
2069.945571085764,1906
2071.8817505593997,1802
2073.817499576128,1806
2075.7528181834273,1818
2077.6877064278447,1863
2079.622164354995,1849
2081.556192009562,1765
2083.4897894352966,1877
2085.4229566750187,1900
2087.355693770616,1840
2089.2880007630456,1864
2091.219877692331,1798
2093.151324597566,1853
2095.0823415169107,1886
2097.012928487595,1798
2098.9430855459173,1895
2100.872812727242,1839
2102.8021100660035,1871
2104.730977595705,1843
2106.659415348917,1895
2108.5874233572777,1872
2110.5150016514945,1791
2112.442150261343,1955
2114.3688692156675,1890
2116.2951585423793,1906
2118.2210182684585,1858
2120.146448419954,1815
2122.0714490219825,1773
2123.9960200987293,1840
2125.920161673447,1851
2127.843873768458,1979
2129.767156405151,1832
2131.690009603985,1880
2133.612433384486,1795
2135.534427765249,1836
2137.4559927639366,1873
2139.37712839728,1797
2141.2978346810783,1877
2143.2181116301995,1872
2145.1379592585795,1915
2147.057377579222,1817
2148.9763666042,1778
2150.894926344655,1867
2152.813056810794,1821
2154.730758011896,1847
2156.648029956306,1816
2158.564872651437,1818
2160.481286103772,1856
2162.397270318861,1878
2164.312825301323,1887
2166.227951054844,1847
2168.14264758218,1898
2170.056914885153,1856
2171.9707529646566,1856
2173.8841618206484,1865
2175.7971414521585,1852
2177.7096918572825,1844
2179.621813033186,1904
2181.5335049761,1822
2183.444767681327,1898
2185.355601143236,1928
2187.2660053552654,1862
2189.1759803099208,1915
2191.085525998777,1903
2192.994642412475,1841
2194.903329540727,1914
2196.811587372312,1879
2198.7194158950765,1866
2200.626815095937,1918
2202.5337849608763,1961
2204.440325474948,1943
2206.346436622271,1879
2208.2521183860345,1948
2210.157370748496,1830
2212.0621936909793,1957
2213.966587193879,1942
2215.8705512366573,1837
2217.774085797842,1915
2219.677190855033,1854
2221.579866384897,1875
2223.4821123631677,1878
2225.3839287646483,1847
2227.2853155632106,1930
2229.186272731794,1858
2231.0868002424063,1951
2232.986898066123,1940
2234.8865661730892,1902
2236.785804532517,1796
2238.6846131126877,1883
2240.5829918809495,1883
2242.4809408037213,1845
2244.3784598464877,1914
2246.275548973803,1914
2248.172208149288,1872
2250.0684373356357,1900
2251.964236494603,1856
2253.859605587017,1884
2255.7545445727733,1914
2257.6490534108357,1881
2259.5431320592356,1836
2261.436780475073,1893
2263.329998614516,1886
2265.222786432802,1831
2267.1151438842344,1833
2269.0070709221877,1819
2270.8985674991022,1857
2272.789633566488,1869
2274.6802690749237,1934
2276.570473974053,1895
2278.4602482125933,1858
2280.3495917383257,1961
2282.238504498101,1827
2284.1269864378387,1925
2286.0150375025264,1852
2287.9026576362203,1869
2289.789846782043,1961
2291.6766048821873,2015
2293.5629318779147,1879
2295.4488277095534,1933
2297.3342923164996,1878
2299.2193256372193,1830
2301.1039276092465,1928
2302.9880981691817,1985
2304.871837252696,1903
2306.755144794528,1935
2308.6380207284838,1957
2310.5204649874386,1922
2312.4024775033354,1888
2314.2840582071854,1935
2316.165207029068,1945
2318.0459238981325,1905
2319.926208742594,1836
2321.8060614897363,1859
2323.6854820659137,1949
2325.5644703965463,1938
2327.443026406124,1929
2329.321150018203,1919
2331.1988411554107,1879
2333.0760997394395,1905
2334.952925691053,1921
2336.829318930082,1867
2338.705279375424,1922
2340.5808069450477,1959
2342.4559015559867,1930
2344.3305631243456,1952
2346.204791565297,1935
2348.07858679308,1893
2349.9519487210027,1923
2351.824877261443,1898
2353.6973723258448,1899
2355.5694338247226,1957
2357.4410616676564,1951
2359.312255763297,1900
2361.1830160193617,1937
2363.053342342637,1862
2364.9232346389776,1944
2366.792692813306,1931
2368.6617167696145,1941
2370.5303064109603,1928
2372.3984616394723,1935
2374.2661823563467,1922
2376.1334684618464,1955
2378.0003198553054,1955
2379.8667364351227,1968
2381.7327180987672,1939
2383.5982647427777,1977
2385.4633762627586,1908
2387.3280525533837,1854
2389.192293508395,1896
2391.0560990206027,1984
2392.919468981885,1962
2394.782403283189,1901
2396.644901814531,1982
2398.5069644649916,1935
2400.3685911227235,1950
2402.2297816749474,1925
2404.0905360079505,1894
2405.950854007089,1994
2407.8107355567886,1957
2409.670180540541,1928
2411.529188840908,2019
2413.387760339518,1879
2415.2458949170705,1862
2417.1035924533294,1892
2418.96085282713,1899
2420.8176759163744,1943
2422.6740615980334,1906
2424.5300097481468,1939
2426.38552024182,1876
2428.24059295323,1979
2430.0952277556207,2003
2431.949424521303,1915
2433.803183121658,1964
2435.6565034271343,2002
2437.5093853072485,1941
2439.361828630585,1942
2441.213833264798,1938
2443.0653990766095,2019
2444.916525931808,1959
2446.7672136952524,1965
2448.6174622308695,1929
2450.4672714016538,1947
2452.3166410696676,1944
2454.165571096043,1984
2456.0140613409794,1964
2457.8621116637432,1979
2459.709721922672,1987
2461.556891975169,1963
2463.403621677707,1941
2465.249910885827,1931
2467.0957594541383,1950
2468.9411672363167,1955
2470.78613408511,1958
2472.630659852331,1939
2474.4747443888614,1908
2476.3183875446516,1929
2478.161589168721,1920
2480.0043491091556,1965
2481.8466672131112,1886
2483.6885433268108,1894
2485.529977295547,1920
2487.370968963678,1986
2489.2115181746335,1927
2491.0516247709097,1969
2492.891288594071,1921
2494.7305094847497,1856
2496.569287282649,1920
2498.407621826537,2001
2500.2455129542523,2045
2502.0829605027,1942
2503.919964307855,1954
2505.7565242047594,1923
2507.5926400275252,1924
2509.42831160933,1937
2511.263538782423,1949
2513.0983213781174,1995
2514.9326592267994,1891
2516.76655215792,1898
2518.5999999999995,1987
2520.4330025806275,1975
2522.2655597264607,1989
2524.0976712632237,1987
2525.9293370157097,1923
2527.760556807782,1955
2529.591330462369,1956
2531.4216578014702,1960
2533.2515386461523,1973
2535.080972816548,1953
2536.9099601318626,2000
2538.738500410366,1922
2540.5665934693993,1917
2542.3942391253695,1931
2544.221437193752,1995
2546.0481874890925,2006
2547.874489825003,1970
2549.700344014164,1958
2551.5257498683245,1921
2553.350707198304,2013
2555.175215813986,1949
2556.9992755243256,1981
2558.8228861373454,2074
2560.646047460134,2049
2562.468759298852,2004
2564.2910214587255,1988
2566.1128337440496,1947
2567.93419595819,1897
2569.7551079035757,1987
2571.5755693817077,2000
2573.395580193155,1924
2575.2151401375536,2018
2577.034249013609,1911
2578.8529066190936,1884
2580.6711127508493,1901
2582.488867204785,1923
2584.3061697758794,1984
2586.1230202581787,1973
2587.939418444797,1956
2589.7553641279183,1949
2591.570857098791,1939
2593.385897147736,1972
2595.200484064141,1982
2597.014617636461,1950
2598.8282976522214,2003
2600.6415238980126,1942
2602.454296159496,1967
2604.266614221401,2009
2606.0784778675243,1924
2607.8898868807305,1970
2609.700841042955,2017
2611.5113401351973,1966
2613.32138393753,1933
2615.13097222909,1968
2616.940104788084,1994
2618.748781391788,2070
2620.557001816543,1973
2622.364765837763,1976
2624.1720732299264,1967
2625.9789237665814,1991
2627.7853172203445,1944
2629.5912533629,1986
2631.396731965001,2001
2633.2017527964676,1967
2635.0063156261904,1943
2636.810420222126,1942
2638.614066351301,1986
2640.417253779809,1927
2642.219982272813,1970
2644.022251594542,1971
2645.8240615082973,1938
2647.625411776444,1967
2649.4263021604183,2018
2651.226732420724,2054
2653.026702316933,1982
2654.8262116076858,1953
2656.625260050691,1978
2658.423847402724,1978
2660.221973419631,1982
2662.0196378563246,1912
2663.8168404667867,1956
2665.613581004068,1988
2667.4098592202854,2002
2669.2056748666246,1925
2671.0010276933417,2054
2672.7959174497596,1905
2674.5903438842674,1970
2676.384306744327,1916
2678.177805776465,1934
2679.9708407262765,1988
2681.7634113384274,2033
2683.555517356648,2004
2685.3471585237403,1982
2687.138334581574,1986
2688.9290452710843,1961
2690.7192903322784,1950
2692.50906950423,2052
2694.2983825250794,2038
2696.087229132039,1989
2697.875609061386,1969
2699.6635220484677,2044
2701.450967827699,1939
2703.237946132564,1956
2705.0244566956126,1972
2706.8104992484664,2048
2708.596073521813,1979
2710.381179245408,1920
2712.1658161480777,1971
2713.949983957714,2006
2715.7336824012773,1941
2717.516911204798,2043
2719.299670093374,2001
2721.0819587911706,1975
2722.8637770214223,1952
2724.6451245064322,2021
2726.426000967571,1937
2728.2064061252763,1931
2729.986339699057,1917
2731.765801407488,1994
2733.5447909682134,2011
2735.323308097945,1968
2737.101352512463,1965
2738.8789239266166,1929
2740.6560220543215,1937
2742.4326466085645,1969
2744.2087973013977,2019
2745.984473843944,2008
2747.7596759463922,1958
2749.534403318001,1933
2751.308655667096,2001
2753.0824327010737,1962
2754.8557341263954,1992
2756.628559648593,1935
2758.4009089722667,1993
2760.172781801083,1927
2761.944177837779,1942
2763.715096784159,1970
2765.4855383410945,1898
2767.2555022085267,2009
2769.024988085465,1982
2770.793995669988,1916
2772.5625246592385,1944
2774.3305747494323,1964
2776.098145635852,1930
2777.865237012847,2040
2779.6318485738357,1936
2781.397980011306,1987
2783.163631016813,1932
2784.928801280979,1989
2786.6934904934974,1932
2788.457698343127,1910
2790.221424517697,1938
2791.9846687041027,1967
2793.74743058831,2028
2795.5097098553515,2056
2797.2715061893286,1950
2799.0328192734105,1958
2800.793648789836,1996
2802.553994419911,2006
2804.3138558440087,1871
2806.073232741573,1985
2807.8321247911135,1965
2809.590531670211,2007
2811.3484530555115,2010
2813.105888622732,1983
2814.8628380466557,1970
2816.6193010011348,2026
2818.3752771590903,1973
2820.13076619251,1999
2821.885767772452,1952
2823.640281569041,2002
2825.3943072514703,1989
2827.147844488002,2008
2828.9008929459665,1925
2830.6534522917614,1991
2832.405522190854,2021
2834.1571023077786,2021
2835.9081923061394,2013
2837.658791848606,1960
2839.40890059692,2022
2841.1585182118874,1998
2842.907644353386,2049
2844.6562786803593,2067
2846.4044208508203,2038
2848.15207052185,1957
2849.899227349598,2004
2851.6458909892804,2006
2853.392061095185,2018
2855.137737320664,1972
2856.882919318142,2012
2858.6276067391063,1945
2860.371799234118,1997
2862.1154964528037,2056
2863.8586980438586,2088
2865.6014036550464,1954
2867.343612933199,1944
2869.0853255242173,1993
2870.826541073068,2067
2872.567259223789,1992
2874.307479619485,2074
2876.0472019023287,2046
2877.7864257135625,1987
2879.525150693495,2065
2881.263376481505,2017
2883.0011027160385,2071
2884.73832903461,2041
2886.4750550738027,2018
2888.2112804692665,2015
2889.9470048557223,2043
2891.682227866956,2008
2893.416949135825,2018
2895.151168294252,2019
2896.88488497323,1997
2898.6180988028204,2044
2900.3508094121503,2013
2902.083016429419,2036
2903.81471948189,1958
2905.5459181958972,2008
2907.276612196844,1992
2909.0068011091994,2029
2910.736484556502,2062
2912.465662161359,1982
2914.194333545445,1942
2915.922498329504,2065
2917.650156133346,1970
2919.377306575852,1997
2921.103949274969,1982
2922.830083847715,2030
2924.555709910173,2027
2926.2808270774967,1980
2928.005434963907,2022
2929.7295331826936,1910
2931.4531213462133,2013
2933.1761990658924,2006
2934.8987659522254,2002
2936.6208216147747,2030
2938.3423656621694,2041
2940.0633977021116,1936
2941.783917341366,1945
2943.503924185768,1998
2945.223417840223,1994
2946.9423979087023,1993
2948.6608639942456,2013
2950.378815698962,2018
2952.096252624029,2019
2953.81317436969,2044
2955.529580535259,1975
2957.2454707191177,1988
2958.9608445187164,2035
2960.6757015305734,2090
2962.3900413502733,2079
2964.103863572472,2019
2965.817167790894,1964
2967.529953598327,2046
2969.2422205866337,2031
2970.953968346739,2029
2972.6651964686407,2059
2974.3759045414035,2085
2976.0860921531585,2047
2977.7957588911067,2020
2979.504904341517,2015
2981.2135280897273,2094
2982.9216297201433,2028
2984.629208816238,2025
2986.336264960554,1986
2988.0427977347017,2024
2989.7488067193594,1992
2991.454291494274,2086
2993.1592516382607,2034
2994.8636867292034,2007
2996.567596344053,2061
2998.2709800588295,2172
2999.973837448621,2001
3001.6761680875857,2040
3003.377971548946,2043
3005.0792474049954,2069
3006.7799952270957,2087
3008.480214585676,2033
3010.1799050502345,2038
3011.8790661893368,2030
3013.5776975706176,2028
3015.2757987607793,2053
3016.973369325592,2081
3018.6704088298966,2030
3020.366916837598,2033
3022.0628929116747,2046
3023.7583366141675,2006
3025.4532475061915,1983
3027.147625147925,2073
3028.841469098617,2039
3030.534778916585,2060
3032.2275541592144,2069
3033.9197943829577,2053
3035.611499143338,1934
3037.302667994943,2022
3038.9933004914333,2056
3040.683396185535,1996
3042.372954629042,2036
3044.061975372817,2002
3045.7504579667934,2013
3047.4384019599684,2033
3049.1258069004116,2021
3050.812672335258,1998
3052.4989978107124,2005
3054.184782872047,1951
3055.870027063603,2109
3057.554729928791,1987
3059.238891010086,2063
3060.9225098490347,2026
3062.6055859862518,2095
3064.2881189614177,1886
3065.970108313285,1968
3067.651553579671,2060
3069.3324542974633,2010
3071.012810002616,2089
3072.6926202301543,2076
3074.3718845141702,2029
3076.050602387822,1958
3077.728773383339,2047
3079.406397032018,2040
3081.083472864223,2074
3082.7600004093874,2033
3084.4359791960137,2042
3086.11140875167,2092
3087.7862886029952,1932
3089.4606182756943,1958
3091.134397294544,2062
3092.807625183385,1994
3094.4803014651284,2003
3096.152425661755,2045
3097.8239972943097,2011
3099.49501588291,2085
3101.165480946741,2006
3102.8353920040518,1952
3104.504748572165,1995
3106.1735501674693,2085
3107.8417963054226,2074
3109.5094865005485,2006
3111.176620266441,2047
3112.8431971157625,2038
3114.5092165602427,2067
3116.1746781106813,2086
3117.839581276943,2003
3119.503925567965,2129
3121.167710491747,2057
3122.830935555364,2062
3124.493600264954,2017
3126.1557041257247,2076
3127.817246641952,2063
3129.478227316982,2058
3131.1386456532273,2121
3132.798501152168,2090
3134.4577933143537,2030
3136.116521639402,1963
3137.7746856259982,2076
3139.4322847718977,2076
3141.0893185739224,2025
3142.745786527962,2079
3144.4016881289754,2027
3146.0570228709903,2060
3147.711790247102,2079
3149.3659897494754,2082
3151.0196208693396,2101
3152.6726830969974,2059
3154.3251759218165,2099
3155.9770988322334,2079
3157.6284513157534,2094
3159.2792328589485,2066
3160.929442947461,2019
3162.579081066002,1967
3164.2281466983477,2070
3165.8766393273454,2126
3167.5245584349086,2117
3169.1719035020224,2078
3170.818674008735,2104
3172.4648694341677,2099
3174.110489256508,2038
3175.7555329530105,2040
3177.4000000000005,2099
3179.0438898728707,2096
3180.6872020460805,2029
3182.32993599316,2164
3183.972091186706,2093
3185.613667098384,2121
3187.254663198927,2037
3188.8950789581386,2061
3190.5349138448873,2101
3192.1741673271126,2015
3193.8128388718224,2103
3195.4509279450886,2162
3197.0884340120574,2031
3198.725356536939,2031
3200.361694983014,2049
3201.997448812629,2078
3203.632617487203,2013
3205.2672004672195,2055
3206.901197212229,2058
3208.5346071808563,2148
3210.167429830789,2062
3211.799664618785,2078
3213.4313110006706,2037
3215.0623684313387,2022
3216.692836364753,2035
3218.3227142539445,2030
3219.9520015510125,2024
3221.5806977071215,2042
3223.2088021725103,2123
3224.8363143964816,2087
3226.4632338274077,2030
3228.089559912728,1971
3229.715292098951,2015
3231.3404298316545,2065
3232.9649725554846,2035
3234.5889197141523,2086
3236.2122707504395,2084
3237.8350251061984,1986
3239.457182222345,1965
3241.0787415388677,2001
3242.6997024948187,2065
3244.3200645283223,2062
3245.9398270765696,2068
3247.558989575821,2102
3249.177551461403,2026
3250.7955121677123,2102
3252.412871128213,2043
3254.029627775437,2043
3255.6457815409867,2067
3257.2613318555286,2040
3258.876278148802,2109
3260.490619849613,2014
3262.1043563858348,1967
3263.717487184408,2015
3265.3300116713453,2031
3266.941929271725,1991
3268.5532394096917,2026
3270.1639415084646,2074
3271.7740349903233,2053
3273.383519276621,2033
3274.9923937877775,2050
3276.6006579432833,2105
3278.2083111616903,2155
3279.815352860627,2064
3281.421782456786,2094
3283.027599365927,2028
3284.632803002881,2103
3286.237392781545,2081
3287.841368114885,2039
3289.4447284149373,1985
3291.047473092801,2001
3292.649601558651,2053
3294.2511132217223,2026
3295.8520074903254,2033
3297.452283771835,2014
3299.051941472695,2109
3300.650979998417,2024
3302.2493987535827,2045
3303.8471971418403,2067
3305.4443745659064,2062
3307.0409304275654,2040
3308.636864127674,2060
3310.2321750661513,2143
3311.8268626419876,2103
3313.420926253242,2003
3315.01436529704,2087
3316.6071791695776,2094
3318.1993672661183,2021
3319.7909289809913,2032
3321.3818637075983,1922
3322.972170838406,2055
3324.561849764951,2019
3326.150899877838,2065
3327.7393205667386,2144
3329.3271112203956,2074
3330.9142712266166,2052
3332.5007999722793,2080
3334.08669684333,2074
3335.6719612247834,2134
3337.2565925007193,2111
3338.840590054291,2086
3340.4239532677157,2114
3342.006681522281,2101
3343.5887741983406,2123
3345.1702306753214,2077
3346.7510503317126,2085
3348.3312325450743,2123
3349.910776692037,2092
3351.4896821482953,2066
3353.0679482886153,2179
3354.645574486829,2094
3356.2225601158398,2083
3357.798904547615,2130
