CollectionTime,4/2/2024 11:08:41 AM
ExposureUsed,3
CalibratedSpectrum
-994.8464149364308,663
-991.9439705588344,701
-989.042830375826,681
-986.1429931109675,765
-983.2444574887519,794
-980.3472222346043,759
-977.4512860748813,673
-974.5566477368716,659
-971.6633059487953,624
-968.7712594398042,628
-965.8805069399822,658
-962.9910471803447,726
-960.1028788928387,622
-957.2160008103432,679
-954.3304116666687,693
-951.4461101965578,726
-948.5630951356844,730
-945.6813652206545,757
-942.8009191890055,774
-939.9217557792067,798
-937.0438737306594,785
-934.167271783696,726
-931.2919486795813,731
-928.4179031605115,705
-925.5451339696144,737
-922.67363985095,745
-919.8034195495097,748
-916.9344718112166,786
-914.0667953829256,742
-911.2003890124234,768
-908.3352514484286,732
-905.471381440591,747
-902.6087777394928,654
-899.7474390966474,708
-896.8873642645002,730
-894.0285519964284,720
-891.1710010467407,750
-888.3147101706776,731
-885.4596781244115,762
-882.6059036650465,682
-879.7533855506183,673
-876.9021225400943,641
-874.0521133933738,712
-871.2033568712878,745
-868.3558517355991,707
-865.509596749002,814
-862.6645906751228,801
-859.8208322785192,841
-856.9783203246812,813
-854.1370535800299,685
-851.2970308119186,678
-848.4582507886321,712
-845.620712279387,723
-842.7844140543316,695
-839.9493548845461,691
-837.1155335420422,699
-834.2829487997635,678
-831.4515994315852,694
-828.6214842123144,737
-825.7926019176898,799
-822.9649513243819,751
-820.138531209993,719
-817.3133403530569,724
-814.4893775330396,802
-811.6666415303382,775
-808.845131126282,684
-806.0248451031321,736
-803.2057822440808,706
-800.3879413332527,708
-797.5713211557038,786
-794.755920497422,822
-791.941738145327,749
-789.1287728872701,749
-786.3170235120342,834
-783.5064888093341,767
-780.6971675698165,689
-777.8890585850597,680
-775.0821606475735,771
-772.2764725507997,772
-769.4719930891118,733
-766.6687210578151,746
-763.8666552531465,888
-761.0657944722747,1065
-758.2661375133,952
-755.4676831752547,733
-752.6704302581027,763
-749.8743775627395,762
-747.0795238909925,698
-744.285868045621,708
-741.4934088303156,704
-738.702145049699,723
-735.9120755093254,810
-733.123199015681,990
-730.3355143761836,1063
-727.5490203991826,863
-724.7637158939592,766
-721.9795996707265,766
-719.1966705406293,746
-716.4149273157439,744
-713.6343688090786,716
-710.8549938345734,700
-708.0768012070998,733
-705.2997897424614,781
-702.5239582573931,810
-699.7493055695622,863
-696.9758304975669,838
-694.2035318609377,792
-691.4324084801367,714
-688.6624591765578,724
-685.8936827725265,727
-683.1260780913001,776
-680.3596439570675,786
-677.5943791949499,777
-674.8302826309991,755
-672.0673530922,751
-669.3055894064685,782
-666.5449904026519,914
-663.78555491053,834
-661.0272817608139,839
-658.2701697851465,831
-655.5142178161026,827
-652.7594246871884,895
-650.0057892328422,818
-647.2533102884337,821
-644.5019866902646,829
-641.7518172755683,824
-639.0028008825099,920
-636.254936350186,895
-633.5082225186254,816
-630.7626582287882,888
-628.0182423225665,858
-625.2749736427841,846
-622.5328510331965,933
-619.7918733384909,883
-617.0520394042862,883
-614.3133480771331,905
-611.5757982045143,959
-608.8393886348437,964
-606.1041182174672,1028
-603.3699858026625,990
-600.6369902416393,966
-597.9051303865383,977
-595.1744050904326,1065
-592.4448132073267,1012
-589.7163535921568,1096
-586.9890251007912,957
-584.2628265900296,969
-581.5377569176036,972
-578.8138149421764,982
-576.090999523343,975
-573.3693095216302,906
-570.6487437984965,956
-567.9293012163321,974
-565.210980638459,1012
-562.4937809291307,981
-559.7777009535329,956
-557.0627395777825,1006
-554.3488956689287,970
-551.6361680949519,1105
-548.9245557247644,1156
-546.2140574282107,1144
-543.5046720760662,1123
-540.7963985400388,1085
-538.0892356927677,1170
-535.3831824078238,1194
-532.6782375597103,1292
-529.9744000238613,1340
-527.2716686766433,1411
-524.5700423953542,1535
-521.8695200582238,1463
-519.1701005444136,1397
-516.4717827340166,1524
-513.7745655080581,1649
-511.0784477484944,1743
-508.38342833821423,1906
-505.68950616103757,2125
-502.9966801017163,2274
-500.3049490459341,2343
-497.61431188030633,2184
-494.9247674923801,1880
-492.2363147706342,1656
-489.54895260447927,1572
-486.86267988425755,1504
-484.1774955012431,1455
-481.4933983476417,1509
-478.8103873165908,1371
-476.1284613021596,1197
-473.44761919934945,1220
-470.7678599040928,1213
-468.089182313254,1347
-465.4115853246294,1319
-462.735067836947,1318
-460.0596287498663,1353
-457.3852669639789,1166
-454.71198138080774,1117
-452.03977090280773,1099
-449.3686344333656,1101
-446.69857087679964,1162
-444.02957913835996,1181
-441.36165812422837,1230
-438.6948067415183,1198
-436.0290238982752,1171
-433.36430850347597,1163
-430.7006594670296,1231
-428.0380756997763,1253
-425.3765561134885,1262
-422.7160996208702,1224
-420.0567051355571,1362
-417.3983715721164,1307
-414.7410978460475,1271
-412.08488287378145,1298
-409.4297255726806,1245
-406.77562486103955,1094
-404.1225796580843,1118
-401.4705888839728,1024
-398.8196514597947,1014
-396.1697663075713,1050
-393.5209323502555,975
-390.8731485117323,803
-388.22641371681823,947
-385.5807268912615,1058
-382.93608696174226,1043
-380.29249285587207,860
-377.64994350219456,750
-375.0084378301849,854
-372.36797477025016,842
-369.7285532537287,912
-367.0901722128914,897
-364.45283058094014,872
-361.8165272920089,981
-359.1812612811634,842
-356.54703148440103,647
-353.9138368386507,731
-351.28167628177346,837
-348.6505487525617,946
-346.02045319074,890
-343.3913885369643,887
-340.76335373282245,917
-338.1363477208339,847
-335.5103694444499,880
-332.8854178480535,933
-330.26149187695944,921
-327.63859047741425,814
-325.016712596596,662
-322.3958571826148,704
-319.77602318451227,842
-317.15720955226186,953
-314.5394152367686,979
-311.9226391898695,874
-309.3068803643333,849
-306.69213771386023,1010
-304.0784101930824,1242
-301.4656967575635,1091
-298.8539963637994,939
-296.2433079692172,876
-293.6336305321761,938
-291.02496301196675,984
-288.41730436881176,1044
-285.81065356386534,978
-283.2050095592135,1068
-280.60037131787396,1531
-277.9967378037961,1801
-275.39410798186134,1256
-272.7924808178824,1246
-270.19185527860407,1242
-267.5922303317028,1246
-264.9936049457866,1355
-262.3959780903955,1280
-259.79934873600087,1374
-257.2037158540064,1339
-254.6090784167469,1350
-252.01543539748934,1548
-249.42278577043237,1242
-246.8311285107061,1147
-244.24046259437262,1011
-241.6507869984256,1079
-239.0621007007909,1372
-236.4744026803254,1578
-233.88769191681808,1438
-231.30196739098994,1273
-228.7172280844934,1239
-226.13347297991243,1378
-223.550701060763,1318
-220.9689113114929,1205
-218.3881027174814,1307
-215.8082742650397,1671
-213.22942494141068,1732
-210.65155373476898,1820
-208.07465963422078,1748
-205.49874162980439,1806
-202.92379871248932,1952
-200.34982987417743,1760
-197.7768341077018,1408
-195.20481040682762,1200
-192.63375776625162,1443
-190.0636751816021,1475
-187.49456164943945,1477
-184.92641616725564,1653
-182.3592377334743,1731
-179.79302534745102,1755
-177.2277780094729,1965
-174.66349472075865,1908
-172.10017448345923,1942
-169.5378163006569,1862
-166.97641917636565,1769
-164.41598211553162,2008
-161.8565041240322,2589
-159.29798420867678,2336
-156.74042137720642,2146
-154.18381463829382,2154
-151.6281630015436,1748
-149.07346547749228,1784
-146.51972107760753,1864
-143.96692881428908,2134
-141.41508770086864,2416
-138.86419675160937,2214
-136.31425498170609,1889
-133.7652614072856,2240
-131.21721504540642,2449
-128.67011491405844,2480
-126.12396003216395,3041
-123.57874941957618,3708
-121.03448209708074,3173
-118.49115708639465,2601
-115.94877341016684,2792
-113.40733009197788,3151
-110.86682615633993,3129
-108.32726062869733,3167
-105.78863253542556,4001
-103.25094090383243,5961
-100.71418476215695,6169
-98.17836313957025,5011
-95.64347506617503,3927
-93.10951957300585,3283
-90.57649569202886,3570
-88.04440245614194,3360
-85.51323889917478,4512
-82.98300405588896,5402
-80.45369696197747,7753
-77.925316654065,10433
-75.39786216970867,14979
-72.87133254739649,18516
-70.34572682654857,21413
-67.82104404751692,23647
-65.29728325158499,28525
-62.774443480968216,33097
-60.252523778813384,37211
-57.73152318919938,40067
-55.21144075713676,34525
-52.69227552856796,32183
-50.17402655036665,33009
-47.65669287033859,25186
-45.14027353722133,23253
-42.624767600684095,31459
-40.11017411132775,38957
-37.59649212068507,46282
-35.08372068122037,59704
-32.57185884632963,64548
-30.06090567034107,63627
-27.550860208513996,65042
-25.04172151704006,65042
-22.533488653042014,65042
-20.02616067457484,65042
-17.51973664062507,65042
-15.014215611111126,65042
-12.509596646882983,65042
-10.005878809722162,65042
-7.503061162342419,65042
-5.001142768389059,65042
-2.5001226924387083,65042
-3.410605131648481E-13,65042
2.49922624248552,65042
4.997556967646801,65042
7.494993107179766,65042
9.99153559184856,65042
12.487185351485778,65042
14.98194331499235,65042
17.475810410337544,65042
19.96878756455851,65042
22.46087570376085,65042
24.952075753118834,34710
27.442388636874625,13659
29.93181527833849,10038
32.42035659988892,7112
34.90801352297353,9715
37.39478696810693,9653
39.880677854873056,9685
42.36568710192364,10191
44.8498156269784,10986
47.33306434682618,9368
49.815434177322686,7643
52.296926033393675,8528
54.77754082903198,7942
57.25727947729865,9112
59.736142890323435,9326
62.214131979304284,6121
64.6912476545076,4758
67.16749082526735,4341
69.64286239998614,3838
72.11736328613551,4344
74.59099439025431,4069
77.06375661794982,3992
79.53565087389825,4007
82.0066780618431,4802
84.4768390845968,5038
86.94613484403999,3965
89.41456624112152,4769
91.88213417585825,5132
94.34883954733527,4140
96.81468325370679,3595
99.2796661921941,2717
101.74378925908763,2939
104.20705334974559,3302
106.66945935859462,3761
109.1310081791296,3624
111.59170070391383,4883
114.05153782457865,4637
116.5105204318238,2947
118.96864941541708,2808
121.42592566419489,3659
123.88235006606146,3470
126.3379235079899,2893
128.79264687602085,3262
131.2465210552641,3558
133.69954692989631,2911
136.15172538316415,3023
138.60305729738116,2907
141.05354355393,2652
143.50318503326116,2582
145.95198261489327,2843
148.39993717741368,3200
150.84704959847772,3486
153.29332075480897,3894
155.73875152219944,3646
158.18334277550935,3425
160.62709538866693,3161
163.0700102346691,3074
165.51208818558075,3247
167.953330112535,3335
170.39373688573346,3051
172.8333093744459,3020
175.2720484470101,3146
177.70995497083277,3353
180.14702981238815,3712
182.58327383721917,3452
185.01868790993672,3305
187.45327289422062,3358
189.88702965281777,3163
192.31995904754444,3085
194.75206193928489,3305
197.18333918799135,3038
199.61379165268454,2958
202.04342019145315,3040
204.4722256614548,3094
206.90020891891436,3298
209.32737081912592,3511
211.7537122164515,3322
214.17923396432116,3229
216.6039369152336,3512
219.0278219207553,3614
221.45088983152186,3437
223.8731414972358,3370
226.29457776666914,3156
228.71519948766172,3179
231.1350075071216,3424
233.55400267102482,3430
235.97218582441633,3624
238.38955781140908,3477
240.806119475184,3449
243.2218716579905,3475
245.6368152011462,3284
248.05095094503736,3288
250.46427972911806,3357
252.87680239191036,3372
255.28851977100544,3587
257.69943270306203,3645
260.10954202380753,3223
262.5188485680378,3219
264.92735316961557,3308
267.33505666147425,3336
269.7419598756128,3411
272.14806364310084,3569
274.5533687940747,3377
276.95787615773975,3380
279.361586562369,3275
281.7645008353045,3137
284.1666198029559,3198
286.5679442908013,3211
288.96847512338695,3273
291.3682131243279,3277
293.7671591163071,3354
296.1653139210757,3344
298.562678359453,3257
300.9592532513268,3403
303.3550394156532,3481
305.75003767045655,3298
308.14424883282936,3224
310.53767371893196,3088
312.93031314399377,3086
315.3221679223125,3010
317.71323886725304,3043
320.1035267912496,2970
322.49303250580397,2968
324.881756821487,3021
327.2697005479374,2885
329.65686449386135,2891
332.0432494670347,2846
334.4288562743004,2922
336.81368572157066,2874
339.19773861382487,2785
341.58101575511205,2790
343.96351794854786,2697
346.3452459963173,2643
348.72620069967365,2713
351.1063828589379,2755
353.48579327349967,2798
355.8644327418169,2783
358.24230206141533,2709
360.6194020288899,2664
362.99573343990255,2577
365.3712970891845,2649
367.7460937705348,2645
370.12012427682066,2575
372.493389399978,2691
374.86588993101077,2621
377.23762665999084,2472
379.6086003760588,2472
381.9788118674235,2525
384.34826192136165,2566
386.7169513242188,2465
389.08488086140824,2466
391.4520513174118,2560
393.8184634757795,2578
396.1841181191296,2682
398.54901602914856,2598
400.9131579865916,2663
403.2765447712811,2638
405.63917716210926,2632
408.00105593703483,2624
410.36218187308646,2524
412.7225557463596,2529
415.0821783320191,2496
417.4410504042976,2469
419.79917273649585,2429
422.1565461009834,2425
424.5131712691973,2553
426.869049011643,2563
429.22418009789544,2570
431.578565296596,2372
433.9322053754556,2426
436.28510110125285,2468
438.6372532398352,2386
440.98866255611733,2289
443.33932981408293,2430
445.6892557767842,2491
448.0384412063411,2420
450.38688686394175,2566
452.7345935098431,2643
455.0815619033697,2473
457.42779280291506,2480
459.7732869659403,2634
462.1180451489754,2530
464.4620681076178,2558
466.80535659653424,2598
469.1479113694588,2546
471.48973317919445,2550
473.8308227776122,2698
476.17118091565135,2763
478.51080834331924,2824
480.8497058096914,2836
483.1878740629122,3067
485.5253138501944,3055
487.8620259178176,3289
490.1980110111317,3626
492.53326987455307,3851
494.86780325156724,3952
497.201611884728,4093
499.53469651565683,4232
501.8670578850447,4209
504.1986967326493,4068
506.52961379729754,3841
508.85980981688454,3591
511.18928552837315,3282
513.5180416677952,3240
515.8460789702503,3537
518.1733981699067,4175
520.5,5005
522.8258851928354,5329
525.1510544797857,5005
527.4755085912916,4363
529.7992482568625,3974
532.1222742050759,3293
534.4445871635783,2795
536.766187859083,2418
539.0870770173726,2336
541.4072553632982,2285
543.7267236207783,2330
546.0454825128002,2410
548.363532761419,2373
550.6808750877592,2365
552.9975102120118,2277
555.3134388534377,2303
557.6286617303654,2365
559.9431795601911,2460
562.2569930593802,2347
564.570102943466,2280
566.88250992705,2369
569.1942147238021,2152
571.5052180464602,2281
573.8155206068309,2280
576.1251231157885,2415
578.4340262832759,2410
580.7422308183045,2249
583.0497374289534,2293
585.3565468223703,2217
587.6626597047714,2304
589.9680767814409,2234
592.2727987567309,2259
594.5768263340624,2313
596.8801602159238,2259
599.1828011038731,2121
601.4847496985356,2203
603.7860066996047,2139
606.0865728058427,2185
608.3864487150802,2136
610.6856351242152,2187
612.9841327292149,2180
615.2819422251141,2160
617.5790643060163,2156
619.8754996650935,2226
622.1712489945849,2183
624.466312985799,2224
626.7606923291121,2195
629.0543877139692,2174
631.347399828883,2211
633.6397293614343,2200
635.9313769982732,2237
638.2223434251173,2250
640.5126293267522,2203
642.8022353870326,2228
645.0911622888809,2236
647.3794107142876,2206
649.666981344312,2266
651.9538748590815,2213
654.2400919377915,2236
656.525633258706,2316
658.8104994991568,2314
661.0946913355442,2366
663.3782094433375,2310
665.6610544970729,2292
667.9432271703561,2283
670.22472813586,2223
672.5055580653268,2305
674.7857176295659,2276
677.065207498456,2162
679.3440283409432,2189
681.6221808250425,2235
683.899665617837,2223
686.1764833854772,2206
688.4526347931837,2279
690.7281205052436,2168
693.0029411850135,2237
695.2770974949171,2288
697.5505900964474,2287
699.8234196501651,2261
702.0955868156989,2141
704.3670922517472,2189
706.6379366160747,2242
708.9081205655159,2168
711.1776447559728,2203
713.4465098424155,2154
715.714716478883,2239
717.9822653184822,2227
720.2491570133882,2320
722.5153922148452,2180
724.7809715731639,2184
727.0458957377248,2246
729.3101653569763,2162
731.5737810784346,2156
733.8367435486853,2195
736.0990534133803,2278
738.3607113172418,2352
740.6217179040591,2332
742.8820738166899,2290
745.1417796970607,2270
747.4008361861659,2327
749.6592439240678,2269
751.9170035498973,2373
754.1741157018539,2351
756.4305810172048,2332
758.686400132286,2227
760.9415736825013,2374
763.196102302323,2367
765.4499866252911,2372
767.7032272840152,2360
769.9558249101717,2294
772.207780134506,2365
774.4590935868323,2400
776.7097658960313,2598
778.9597976900541,2438
781.2091895959184,2401
783.457942239711,2299
785.7060562465867,2308
787.9535322407687,2416
790.2003708455488,2353
792.4465726832861,2342
794.6921383754088,2423
796.9370685424128,2421
799.1813638038632,2326
801.4250247783918,2286
803.6680520837006,2376
805.9104463365579,2388
808.1522081528019,2436
810.393338147338,2393
812.6338369341406,2329
814.8737051262517,2301
817.1129433357819,2351
819.35155217391,2378
821.5895322508834,2407
823.8268841760168,2303
826.0636085576946,2378
828.2997060033681,2248
830.535177119558,2244
832.7700225118522,2275
835.0042427849078,2291
837.2378385424493,2258
839.4708103872701,2275
841.7031589212318,2386
843.9348847452643,2325
846.1659884593648,2410
848.3964706626004,2310
850.6263319531054,2348
852.8555729280824,2314
855.0841941838025,2275
857.3121963156052,2316
859.5395799178978,2454
861.7663455841566,2373
863.9924939069251,2425
866.2180254778159,2486
868.4429408875103,2376
870.6672407257561,2417
872.890925581371,2490
875.1139960422404,2474
877.336452695318,2427
879.5582961266261,2440
881.7795269212543,2453
884.0001456633613,2432
886.2201529361741,2589
888.4395493219874,2465
890.6583354021648,2569
892.8765117571375,2460
895.094078966405,2442
897.3110376085365,2574
899.5273882611671,2460
901.7431315010019,2287
903.958267903814,2384
906.1727980444443,2347
908.3867224968019,2370
910.6000418338647,2323
912.8127566276792,2344
915.0248674493587,2415
917.2363748690857,2450
919.4472794561113,2363
921.6575817787543,2364
923.867282404402,2341
926.0763818995099,2224
928.2848808296014,2235
930.4927797592693,2262
932.700079252173,2275
934.9067798710416,2275
937.112882177672,2201
939.3183867329287,2166
941.5232940967453,2226
943.727604828124,2267
945.9313194851336,2230
948.1344386249132,2291
950.3369628036685,2303
952.5388925766747,2309
954.7402284982745,2208
956.9409711218789,2209
959.1411209999676,2136
961.3406786840883,2161
963.5396447248565,2128
965.7380196719573,2234
967.9358040741427,2181
970.1329984792335,2220
972.3296034341188,2147
974.5256194847555,2120
976.72104717617,2181
978.9158870524552,2143
981.1101396567742,2154
983.3038055313566,2124
985.4968852175009,2206
987.6893792555747,2217
989.8812881850124,2188
992.072612544318,2164
994.263352871063,2147
996.453509701887,2134
998.6430835724984,2146
1000.832075017674,2079
1003.0204845712583,2046
1005.208312766164,2110
1007.3955601343728,1937
1009.5822272069338,1959
1011.7683145139652,2023
1013.9538225846525,1945
1016.1387519472505,1997
1018.3231031290818,1980
1020.5068766565371,1967
1022.6900730550753,1951
1024.872692849224,2044
1027.054736562579,1908
1029.2362047178037,1981
1031.4170978366305,1963
1033.5974164398597,1935
1035.7771610473603,1909
1037.9563321780693,1896
1040.1349303499917,1854
1042.3129560802006,1808
1044.490409884838,1819
1046.667292279115,1795
1048.8436037773079,1828
1051.0193448927644,1818
1053.1945161378994,1820
1055.3691180241954,1851
1057.5431510622038,1826
1059.7166157615447,1849
1061.8895126309053,1930
1064.0618421780423,1860
1066.2336049097798,1883
1068.4048013320107,1807
1070.5754319496955,1775
1072.745497266863,1844
1074.9149977866118,1839
1077.0839340111065,1872
1079.2523064415818,1838
1081.4201155783398,1784
1083.587361920751,1760
1085.7540459672537,1764
1087.9201682153553,1751
1090.0857291616308,1756
1092.2507293017238,1737
1094.4151691303464,1798
1096.579049141279,1759
1098.7423698273687,1771
1100.9051316805335,1703
1103.0673351917571,1730
1105.2289808510936,1726
1107.3900691476633,1768
1109.550600569657,1825
1111.710575604332,1781
1113.8699947380146,1770
1116.028858456099,1766
1118.1871672430489,1811
1120.344921582394,1738
1122.5021219567334,1820
1124.6587688477362,1770
1126.8148627361365,1804
1128.9704041017399,1782
1131.1253934234173,1800
1133.2798311791098,1812
1135.4337178458263,1729
1137.5870538996437,1769
1139.7398398157075,1685
1141.8920760682313,1735
1144.0437631304972,1740
1146.1949014748543,1815
1148.3454915727225,1782
1150.4955338945874,1765
1152.6450289100044,1730
1154.7939770875969,1795
1156.9423788950558,1797
1159.0902347991405,1764
1161.2375452656802,1738
1163.3843107595703,1716
1165.530531744775,1752
1167.6762086843282,1752
1169.8213420403304,1748
1171.9659322739503,1782
1174.1099798454266,1679
1176.2534852140639,1706
1178.3964488382376,1662
1180.538871175389,1792
1182.680752682029,1740
1184.8220938137365,1735
1186.9628950251595,1705
1189.103156770012,1764
1191.2428795010783,1732
1193.3820636702108,1711
1195.5207097283287,1671
1197.6588181254215,1719
1199.7963893105457,1714
1201.9334237318253,1660
1204.0699218364548,1666
1206.2058840706954,1778
1208.3413108798773,1724
1210.476202708397,1761
1212.6105599997222,1735
1214.7443831963874,1737
1216.877672739995,1688
1219.0104290712165,1673
1221.1426526297905,1780
1223.2743438545253,1705
1225.4055031832972,1714
1227.5361310530493,1714
1229.6662278997946,1752
1231.7957941586142,1743
1233.9248302636565,1700
1236.053336648139,1742
1238.1813137443464,1798
1240.3087619836338,1730
1242.4356817964222,1731
1244.5620736122019,1785
1246.6879378595318,1764
1248.813274966039,1772
1250.938085358418,1730
1253.062369462432,1691
1255.186127702913,1705
1257.3093605037611,1710
1259.4320682879434,1723
1261.554251477498,1664
1263.6759104935277,1770
1265.797045756206,1656
1267.9176576847744,1717
1270.0377466975428,1758
1272.1573132118879,1681
1274.2763576442567,1756
1276.394880410162,1751
1278.5128819241877,1754
1280.6303625999835,1854
1282.7473228502695,1674
1284.8637630868325,1736
1286.9796837205272,1767
1289.0950851612783,1860
1291.209967818078,1789
1293.3243320989864,1799
1295.4381784111324,1853
1297.551507160712,1821
1299.6643187529912,1791
1301.776613592303,1777
1303.888392082049,1832
1305.9996546246998,1827
1308.1104016217923,1786
1310.220633473934,1784
1312.3303505807999,1791
1314.4395533411316,1819
1316.5482421527418,1835
1318.6564174125092,1843
1320.7640795163816,1822
1322.8712288593752,1838
1324.9778658355744,1833
1327.0839908381313,1787
1329.1896042592675,1769
1331.2947064902714,1871
1333.3992979215009,1789
1335.503378942381,1758
1337.6069499414057,1745
1339.7100113061383,1813
1341.8125634232074,1784
1343.9146066783128,1721
1346.0161414562212,1791
1348.1171681407677,1755
1350.2176871148563,1805
1352.3176987604575,1834
1354.4172034586127,1777
1356.5162015894289,1798
1358.6146935320835,1803
1360.7126796648213,1856
1362.8101603649548,1813
1364.9071360088656,1858
1367.0036069720036,1762
1369.099573628886,1725
1371.195036353099,1768
1373.2899955172975,1839
1375.3844514932039,1811
1377.4784046516088,1810
1379.5718553623715,1790
1381.6648039944193,1837
1383.7572509157485,1816
1385.8491964934224,1822
1387.9406410935735,1779
1390.0315850814022,1808
1392.122028821177,1783
1394.2119726762357,1816
1396.3014170089828,1817
1398.3903621808918,1788
1400.4788085525051,1842
1402.566756483432,1751
1404.6542063323514,1797
1406.7411584570095,1800
1408.8276132142219,1824
1410.9135709598704,1720
1412.9990320489078,1788
1415.083996835353,1806
1417.1684656722937,1772
1419.2524389118867,1746
1421.3359169053565,1729
1423.4189000029946,1832
1425.5013885541634,1788
1427.5833829072913,1746
1429.664883409876,1840
1431.7458904084833,1775
1433.8264042487467,1708
1435.9064252753697,1785
1437.9859538321216,1781
1440.0649902618416,1809
1442.1435349064373,1787
1444.2215881068837,1856
1446.2991502032237,1811
1448.37622153457,1797
1450.452802439103,1776
1452.5288932540698,1810
1454.604494315788,1853
1456.6796059596427,1855
1458.7542285200866,1863
1460.8283623306415,1803
1462.902007723897,1781
1464.9751650315106,1771
1467.0478345842089,1786
1469.1200167117868,1770
1471.1917117431062,1723
1473.2629200060992,1780
1475.333641827764,1763
1477.4038775341692,1806
1479.4736274504498,1813
1481.5428919008104,1867
1483.6116712085222,1869
1485.6799656959279,1827
1487.7477756844346,1817
1489.8151014945201,1776
1491.88194344573,1829
1493.9483018566775,1835
1496.0141770450455,1827
1498.0795693275822,1775
1500.1444790201076,1764
1502.2089064375086,1778
1504.2728518937402,1774
1506.3363157018239,1921
1508.3992981738534,1813
1510.4617996209872,1818
1512.5238203534536,1828
1514.5853606805495,1809
1516.6464209106384,1856
1518.7070013511543,1853
1520.7671023085973,1834
1522.8267240885375,1814
1524.885866995612,1938
1526.9445313335268,1792
1529.002717405056,1903
1531.0604255120425,1868
1533.1176559553965,1818
1535.1744090350971,1886
1537.2306850501914,1929
1539.2864842987956,1956
1541.3418070780922,1883
1543.396653684334,1905
1545.4510244128405,1904
1547.5049195580013,1855
1549.5583394132727,1944
1551.61128427118,1932
1553.6637544233158,1963
1555.7157501603415,1899
1557.7672717719888,1904
1559.8183195470538,1958
1561.8688937734037,1922
1563.9189947379737,1948
1565.9686227267657,1897
1568.0177780248514,1880
1570.0664609163696,1988
1572.1146716845292,1876
1574.162410611605,1904
1576.2096779789413,1970
1578.2564740669518,1898
1580.3027991551157,1852
1582.3486535219831,1920
1584.3940374451709,1819
1586.4389512013645,1812
1588.4833950663178,1807
1590.5273693148533,1788
1592.5708742208603,1839
1594.6139100572982,1906
1596.6564770961936,1853
1598.698575608642,1792
1600.7402058648063,1785
1602.7813681339185,1857
1604.8220626842776,1907
1606.8622897832533,1873
1608.9020496972812,1864
1610.9413426918663,1809
1612.9801690315808,1910
1615.018528980066,1851
1617.056422800033,1866
1619.0938507532578,1851
1621.1308131005876,1898
1623.1673101019355,1875
1625.2033420162848,1856
1627.2389091016862,1860
1629.274011615259,1774
1631.3086498131897,1860
1633.3428239507352,1843
1635.376534282219,1865
1637.4097810610324,1808
1639.4425645396364,1897
1641.4748849695593,1856
1643.5067426013989,1920
1645.53813768482,1822
1647.5690704685549,1814
1649.5995412004067,1844
1651.6295501272452,1761
1653.6590974950086,1774
1655.6881835487025,1835
1657.7168085324029,1935
1659.7449726892523,1848
1661.772676261462,1822
1663.7999194903114,1768
1665.8267026161484,1774
1667.8530258783894,1901
1669.8788895155185,1856
1671.9042937650888,1766
1673.9292388637205,1807
1675.953725047103,1877
1677.977752549994,1908
1680.0013216062184,1873
1682.0244324486712,1851
1684.0470853093134,1812
1686.0692804191767,1857
1688.0910180083588,1835
1690.1122983060268,1833
1692.1331215404175,1848
1694.1534879388319,1829
1696.173397727644,1815
1698.1928511322926,1834
1700.211848377286,1906
1702.2303896862018,1893
1704.248475281684,1916
1706.2661053854458,1961
1708.2832802182684,1915
1710.300000000002,1994
1712.3162649495644,1825
1714.3320752849409,1802
1716.3474312231865,1842
1718.362332980424,1893
1720.376780771845,1877
1722.3907748117072,1818
1724.4043153133393,1842
1726.4174024891367,1791
1728.4300365505628,1860
1730.442217708151,1804
1732.4539461715008,1823
1734.465222149282,1919
1736.4760458492306,1874
1738.4864174781524,1848
1740.496337241921,1869
1742.5058053454786,1874
1744.5148219928346,1758
1746.523387387068,1879
1748.531501730325,1887
1750.5391652238209,1884
1752.5463780678388,1869
1754.55314046173,1927
1756.5594526039135,1904
1758.565314691879,1869
1760.5707269221812,1818
1762.5756894904443,1833
1764.580202591363,1898
1766.5842664186966,1881
1768.5878811652751,1848
1770.591047022996,1886
1772.593764182825,1833
1774.5960328347965,1919
1776.5978531680116,1923
1778.5992253706427,1865
1780.6001496299273,1824
1782.6006261321731,1861
1784.6006550627553,1940
1786.6002366061175,1900
1788.5993709457725,1889
1790.5980582642992,1839
1792.5962987433468,1871
1794.5940925636314,1846
1796.5914399049389,1946
1798.5883409461221,1865
1800.584795865102,1883
1802.580804838869,1923
1804.5763680434807,1849
1806.571485654064,1871
1808.566157844813,1922
1810.5603847889902,1850
1812.5541666589274,1893
1814.5475036260236,1859
1816.5403958607467,1878
1818.5328435326323,1858
1820.5248468102845,1889
1822.5164058613755,1870
1824.5075208526468,1833
1826.4981919499064,1881
1828.488419318032,1900
1830.4782031209684,1892
1832.4675435217305,1822
1834.4564406823993,1880
1836.4448947641258,1844
1838.432905927128,1969
1840.4204743306927,1957
1842.4076001331746,1921
1844.3942834919985,1848
1846.380524563654,1879
1848.366323503702,1905
1850.351680466771,1884
1852.3365956065563,1909
1854.3210690758228,1926
1856.3051010264044,1824
1858.2886916092007,1824
1860.271840974182,1936
1862.2545492703862,1899
1864.2368166459191,1940
1866.2186432479543,1913
1868.2000292227349,1929
1870.1809747155717,1881
1872.1614798708429,1938
1874.1415448319963,1943
1876.1211697415474,1827
1878.1003547410805,1899
1880.0790999712472,1881
1882.0574055717675,1995
1884.0352716814305,1893
1886.0126984380927,1937
1887.989685978679,1960
1889.9662344391836,1898
1891.9423439546672,1904
1893.9180146592607,1924
1895.893246686161,1897
1897.868040167636,1946
1899.8423952350195,1862
1901.8163120187137,1925
1903.7897906481917,1849
1905.7628312519923,1882
1907.7354339577219,1927
1909.7075988920578,1962
1911.6793261807447,1906
1913.6506159485943,1921
1915.6214683194871,1942
1917.5918834163726,1924
1919.5618613612687,1922
1921.5314022752605,1882
1923.5005062785012,1915
1925.4691734902144,1931
1927.4374040286893,1979
1929.4051980112845,1915
1931.3725555544274,1932
1933.3394767736136,1939
1935.305961783406,1965
1937.2720106974361,2047
1939.237623628404,1913
1941.2028006880778,2025
1943.167541987295,2011
1945.1318476359588,1938
1947.0957177430432,2004
1949.0591524165898,1979
1951.0221517637078,1972
1952.984715890574,1942
1954.9468449024357,1973
1956.9085389036072,1867
1958.8697979974704,1838
1960.8306222864767,1895
1962.7910118721456,1951
1964.7509668550638,1927
1966.7104873348871,1986
1968.6695734103387,1978
1970.6282251792127,1957
1972.586442738368,1897
1974.5442261837343,1919
1976.501575610307,1984
1978.4584911121533,1980
1980.4149727824056,1978
1982.3710207132658,1979
1984.326634996004,1942
1986.2818157209585,1878
1988.2365629775359,1927
1990.1908768542116,1976
1992.144757438527,1933
1994.0982048170954,1936
1996.0512190755953,1893
1998.0038002987749,1907
1999.95594857045,1906
2001.9076639735054,1889
2003.8589465898945,1972
2005.8097965006368,1957
2007.760213785822,1971
2009.7101985246077,1945
2011.6597507952201,1895
2013.6088706749524,1940
2015.5575582401675,1996
2017.5058135662953,1934
2019.4536367278351,1966
2021.4010277983534,1937
2023.347986850486,1975
2025.2945139559365,1924
2027.2406091854768,2005
2029.1862726089462,1958
2031.1315042952538,1955
2033.0763043123766,1932
2035.0206727273585,1978
2036.964609606313,1972
2038.908115014422,1978
2040.8511890159348,1934
2042.7938316741693,1987
2044.7360430515123,2050
2046.677823209417,2075
2048.6191722084077,2007
2050.5600901080743,1988
2052.5005769670765,1902
2054.440632843142,1986
2056.380257793066,1992
2058.3194518727128,2006
2060.258215137015,1989
2062.1965476399732,1990
2064.1344494346554,1916
2066.0719205732,1947
2068.008961106812,1955
2069.945571085764,2030
2071.8817505593997,1963
2073.817499576128,1941
2075.7528181834273,1915
2077.6877064278447,1950
2079.622164354995,2006
2081.556192009562,1922
2083.4897894352966,1998
2085.4229566750187,2019
2087.355693770616,1954
2089.2880007630456,1964
2091.219877692331,1970
2093.151324597566,1862
2095.0823415169107,2005
2097.012928487595,1981
2098.9430855459173,1916
2100.872812727242,1937
2102.8021100660035,1902
2104.730977595705,1952
2106.659415348917,2048
2108.5874233572777,1978
2110.5150016514945,2038
2112.442150261343,1970
2114.3688692156675,1969
2116.2951585423793,1957
2118.2210182684585,1933
2120.146448419954,1928
2122.0714490219825,1965
2123.9960200987293,1905
2125.920161673447,1955
2127.843873768458,2007
2129.767156405151,1916
2131.690009603985,2000
2133.612433384486,1958
2135.534427765249,1983
2137.4559927639366,1987
2139.37712839728,1992
2141.2978346810783,2007
2143.2181116301995,1940
2145.1379592585795,2027
2147.057377579222,1979
2148.9763666042,1971
2150.894926344655,1970
2152.813056810794,1993
2154.730758011896,1989
2156.648029956306,1950
2158.564872651437,1987
2160.481286103772,1979
2162.397270318861,1968
2164.312825301323,1954
2166.227951054844,2020
2168.14264758218,1948
2170.056914885153,1986
2171.9707529646566,2003
2173.8841618206484,1954
2175.7971414521585,1945
2177.7096918572825,2071
2179.621813033186,1953
2181.5335049761,1948
2183.444767681327,1960
2185.355601143236,1930
2187.2660053552654,2007
2189.1759803099208,1987
2191.085525998777,1979
2192.994642412475,1962
2194.903329540727,1988
2196.811587372312,1925
2198.7194158950765,2020
2200.626815095937,1932
2202.5337849608763,2010
2204.440325474948,2009
2206.346436622271,1933
2208.2521183860345,1998
2210.157370748496,1951
2212.0621936909793,2008
2213.966587193879,2030
2215.8705512366573,2029
2217.774085797842,1998
2219.677190855033,2009
2221.579866384897,1981
2223.4821123631677,2023
2225.3839287646483,1966
2227.2853155632106,2017
2229.186272731794,2087
2231.0868002424063,2079
2232.986898066123,2008
2234.8865661730892,2029
2236.785804532517,2048
2238.6846131126877,2028
2240.5829918809495,1969
2242.4809408037213,1991
2244.3784598464877,2046
2246.275548973803,2015
2248.172208149288,1975
2250.0684373356357,2012
2251.964236494603,1990
2253.859605587017,1974
2255.7545445727733,1970
2257.6490534108357,1958
2259.5431320592356,1989
2261.436780475073,2087
2263.329998614516,1986
2265.222786432802,2026
2267.1151438842344,1958
2269.0070709221877,1971
2270.8985674991022,2012
2272.789633566488,2026
2274.6802690749237,1925
2276.570473974053,2020
2278.4602482125933,1954
2280.3495917383257,1930
2282.238504498101,1992
2284.1269864378387,1979
2286.0150375025264,1985
2287.9026576362203,2048
2289.789846782043,2050
2291.6766048821873,2186
2293.5629318779147,2077
2295.4488277095534,1968
2297.3342923164996,1987
2299.2193256372193,2045
2301.1039276092465,1955
2302.9880981691817,2026
2304.871837252696,1992
2306.755144794528,2070
2308.6380207284838,2032
2310.5204649874386,2045
2312.4024775033354,2030
2314.2840582071854,2046
2316.165207029068,2079
2318.0459238981325,2046
2319.926208742594,2050
2321.8060614897363,2067
2323.6854820659137,2017
2325.5644703965463,2118
2327.443026406124,2038
2329.321150018203,1962
2331.1988411554107,2026
2333.0760997394395,2080
2334.952925691053,2060
2336.829318930082,2016
2338.705279375424,1982
2340.5808069450477,2007
2342.4559015559867,2053
2344.3305631243456,2034
2346.204791565297,2019
2348.07858679308,2076
2349.9519487210027,1992
2351.824877261443,2031
2353.6973723258448,2126
2355.5694338247226,1983
2357.4410616676564,2096
2359.312255763297,2141
2361.1830160193617,2028
2363.053342342637,1984
2364.9232346389776,2067
2366.792692813306,2099
2368.6617167696145,2092
2370.5303064109603,2065
2372.3984616394723,2064
2374.2661823563467,2071
2376.1334684618464,2101
2378.0003198553054,2075
2379.8667364351227,2070
2381.7327180987672,2050
2383.5982647427777,2063
2385.4633762627586,2064
2387.3280525533837,2025
2389.192293508395,2004
2391.0560990206027,2033
2392.919468981885,2048
2394.782403283189,2026
2396.644901814531,2003
2398.5069644649916,2059
2400.3685911227235,2056
2402.2297816749474,2062
2404.0905360079505,2041
2405.950854007089,2035
2407.8107355567886,2029
2409.670180540541,2088
2411.529188840908,1994
2413.387760339518,1995
2415.2458949170705,2002
2417.1035924533294,1969
2418.96085282713,1991
2420.8176759163744,2040
2422.6740615980334,2103
2424.5300097481468,2033
2426.38552024182,1982
2428.24059295323,2037
2430.0952277556207,2064
2431.949424521303,2055
2433.803183121658,2117
2435.6565034271343,2173
2437.5093853072485,2016
2439.361828630585,2089
2441.213833264798,2043
2443.0653990766095,2139
2444.916525931808,2103
2446.7672136952524,2039
2448.6174622308695,2060
2450.4672714016538,2126
2452.3166410696676,2033
2454.165571096043,2059
2456.0140613409794,2052
2457.8621116637432,2090
2459.709721922672,2019
2461.556891975169,2127
2463.403621677707,2042
2465.249910885827,2045
2467.0957594541383,2109
2468.9411672363167,2011
2470.78613408511,2024
2472.630659852331,2039
2474.4747443888614,2075
2476.3183875446516,2067
2478.161589168721,2028
2480.0043491091556,2131
2481.8466672131112,1992
2483.6885433268108,2045
2485.529977295547,2035
2487.370968963678,2066
2489.2115181746335,2019
2491.0516247709097,2099
2492.891288594071,2065
2494.7305094847497,2063
2496.569287282649,2057
2498.407621826537,2099
2500.2455129542523,2135
2502.0829605027,2054
2503.919964307855,2156
2505.7565242047594,2105
2507.5926400275252,2074
2509.42831160933,2080
2511.263538782423,2022
2513.0983213781174,2038
2514.9326592267994,2109
2516.76655215792,2035
2518.5999999999995,2113
2520.4330025806275,2121
2522.2655597264607,2078
2524.0976712632237,2089
2525.9293370157097,2069
2527.760556807782,2058
2529.591330462369,1976
2531.4216578014702,2058
2533.2515386461523,2083
2535.080972816548,2067
2536.9099601318626,2126
2538.738500410366,2084
2540.5665934693993,1980
2542.3942391253695,2006
2544.221437193752,2106
2546.0481874890925,2045
2547.874489825003,2065
2549.700344014164,2075
2551.5257498683245,2095
2553.350707198304,2094
2555.175215813986,2110
2556.9992755243256,2099
2558.8228861373454,2078
2560.646047460134,2086
2562.468759298852,2052
2564.2910214587255,2082
2566.1128337440496,2112
2567.93419595819,2059
2569.7551079035757,2039
2571.5755693817077,2041
2573.395580193155,2024
2575.2151401375536,2089
2577.034249013609,2076
2578.8529066190936,2073
2580.6711127508493,2065
2582.488867204785,2066
2584.3061697758794,2111
2586.1230202581787,2091
2587.939418444797,2075
2589.7553641279183,2064
2591.570857098791,2079
2593.385897147736,2096
2595.200484064141,2054
2597.014617636461,2148
2598.8282976522214,2036
2600.6415238980126,2038
2602.454296159496,2067
2604.266614221401,2048
2606.0784778675243,2047
2607.8898868807305,2081
2609.700841042955,2097
2611.5113401351973,2114
2613.32138393753,2095
2615.13097222909,2066
2616.940104788084,2197
2618.748781391788,2155
2620.557001816543,2087
2622.364765837763,2131
2624.1720732299264,2086
2625.9789237665814,2100
2627.7853172203445,2070
2629.5912533629,2102
2631.396731965001,2106
2633.2017527964676,2119
2635.0063156261904,2057
2636.810420222126,2081
2638.614066351301,2014
2640.417253779809,2131
2642.219982272813,2041
2644.022251594542,2087
2645.8240615082973,2137
2647.625411776444,2098
2649.4263021604183,2089
2651.226732420724,2110
2653.026702316933,2059
2654.8262116076858,2092
2656.625260050691,2106
2658.423847402724,2135
2660.221973419631,2116
2662.0196378563246,2116
2663.8168404667867,2104
2665.613581004068,2075
2667.4098592202854,2157
2669.2056748666246,2149
2671.0010276933417,2107
2672.7959174497596,2107
2674.5903438842674,2095
2676.384306744327,2101
2678.177805776465,2006
2679.9708407262765,2070
2681.7634113384274,2076
2683.555517356648,2100
2685.3471585237403,2126
2687.138334581574,2092
2688.9290452710843,2047
2690.7192903322784,2099
2692.50906950423,2101
2694.2983825250794,2099
2696.087229132039,2042
2697.875609061386,2037
2699.6635220484677,2079
2701.450967827699,2109
2703.237946132564,2090
2705.0244566956126,2116
2706.8104992484664,2078
2708.596073521813,2123
2710.381179245408,2115
2712.1658161480777,2168
2713.949983957714,2047
2715.7336824012773,2128
2717.516911204798,2112
2719.299670093374,2119
2721.0819587911706,2155
2722.8637770214223,2101
2724.6451245064322,2132
2726.426000967571,2090
2728.2064061252763,2109
2729.986339699057,2085
2731.765801407488,2047
2733.5447909682134,2115
2735.323308097945,2035
2737.101352512463,2078
2738.8789239266166,2065
2740.6560220543215,2153
2742.4326466085645,2097
2744.2087973013977,2085
2745.984473843944,2137
2747.7596759463922,2146
2749.534403318001,2141
2751.308655667096,2164
2753.0824327010737,2113
2754.8557341263954,2166
2756.628559648593,2123
2758.4009089722667,2126
2760.172781801083,2005
2761.944177837779,2203
2763.715096784159,2208
2765.4855383410945,2096
2767.2555022085267,1996
2769.024988085465,2095
2770.793995669988,2150
2772.5625246592385,2164
2774.3305747494323,2087
2776.098145635852,2043
2777.865237012847,2119
2779.6318485738357,2042
2781.397980011306,2088
2783.163631016813,2102
2784.928801280979,2079
2786.6934904934974,2098
2788.457698343127,2078
2790.221424517697,2090
2791.9846687041027,2116
2793.74743058831,2148
2795.5097098553515,2065
2797.2715061893286,2159
2799.0328192734105,2175
2800.793648789836,2108
2802.553994419911,2166
2804.3138558440087,2135
2806.073232741573,2124
2807.8321247911135,2234
2809.590531670211,2119
2811.3484530555115,2142
2813.105888622732,2085
2814.8628380466557,2113
2816.6193010011348,2098
2818.3752771590903,2111
2820.13076619251,2103
2821.885767772452,2088
2823.640281569041,2148
2825.3943072514703,2165
2827.147844488002,2064
2828.9008929459665,2152
2830.6534522917614,2123
2832.405522190854,2035
2834.1571023077786,2086
2835.9081923061394,2129
2837.658791848606,2058
2839.40890059692,2192
2841.1585182118874,2107
2842.907644353386,2121
2844.6562786803593,2147
2846.4044208508203,2079
2848.15207052185,2073
2849.899227349598,2164
2851.6458909892804,2124
2853.392061095185,2221
2855.137737320664,2153
2856.882919318142,2136
2858.6276067391063,2092
2860.371799234118,2066
2862.1154964528037,2057
2863.8586980438586,2171
2865.6014036550464,2133
2867.343612933199,2149
2869.0853255242173,2132
2870.826541073068,2210
2872.567259223789,2123
2874.307479619485,2114
2876.0472019023287,2069
2877.7864257135625,2115
2879.525150693495,2098
2881.263376481505,2239
2883.0011027160385,2133
2884.73832903461,2140
2886.4750550738027,2161
2888.2112804692665,2148
2889.9470048557223,2169
2891.682227866956,2133
2893.416949135825,2200
2895.151168294252,2052
2896.88488497323,2169
2898.6180988028204,2118
2900.3508094121503,2156
2902.083016429419,2269
2903.81471948189,2171
2905.5459181958972,2146
2907.276612196844,2120
2909.0068011091994,2222
2910.736484556502,2157
2912.465662161359,2178
2914.194333545445,2090
2915.922498329504,2158
2917.650156133346,2109
2919.377306575852,2201
2921.103949274969,2122
2922.830083847715,2176
2924.555709910173,2200
2926.2808270774967,2174
2928.005434963907,2134
2929.7295331826936,2154
2931.4531213462133,2161
2933.1761990658924,2178
2934.8987659522254,2134
2936.6208216147747,2173
2938.3423656621694,2152
2940.0633977021116,2108
2941.783917341366,2209
2943.503924185768,2113
2945.223417840223,2213
2946.9423979087023,2154
2948.6608639942456,2177
2950.378815698962,2223
2952.096252624029,2154
2953.81317436969,2114
2955.529580535259,2191
2957.2454707191177,2161
2958.9608445187164,2138
2960.6757015305734,2222
2962.3900413502733,2154
2964.103863572472,2198
2965.817167790894,2224
2967.529953598327,2179
2969.2422205866337,2141
2970.953968346739,2143
2972.6651964686407,2117
2974.3759045414035,2187
2976.0860921531585,2183
2977.7957588911067,2161
2979.504904341517,2126
2981.2135280897273,2165
2982.9216297201433,2165
2984.629208816238,2138
2986.336264960554,2197
2988.0427977347017,2157
2989.7488067193594,2221
2991.454291494274,2141
2993.1592516382607,2156
2994.8636867292034,2184
2996.567596344053,2152
2998.2709800588295,2185
2999.973837448621,2221
3001.6761680875857,2158
3003.377971548946,2125
3005.0792474049954,2107
3006.7799952270957,2147
3008.480214585676,2157
3010.1799050502345,2166
3011.8790661893368,2161
3013.5776975706176,2144
3015.2757987607793,2171
3016.973369325592,2140
3018.6704088298966,2214
3020.366916837598,2139
3022.0628929116747,2134
3023.7583366141675,2123
3025.4532475061915,2156
3027.147625147925,2196
3028.841469098617,2226
3030.534778916585,2072
3032.2275541592144,2147
3033.9197943829577,2284
3035.611499143338,2201
3037.302667994943,2194
3038.9933004914333,2143
3040.683396185535,2203
3042.372954629042,2188
3044.061975372817,2166
3045.7504579667934,2221
3047.4384019599684,2198
3049.1258069004116,2098
3050.812672335258,2170
3052.4989978107124,2098
3054.184782872047,2174
3055.870027063603,2238
3057.554729928791,2186
3059.238891010086,2166
3060.9225098490347,2182
3062.6055859862518,2174
3064.2881189614177,2220
3065.970108313285,2194
3067.651553579671,2254
3069.3324542974633,2240
3071.012810002616,2122
3072.6926202301543,2151
3074.3718845141702,2207
3076.050602387822,2098
3077.728773383339,2147
3079.406397032018,2250
3081.083472864223,2150
3082.7600004093874,2145
3084.4359791960137,2225
3086.11140875167,2160
3087.7862886029952,2153
3089.4606182756943,2205
3091.134397294544,2162
3092.807625183385,2169
3094.4803014651284,2168
3096.152425661755,2214
3097.8239972943097,2141
3099.49501588291,2115
3101.165480946741,2150
3102.8353920040518,2120
3104.504748572165,2182
3106.1735501674693,2175
3107.8417963054226,2259
3109.5094865005485,2185
3111.176620266441,2222
3112.8431971157625,2175
3114.5092165602427,2112
3116.1746781106813,2186
3117.839581276943,2183
3119.503925567965,2239
3121.167710491747,2195
3122.830935555364,2134
3124.493600264954,2263
3126.1557041257247,2141
3127.817246641952,2250
3129.478227316982,2192
3131.1386456532273,2118
3132.798501152168,2194
3134.4577933143537,2173
3136.116521639402,2248
3137.7746856259982,2265
3139.4322847718977,2181
3141.0893185739224,2244
3142.745786527962,2157
3144.4016881289754,2259
3146.0570228709903,2189
3147.711790247102,2200
3149.3659897494754,2181
3151.0196208693396,2236
3152.6726830969974,2160
3154.3251759218165,2138
3155.9770988322334,2267
3157.6284513157534,2078
3159.2792328589485,2162
3160.929442947461,2154
3162.579081066002,2198
3164.2281466983477,2158
3165.8766393273454,2171
3167.5245584349086,2172
3169.1719035020224,2197
3170.818674008735,2208
3172.4648694341677,2175
3174.110489256508,2179
3175.7555329530105,2256
3177.4000000000005,2223
3179.0438898728707,2286
3180.6872020460805,2229
3182.32993599316,2209
3183.972091186706,2260
3185.613667098384,2250
3187.254663198927,2244
3188.8950789581386,2222
3190.5349138448873,2297
3192.1741673271126,2214
3193.8128388718224,2229
3195.4509279450886,2217
3197.0884340120574,2159
3198.725356536939,2224
3200.361694983014,2256
3201.997448812629,2256
3203.632617487203,2202
3205.2672004672195,2219
3206.901197212229,2192
3208.5346071808563,2189
3210.167429830789,2157
3211.799664618785,2210
3213.4313110006706,2195
3215.0623684313387,2164
3216.692836364753,2207
3218.3227142539445,2180
3219.9520015510125,2137
3221.5806977071215,2192
3223.2088021725103,2238
3224.8363143964816,2133
3226.4632338274077,2201
3228.089559912728,2174
3229.715292098951,2240
3231.3404298316545,2182
3232.9649725554846,2205
3234.5889197141523,2234
3236.2122707504395,2222
3237.8350251061984,2184
3239.457182222345,2315
3241.0787415388677,2225
3242.6997024948187,2247
3244.3200645283223,2238
3245.9398270765696,2227
3247.558989575821,2162
3249.177551461403,2232
3250.7955121677123,2225
3252.412871128213,2240
3254.029627775437,2247
3255.6457815409867,2182
3257.2613318555286,2222
3258.876278148802,2163
3260.490619849613,2219
3262.1043563858348,2204
3263.717487184408,2186
3265.3300116713453,2175
3266.941929271725,2176
3268.5532394096917,2216
3270.1639415084646,2249
3271.7740349903233,2242
3273.383519276621,2243
3274.9923937877775,2192
3276.6006579432833,2200
3278.2083111616903,2188
3279.815352860627,2277
3281.421782456786,2236
3283.027599365927,2210
3284.632803002881,2230
3286.237392781545,2183
3287.841368114885,2166
3289.4447284149373,2185
3291.047473092801,2238
3292.649601558651,2174
3294.2511132217223,2219
3295.8520074903254,2226
3297.452283771835,2196
3299.051941472695,2225
3300.650979998417,2228
3302.2493987535827,2221
3303.8471971418403,2258
3305.4443745659064,2265
3307.0409304275654,2230
3308.636864127674,2228
3310.2321750661513,2123
3311.8268626419876,2236
3313.420926253242,2177
3315.01436529704,2223
3316.6071791695776,2162
3318.1993672661183,2261
3319.7909289809913,2179
3321.3818637075983,2237
3322.972170838406,2201
3324.561849764951,2265
3326.150899877838,2178
3327.7393205667386,2245
3329.3271112203956,2162
3330.9142712266166,2295
3332.5007999722793,2325
3334.08669684333,2264
3335.6719612247834,2322
3337.2565925007193,2315
3338.840590054291,2229
3340.4239532677157,2321
3342.006681522281,2230
3343.5887741983406,2312
3345.1702306753214,2241
3346.7510503317126,2270
3348.3312325450743,2304
3349.910776692037,2197
3351.4896821482953,2190
3353.0679482886153,2262
3354.645574486829,2262
3356.2225601158398,2272
3357.798904547615,2184
