CollectionTime,4/2/2024 11:11:46 AM
ExposureUsed,3
CalibratedSpectrum
-994.8464149364308,673
-991.9439705588344,750
-989.042830375826,744
-986.1429931109675,698
-983.2444574887519,825
-980.3472222346043,818
-977.4512860748813,749
-974.5566477368716,742
-971.6633059487953,718
-968.7712594398042,695
-965.8805069399822,727
-962.9910471803447,650
-960.1028788928387,619
-957.2160008103432,720
-954.3304116666687,757
-951.4461101965578,787
-948.5630951356844,747
-945.6813652206545,841
-942.8009191890055,891
-939.9217557792067,855
-937.0438737306594,779
-934.167271783696,756
-931.2919486795813,725
-928.4179031605115,700
-925.5451339696144,798
-922.67363985095,823
-919.8034195495097,830
-916.9344718112166,867
-914.0667953829256,809
-911.2003890124234,787
-908.3352514484286,721
-905.471381440591,743
-902.6087777394928,741
-899.7474390966474,785
-896.8873642645002,831
-894.0285519964284,819
-891.1710010467407,786
-888.3147101706776,749
-885.4596781244115,758
-882.6059036650465,708
-879.7533855506183,723
-876.9021225400943,729
-874.0521133933738,791
-871.2033568712878,772
-868.3558517355991,755
-865.509596749002,893
-862.6645906751228,912
-859.8208322785192,860
-856.9783203246812,789
-854.1370535800299,750
-851.2970308119186,794
-848.4582507886321,837
-845.620712279387,802
-842.7844140543316,792
-839.9493548845461,781
-837.1155335420422,758
-834.2829487997635,751
-831.4515994315852,780
-828.6214842123144,859
-825.7926019176898,882
-822.9649513243819,839
-820.138531209993,910
-817.3133403530569,841
-814.4893775330396,809
-811.6666415303382,797
-808.845131126282,805
-806.0248451031321,848
-803.2057822440808,722
-800.3879413332527,757
-797.5713211557038,957
-794.755920497422,949
-791.941738145327,810
-789.1287728872701,878
-786.3170235120342,997
-783.5064888093341,833
-780.6971675698165,748
-777.8890585850597,766
-775.0821606475735,884
-772.2764725507997,859
-769.4719930891118,782
-766.6687210578151,812
-763.8666552531465,1016
-761.0657944722747,1175
-758.2661375133,1074
-755.4676831752547,893
-752.6704302581027,857
-749.8743775627395,812
-747.0795238909925,787
-744.285868045621,807
-741.4934088303156,818
-738.702145049699,823
-735.9120755093254,872
-733.123199015681,1207
-730.3355143761836,1258
-727.5490203991826,982
-724.7637158939592,856
-721.9795996707265,877
-719.1966705406293,787
-716.4149273157439,755
-713.6343688090786,764
-710.8549938345734,736
-708.0768012070998,800
-705.2997897424614,851
-702.5239582573931,840
-699.7493055695622,827
-696.9758304975669,826
-694.2035318609377,801
-691.4324084801367,739
-688.6624591765578,823
-685.8936827725265,822
-683.1260780913001,889
-680.3596439570675,907
-677.5943791949499,875
-674.8302826309991,810
-672.0673530922,776
-669.3055894064685,822
-666.5449904026519,900
-663.78555491053,929
-661.0272817608139,816
-658.2701697851465,945
-655.5142178161026,959
-652.7594246871884,861
-650.0057892328422,835
-647.2533102884337,793
-644.5019866902646,831
-641.7518172755683,900
-639.0028008825099,903
-636.254936350186,1000
-633.5082225186254,910
-630.7626582287882,922
-628.0182423225665,879
-625.2749736427841,864
-622.5328510331965,873
-619.7918733384909,914
-617.0520394042862,971
-614.3133480771331,910
-611.5757982045143,979
-608.8393886348437,1125
-606.1041182174672,1189
-603.3699858026625,1089
-600.6369902416393,1009
-597.9051303865383,980
-595.1744050904326,1067
-592.4448132073267,1292
-589.7163535921568,1276
-586.9890251007912,1113
-584.2628265900296,1012
-581.5377569176036,1046
-578.8138149421764,1062
-576.090999523343,1061
-573.3693095216302,999
-570.6487437984965,1042
-567.9293012163321,1031
-565.210980638459,1136
-562.4937809291307,1101
-559.7777009535329,1040
-557.0627395777825,1034
-554.3488956689287,1064
-551.6361680949519,1185
-548.9245557247644,1229
-546.2140574282107,1369
-543.5046720760662,1296
-540.7963985400388,1227
-538.0892356927677,1296
-535.3831824078238,1252
-532.6782375597103,1356
-529.9744000238613,1533
-527.2716686766433,1663
-524.5700423953542,1792
-521.8695200582238,1713
-519.1701005444136,1645
-516.4717827340166,1672
-513.7745655080581,1810
-511.0784477484944,2006
-508.38342833821423,2112
-505.68950616103757,2160
-502.9966801017163,2277
-500.3049490459341,2469
-497.61431188030633,2293
-494.9247674923801,2078
-492.2363147706342,1805
-489.54895260447927,1601
-486.86267988425755,1615
-484.1774955012431,1658
-481.4933983476417,1831
-478.8103873165908,1581
-476.1284613021596,1365
-473.44761919934945,1347
-470.7678599040928,1312
-468.089182313254,1343
-465.4115853246294,1514
-462.735067836947,1548
-460.0596287498663,1502
-457.3852669639789,1265
-454.71198138080774,1123
-452.03977090280773,1167
-449.3686344333656,1188
-446.69857087679964,1246
-444.02957913835996,1260
-441.36165812422837,1265
-438.6948067415183,1245
-436.0290238982752,1225
-433.36430850347597,1209
-430.7006594670296,1342
-428.0380756997763,1409
-425.3765561134885,1545
-422.7160996208702,1449
-420.0567051355571,1453
-417.3983715721164,1405
-414.7410978460475,1381
-412.08488287378145,1412
-409.4297255726806,1307
-406.77562486103955,1256
-404.1225796580843,1187
-401.4705888839728,1063
-398.8196514597947,981
-396.1697663075713,1050
-393.5209323502555,1126
-390.8731485117323,993
-388.22641371681823,1025
-385.5807268912615,1219
-382.93608696174226,1164
-380.29249285587207,907
-377.64994350219456,838
-375.0084378301849,949
-372.36797477025016,858
-369.7285532537287,965
-367.0901722128914,1061
-364.45283058094014,961
-361.8165272920089,1124
-359.1812612811634,962
-356.54703148440103,763
-353.9138368386507,841
-351.28167628177346,998
-348.6505487525617,1189
-346.02045319074,1100
-343.3913885369643,1014
-340.76335373282245,1066
-338.1363477208339,1003
-335.5103694444499,1047
-332.8854178480535,1072
-330.26149187695944,1137
-327.63859047741425,969
-325.016712596596,861
-322.3958571826148,803
-319.77602318451227,926
-317.15720955226186,1125
-314.5394152367686,1063
-311.9226391898695,952
-309.3068803643333,1048
-306.69213771386023,1137
-304.0784101930824,1385
-301.4656967575635,1417
-298.8539963637994,1281
-296.2433079692172,1186
-293.6336305321761,1155
-291.02496301196675,1175
-288.41730436881176,1341
-285.81065356386534,1234
-283.2050095592135,1195
-280.60037131787396,1503
-277.9967378037961,1717
-275.39410798186134,1431
-272.7924808178824,1766
-270.19185527860407,1718
-267.5922303317028,1406
-264.9936049457866,1318
-262.3959780903955,1441
-259.79934873600087,1834
-257.2037158540064,1800
-254.6090784167469,1860
-252.01543539748934,1888
-249.42278577043237,1470
-246.8311285107061,1270
-244.24046259437262,1167
-241.6507869984256,1272
-239.0621007007909,1525
-236.4744026803254,1662
-233.88769191681808,1730
-231.30196739098994,1810
-228.7172280844934,1469
-226.13347297991243,1493
-223.550701060763,1710
-220.9689113114929,1712
-218.3881027174814,1624
-215.8082742650397,1739
-213.22942494141068,2125
-210.65155373476898,2696
-208.07465963422078,2810
-205.49874162980439,2597
-202.92379871248932,2450
-200.34982987417743,2375
-197.7768341077018,1785
-195.20481040682762,1407
-192.63375776625162,1522
-190.0636751816021,1533
-187.49456164943945,1753
-184.92641616725564,1924
-182.3592377334743,1971
-179.79302534745102,2087
-177.2277780094729,2471
-174.66349472075865,2452
-172.10017448345923,2607
-169.5378163006569,2376
-166.97641917636565,2086
-164.41598211553162,2397
-161.8565041240322,3171
-159.29798420867678,3001
-156.74042137720642,2719
-154.18381463829382,2528
-151.6281630015436,2417
-149.07346547749228,2243
-146.51972107760753,1911
-143.96692881428908,2050
-141.41508770086864,2250
-138.86419675160937,2473
-136.31425498170609,2762
-133.7652614072856,3007
-131.21721504540642,2974
-128.67011491405844,3057
-126.12396003216395,3511
-123.57874941957618,4270
-121.03448209708074,4046
-118.49115708639465,3941
-115.94877341016684,4214
-113.40733009197788,4284
-110.86682615633993,4071
-108.32726062869733,4050
-105.78863253542556,4908
-103.25094090383243,6759
-100.71418476215695,6886
-98.17836313957025,5921
-95.64347506617503,4674
-93.10951957300585,3935
-90.57649569202886,4140
-88.04440245614194,4374
-85.51323889917478,5064
-82.98300405588896,5828
-80.45369696197747,8150
-77.925316654065,10483
-75.39786216970867,14183
-72.87133254739649,17348
-70.34572682654857,19873
-67.82104404751692,23044
-65.29728325158499,28902
-62.774443480968216,33192
-60.252523778813384,37958
-57.73152318919938,41227
-55.21144075713676,38954
-52.69227552856796,39917
-50.17402655036665,40597
-47.65669287033859,28756
-45.14027353722133,24839
-42.624767600684095,33248
-40.11017411132775,37634
-37.59649212068507,43907
-35.08372068122037,55077
-32.57185884632963,53182
-30.06090567034107,51413
-27.550860208513996,63015
-25.04172151704006,65041
-22.533488653042014,65041
-20.02616067457484,65041
-17.51973664062507,65041
-15.014215611111126,65041
-12.509596646882983,65041
-10.005878809722162,65041
-7.503061162342419,65041
-5.001142768389059,65041
-2.5001226924387083,65041
-3.410605131648481E-13,65041
2.49922624248552,65041
4.997556967646801,65041
7.494993107179766,65041
9.99153559184856,65041
12.487185351485778,65041
14.98194331499235,65041
17.475810410337544,65041
19.96878756455851,65041
22.46087570376085,65041
24.952075753118834,65041
27.442388636874625,30820
29.93181527833849,15029
32.42035659988892,13895
34.90801352297353,17163
37.39478696810693,13513
39.880677854873056,9983
42.36568710192364,10147
44.8498156269784,11087
47.33306434682618,10902
49.815434177322686,11234
52.296926033393675,10489
54.77754082903198,9430
57.25727947729865,12684
59.736142890323435,12968
62.214131979304284,8189
64.6912476545076,6317
67.16749082526735,5833
69.64286239998614,4956
72.11736328613551,7402
74.59099439025431,7832
77.06375661794982,6549
79.53565087389825,5061
82.0066780618431,5389
84.4768390845968,4943
86.94613484403999,4675
89.41456624112152,6874
91.88213417585825,6588
94.34883954733527,4629
96.81468325370679,3751
99.2796661921941,2843
101.74378925908763,3389
104.20705334974559,4069
106.66945935859462,4330
109.1310081791296,4596
111.59170070391383,6942
114.05153782457865,6864
116.5105204318238,4350
118.96864941541708,4103
121.42592566419489,4780
123.88235006606146,4650
126.3379235079899,4297
128.79264687602085,4054
131.2465210552641,4019
133.69954692989631,3918
136.15172538316415,4338
138.60305729738116,3667
141.05354355393,3393
143.50318503326116,3490
145.95198261489327,3840
148.39993717741368,3518
150.84704959847772,3944
153.29332075480897,4370
155.73875152219944,4589
158.18334277550935,4826
160.62709538866693,4280
163.0700102346691,3803
165.51208818558075,3805
167.953330112535,3696
170.39373688573346,3199
172.8333093744459,3602
175.2720484470101,4021
177.70995497083277,4471
180.14702981238815,4914
182.58327383721917,4370
185.01868790993672,4213
187.45327289422062,3933
189.88702965281777,3506
192.31995904754444,3499
194.75206193928489,3994
197.18333918799135,4297
199.61379165268454,4136
202.04342019145315,3920
204.4722256614548,3834
206.90020891891436,3790
209.32737081912592,3617
211.7537122164515,3465
214.17923396432116,3720
216.6039369152336,4058
219.0278219207553,3886
221.45088983152186,3748
223.8731414972358,3792
226.29457776666914,3675
228.71519948766172,3608
231.1350075071216,3792
233.55400267102482,3818
235.97218582441633,3864
238.38955781140908,3461
240.806119475184,3525
243.2218716579905,3810
245.6368152011462,3660
248.05095094503736,3683
250.46427972911806,3836
252.87680239191036,3696
255.28851977100544,3879
257.69943270306203,4047
260.10954202380753,3472
262.5188485680378,3450
264.92735316961557,3924
267.33505666147425,3955
269.7419598756128,3665
272.14806364310084,3842
274.5533687940747,3580
276.95787615773975,3434
279.361586562369,3465
281.7645008353045,3305
284.1666198029559,3354
286.5679442908013,3461
288.96847512338695,3495
291.3682131243279,3491
293.7671591163071,3493
296.1653139210757,3525
298.562678359453,3518
300.9592532513268,3623
303.3550394156532,3673
305.75003767045655,3422
308.14424883282936,3480
310.53767371893196,3420
312.93031314399377,3243
315.3221679223125,3095
317.71323886725304,3144
320.1035267912496,3139
322.49303250580397,3049
324.881756821487,3032
327.2697005479374,3104
329.65686449386135,3048
332.0432494670347,3144
334.4288562743004,3161
336.81368572157066,3181
339.19773861382487,2946
341.58101575511205,2861
343.96351794854786,2861
346.3452459963173,2858
348.72620069967365,2917
351.1063828589379,3127
353.48579327349967,3212
355.8644327418169,3138
358.24230206141533,2782
360.6194020288899,2752
362.99573343990255,2832
365.3712970891845,2758
367.7460937705348,2702
370.12012427682066,2771
372.493389399978,2753
374.86588993101077,2717
377.23762665999084,2769
379.6086003760588,2769
381.9788118674235,2591
384.34826192136165,2755
386.7169513242188,2647
389.08488086140824,2672
391.4520513174118,2775
393.8184634757795,2857
396.1841181191296,2907
398.54901602914856,2896
400.9131579865916,2854
403.2765447712811,2748
405.63917716210926,2820
408.00105593703483,2865
410.36218187308646,2770
412.7225557463596,2663
415.0821783320191,2561
417.4410504042976,2587
419.79917273649585,2580
422.1565461009834,2597
424.5131712691973,2580
426.869049011643,2648
429.22418009789544,2689
431.578565296596,2411
433.9322053754556,2496
436.28510110125285,2483
438.6372532398352,2355
440.98866255611733,2421
443.33932981408293,2468
445.6892557767842,2500
448.0384412063411,2561
450.38688686394175,2629
452.7345935098431,2737
455.0815619033697,2578
457.42779280291506,2578
459.7732869659403,2765
462.1180451489754,2660
464.4620681076178,2626
466.80535659653424,2647
469.1479113694588,2724
471.48973317919445,2808
473.8308227776122,2775
476.17118091565135,2854
478.51080834331924,2921
480.8497058096914,3013
483.1878740629122,3362
485.5253138501944,3427
487.8620259178176,3537
490.1980110111317,3897
492.53326987455307,4106
494.86780325156724,4243
497.201611884728,4210
499.53469651565683,4217
501.8670578850447,4082
504.1986967326493,3944
506.52961379729754,3854
508.85980981688454,3587
511.18928552837315,3610
513.5180416677952,3442
515.8460789702503,3615
518.1733981699067,4165
520.5,5205
522.8258851928354,5491
525.1510544797857,5108
527.4755085912916,4581
529.7992482568625,4057
532.1222742050759,3346
534.4445871635783,2801
536.766187859083,2539
539.0870770173726,2425
541.4072553632982,2451
543.7267236207783,2422
546.0454825128002,2562
548.363532761419,2425
550.6808750877592,2529
552.9975102120118,2559
555.3134388534377,2452
557.6286617303654,2530
559.9431795601911,2571
562.2569930593802,2465
564.570102943466,2546
566.88250992705,2479
569.1942147238021,2258
571.5052180464602,2360
573.8155206068309,2546
576.1251231157885,2661
578.4340262832759,2514
580.7422308183045,2368
583.0497374289534,2355
585.3565468223703,2369
587.6626597047714,2373
589.9680767814409,2347
592.2727987567309,2289
594.5768263340624,2367
596.8801602159238,2373
599.1828011038731,2308
601.4847496985356,2424
603.7860066996047,2352
606.0865728058427,2286
608.3864487150802,2206
610.6856351242152,2292
612.9841327292149,2305
615.2819422251141,2245
617.5790643060163,2277
619.8754996650935,2119
622.1712489945849,2239
624.466312985799,2201
626.7606923291121,2271
629.0543877139692,2376
631.347399828883,2440
633.6397293614343,2351
635.9313769982732,2407
638.2223434251173,2363
640.5126293267522,2208
642.8022353870326,2247
645.0911622888809,2235
647.3794107142876,2209
649.666981344312,2237
651.9538748590815,2343
654.2400919377915,2361
656.525633258706,2358
658.8104994991568,2444
661.0946913355442,2391
663.3782094433375,2356
665.6610544970729,2353
667.9432271703561,2397
670.22472813586,2345
672.5055580653268,2446
674.7857176295659,2505
677.065207498456,2416
679.3440283409432,2460
681.6221808250425,2378
683.899665617837,2299
686.1764833854772,2394
688.4526347931837,2324
690.7281205052436,2338
693.0029411850135,2501
695.2770974949171,2352
697.5505900964474,2424
699.8234196501651,2391
702.0955868156989,2310
704.3670922517472,2202
706.6379366160747,2311
708.9081205655159,2358
711.1776447559728,2454
713.4465098424155,2406
715.714716478883,2402
717.9822653184822,2579
720.2491570133882,2376
722.5153922148452,2388
724.7809715731639,2356
727.0458957377248,2272
729.3101653569763,2275
731.5737810784346,2302
733.8367435486853,2351
736.0990534133803,2298
738.3607113172418,2394
740.6217179040591,2394
742.8820738166899,2405
745.1417796970607,2413
747.4008361861659,2435
749.6592439240678,2300
751.9170035498973,2457
754.1741157018539,2531
756.4305810172048,2484
758.686400132286,2438
760.9415736825013,2358
763.196102302323,2415
765.4499866252911,2405
767.7032272840152,2563
769.9558249101717,2397
772.207780134506,2382
774.4590935868323,2544
776.7097658960313,2532
778.9597976900541,2544
781.2091895959184,2525
783.457942239711,2321
785.7060562465867,2455
787.9535322407687,2585
790.2003708455488,2456
792.4465726832861,2578
794.6921383754088,2594
796.9370685424128,2535
799.1813638038632,2492
801.4250247783918,2555
803.6680520837006,2391
805.9104463365579,2397
808.1522081528019,2401
810.393338147338,2398
812.6338369341406,2436
814.8737051262517,2402
817.1129433357819,2442
819.35155217391,2474
821.5895322508834,2432
823.8268841760168,2401
826.0636085576946,2398
828.2997060033681,2378
830.535177119558,2374
832.7700225118522,2328
835.0042427849078,2335
837.2378385424493,2405
839.4708103872701,2385
841.7031589212318,2254
843.9348847452643,2356
846.1659884593648,2530
848.3964706626004,2497
850.6263319531054,2558
852.8555729280824,2368
855.0841941838025,2494
857.3121963156052,2450
859.5395799178978,2500
861.7663455841566,2502
863.9924939069251,2575
866.2180254778159,2544
868.4429408875103,2537
870.6672407257561,2514
872.890925581371,2530
875.1139960422404,2506
877.336452695318,2541
879.5582961266261,2536
881.7795269212543,2517
884.0001456633613,2619
886.2201529361741,2604
888.4395493219874,2556
890.6583354021648,2651
892.8765117571375,2533
895.094078966405,2475
897.3110376085365,2563
899.5273882611671,2466
901.7431315010019,2338
903.958267903814,2389
906.1727980444443,2413
908.3867224968019,2435
910.6000418338647,2393
912.8127566276792,2398
915.0248674493587,2649
917.2363748690857,2501
919.4472794561113,2420
921.6575817787543,2469
923.867282404402,2365
926.0763818995099,2327
928.2848808296014,2316
930.4927797592693,2414
932.700079252173,2415
934.9067798710416,2330
937.112882177672,2390
939.3183867329287,2302
941.5232940967453,2289
943.727604828124,2308
945.9313194851336,2313
948.1344386249132,2362
950.3369628036685,2336
952.5388925766747,2304
954.7402284982745,2315
956.9409711218789,2280
959.1411209999676,2252
961.3406786840883,2271
963.5396447248565,2269
965.7380196719573,2199
967.9358040741427,2464
970.1329984792335,2364
972.3296034341188,2231
974.5256194847555,2187
976.72104717617,2161
978.9158870524552,2164
981.1101396567742,2262
983.3038055313566,2219
985.4968852175009,2283
987.6893792555747,2135
989.8812881850124,2207
992.072612544318,2216
994.263352871063,2146
996.453509701887,2215
998.6430835724984,2303
1000.832075017674,2182
1003.0204845712583,2101
1005.208312766164,2074
1007.3955601343728,2101
1009.5822272069338,2098
1011.7683145139652,2146
1013.9538225846525,2062
1016.1387519472505,2027
1018.3231031290818,2055
1020.5068766565371,2035
1022.6900730550753,2207
1024.872692849224,2285
1027.054736562579,2103
1029.2362047178037,1957
1031.4170978366305,1968
1033.5974164398597,1977
1035.7771610473603,1952
1037.9563321780693,1978
1040.1349303499917,1987
1042.3129560802006,1936
1044.490409884838,1895
1046.667292279115,1902
1048.8436037773079,1918
1051.0193448927644,1969
1053.1945161378994,1952
1055.3691180241954,2007
1057.5431510622038,1993
1059.7166157615447,1988
1061.8895126309053,1982
1064.0618421780423,1986
1066.2336049097798,1889
1068.4048013320107,1930
1070.5754319496955,1857
1072.745497266863,1934
1074.9149977866118,1921
1077.0839340111065,1848
1079.2523064415818,1988
1081.4201155783398,1907
1083.587361920751,1832
1085.7540459672537,1817
1087.9201682153553,1968
1090.0857291616308,1860
1092.2507293017238,1817
1094.4151691303464,1792
1096.579049141279,1825
1098.7423698273687,1794
1100.9051316805335,1796
1103.0673351917571,1871
1105.2289808510936,1847
1107.3900691476633,1949
1109.550600569657,1901
1111.710575604332,1806
1113.8699947380146,1866
1116.028858456099,1917
1118.1871672430489,1850
1120.344921582394,1770
1122.5021219567334,1951
1124.6587688477362,1855
1126.8148627361365,1916
1128.9704041017399,1898
1131.1253934234173,1873
1133.2798311791098,1848
1135.4337178458263,1842
1137.5870538996437,1800
1139.7398398157075,1792
1141.8920760682313,1810
1144.0437631304972,1896
1146.1949014748543,1856
1148.3454915727225,1882
1150.4955338945874,1865
1152.6450289100044,1844
1154.7939770875969,1857
1156.9423788950558,1869
1159.0902347991405,1848
1161.2375452656802,1840
1163.3843107595703,1860
1165.530531744775,1872
1167.6762086843282,1814
1169.8213420403304,1780
1171.9659322739503,1841
1174.1099798454266,1796
1176.2534852140639,1788
1178.3964488382376,1803
1180.538871175389,1758
1182.680752682029,1827
1184.8220938137365,1839
1186.9628950251595,1757
1189.103156770012,1797
1191.2428795010783,1768
1193.3820636702108,1794
1195.5207097283287,1808
1197.6588181254215,1786
1199.7963893105457,1782
1201.9334237318253,1740
1204.0699218364548,1834
1206.2058840706954,1815
1208.3413108798773,1773
1210.476202708397,1801
1212.6105599997222,1754
1214.7443831963874,1850
1216.877672739995,1776
1219.0104290712165,1778
1221.1426526297905,1922
1223.2743438545253,1863
1225.4055031832972,1808
1227.5361310530493,1841
1229.6662278997946,1811
1231.7957941586142,1812
1233.9248302636565,1773
1236.053336648139,1796
1238.1813137443464,1838
1240.3087619836338,1865
1242.4356817964222,1798
1244.5620736122019,1856
1246.6879378595318,1830
1248.813274966039,1775
1250.938085358418,1700
1253.062369462432,1810
1255.186127702913,1828
1257.3093605037611,1808
1259.4320682879434,1858
1261.554251477498,1861
1263.6759104935277,1812
1265.797045756206,1797
1267.9176576847744,1847
1270.0377466975428,1833
1272.1573132118879,1897
1274.2763576442567,1908
1276.394880410162,1873
1278.5128819241877,1922
1280.6303625999835,1865
1282.7473228502695,1832
1284.8637630868325,1770
1286.9796837205272,1899
1289.0950851612783,1837
1291.209967818078,1897
1293.3243320989864,1971
1295.4381784111324,1820
1297.551507160712,1838
1299.6643187529912,1900
1301.776613592303,1904
1303.888392082049,1903
1305.9996546246998,1878
1308.1104016217923,1881
1310.220633473934,1889
1312.3303505807999,1933
1314.4395533411316,1967
1316.5482421527418,1929
1318.6564174125092,1877
1320.7640795163816,1828
1322.8712288593752,1947
1324.9778658355744,1878
1327.0839908381313,1961
1329.1896042592675,1885
1331.2947064902714,1945
1333.3992979215009,1931
1335.503378942381,1891
1337.6069499414057,1904
1339.7100113061383,1853
1341.8125634232074,1858
1343.9146066783128,1889
1346.0161414562212,1918
1348.1171681407677,1843
1350.2176871148563,1950
1352.3176987604575,1899
1354.4172034586127,1918
1356.5162015894289,1919
1358.6146935320835,1940
1360.7126796648213,1886
1362.8101603649548,1875
1364.9071360088656,1831
1367.0036069720036,1877
1369.099573628886,1912
1371.195036353099,1866
1373.2899955172975,1862
1375.3844514932039,1827
1377.4784046516088,1788
1379.5718553623715,1873
1381.6648039944193,1981
1383.7572509157485,1829
1385.8491964934224,1968
1387.9406410935735,1900
1390.0315850814022,1988
1392.122028821177,1943
1394.2119726762357,1957
1396.3014170089828,1936
1398.3903621808918,1881
1400.4788085525051,1929
1402.566756483432,1822
1404.6542063323514,1922
1406.7411584570095,1960
1408.8276132142219,2004
1410.9135709598704,1925
1412.9990320489078,1959
1415.083996835353,1958
1417.1684656722937,1846
1419.2524389118867,1887
1421.3359169053565,1867
1423.4189000029946,1902
1425.5013885541634,1923
1427.5833829072913,1821
1429.664883409876,1862
1431.7458904084833,1876
1433.8264042487467,1924
1435.9064252753697,1872
1437.9859538321216,1927
1440.0649902618416,1857
1442.1435349064373,1869
1444.2215881068837,1900
1446.2991502032237,1851
1448.37622153457,1924
1450.452802439103,1931
1452.5288932540698,1935
1454.604494315788,1956
1456.6796059596427,1914
1458.7542285200866,1967
1460.8283623306415,1813
1462.902007723897,1843
1464.9751650315106,1877
1467.0478345842089,1888
1469.1200167117868,1900
1471.1917117431062,1948
1473.2629200060992,1920
1475.333641827764,1865
1477.4038775341692,1850
1479.4736274504498,1857
1481.5428919008104,1875
1483.6116712085222,1963
1485.6799656959279,1952
1487.7477756844346,1922
1489.8151014945201,1933
1491.88194344573,2000
1493.9483018566775,1886
1496.0141770450455,1890
1498.0795693275822,1880
1500.1444790201076,1938
1502.2089064375086,1873
1504.2728518937402,1909
1506.3363157018239,1973
1508.3992981738534,1894
1510.4617996209872,1904
1512.5238203534536,1914
1514.5853606805495,1983
1516.6464209106384,1905
1518.7070013511543,1884
1520.7671023085973,1930
1522.8267240885375,1916
1524.885866995612,1992
1526.9445313335268,1938
1529.002717405056,1915
1531.0604255120425,2002
1533.1176559553965,1998
1535.1744090350971,1954
1537.2306850501914,2057
1539.2864842987956,1985
1541.3418070780922,2019
1543.396653684334,1992
1545.4510244128405,2034
1547.5049195580013,2056
1549.5583394132727,2049
1551.61128427118,1989
1553.6637544233158,1915
1555.7157501603415,2014
1557.7672717719888,2019
1559.8183195470538,2056
1561.8688937734037,2002
1563.9189947379737,1995
1565.9686227267657,2025
1568.0177780248514,2045
1570.0664609163696,2059
1572.1146716845292,2035
1574.162410611605,2056
1576.2096779789413,1994
1578.2564740669518,1993
1580.3027991551157,1986
1582.3486535219831,1950
1584.3940374451709,1978
1586.4389512013645,1912
1588.4833950663178,1928
1590.5273693148533,1949
1592.5708742208603,1959
1594.6139100572982,1972
1596.6564770961936,1980
1598.698575608642,1988
1600.7402058648063,1896
1602.7813681339185,1964
1604.8220626842776,1929
1606.8622897832533,1912
1608.9020496972812,1988
1610.9413426918663,1934
1612.9801690315808,2030
1615.018528980066,1938
1617.056422800033,1952
1619.0938507532578,1941
1621.1308131005876,1959
1623.1673101019355,1933
1625.2033420162848,1907
1627.2389091016862,2011
1629.274011615259,1917
1631.3086498131897,1989
1633.3428239507352,1977
1635.376534282219,1937
1637.4097810610324,1900
1639.4425645396364,1982
1641.4748849695593,1881
1643.5067426013989,1960
1645.53813768482,1958
1647.5690704685549,1954
1649.5995412004067,2024
1651.6295501272452,1894
1653.6590974950086,1943
1655.6881835487025,1933
1657.7168085324029,1899
1659.7449726892523,1977
1661.772676261462,1965
1663.7999194903114,1907
1665.8267026161484,1914
1667.8530258783894,1902
1669.8788895155185,1939
1671.9042937650888,1858
1673.9292388637205,1873
1675.953725047103,1839
1677.977752549994,1957
1680.0013216062184,1938
1682.0244324486712,1938
1684.0470853093134,1917
1686.0692804191767,1884
1688.0910180083588,1847
1690.1122983060268,1893
1692.1331215404175,1913
1694.1534879388319,1904
1696.173397727644,1896
1698.1928511322926,1908
1700.211848377286,2001
1702.2303896862018,2053
1704.248475281684,2048
1706.2661053854458,2015
1708.2832802182684,1949
1710.300000000002,1998
1712.3162649495644,1977
1714.3320752849409,1903
1716.3474312231865,1990
1718.362332980424,1905
1720.376780771845,1943
1722.3907748117072,1933
1724.4043153133393,1971
1726.4174024891367,1915
1728.4300365505628,1932
1730.442217708151,1943
1732.4539461715008,1991
1734.465222149282,1965
1736.4760458492306,1949
1738.4864174781524,1961
1740.496337241921,1886
1742.5058053454786,1936
1744.5148219928346,1945
1746.523387387068,1979
1748.531501730325,1946
1750.5391652238209,1963
1752.5463780678388,1966
1754.55314046173,1943
1756.5594526039135,1995
1758.565314691879,1970
1760.5707269221812,2002
1762.5756894904443,1916
1764.580202591363,1984
1766.5842664186966,2025
1768.5878811652751,1986
1770.591047022996,1952
1772.593764182825,1978
1774.5960328347965,1972
1776.5978531680116,1922
1778.5992253706427,1956
1780.6001496299273,1962
1782.6006261321731,1969
1784.6006550627553,2003
1786.6002366061175,1990
1788.5993709457725,1962
1790.5980582642992,1946
1792.5962987433468,2023
1794.5940925636314,2045
1796.5914399049389,2018
1798.5883409461221,1917
1800.584795865102,1932
1802.580804838869,1978
1804.5763680434807,1962
1806.571485654064,2013
1808.566157844813,1965
1810.5603847889902,2055
1812.5541666589274,1924
1814.5475036260236,1981
1816.5403958607467,1963
1818.5328435326323,2066
1820.5248468102845,1962
1822.5164058613755,1942
1824.5075208526468,1969
1826.4981919499064,2021
1828.488419318032,1949
1830.4782031209684,2008
1832.4675435217305,1943
1834.4564406823993,2053
1836.4448947641258,1994
1838.432905927128,2031
1840.4204743306927,1990
1842.4076001331746,1992
1844.3942834919985,2043
1846.380524563654,1989
1848.366323503702,1925
1850.351680466771,1988
1852.3365956065563,1923
1854.3210690758228,2000
1856.3051010264044,1990
1858.2886916092007,1980
1860.271840974182,2011
1862.2545492703862,2014
1864.2368166459191,2075
1866.2186432479543,2025
1868.2000292227349,1995
1870.1809747155717,2011
1872.1614798708429,2040
1874.1415448319963,2035
1876.1211697415474,2069
1878.1003547410805,2061
1880.0790999712472,2013
1882.0574055717675,1973
1884.0352716814305,1990
1886.0126984380927,2024
1887.989685978679,2035
1889.9662344391836,2059
1891.9423439546672,2023
1893.9180146592607,2016
1895.893246686161,2016
1897.868040167636,2025
1899.8423952350195,2056
1901.8163120187137,2007
1903.7897906481917,2039
1905.7628312519923,2014
1907.7354339577219,2025
1909.7075988920578,2077
1911.6793261807447,2097
1913.6506159485943,2062
1915.6214683194871,2038
1917.5918834163726,2056
1919.5618613612687,1893
1921.5314022752605,2038
1923.5005062785012,2002
1925.4691734902144,2044
1927.4374040286893,2011
1929.4051980112845,2063
1931.3725555544274,2096
1933.3394767736136,2091
1935.305961783406,2016
1937.2720106974361,1999
1939.237623628404,2069
1941.2028006880778,2065
1943.167541987295,2057
1945.1318476359588,2018
1947.0957177430432,2100
1949.0591524165898,2091
1951.0221517637078,1987
1952.984715890574,2073
1954.9468449024357,2073
1956.9085389036072,2058
1958.8697979974704,2104
1960.8306222864767,2111
1962.7910118721456,2071
1964.7509668550638,2021
1966.7104873348871,2038
1968.6695734103387,2036
1970.6282251792127,1988
1972.586442738368,2089
1974.5442261837343,1967
1976.501575610307,2051
1978.4584911121533,2122
1980.4149727824056,2053
1982.3710207132658,2057
1984.326634996004,1981
1986.2818157209585,2069
1988.2365629775359,2065
1990.1908768542116,2020
1992.144757438527,2016
1994.0982048170954,2104
1996.0512190755953,2094
1998.0038002987749,2109
1999.95594857045,2125
2001.9076639735054,2094
2003.8589465898945,2030
2005.8097965006368,2050
2007.760213785822,1993
2009.7101985246077,2016
2011.6597507952201,2049
2013.6088706749524,1968
2015.5575582401675,2069
2017.5058135662953,2053
2019.4536367278351,2023
2021.4010277983534,2056
2023.347986850486,2032
2025.2945139559365,2070
2027.2406091854768,2012
2029.1862726089462,2101
2031.1315042952538,2109
2033.0763043123766,2132
2035.0206727273585,2106
2036.964609606313,1989
2038.908115014422,2046
2040.8511890159348,2094
2042.7938316741693,2090
2044.7360430515123,2068
2046.677823209417,2135
2048.6191722084077,2075
2050.5600901080743,2104
2052.5005769670765,2061
2054.440632843142,2082
2056.380257793066,2007
2058.3194518727128,2011
2060.258215137015,1982
2062.1965476399732,2040
2064.1344494346554,2142
2066.0719205732,2142
2068.008961106812,2073
2069.945571085764,2062
2071.8817505593997,2126
2073.817499576128,2080
2075.7528181834273,2107
2077.6877064278447,2091
2079.622164354995,2041
2081.556192009562,2071
2083.4897894352966,2146
2085.4229566750187,2129
2087.355693770616,2073
2089.2880007630456,2026
2091.219877692331,2130
2093.151324597566,2068
2095.0823415169107,2056
2097.012928487595,2084
2098.9430855459173,2072
2100.872812727242,2020
2102.8021100660035,2043
2104.730977595705,2137
2106.659415348917,2101
2108.5874233572777,2011
2110.5150016514945,2046
2112.442150261343,2114
2114.3688692156675,2097
2116.2951585423793,2086
2118.2210182684585,2136
2120.146448419954,2060
2122.0714490219825,2135
2123.9960200987293,2132
2125.920161673447,2152
2127.843873768458,2093
2129.767156405151,2177
2131.690009603985,2086
2133.612433384486,2113
2135.534427765249,2151
2137.4559927639366,2108
2139.37712839728,2128
2141.2978346810783,2132
2143.2181116301995,2051
2145.1379592585795,2148
2147.057377579222,2032
2148.9763666042,2128
2150.894926344655,2094
2152.813056810794,2101
2154.730758011896,2030
2156.648029956306,2051
2158.564872651437,2069
2160.481286103772,2129
2162.397270318861,2071
2164.312825301323,2055
2166.227951054844,2082
2168.14264758218,2029
2170.056914885153,2088
2171.9707529646566,2044
2173.8841618206484,2053
2175.7971414521585,2057
2177.7096918572825,2048
2179.621813033186,2132
2181.5335049761,2110
2183.444767681327,2098
2185.355601143236,2154
2187.2660053552654,2053
2189.1759803099208,2218
2191.085525998777,2089
2192.994642412475,2078
2194.903329540727,2107
2196.811587372312,2204
2198.7194158950765,2124
2200.626815095937,2073
2202.5337849608763,2141
2204.440325474948,2129
2206.346436622271,2109
2208.2521183860345,2143
2210.157370748496,2159
2212.0621936909793,2071
2213.966587193879,2093
2215.8705512366573,2095
2217.774085797842,2098
2219.677190855033,2114
2221.579866384897,2128
2223.4821123631677,2058
2225.3839287646483,2108
2227.2853155632106,2159
2229.186272731794,2127
2231.0868002424063,2112
2232.986898066123,2157
2234.8865661730892,2134
2236.785804532517,2212
2238.6846131126877,2105
2240.5829918809495,2125
2242.4809408037213,2061
2244.3784598464877,2114
2246.275548973803,2102
2248.172208149288,2121
2250.0684373356357,2114
2251.964236494603,2088
2253.859605587017,2106
2255.7545445727733,2136
2257.6490534108357,2168
2259.5431320592356,2194
2261.436780475073,2203
2263.329998614516,2164
2265.222786432802,2089
2267.1151438842344,2085
2269.0070709221877,2115
2270.8985674991022,2106
2272.789633566488,2096
2274.6802690749237,2098
2276.570473974053,2104
2278.4602482125933,2107
2280.3495917383257,2092
2282.238504498101,2103
2284.1269864378387,2106
2286.0150375025264,2126
2287.9026576362203,2185
2289.789846782043,2155
2291.6766048821873,2124
2293.5629318779147,2123
2295.4488277095534,2112
2297.3342923164996,2177
2299.2193256372193,2158
2301.1039276092465,2224
2302.9880981691817,2089
2304.871837252696,2132
2306.755144794528,2060
2308.6380207284838,2141
2310.5204649874386,2236
2312.4024775033354,2129
2314.2840582071854,2184
2316.165207029068,2155
2318.0459238981325,2092
2319.926208742594,2189
2321.8060614897363,2205
2323.6854820659137,2142
2325.5644703965463,2175
2327.443026406124,2156
2329.321150018203,2105
2331.1988411554107,2217
2333.0760997394395,2089
2334.952925691053,2162
2336.829318930082,2075
2338.705279375424,2089
2340.5808069450477,2162
2342.4559015559867,2095
2344.3305631243456,2159
2346.204791565297,2099
2348.07858679308,2141
2349.9519487210027,2201
2351.824877261443,2207
2353.6973723258448,2216
2355.5694338247226,2159
2357.4410616676564,2133
2359.312255763297,2133
2361.1830160193617,2122
2363.053342342637,2171
2364.9232346389776,2115
2366.792692813306,2198
2368.6617167696145,2157
2370.5303064109603,2151
2372.3984616394723,2245
2374.2661823563467,2189
2376.1334684618464,2160
2378.0003198553054,2238
2379.8667364351227,2230
2381.7327180987672,2188
2383.5982647427777,2151
2385.4633762627586,2061
2387.3280525533837,2160
2389.192293508395,2207
2391.0560990206027,2143
2392.919468981885,2185
2394.782403283189,2231
2396.644901814531,2202
2398.5069644649916,2200
2400.3685911227235,2192
2402.2297816749474,2235
2404.0905360079505,2174
2405.950854007089,2201
2407.8107355567886,2178
2409.670180540541,2230
2411.529188840908,2217
2413.387760339518,2125
2415.2458949170705,2160
2417.1035924533294,2146
2418.96085282713,2125
2420.8176759163744,2153
2422.6740615980334,2224
2424.5300097481468,2169
2426.38552024182,2223
2428.24059295323,2189
2430.0952277556207,2219
2431.949424521303,2167
2433.803183121658,2245
2435.6565034271343,2166
2437.5093853072485,2204
2439.361828630585,2159
2441.213833264798,2197
2443.0653990766095,2231
2444.916525931808,2178
2446.7672136952524,2235
2448.6174622308695,2184
2450.4672714016538,2245
2452.3166410696676,2135
2454.165571096043,2298
2456.0140613409794,2177
2457.8621116637432,2196
2459.709721922672,2211
2461.556891975169,2162
2463.403621677707,2230
2465.249910885827,2169
2467.0957594541383,2211
2468.9411672363167,2161
2470.78613408511,2178
2472.630659852331,2184
2474.4747443888614,2201
2476.3183875446516,2170
2478.161589168721,2176
2480.0043491091556,2194
2481.8466672131112,2180
2483.6885433268108,2194
2485.529977295547,2221
2487.370968963678,2246
2489.2115181746335,2230
2491.0516247709097,2204
2492.891288594071,2140
2494.7305094847497,2187
2496.569287282649,2159
2498.407621826537,2238
2500.2455129542523,2170
2502.0829605027,2161
2503.919964307855,2244
2505.7565242047594,2124
2507.5926400275252,2189
2509.42831160933,2234
2511.263538782423,2132
2513.0983213781174,2164
2514.9326592267994,2268
2516.76655215792,2170
2518.5999999999995,2146
2520.4330025806275,2141
2522.2655597264607,2239
2524.0976712632237,2148
2525.9293370157097,2134
2527.760556807782,2200
2529.591330462369,2220
2531.4216578014702,2144
2533.2515386461523,2207
2535.080972816548,2241
2536.9099601318626,2202
2538.738500410366,2181
2540.5665934693993,2181
2542.3942391253695,2205
2544.221437193752,2142
2546.0481874890925,2272
2547.874489825003,2214
2549.700344014164,2212
2551.5257498683245,2155
2553.350707198304,2263
2555.175215813986,2190
2556.9992755243256,2207
2558.8228861373454,2155
2560.646047460134,2232
2562.468759298852,2270
2564.2910214587255,2201
2566.1128337440496,2224
2567.93419595819,2220
2569.7551079035757,2234
2571.5755693817077,2098
2573.395580193155,2192
2575.2151401375536,2146
2577.034249013609,2173
2578.8529066190936,2256
2580.6711127508493,2253
2582.488867204785,2284
2584.3061697758794,2210
2586.1230202581787,2188
2587.939418444797,2235
2589.7553641279183,2238
2591.570857098791,2216
2593.385897147736,2229
2595.200484064141,2262
2597.014617636461,2174
2598.8282976522214,2225
2600.6415238980126,2229
2602.454296159496,2242
2604.266614221401,2226
2606.0784778675243,2273
2607.8898868807305,2185
2609.700841042955,2177
2611.5113401351973,2208
2613.32138393753,2179
2615.13097222909,2223
2616.940104788084,2266
2618.748781391788,2240
2620.557001816543,2243
2622.364765837763,2191
2624.1720732299264,2182
2625.9789237665814,2261
2627.7853172203445,2240
2629.5912533629,2262
2631.396731965001,2210
2633.2017527964676,2259
2635.0063156261904,2155
2636.810420222126,2206
2638.614066351301,2276
2640.417253779809,2207
2642.219982272813,2317
2644.022251594542,2299
2645.8240615082973,2249
2647.625411776444,2186
2649.4263021604183,2248
2651.226732420724,2232
2653.026702316933,2172
2654.8262116076858,2211
2656.625260050691,2272
2658.423847402724,2227
2660.221973419631,2264
2662.0196378563246,2245
2663.8168404667867,2294
2665.613581004068,2226
2667.4098592202854,2277
2669.2056748666246,2227
2671.0010276933417,2228
2672.7959174497596,2208
2674.5903438842674,2291
2676.384306744327,2249
2678.177805776465,2182
2679.9708407262765,2290
2681.7634113384274,2210
2683.555517356648,2226
2685.3471585237403,2204
2687.138334581574,2214
2688.9290452710843,2217
2690.7192903322784,2264
2692.50906950423,2195
2694.2983825250794,2302
2696.087229132039,2296
2697.875609061386,2222
2699.6635220484677,2342
2701.450967827699,2244
2703.237946132564,2293
2705.0244566956126,2275
2706.8104992484664,2255
2708.596073521813,2226
2710.381179245408,2289
2712.1658161480777,2301
2713.949983957714,2286
2715.7336824012773,2183
2717.516911204798,2175
2719.299670093374,2286
2721.0819587911706,2245
2722.8637770214223,2256
2724.6451245064322,2228
2726.426000967571,2308
2728.2064061252763,2248
2729.986339699057,2258
2731.765801407488,2215
2733.5447909682134,2186
2735.323308097945,2266
2737.101352512463,2196
2738.8789239266166,2259
2740.6560220543215,2229
2742.4326466085645,2263
2744.2087973013977,2293
2745.984473843944,2269
2747.7596759463922,2269
2749.534403318001,2189
2751.308655667096,2182
2753.0824327010737,2198
2754.8557341263954,2284
2756.628559648593,2171
2758.4009089722667,2242
2760.172781801083,2196
2761.944177837779,2269
2763.715096784159,2227
2765.4855383410945,2162
2767.2555022085267,2211
2769.024988085465,2239
2770.793995669988,2333
2772.5625246592385,2233
2774.3305747494323,2181
2776.098145635852,2257
2777.865237012847,2261
2779.6318485738357,2220
2781.397980011306,2242
2783.163631016813,2244
2784.928801280979,2219
2786.6934904934974,2269
2788.457698343127,2258
2790.221424517697,2194
2791.9846687041027,2223
2793.74743058831,2221
2795.5097098553515,2306
2797.2715061893286,2222
2799.0328192734105,2258
2800.793648789836,2284
2802.553994419911,2217
2804.3138558440087,2300
2806.073232741573,2302
2807.8321247911135,2340
2809.590531670211,2326
2811.3484530555115,2348
2813.105888622732,2306
2814.8628380466557,2253
2816.6193010011348,2313
2818.3752771590903,2247
2820.13076619251,2320
2821.885767772452,2266
2823.640281569041,2288
2825.3943072514703,2311
2827.147844488002,2291
2828.9008929459665,2228
2830.6534522917614,2283
2832.405522190854,2346
2834.1571023077786,2237
2835.9081923061394,2220
2837.658791848606,2338
2839.40890059692,2265
2841.1585182118874,2301
2842.907644353386,2277
2844.6562786803593,2330
2846.4044208508203,2317
2848.15207052185,2276
2849.899227349598,2304
2851.6458909892804,2274
2853.392061095185,2298
2855.137737320664,2324
2856.882919318142,2294
2858.6276067391063,2332
2860.371799234118,2364
2862.1154964528037,2249
2863.8586980438586,2261
2865.6014036550464,2238
2867.343612933199,2268
2869.0853255242173,2270
2870.826541073068,2335
2872.567259223789,2354
2874.307479619485,2272
2876.0472019023287,2282
2877.7864257135625,2298
2879.525150693495,2331
2881.263376481505,2347
2883.0011027160385,2292
2884.73832903461,2352
2886.4750550738027,2359
2888.2112804692665,2266
2889.9470048557223,2403
2891.682227866956,2325
2893.416949135825,2305
2895.151168294252,2359
2896.88488497323,2253
2898.6180988028204,2269
2900.3508094121503,2306
2902.083016429419,2304
2903.81471948189,2286
2905.5459181958972,2341
2907.276612196844,2355
2909.0068011091994,2282
2910.736484556502,2360
2912.465662161359,2301
2914.194333545445,2302
2915.922498329504,2313
2917.650156133346,2332
2919.377306575852,2304
2921.103949274969,2282
2922.830083847715,2286
2924.555709910173,2282
2926.2808270774967,2326
2928.005434963907,2213
2929.7295331826936,2372
2931.4531213462133,2273
2933.1761990658924,2328
2934.8987659522254,2340
2936.6208216147747,2389
2938.3423656621694,2282
2940.0633977021116,2416
2941.783917341366,2332
2943.503924185768,2345
2945.223417840223,2348
2946.9423979087023,2328
2948.6608639942456,2342
2950.378815698962,2350
2952.096252624029,2355
2953.81317436969,2346
2955.529580535259,2305
2957.2454707191177,2301
2958.9608445187164,2355
2960.6757015305734,2306
2962.3900413502733,2340
2964.103863572472,2301
2965.817167790894,2288
2967.529953598327,2359
2969.2422205866337,2282
2970.953968346739,2358
2972.6651964686407,2315
2974.3759045414035,2356
2976.0860921531585,2343
2977.7957588911067,2253
2979.504904341517,2334
2981.2135280897273,2238
2982.9216297201433,2340
2984.629208816238,2398
2986.336264960554,2351
2988.0427977347017,2393
2989.7488067193594,2314
2991.454291494274,2427
2993.1592516382607,2332
2994.8636867292034,2373
2996.567596344053,2414
2998.2709800588295,2368
2999.973837448621,2359
3001.6761680875857,2363
3003.377971548946,2304
3005.0792474049954,2265
3006.7799952270957,2334
3008.480214585676,2330
3010.1799050502345,2289
3011.8790661893368,2358
3013.5776975706176,2281
3015.2757987607793,2259
3016.973369325592,2292
3018.6704088298966,2267
3020.366916837598,2347
3022.0628929116747,2285
3023.7583366141675,2276
3025.4532475061915,2257
3027.147625147925,2331
3028.841469098617,2281
3030.534778916585,2345
3032.2275541592144,2367
3033.9197943829577,2314
3035.611499143338,2307
3037.302667994943,2309
3038.9933004914333,2358
3040.683396185535,2325
3042.372954629042,2248
3044.061975372817,2343
3045.7504579667934,2298
3047.4384019599684,2319
3049.1258069004116,2315
3050.812672335258,2355
3052.4989978107124,2342
3054.184782872047,2369
3055.870027063603,2329
3057.554729928791,2318
3059.238891010086,2412
3060.9225098490347,2367
3062.6055859862518,2403
3064.2881189614177,2269
3065.970108313285,2248
3067.651553579671,2302
3069.3324542974633,2327
3071.012810002616,2335
3072.6926202301543,2312
3074.3718845141702,2345
3076.050602387822,2303
3077.728773383339,2345
3079.406397032018,2325
3081.083472864223,2292
3082.7600004093874,2393
3084.4359791960137,2398
3086.11140875167,2353
3087.7862886029952,2331
3089.4606182756943,2297
3091.134397294544,2362
3092.807625183385,2302
3094.4803014651284,2288
3096.152425661755,2326
3097.8239972943097,2341
3099.49501588291,2329
3101.165480946741,2305
3102.8353920040518,2258
3104.504748572165,2279
3106.1735501674693,2337
3107.8417963054226,2361
3109.5094865005485,2285
3111.176620266441,2407
3112.8431971157625,2361
3114.5092165602427,2327
3116.1746781106813,2339
3117.839581276943,2293
3119.503925567965,2326
3121.167710491747,2358
3122.830935555364,2297
3124.493600264954,2434
3126.1557041257247,2406
3127.817246641952,2418
3129.478227316982,2413
3131.1386456532273,2346
3132.798501152168,2318
3134.4577933143537,2329
3136.116521639402,2396
3137.7746856259982,2338
3139.4322847718977,2414
3141.0893185739224,2398
3142.745786527962,2384
3144.4016881289754,2368
3146.0570228709903,2381
3147.711790247102,2311
3149.3659897494754,2279
3151.0196208693396,2444
3152.6726830969974,2370
3154.3251759218165,2338
3155.9770988322334,2391
3157.6284513157534,2344
3159.2792328589485,2391
3160.929442947461,2392
3162.579081066002,2335
3164.2281466983477,2363
3165.8766393273454,2372
3167.5245584349086,2364
3169.1719035020224,2334
3170.818674008735,2389
3172.4648694341677,2404
3174.110489256508,2390
3175.7555329530105,2378
3177.4000000000005,2358
3179.0438898728707,2416
3180.6872020460805,2332
3182.32993599316,2394
3183.972091186706,2379
3185.613667098384,2386
3187.254663198927,2416
3188.8950789581386,2355
3190.5349138448873,2416
3192.1741673271126,2409
3193.8128388718224,2390
3195.4509279450886,2345
3197.0884340120574,2423
3198.725356536939,2416
3200.361694983014,2401
3201.997448812629,2387
3203.632617487203,2348
3205.2672004672195,2341
3206.901197212229,2389
3208.5346071808563,2428
3210.167429830789,2400
3211.799664618785,2329
3213.4313110006706,2362
3215.0623684313387,2288
3216.692836364753,2293
3218.3227142539445,2429
3219.9520015510125,2355
3221.5806977071215,2284
3223.2088021725103,2287
3224.8363143964816,2346
3226.4632338274077,2281
3228.089559912728,2366
3229.715292098951,2340
3231.3404298316545,2265
3232.9649725554846,2323
3234.5889197141523,2441
3236.2122707504395,2386
3237.8350251061984,2361
3239.457182222345,2382
3241.0787415388677,2382
3242.6997024948187,2397
3244.3200645283223,2330
3245.9398270765696,2469
3247.558989575821,2395
3249.177551461403,2425
3250.7955121677123,2373
3252.412871128213,2343
3254.029627775437,2341
3255.6457815409867,2349
3257.2613318555286,2391
3258.876278148802,2319
3260.490619849613,2370
3262.1043563858348,2340
3263.717487184408,2334
3265.3300116713453,2317
3266.941929271725,2346
3268.5532394096917,2345
3270.1639415084646,2345
3271.7740349903233,2371
3273.383519276621,2336
3274.9923937877775,2354
3276.6006579432833,2377
3278.2083111616903,2292
3279.815352860627,2421
3281.421782456786,2367
3283.027599365927,2446
3284.632803002881,2356
3286.237392781545,2430
3287.841368114885,2397
3289.4447284149373,2344
3291.047473092801,2342
3292.649601558651,2293
3294.2511132217223,2395
3295.8520074903254,2349
3297.452283771835,2307
3299.051941472695,2388
3300.650979998417,2379
3302.2493987535827,2365
3303.8471971418403,2484
3305.4443745659064,2499
3307.0409304275654,2430
3308.636864127674,2347
3310.2321750661513,2421
3311.8268626419876,2404
3313.420926253242,2361
3315.01436529704,2388
3316.6071791695776,2348
3318.1993672661183,2363
3319.7909289809913,2304
3321.3818637075983,2334
3322.972170838406,2363
3324.561849764951,2489
3326.150899877838,2352
3327.7393205667386,2350
3329.3271112203956,2375
3330.9142712266166,2414
3332.5007999722793,2419
3334.08669684333,2409
3335.6719612247834,2414
3337.2565925007193,2425
3338.840590054291,2472
3340.4239532677157,2467
3342.006681522281,2405
3343.5887741983406,2352
3345.1702306753214,2428
3346.7510503317126,2472
3348.3312325450743,2342
3349.910776692037,2375
3351.4896821482953,2447
3353.0679482886153,2439
3354.645574486829,2416
3356.2225601158398,2462
3357.798904547615,2346
