CollectionTime,7/9/2024 11:35:44 AM
ExposureUsed,3
CalibratedSpectrum
-962.7078968117929,577
-959.9714848408522,581
-957.2358232597828,579
-954.5009119013725,563
-951.7667505983302,596
-949.0333391832855,594
-946.3006774887896,587
-943.5687653473143,588
-940.837602591253,564
-938.1071890529199,582
-935.3775245645503,569
-932.6486089583007,606
-929.9204420662485,637
-927.1930237203925,620
-924.4663537526524,610
-921.7404319948689,604
-919.0152582788041,601
-916.2908324361409,649
-913.5671542984834,599
-910.8442236973568,585
-908.1220404642074,615
-905.4006044304027,611
-902.679915427231,614
-899.959973285902,613
-897.2407778375464,589
-894.5223289132158,592
-891.8046263438832,624
-889.0876699604426,596
-886.3714595937089,575
-883.6559950744183,551
-880.9412762332282,575
-878.2273029007168,597
-875.5140749073835,602
-872.8015920836489,571
-870.0898542598545,576
-867.3788612662631,600
-864.6686129330585,582
-861.9591090903457,569
-859.2503495681506,556
-856.5423341964203,566
-853.8350628050229,593
-851.1285352237478,575
-848.4227512823054,572
-845.7177108103272,552
-843.0134136373656,582
-840.3098595928943,569
-837.6070485063082,631
-834.9049802069229,617
-832.2036545239757,579
-829.5030712866244,574
-826.8032303239481,609
-824.1041314649472,618
-821.4057745385428,588
-818.7081593735775,586
-816.0112857988148,596
-813.3151536429393,587
-810.6197627345566,573
-807.9251129021936,580
-805.2312039742981,636
-802.5380357792392,616
-799.8456081453069,563
-797.1539209007124,586
-794.462973873588,566
-791.772766891987,604
-789.083299783884,593
-786.3945723771743,624
-783.7065844996748,598
-781.0193359791231,596
-778.3328266431781,583
-775.6470563194197,625
-772.9620248353489,600
-770.2777320183878,583
-767.5941776958798,588
-764.9113616950891,602
-762.2292838432011,603
-759.5479439673222,584
-756.8673418944801,615
-754.1874774516235,600
-751.5083504656222,622
-748.8299607632671,626
-746.15230817127,604
-743.475392516264,596
-740.7992136248035,607
-738.1237713233636,636
-735.4490654383407,628
-732.7750957960521,613
-730.1018622227365,639
-727.4293645445534,627
-724.7576025875837,609
-722.0865761778291,610
-719.4162851412126,658
-716.7467293035781,651
-714.0779084906909,647
-711.409822528237,663
-708.7424712418238,695
-706.0758544569796,657
-703.4099719991541,646
-700.7448236937178,691
-698.0804093659622,703
-695.4167288411002,647
-692.7537819442656,642
-690.0915685005134,662
-687.4300883348199,685
-684.7693412720819,669
-682.1093271371178,671
-679.4500457546669,679
-676.7914969493897,674
-674.1336805458676,653
-671.4765963686034,707
-668.8202442420206,680
-666.1646239904642,688
-663.5097354382001,668
-660.8555784094151,674
-658.2021527282176,690
-655.5494582186366,696
-652.8974947046223,692
-650.2462620100463,680
-647.5957599587009,715
-644.9459883742998,724
-642.2969470804776,732
-639.6486359007902,702
-637.0010546587141,735
-634.3542031776476,748
-631.7080812809096,694
-629.0626887917401,700
-626.4180255333008,710
-623.7740913286734,702
-621.1308860008619,698
-618.4884093727904,705
-615.8466612673046,718
-613.2056415071715,717
-610.5653499150785,694
-607.9257863136347,765
-605.28695052537,723
-602.6488423727357,689
-600.0114616781036,699
-597.3748082637674,715
-594.7388819519412,715
-592.1036825647604,736
-589.4692099242818,796
-586.8354638524829,735
-584.2024441712624,699
-581.5701507024403,744
-578.9385832677575,722
-576.3077416888759,750
-573.6776257873787,750
-571.0482353847704,692
-568.4195703024757,736
-565.7916303618415,750
-563.164415384135,713
-560.5379251905453,691
-557.9121596021815,708
-555.2871184400748,717
-552.6628015251767,760
-550.0392086783606,761
-547.4163397204204,750
-544.794194472071,759
-542.1727727539491,733
-539.5520743866118,771
-536.9320991905377,773
-534.3128469861261,801
-531.6943175936979,829
-529.0765108334947,839
-526.4594265256793,853
-523.8430644903358,982
-521.2274245474689,1112
-518.612506517005,1212
-515.9983102187913,1176
-513.3848354725959,1148
-510.77208209810846,1179
-508.16004991493924,1252
-505.5487387426199,1383
-502.9381484006032,1539
-500.3282787082628,1627
-497.71912948489364,1603
-495.1107005497117,1493
-492.5029917218539,1410
-489.8960028203786,1263
-487.28973366426493,1176
-484.68418407241325,1052
-482.07935386364494,1048
-479.47524285670266,961
-476.87185087025,961
-474.2691777228715,957
-471.66722323307334,1009
-469.0659872192821,986
-466.4654694998459,958
-463.86566989303384,946
-461.26658821703614,994
-458.66822428996414,947
-456.07057792985,973
-453.4736489546475,948
-450.877437182231,933
-448.28194243039627,885
-445.68716451686,897
-443.09310325926003,893
-440.49975847515555,912
-437.9071299820263,931
-435.31521759727354,888
-432.72402113821954,917
-430.13354042210767,970
-427.5437752661022,949
-424.95472548728867,950
-422.36639090267386,985
-419.7787713291855,946
-417.1918665836721,1043
-414.60567648290385,1032
-412.0202008435715,948
-409.4354394822874,989
-406.8513922155845,1042
-404.26805885991723,1012
-401.685439231661,1047
-399.103533147112,961
-396.522340422488,996
-393.9418608739278,967
-391.3620943174908,989
-388.7830405691583,988
-386.2046994448317,976
-383.6270707603344,963
-381.05015433141045,904
-378.473949973725,862
-375.8984575028645,746
-373.32367673433623,691
-370.74960748356875,670
-368.1762495659117,641
-365.60360279663576,596
-363.03166699093265,545
-360.4604419639154,514
-357.8899275306178,490
-355.32012350599507,507
-352.7510297049233,478
-350.1826459421999,474
-347.61497203254316,443
-345.04800779059235,459
-342.4817530309082,466
-339.91620756797226,471
-337.35137121618743,454
-334.7872437898774,484
-332.22382510328725,527
-329.66111497058273,498
-327.09911320585127,471
-324.53781962310075,468
-321.9772340362607,487
-319.4173562591816,466
-316.8581861056348,498
-314.2997233893127,486
-311.7419679238294,463
-309.1849195227194,459
-306.62857799943856,493
-304.0729431673641,512
-301.51801483979375,519
-298.963792829947,522
-296.41027695096386,533
-293.85746701590574,556
-291.3053628377552,520
-288.7539642294155,542
-286.2032710037115,513
-283.65328297338897,549
-281.1039999511146,540
-278.5554217494762,555
-276.007548180983,570
-273.4603790580651,561
-270.9139141930734,523
-268.3681533982807,555
-265.8230964858798,569
-263.27874326798565,577
-260.7350935566336,544
-258.1921471637804,580
-255.6499039013039,569
-253.10836358100266,563
-250.56752601459698,577
-248.02739101372765,594
-245.48795838995704,603
-242.94922795476816,590
-240.41119951956557,577
-237.8738728956746,571
-235.33724789434166,658
-232.80132432673452,623
-230.2661020039418,603
-227.73158073697357,601
-225.19776033676033,635
-222.66464061415422,690
-220.1322213799284,674
-217.60050244477725,622
-215.06948361931552,651
-212.53916471408013,657
-210.00954553952818,648
-207.48062590603843,643
-204.9524056239104,662
-202.4248845033651,706
-199.8980623545441,783
-197.37193898751036,705
-194.84651421224817,776
-192.32178783866232,756
-189.79775967657952,742
-187.27442953574644,746
-184.7517972258321,756
-182.2298625564256,736
-179.7086253370378,755
-177.18808537710026,781
-174.66824248596583,778
-172.14909647290835,804
-169.6306471471229,847
-167.11289431772548,783
-164.59583779375328,774
-162.07947738416453,799
-159.5638128978386,845
-157.04884414357605,862
-154.53457093009854,1020
-152.02099306604828,960
-149.50811035998936,901
-146.99592262040665,825
-144.48442965570587,900
-141.97363127421409,936
-139.46352728417958,1087
-136.95411749377126,1175
-134.44540171107985,1133
-131.93737974411636,976
-129.43005140081357,934
-126.92341648902493,1180
-124.41747481652521,1557
-121.91222619101006,1844
-119.40767042009657,2098
-116.90380731132257,2529
-114.40063667214702,2546
-111.8981583099503,2131
-109.3963720320337,1740
-106.89527764561933,1726
-104.39487495785067,1855
-101.89516377579241,2208
-99.39614390642998,3179
-96.89781515667039,3777
-94.40017733334128,4083
-91.90323024319173,3648
-89.40697369289148,4058
-86.91140748903172,5272
-84.41653143812482,5380
-81.92234534660395,4083
-79.42884902082358,3064
-76.93604226705907,4569
-74.4439248915071,8684
-71.95249670028534,13295
-69.46175749943245,15610
-66.97170709490854,15463
-64.48234529259423,12966
-61.99367189829195,11108
-59.50568671772464,9875
-57.01838955653636,8343
-54.53178022029283,7965
-52.045858514480074,9269
-49.560624244506016,12065
-47.07607721569923,12517
-44.59221723330904,12289
-42.10904410250669,11506
-39.62655762838392,11337
-37.14475761595372,11027
-34.66364387015028,10441
-32.18321619582866,10078
-29.70347439776515,9210
-27.224418280657005,9064
-24.74604764912317,10077
-22.26836230770266,13770
-19.7913620608565,24365
-17.315046712966478,43456
-14.83941606833514,60751
-12.36446993118659,65040
-9.89020810566592,65040
-7.416630395839093,65040
-4.94373660569363,65040
-2.471526539137585,65040
-6.821210263296962E-13,65040
2.47084320796705,65040
4.941003281093458,65040
7.410480415786196,65040
9.879274808531363,65040
12.347386655893956,65040
14.814816154518212,65040
17.28156350112681,65040
19.74762889252179,65040
22.21301252558385,65040
24.67771459727237,20680
27.141735304626195,4147
29.605074844762612,2449
32.06773341487792,2272
34.52971121224755,2157
36.99100843422559,1949
39.45162527824516,1684
41.91156194181792,1641
44.370818622535126,1485
46.82939551806646,1368
49.287292826160524,1402
51.74451074464503,1419
54.201049471426245,1395
56.65690920448981,1349
59.112090141899785,1159
61.56659248179983,1192
64.02041642241159,1080
66.4735621620365,1034
68.92602989905402,1066
71.37781983192338,934
73.82893215918205,1009
76.27936707944684,1134
78.72912479141326,1251
81.17820549385567,1155
83.62660938562783,1033
86.07433666566146,1222
88.5213875329681,920
90.96776218663751,850
93.41346082583925,929
95.85848364982041,1048
98.30283085790859,941
100.7465026495089,1004
103.18949922410604,1108
105.63182078126385,1182
108.07346752062438,1162
110.51443964190923,964
112.95473734491827,808
115.39436082953114,826
117.83331029570547,857
120.27158594347827,896
122.7091879729652,964
125.1461165843615,964
127.58237197794062,826
130.01795435405518,841
132.4528639131364,996
134.88710085569494,947
137.32066538231982,867
139.75355769367923,852
142.1857779905207,869
144.61732647366978,902
147.04820334403132,890
149.47840880258934,877
151.90794305040674,948
154.33680628862487,1052
156.76499871846443,1245
159.19252054122433,1434
161.61937195828352,1568
164.04555317109896,1680
166.47106438120693,1848
168.89590579022217,2049
171.320077599839,2220
173.7435800118302,2308
176.16641322804742,2490
178.58857745042144,2723
181.01007288096173,2892
183.43089972175687,2963
185.85105817497413,2906
188.27054844285988,2788
190.6893707277394,2829
193.10752523201643,2728
195.5250121581745,2879
197.9418317087751,3022
200.3579840864594,2926
202.7734694939469,2942
205.18828813403627,2991
207.6024402096051,3041
210.01592592360964,3091
212.42874547908548,3045
214.84089907914665,3042
217.2523869269868,2979
219.66320922587727,3085
222.0733661791695,3004
224.48285799029293,3040
226.8916848627572,2917
229.29984700014882,3074
231.7073446061355,3077
234.11417788446204,3040
236.520347038953,3069
238.92585227351185,3095
241.33069379212054,3165
243.73487179884035,3232
246.1383864978112,3324
248.541238093252,3253
250.9434267894609,3287
253.34495279081432,3318
255.74581630176783,3194
258.1460175268563,3317
260.54555667069314,3290
262.9444339379703,3179
265.3426495334594,3156
267.7402036620107,3066
270.1370965285529,3063
272.53332833809407,2931
274.9288992957214,2836
277.32380960660055,2783
279.718059475976,2795
282.1116491091717,2844
284.5045787115897,2818
286.89684848871195,2753
289.2884586460981,2776
291.67940938938807,2769
294.0697009242996,2645
296.4593334566299,2727
298.84830719225477,2713
301.23662233712923,2751
303.6242790972866,2679
306.01127767884,2618
308.39761828798066,2610
310.78330113097934,2551
313.16832641418534,2626
315.5526943440269,2574
317.9364051270112,2482
320.3194589697242,2478
322.70185607883093,2532
325.0835966610754,2436
327.4646809232805,2419
329.8451090723478,2422
332.2248813152577,2473
334.6039978590701,2388
336.9824589109231,2322
339.36026467803447,2337
341.7374153677,2326
344.113911187295,2273
346.48975234427337,2292
348.8649390461686,2325
351.2394715005918,2321
353.61334991523415,2309
355.9865744978655,2288
358.35914545633375,2252
360.73106299856715,2279
363.10232733257146,2280
365.47293866643247,2280
367.84289720831396,2181
370.2122031664593,2189
372.5808567491905,2198
374.9488581649083,2252
377.31620762209275,2218
379.6829053293021,2219
382.0489514951745,2086
384.4143463284262,2194
386.7790900378528,2245
389.14318283232853,2141
391.50662492080653,2134
393.86941651231916,2254
396.23155781597745,2207
398.5930490409713,2180
400.9538903965696,2127
403.3140820921202,2178
405.6736243370498,2216
408.03251734086336,2149
410.3907613131465,2098
412.74835646356166,2083
415.10530300185144,2115
417.4616011378372,2086
419.81725108141893,2113
422.1722530425758,2148
424.5266072313656,2149
426.880313857925,2142
429.2333731324701,2082
431.58578526529516,2082
433.9375504667738,2107
436.2886689473588,2055
438.63914091758113,2104
440.9889665880513,2102
443.33814616945835,2080
445.68667987257015,2041
448.03456790823395,2000
450.3818104873759,2031
452.72840782100013,2083
455.07436012019105,2044
457.41966759611057,2050
459.7643304600007,2057
462.10834892318155,2049
464.4517231970525,1970
466.79445349309174,2033
469.1365400228566,2093
471.4779829979826,2004
473.81878263018564,2120
476.15893913125876,2093
478.4984527130747,2177
480.8373235875855,2161
483.17555196682144,2194
485.5131380628919,2250
487.8500820879857,2406
490.1863842543697,2491
492.52204477439034,2601
494.8570638604725,2914
497.1914417251204,3116
499.52517858091653,3425
501.85827464052306,3651
504.19073011668036,3748
506.5225452222086,3680
508.85372017000566,3536
511.18425517304956,3497
513.514150444396,3614
515.8434061971808,4283
518.1720226446176,5254
520.4999999999999,5658
522.8273384766991,5354
525.1540382881666,4647
527.480099647932,4209
529.8055227696037,3512
532.1303078668694,2854
534.454455153496,2535
536.777964843328,2398
539.1008371502907,2186
541.4230722883866,2271
543.744670471698,2229
546.0656319143858,2185
548.3859568306899,2205
550.7056454349294,2169
553.0246979415016,2122
555.3431145648834,2118
557.6608955196306,2133
559.978041020377,2161
562.2945512818363,2090
564.6104265188006,2136
566.9256669461412,2155
569.2402727788082,2123
571.5542442318302,2218
573.8675815203156,2252
576.1802848594508,2180
578.4923544645015,2195
580.8037905508126,2156
583.114593333807,2225
585.4247630289875,2268
587.7342998519354,2173
590.0432040183106,2125
592.3514757438526,2183
594.6591152443794,2166
596.9661227357875,2345
599.2724984340531,2223
601.578242555231,2229
603.8833553154542,2224
606.1878369309362,2196
608.4916876179676,2126
610.7949075929192,2171
613.0974970722403,2174
615.3994562724587,2146
617.7007854101818,2111
620.0014847020951,2140
622.3015543649641,2065
624.6009946156324,2174
626.8998056710224,2138
629.1979877481361,2122
631.4955410640538,2159
633.7924658359349,2214
636.0887622810175,2142
638.3844306166192,2180
640.6794710601358,2151
642.9738838290426,2197
645.2676691408932,2202
647.5608272133207,2163
649.853358264037,2234
652.1452625108324,2244
654.4365401715764,2245
656.7271914642178,2188
659.0172166067838,2232
661.3066158173809,2149
663.5953893141935,2149
665.8835373154867,2210
668.1710600396028,2216
670.4579577049639,2230
672.7442305300709,2207
675.0298787335033,2159
677.3149025339197,2200
679.599302150058,2157
681.8830778007342,2182
684.1662297048437,2172
686.4487580813608,2127
688.7306631493387,2175
691.0119451279091,2217
693.2926042362834,2188
695.5726406937516,2247
697.8520547196814,2202
700.1308465335215,2252
702.4090163547982,2158
704.6865644031171,2136
706.9634908981619,2135
709.2397960596965,2110
711.5154801075631,2114
713.7905432616823,2174
716.0649857420548,2213
718.3388077687592,2174
720.612009561953,2119
722.8845913418733,2100
725.1565533288352,2166
727.427895743234,2171
729.6986188055427,2131
731.9687227363137,2115
734.238207756178,2272
736.5070740858458,2135
738.7753219461066,2163
741.0429515578281,2141
743.3099631419569,2138
745.5763569195191,2107
747.8421331116193,2148
750.1072919394409,2109
752.3718336242467,2131
754.6357583873777,2115
756.8990664502545,2102
759.1617580343765,2203
761.423833361321,2098
763.6852926527457,2145
765.9461361303862,2204
768.206364016058,2235
770.4659765316536,2091
772.7249738991469,2159
774.9833563405886,2155
777.2411240781092,2196
779.4982773339183,2225
781.7548163303044,2208
784.010741289634,2130
786.2660524343538,2220
788.5207499869881,2139
790.7748341701416,2201
793.0283052064964,2233
795.2811633188143,2219
797.5334087299362,2243
799.7850416627813,2206
802.0360623403484,2204
804.2864709857143,2210
806.5362678220353,2201
808.7854530725468,2181
811.0340269605625,2238
813.2819897094754,2210
815.5293415427581,2243
817.77608268396,2195
820.0222133567116,2183
822.2677337847211,2156
824.5126441917765,2122
826.7569448017433,2212
829.0006358385675,2230
831.2437175262731,2231
833.4861900889629,2218
835.7280537508192,2192
837.9693087361026,2311
840.2099552691533,2178
842.4499935743896,2181
844.689423876309,2161
846.9282463994886,2149
849.1664613685833,2197
851.4040690083276,2180
853.6410695435349,2213
855.877463199097,2236
858.1132501999847,2192
860.3484307712487,2162
862.5830051380175,2213
864.8169735254988,2277
867.0503361589791,2256
869.2830932638243,2229
871.5152450654786,2214
873.7467917894654,2251
875.9777336613873,2277
878.2080709069252,2227
880.4378037518389,2268
882.666932421968,2327
884.8954571432301,2223
887.1233781416219,2277
889.3506956432192,2299
891.5774098741766,2315
893.803521060728,2287
896.0290294291852,2320
898.2539352059397,2285
900.4782386174619,2206
902.7019398903011,2358
904.925039251085,2332
907.147536926521,2312
909.3694331433943,2282
911.59072812857,2266
913.8114221089921,2277
916.0315153116827,2276
918.2510079637437,2240
920.4699002923547,2247
922.6881925247761,2265
924.905884888345,2307
927.1229776104793,2251
929.3394709186747,2132
931.555365040506,2210
933.7706602036275,2154
935.9853566357709,2227
938.1994545647489,2222
940.4129542184515,2234
942.6258558248488,2262
944.8381596119883,2191
947.0498658079974,2218
949.2609746410825,2195
951.4714863395287,2193
953.6814011316998,2178
955.8907192460387,2176
958.0994409110671,2210
960.3075663553858,2165
962.5150958076741,2161
964.7220294966913,2146
966.928367651274,2096
969.1341105003388,2165
971.3392582728806,2155
973.5438111979742,2101
975.747769504772,2104
977.9511334225061,2143
980.153903180487,2107
982.3560790081052,2126
984.5576611348289,2093
986.7586497902058,2086
988.9590452038618,2041
991.158847605503,2041
993.3580572249133,2029
995.5566742919558,1969
997.7546990365728,1964
999.952131688785,1972
1002.1489724786926,1944
1004.3452216364743,1924
1006.5408793923874,1885
1008.7359459767691,1874
1010.9304216200343,1869
1013.1243065526781,1869
1015.3176010052733,1905
1017.510305208472,1921
1019.7024193930064,1882
1021.8939437896848,1878
1024.0848786293977,1806
1026.2752241431122,1821
1028.4649805618747,1867
1030.6541481168115,1799
1032.842727039127,1847
1035.0307175601051,1874
1037.2181199111074,1785
1039.4049343235752,1778
1041.591161029029,1821
1043.7768002590683,1773
1045.9618522453698,1801
1048.1463172196918,1744
1050.3301954138697,1765
1052.513487059818,1811
1054.69619238953,1794
1056.8783116350783,1848
1059.0598450286152,1811
1061.2407928023704,1718
1063.4211551886528,1708
1065.6009324198508,1818
1067.780124728432,1746
1069.9587323469414,1782
1072.1367555080046,1810
1074.314194444325,1732
1076.4910493886855,1759
1078.667320573947,1703
1080.843008233051,1718
1083.0181125990161,1724
1085.1926339049414,1705
1087.3665723840027,1704
1089.5399282694575,1671
1091.7127017946405,1766
1093.8848931929647,1734
1096.0565026979243,1751
1098.2275305430899,1721
1100.3979769621128,1807
1102.567842188722,1709
1104.737126456726,1724
1106.9058300000124,1719
1109.0739530525475,1707
1111.2414958483764,1654
1113.4084586216231,1631
1115.5748416064907,1644
1117.7406450372605,1687
1119.9058691482942,1712
1122.0705141740304,1758
1124.2345803489884,1682
1126.3980679077658,1767
1128.5609770850388,1628
1130.7233081155623,1693
1132.8850612341707,1654
1135.0462366757774,1626
1137.2068346753745,1617
1139.3668554680326,1704
1141.526299288901,1649
1143.68516637321,1618
1145.8434569562655,1650
1148.001171273455,1638
1150.158309560244,1709
1152.3148720521767,1680
1154.470858984876,1647
1156.626270594044,1629
1158.7811071154629,1579
1160.9353687849912,1646
1163.089055838569,1628
1165.242168512213,1625
1167.3947070420209,1613
1169.5466716641677,1591
1171.6980626149075,1687
1173.8488801305748,1663
1175.9991244475814,1634
1178.1487958024186,1656
1180.2978944316555,1670
1182.4464205719428,1621
1184.5943744600072,1606
1186.7417563326567,1674
1188.8885664267755,1632
1191.0348049793297,1582
1193.1804722273619,1576
1195.325568407995,1674
1197.4700937584303,1644
1199.614048515948,1622
1201.7574329179074,1653
1203.900247201746,1604
1206.042491604982,1630
1208.1841663652099,1646
1210.3252717201053,1633
1212.465807907422,1579
1214.6057751649923,1648
1216.7451737307279,1590
1218.8840038426192,1598
1221.0222657387353,1647
1223.1599596572241,1626
1225.2970858363137,1681
1227.4336445143094,1686
1229.5696359295966,1678
1231.705060320639,1666
1233.8399179259786,1683
1235.9742089842384,1651
1238.107933734118,1711
1240.2410924143974,1674
1242.373685263935,1720
1244.5057125216676,1726
1246.6371744266116,1701
1248.7680712178621,1693
1250.898403134593,1679
1253.028170416058,1650
1255.1573733015875,1737
1257.2860120305932,1747
1259.4140868425648,1726
1261.54159797707,1710
1263.6685456737569,1712
1265.7949301723515,1695
1267.9207517126597,1704
1270.046010534565,1631
1272.1707068780306,1725
1274.2948409830983,1743
1276.4184130898889,1719
1278.541423438603,1746
1280.6638722695184,1771
1282.785759822993,1770
1284.9070863394636,1720
1287.0278520594447,1771
1289.1480572235314,1822
1291.2677020723963,1742
1293.3867868467923,1833
1295.5053117875495,1822
1297.623277135579,1814
1299.740683131868,1855
1301.8575300174857,1791
1303.973818033578,1802
1306.0895474213703,1817
1308.2047184221678,1874
1310.3193312773528,1835
1312.4333862283888,1821
1314.5468835168163,1836
1316.659823384255,1771
1318.7722060724045,1790
1320.8840318230418,1857
1322.9953008780249,1814
1325.1060134792888,1852
1327.2161698688478,1803
1329.3257702887959,1838
1331.4348149813054,1805
1333.5433041886276,1879
1335.6512381530933,1805
1337.7586171171101,1799
1339.8654413231675,1791
1341.9717110138317,1831
1344.0774264317488,1801
1346.1825878196432,1853
1348.2871954203192,1769
1350.3912494766587,1797
1352.4947502316231,1745
1354.5976979282532,1770
1356.7000928096686,1799
1358.8019351190665,1810
1360.9032250997243,1807
1363.0039629949988,1804
1365.1041490483235,1758
1367.2037835032133,1778
1369.3028666032606,1887
1371.401398592137,1811
1373.4993797135926,1770
1375.5968102114575,1775
1377.6936903296396,1807
1379.7900203121262,1774
1381.8858004029835,1770
1383.9810308463561,1780
1386.075711886469,1864
1388.1698437676241,1875
1390.2634267342032,1906
1392.356461030667,1929
1394.4489469015557,1908
1396.5408845914872,1943
1398.6322743451592,1998
1400.7231164073469,1904
1402.813411022907,1955
1404.903158436773,1975
1406.9923588939578,1979
1409.0810126395531,2008
1411.1691199187303,1927
1413.2566809767386,1998
1415.343696058907,2032
1417.4301654106425,1983
1419.5160892774315,1972
1421.6014679048399,1972
1423.6863015385125,2066
1425.7705904241707,2159
1427.8543348076178,2078
1429.9375349347342,2114
1432.0201910514802,2081
1434.102303403894,2065
1436.1838722380944,2063
1438.2648978002767,2082
1440.3453803367174,2258
1442.4253200937692,2161
1444.5047173178677,2229
1446.5835722555234,2258
1448.6618851533285,2318
1450.739656257952,2366
1452.8168858161434,2269
1454.8935740747306,2379
1456.96972128062,2287
1459.045327680797,2403
1461.120393522327,2481
1463.1949190523528,2470
1465.2689045180973,2539
1467.3423501668608,2592
1469.415256246024,2592
1471.4876230030463,2751
1473.559450685465,2764
1475.6307395408976,2696
1477.7014898170391,2714
1479.771701761665,2840
1481.8413756226287,2821
1483.9105116478618,2917
1485.9791100853772,3018
1488.0471711832643,2942
1490.1146951896926,3026
1492.1816823529098,3086
1494.2481329212433,3093
1496.3140471430984,3228
1498.3794252669609,3217
1500.4442675413939,3248
1502.5085742150404,3236
1504.572345536622,3215
1506.6355817549388,3288
1508.6982831188702,3301
1510.7604498773744,3322
1512.8220822794883,3418
1514.8831805743293,3545
1516.9437450110909,3592
1519.003775839048,3478
1521.0632733075522,3675
1523.1222376660367,3700
1525.1806691640113,3620
1527.2385680510652,3655
1529.2959345768668,3814
1531.3527689911643,3799
1533.4090715437833,3929
1535.4648424846291,4001
1537.5200820636855,4151
1539.5747905310159,4045
1541.6289681367616,4045
1543.6826151311434,4182
1545.7357317644614,4270
1547.7883182870937,4201
1549.8403749494987,4352
1551.8919020022113,4462
1553.9428996958477,4571
1555.9933682811015,4649
1558.0433080087469,4773
1560.0927191296346,4847
1562.1416018946961,4933
1564.1899565549415,4812
1566.2377833614592,4872
1568.2850825654164,4708
1570.3318544180606,4685
1572.3780991707158,4536
1574.423817074788,4277
1576.4690083817595,4175
1578.5136733431923,3997
1580.5578122107272,3850
1582.601425236085,3519
1584.6445126710646,3386
1586.6870747675434,3259
1588.7291117774776,3103
1590.7706239529034,2859
1592.8116115459347,2805
1594.8520748087658,2707
1596.8920139936686,2606
1598.9314293529933,2545
1600.9703211391711,2470
1603.008689604711,2346
1605.0465350022005,2366
1607.0838575843068,2291
1609.1206576037753,2144
1611.1569353134305,2139
1613.1926909661765,2147
1615.2279248149953,2134
1617.2626371129481,2045
1619.2968281131757,1979
1621.3304980688963,1973
1623.3636472334088,1954
1625.39627586009,1937
1627.428384202396,1882
1629.459972513861,1943
1631.4910410480993,1875
1633.5215900588028,1859
1635.551619799744,1878
1637.5811305247717,1868
1639.6101224878166,1783
1641.6385959428862,1815
1643.6665511440683,1721
1645.693988345528,1778
1647.7209078015112,1776
1649.7473097663405,1747
1651.7731944944203,1801
1653.7985622402307,1787
1655.823413258333,1834
1657.847747803366,1751
1659.8715661300494,1781
1661.8948684931793,1747
1663.9176551476316,1766
1665.9399263483624,1792
1667.9616823504057,1757
1669.982923408873,1717
1672.0036497789574,1756
1674.0238617159293,1761
1676.043559475138,1737
1678.0627433120121,1680
1680.081413482059,1748
1682.0995702408654,1768
1684.117213844096,1755
1686.134344547495,1732
1688.1509626068864,1723
1690.1670682781705,1712
1692.182661817329,1694
1694.1977434804217,1752
1696.2123135235875,1713
1698.226372203043,1708
1700.2399197750851,1800
1702.2529564960905,1757
1704.2654826225112,1744
1706.277498410882,1718
1708.2890041178139,1692
1710.2999999999988,1728
1712.3104863142066,1655
1714.3204633172854,1690
1716.329931266163,1710
1718.3388904178469,1682
1720.3473410294214,1690
1722.3552833580516,1694
1724.3627176609807,1664
1726.3696441955308,1739
1728.3760632191033,1689
1730.3819749891782,1653
1732.3873797633146,1654
1734.3922777991502,1652
1736.3966693544012,1619
1738.4005546868639,1646
1740.4039340544127,1580
1742.406807715001,1617
1744.4091759266616,1603
1746.4110389475054,1580
1748.4123970357223,1615
1750.413250449582,1608
1752.4135994474318,1704
1754.4134442876993,1649
1756.4127852288902,1666
1758.4116225295893,1602
1760.4099564484595,1582
1762.407787244244,1615
1764.405115175764,1662
1766.4019405019203,1607
1768.3982634816916,1611
1770.3940843741357,1577
1772.3894034383907,1578
1774.3842209336717,1562
1776.378537119274,1521
1778.372352254571,1504
1780.3656665990156,1539
1782.3584804121397,1583
1784.3507939535534,1523
1786.3426074829463,1575
1788.3339212600863,1566
1790.3247355448211,1559
1792.3150505970766,1573
1794.3048666768573,1568
1796.2941840442477,1538
1798.2830029594106,1513
1800.2713236825884,1531
1802.2591464741004,1603
1804.2464715943465,1548
1806.2332993038058,1564
1808.2196298630352,1585
1810.2054635326708,1572
1812.190800573428,1555
1814.175641246101,1500
1816.1599858115628,1557
1818.1438345307652,1594
1820.127187664738,1531
1822.1100454745924,1578
1824.092408221516,1480
1826.0742761667766,1522
1828.055649571721,1491
1830.0365286977735,1556
1832.0169138064398,1567
1833.9968051593014,1621
1835.9762030180214,1537
1837.9551076443408,1541
1839.9335193000788,1568
1841.9114382471344,1569
1843.888864747485,1590
1845.8657990631878,1522
1847.842241456378,1520
1849.8181921892697,1499
1851.7936515241558,1573
1853.7686197234098,1539
1855.7430970494815,1492
1857.7170837649014,1521
1859.6905801322787,1532
1861.6635864143004,1500
1863.6361028737338,1531
1865.608129773424,1522
1867.5796673762961,1466
1869.5507159453537,1514
1871.521275743678,1588
1873.4913470344313,1578
1875.4609300808534,1471
1877.4300251462632,1548
1879.3986324940588,1576
1881.366752387717,1566
1883.3343850907936,1508
1885.3015308669228,1587
1887.268189979819,1562
1889.2343626932739,1490
1891.2000492711595,1588
1893.1652499774254,1609
1895.1299650761011,1497
1897.0941948312952,1595
1899.0579395071945,1578
1901.0211993680641,1560
1902.98397467825,1581
1904.9462657021745,1589
1906.9080727043415,1589
1908.869395949332,1557
1910.8302357018065,1588
1912.790592226504,1567
1914.7504657882428,1547
1916.7098566519212,1547
1918.6687650825133,1561
1920.6271913450764,1536
1922.5851357047422,1534
1924.5425984267245,1518
1926.499579776314,1550
1928.4560800188833,1554
1930.4120994198802,1567
1932.367638244833,1580
1934.32269675935,1622
1936.2772752291175,1580
1938.231373919899,1546
1940.1849930975404,1572
1942.1381330279637,1578
1944.0907939771696,1570
1946.0429762112412,1524
1947.9946799963363,1537
1949.9459055986945,1557
1951.896653284633,1541
1953.8469233205478,1511
1955.7967159729142,1542
1957.7460315082863,1580
1959.6948701932974,1513
1961.6432322946594,1544
1963.5911180791632,1530
1965.5385278136787,1548
1967.4854617651545,1520
1969.4319202006182,1558
1971.377903387176,1555
1973.3234115920136,1556
1975.268445082395,1538
1977.2130041256642,1518
1979.1570889892423,1554
1981.1006999406304,1545
1983.04383724741,1527
1984.986501177238,1538
1986.928691997853,1495
1988.8704099770712,1552
1990.811655382789,1585
1992.7524284829801,1529
1994.692729545698,1541
1996.6325588390755,1565
1998.5719166313224,1515
2000.5108031907307,1536
2002.4492187856677,1481
2004.387163684583,1507
2006.3246381560011,1479
2008.2616424685298,1485
2010.1981768908527,1503
2012.1342416917332,1507
2014.069837140014,1502
2016.0049635046162,1479
2017.9396210545406,1486
2019.8738100588666,1520
2021.8075307867502,1447
2023.740783507431,1470
2025.6735684902228,1508
2027.6058860045214,1503
2029.5377363198004,1475
2031.4691197056118,1449
2033.4000364315875,1499
2035.3304867674374,1502
2037.260470982952,1460
2039.189989347998,1465
2041.1190421325232,1450
2043.047629606554,1496
2044.9757520401945,1473
2046.9034097036288,1394
2048.8306028671195,1516
2050.7573318010086,1551
2052.683596775716,1457
2054.609398061742,1485
2056.5347359296647,1448
2058.4596106501403,1451
2060.384022493906,1519
2062.3079717317764,1505
2064.231458634646,1521
2066.1544834734873,1471
2068.077046519352,1454
2069.99914804337,1497
2071.9207883167524,1409
2073.8419676107865,1467
2075.7626861968406,1464
2077.6829443463607,1503
2079.6027423308715,1466
2081.522080421977,1472
2083.440958891362,1497
2085.359378010786,1519
2087.2773380520907,1514
2089.194839287196,1508
2091.111881988101,1440
2093.0284664268825,1447
2094.9445928756973,1439
2096.86026160678,1496
2098.775472892446,1507
2100.690227005088,1426
2102.604524217178,1473
2104.5183648012676,1486
2106.431749029985,1458
2108.34467717604,1529
2110.2571495122206,1506
2112.169166311393,1462
2114.080727846503,1498
2115.9918343905747,1491
2117.902486216711,1494
2119.8126835980956,1484
2121.722426807987,1477
2123.6317161197285,1459
2125.5405518067364,1484
2127.448934142509,1558
2129.356863400624,1480
2131.264339854737,1471
2133.1713637785815,1522
2135.077935445972,1518
2136.9840551308002,1513
2138.889723107037,1578
2140.7949396487334,1531
2142.699705030018,1526
2144.6040195250994,1536
2146.507883408264,1512
2148.4112969538774,1511
2150.3142604363848,1553
2152.2167741303097,1516
2154.1188383102535,1486
2156.0204532508997,1474
2157.9216192270064,1559
2159.822336513414,1535
2161.7226053850413,1530
2163.622426116884,1548
2165.5217989840185,1540
2167.4207242616,1507
2169.319202224862,1538
2171.2172331491165,1636
2173.1148173097563,1647
2175.0119549822507,1580
2176.90864644215,1545
2178.8048919650823,1561
2180.7006918267534,1583
2182.596046302952,1604
2184.4909556695407,1621
2186.3854202024645,1588
2188.279440177746,1584
2190.173015871487,1611
2192.066147559868,1643
2193.958835519149,1619
2195.851080025667,1563
2197.7428813558417,1614
2199.6342397861667,1573
2201.5251555932186,1600
2203.415629053651,1652
2205.3056604441986,1656
2207.19525004167,1651
2209.084398122958,1605
2210.9731049650327,1590
2212.861370844941,1603
2214.749196039812,1630
2216.636580826851,1660
2218.523525483344,1653
2220.410030286655,1678
2222.296095514226,1672
2224.1817214435805,1653
2226.066908352319,1615
2227.951656518121,1601
2229.835966218746,1671
2231.71983773203,1685
2233.6032713358913,1606
2235.486267308324,1633
2237.3688259274036,1646
2239.2509474712824,1715
2241.132632218193,1671
2243.013880446447,1662
2244.8946924344323,1698
2246.7750684606203,1615
2248.6550088035574,1616
2250.534513741871,1691
2252.413583554265,1665
2254.292218519526,1685
2256.170418916517,1617
2258.0481850241786,1605
2259.925517121534,1621
2261.8024154876825,1609
2263.678880401803,1672
2265.5549121431536,1733
2267.430510991071,1672
2269.305677224971,1726
2271.180411124348,1656
2273.0547129687766,1645
2274.9285830379076,1604
2276.8020216114737,1665
2278.6750289692845,1683
2280.5476053912294,1641
2282.4197511572766,1673
2284.2914665474727,1708
2286.162751841943,1629
2288.0336073208937,1676
2289.904033264608,1672
2291.774029953448,1711
2293.6435976678554,1730
2295.5127366883517,1618
2297.381447295534,1587
2299.2497297700825,1574
2301.1175843927526,1520
2302.9850114443825,1508
2304.852011205885,1408
2306.7185839582553,1444
2308.5847299825664,1372
2310.4504495599676,1412
2312.3157429716925,1402
2314.1806104990483,1384
2316.0450524234247,1386
2317.9090690262888,1386
2319.772660589186,1426
2321.635827393742,1388
2323.498569721661,1391
2325.3608878547248,1360
2327.2227820747967,1396
2329.0842526638157,1393
2330.945299903803,1381
2332.805924076857,1371
2334.6661254651535,1363
2336.525904350951,1402
2338.3852610165827,1371
2340.244195744464,1383
2342.102708817088,1393
2343.9608005170253,1361
2345.8184711269287,1370
2347.675720929526,1369
2349.532550207628,1388
2351.38895924412,1385
2353.24494832197,1390
2355.100517724223,1398
2356.955667734004,1376
2358.810398634514,1384
2360.664710709037,1420
2362.5186042409337,1424
2364.3720795136437,1420
2366.225136810686,1407
2368.0777764156583,1394
2369.929998612237,1397
2371.7818036841777,1406
2373.633191915315,1406
2375.484163589562,1436
2377.3347189909114,1459
2379.184858403434,1479
2381.03458211128,1469
2382.8838903986775,1441
2384.732783549936,1487
2386.5812618494406,1437
2388.4293255816588,1405
2390.2769750311327,1424
2392.1242104824883,1428
2393.971032220427,1473
2395.8174405297295,1435
2397.6634356952563,1441
2399.509018001947,1452
2401.3541877348193,1404
2403.1989451789705,1424
2405.043290619576,1470
2406.8872243418905,1427
2408.730746631247,1438
2410.5738577730594,1430
2412.4165580528183,1403
2414.258847756095,1435
2416.100727168537,1486
2417.9421965758734,1490
2419.783256263912,1416
2421.623906518538,1416
2423.4641476257157,1487
2425.303979871491,1433
2427.143403541984,1396
2428.9824189233977,1418
2430.821026302012,1416
2432.6592259641866,1507
2434.497018196361,1468
2436.33440328505,1479
2438.171381516851,1429
2440.00795317844,1493
2441.844118556569,1480
2443.6798779380724,1401
2445.5152316098606,1420
2447.3501798589255,1457
2449.1847229723357,1472
2451.0188612372403,1471
2452.8525949408663,1487
2454.6859243705203,1451
2456.518849813587,1437
2458.3513715575314,1394
2460.183489889895,1431
2462.015205098301,1548
2463.8465174704493,1463
2465.67742729412,1450
2467.5079348571717,1453
2469.338040447542,1488
2471.1677443532476,1512
2472.9970468623833,1472
2474.825948263123,1429
2476.6544488437207,1468
2478.482548892508,1454
2480.310248697896,1449
2482.137548548374,1447
2483.9644487325118,1486
2485.790949538956,1484
2487.617051256433,1471
2489.44275417375,1510
2491.26805857979,1476
2493.0929647635157,1531
2494.917473013971,1482
2496.741583620276,1508
2498.5652968716304,1486
2500.3886130573137,1505
2502.2115324666834,1542
2504.0340553891765,1588
2505.856182114308,1508
2507.6779129316733,1551
2509.499248130945,1488
2511.3201880018764,1453
2513.140732834298,1551
2514.9608829181198,1534
2516.780638543331,1526
2518.6,1544
2520.418967578273,1508
2522.237541568376,1507
2524.0557222606144,1551
2525.8735099453706,1599
2527.6909049131086,1584
2529.507907454368,1574
2531.32451785977,1622
2533.140736420014,1662
2534.9565634258774,1614
2536.771999168218,1665
2538.5870439379714,1632
2540.4016980261526,1571
2542.2159617238544,1557
2544.02983532225,1569
2545.8433191125914,1652
2547.656413386209,1636
2549.4691184345115,1641
2551.2814345489874,1752
2553.093362021204,1680
2554.904901142808,1660
2556.716052205523,1714
2558.526815501153,1696
2560.3371913215824,1769
2562.147179958771,1731
2563.956781704761,1767
2565.7659968516705,1791
2567.5748256916986,1832
2569.3832685171224,1788
2571.1913256202984,1718
2572.9989972936614,1774
2574.806283829725,1874
2576.613185521084,1809
2578.4197026604074,1847
2580.2258355404483,1828
2582.031584454035,1824
2583.836949694077,1825
2585.6419315535613,1915
2587.4465303255533,1892
2589.2507463032002,1949
2591.0545797797245,1888
2592.8580310484303,1921
2594.6611004026995,1958
2596.463788135992,1944
2598.266094541849,1981
2600.0680199138874,1963
2601.869564545807,1987
2603.670728731383,2049
2605.4715127644704,1904
2607.2719169390048,2000
2609.071941548998,1972
2610.8715868885433,1974
2612.670853251811,1920
2614.469740933052,1928
2616.268250226594,1877
2618.0663814268455,1979
2619.864134828292,1924
2621.6615107255006,1909
2623.458509413115,1965
2625.2551311858597,1882
2627.0513763385347,1907
2628.8472451660223,1932
2630.6427379632833,1837
2632.4378550253564,1845
2634.232596647359,1766
2636.026963124488,1894
2637.8209547520187,1763
2639.6145718253065,1770
2641.407814639785,1810
2643.200683490966,1777
2644.9931786744414,1813
2646.7853004858807,1776
2648.577049221034,1801
2650.3684251757277,1768
2652.1594286458712,1735
2653.9500599274484,1718
2655.740319316525,1728
2657.5302071092437,1658
2659.3197236018286,1621
2661.10886909058,1628
2662.8976438718782,1679
2664.686048242183,1655
2666.4740824980327,1628
2668.2617469360443,1607
2670.0490418529134,1628
2671.8359675454153,1588
2673.622524310403,1592
2675.408712444811,1608
2677.1945322456495,1590
2678.979984010009,1543
2680.76506803506,1569
2682.5497846180497,1594
2684.334134056306,1458
2686.1181166472343,1536
2687.9017326883213,1488
2689.6849824771293,1551
2691.4678663113013,1519
2693.2503844885596,1507
2695.032537306705,1447
2696.8143250636167,1497
2698.5957480572542,1502
2700.3768065856534,1514
2702.1575009469316,1423
2703.937831439283,1464
2705.717798360982,1446
2707.4974020103837,1450
2709.276642685917,1448
2711.055520686095,1418
2712.834036309506,1446
2714.612189854819,1474
2716.389981620782,1434
2718.1674119062204,1411
2719.944481010041,1467
2721.721189231226,1422
2723.4975368688415,1423
2725.273524222027,1434
2727.0491515900053,1463
2728.824419272075,1410
2730.5993275676146,1443
2732.3738767760838,1405
2734.148067197016,1448
2735.921899130031,1450
2737.6953728748194,1408
2739.468488731156,1365
2741.2412469988926,1418
2743.0136479779617,1428
2744.785691968372,1401
2746.5573792702116,1407
2748.3287101836504,1411
2750.099685008934,1421
2751.870304046388,1405
2753.640567596418,1397
2755.4104759595057,1360
2757.1800294362156,1374
2758.949228327187,1416
2760.7180729331412,1385
2762.486563554877,1350
2764.254700493272,1339
2766.022484049284,1377
2767.789914523947,1359
2769.5569922183786,1416
2771.3237174337705,1422
2773.090090471394,1366
2774.8561116326036,1381
2776.6217812188274,1384
2778.3870995315756,1332
2780.1520668724356,1329
2781.9166835430747,1312
2783.6809498452394,1348
2785.444866080754,1451
2787.2084325515225,1412
2788.971649559527,1365
2790.73451740683,1347
2792.4970363955713,1412
2794.2592068279705,1405
2796.0210290063264,1430
2797.7825032330147,1380
2799.543629810493,1348
2801.304409041296,1356
2803.0648412280366,1336
2804.8249266734088,1337
2806.5846656801846,1378
2808.344058551212,1459
2810.1031055894246,1406
2811.8618070978273,1417
2813.6201633795085,1420
2815.378174737636,1314
2817.1358414754536,1339
2818.893163896285,1364
2820.6501423035334,1377
2822.4067770006814,1379
2824.1630682912883,1375
2825.9190164789957,1377
2827.6746218675207,1386
2829.429884760661,1400
2831.184805462294,1357
2832.9393842763743,1404
2834.693621506936,1412
2836.4475174580916,1403
2838.201072434034,1393
2839.954286739034,1424
2841.707160677441,1441
2843.459694553685,1388
2845.2118886722724,1448
2846.96374333779,1424
2848.7152588549034,1402
2850.4664355283567,1314
2852.217273662973,1461
2853.9677735636546,1368
2855.7179355353833,1360
2857.4677598832186,1327
2859.217246912299,1370
2860.9663969278427,1342
2862.715210235146,1362
2864.4636871395846,1375
2866.211827946614,1326
2867.9596329617652,1330
2869.7071024906536,1364
2871.4542368389684,1328
2873.20103631248,1317
2874.947501217038,1344
2876.6936318585695,1342
2878.4394285430812,1389
2880.1848915766604,1395
2881.9300212654707,1382
2883.6748179157553,1392
2885.4192818338374,1292
2887.1634133261173,1434
2888.907212699077,1361
2890.6506802592744,1452
2892.393816313348,1394
2894.1366211680142,1366
2895.8790951300693,1407
2897.621238506388,1409
2899.363051603925,1359
2901.1045347297118,1404
2902.8456881908596,1384
2904.58651229456,1349
2906.327007348081,1364
2908.067173658772,1333
2909.8070115340597,1397
2911.5465212814497,1391
2913.285703208527,1340
2915.0245576229563,1351
2916.7630848324807,1347
2918.5012851449196,1315
2920.2391588681758,1385
2921.976706310227,1325
2923.7139277791334,1377
2925.4508235830313,1374
2927.187394030137,1363
2928.923639428745,1391
2930.6595600872306,1387
2932.395156314046,1401
2934.1304284177218,1421
2935.8653767068713,1302
2937.6000014901815,1383
2939.3343030764227,1404
2941.068281774442,1392
2942.8019378931644,1335
2944.5352717415976,1408
2946.2682836288236,1373
2948.0009738640065,1347
2949.7333427563885,1395
2951.465390615289,1351
2953.1971177501086,1347
2954.9285244703265,1360
2956.6596110855,1334
2958.3903779052657,1345
2960.1208252393385,1364
2961.8509533975125,1343
2963.5807626896617,1334
2965.3102534257378,1329
2967.0394259157715,1353
2968.768280469873,1346
2970.496817398232,1352
2972.2250370111146,1382
2973.952939618869,1424
2975.6805255319196,1407
2977.4077950607707,1425
2979.134748516006,1409
2980.861386208289,1430
2982.587708448359,1401
2984.313715547037,1430
2986.039407815222,1421
2987.764785563891,1352
2989.489849104102,1362
2991.2145987469908,1349
2992.9390348037705,1364
2994.6631575857346,1394
2996.3869674042576,1370
2998.1104645707887,1328
2999.83364939686,1377
3001.5565221940783,1343
3003.2790832741334,1319
3005.0013329487924,1364
3006.7232715298996,1346
3008.4448993293804,1329
3010.166216659239,1309
3011.887223831558,1367
3013.607921158498,1381
3015.3283089522993,1397
3017.0483875252826,1403
3018.7681571898443,1349
3020.4876182584626,1356
3022.2067710436927,1358
3023.9256158581707,1293
3025.644153014609,1355
3027.362382825801,1311
3029.0803056046193,1322
3030.797921664012,1384
3032.5152313170106,1340
3034.2322348767225,1364
3035.9489326563353,1374
3037.665324969115,1344
3039.3814121284063,1342
3041.097194447633,1353
3042.812672240299,1372
3044.5278458199855,1375
3046.2427155003525,1331
3047.9572815951406,1375
3049.671544418167,1413
3051.38550428333,1379
3053.0991615046073,1354
3054.812516396051,1397
3056.5255692717974,1321
3058.2383204460575,1373
3059.9507702331257,1400
3061.662918947372,1398
3063.3747669032446,1370
3065.0863144152736,1291
3066.7975617980674,1319
3068.508509366309,1408
3070.219157434767,1367
3071.9295063182844,1369
3073.639556331785,1352
3075.3493077902704,1403
3077.058761008821,1376
3078.7679163025964,1367
3080.476773986837,1354
3082.1853343768594,1392
3083.89359778806,1385
3085.6015645359153,1375
3087.3092349359786,1336
3089.016609303884,1367
3090.7236879553434,1343
3092.4304712061476,1376
3094.136959372166,1381
3095.843152769349,1339
3097.5490517137237,1347
3099.2546565213966,1387
3100.959967508554,1425
3102.66498499146,1388
3104.3697092864577,1352
3106.0741407099695,1354
3107.778279578498,1386
3109.482126208622,1361
3111.1856809170004,1408
3112.8889440203716,1330
3114.5919158355528,1358
3116.294596679439,1391
3117.996986869006,1366
3119.6990867213062,1407
3121.4008965534726,1386
3123.102416682717,1369
3124.803647426329,1399
3126.5045891016784,1393
3128.205242026213,1424
3129.90560651746,1406
3131.605682893025,1388
3133.3054714705922,1474
3135.0049725679282,1420
3136.7041865028714,1314
3138.4031135933465,1350
3140.101754157353,1373
3141.800108512971,1342
3143.498176978357,1426
3145.1959598717494,1360
3146.8934575114636,1341
3148.5906702158954,1386
3150.2875983035183,1404
3151.9842420928853,1318
3153.680601902627,1393
3155.376678051456,1359
3157.07247085816,1359
3158.767980641609,1347
3160.463207720748,1329
3162.158152414606,1338
3163.8528150422862,1404
3165.5471959229726,1464
3167.2412953759303,1344
3168.9351137204976,1368
3170.628651276098,1356
3172.3219083622307,1396
3174.014885298474,1328
3175.707582404485,1360
3177.4000000000005,1350
3179.092138404835,1333
3180.7839979388846,1359
3182.47557892212,1376
3184.166881674594,1333
3185.8579065164386,1379
3187.5486537678626,1382
3189.2391237491547,1360
3190.9293167806827,1350
3192.6192331828934,1343
3194.3088732763117,1342
3195.998237381542,1382
3197.687325819268,1345
3199.376138910251,1377
3201.064676975334,1319
3202.7529403354347,1341
3204.4409293115523,1309
3206.1286442247647,1307
3207.816085396229,1302
3209.5032531471825,1316
3211.190147798936,1305
3212.8767696728846,1320
3214.5631190905015,1312
3216.2491963733373,1282
3217.9350018430214,1321
3219.6205358212637,1286
3221.305798629851,1289
3222.990790590651,1306
3224.6755120256103,1266
3226.359963256751,1300
3228.0441446061795,1327
3229.7280563960758,1349
3231.411698948703,1284
3233.0950725863995,1301
3234.778177631587,1363
3236.461014406761,1346
3238.1435832345005,1322
3239.8258844374595,1376
3241.507918338374,1389
3243.1896852600576,1285
3244.8711855254023,1364
3246.552419457381,1370
3248.233387379042,1286
3249.914089613516,1329
3251.59452648401,1342
3253.274698313813,1357
3254.95460542629,1357
3256.6342481448855,1330
3258.313626793125,1339
3259.9927416946084,1294
3261.6715931730196,1300
3263.3501815521176,1316
3265.0285071557437,1321
3266.706570307815,1355
3268.3843713323286,1317
3270.0619105533615,1313
3271.739188295068,1270
3273.4162048816834,1284
3275.0929606375184,1350
3276.769455886966,1401
3278.445690954498,1326
3280.1216661646613,1335
3281.797381842087,1318
3283.4728383114807,1311
3285.1480358976296,1389
3286.8229749253996,1304
3288.4976557197333,1311
3290.172078605655,1324
3291.846243908266,1323
3293.5201519527463,1246
3295.193803064357,1246
3296.8671975684374,1290
3298.5403357904024,1294
3300.21321805575,1321
3301.8858446900567,1330
3303.558216018975,1311
3305.23033236824,1286
3306.9021940636603,1387
3308.57380143113,1372
3310.2451547966184,1365
3311.916254486174,1301
3313.5871008259246,1362
3315.2576941420766,1380
3316.9280347609147,1337
3318.5981230088046,1296
3320.2679592121895,1282
3321.9375436975924,1331
3323.606876791612,1229
3325.27595882093,1312
3326.944790112305,1352
3328.6133709925753,1311
3330.2817017886573,1326
3331.949782827547,1350
3333.617614436319,1313
3335.2851969421245,1317
3336.952530672199,1291
3338.619615953853,1330
3340.286453114475,1329
3341.9530424815357,1308
3343.619384382583,1380
3345.2854791452437,1324
3346.951327097224,1265
3348.6169285663073,1330
3350.2822838803577,1299
3351.947393367319,1282
3353.61225735521,1363
3355.2768761721345,1304
3356.9412501462693,1311
3358.605379605873,1319
3360.2692648792827,1346
3361.9329062949146,1304
3363.596304181263,1303
