CollectionTime,7/9/2024 11:36:30 AM
ExposureUsed,3
CalibratedSpectrum
-962.7078968117929,569
-959.9714848408522,589
-957.2358232597828,577
-954.5009119013725,598
-951.7667505983302,591
-949.0333391832855,625
-946.3006774887896,620
-943.5687653473143,603
-940.837602591253,593
-938.1071890529199,594
-935.3775245645503,599
-932.6486089583007,617
-929.9204420662485,594
-927.1930237203925,582
-924.4663537526524,603
-921.7404319948689,600
-919.0152582788041,601
-916.2908324361409,659
-913.5671542984834,614
-910.8442236973568,604
-908.1220404642074,617
-905.4006044304027,638
-902.679915427231,626
-899.959973285902,602
-897.2407778375464,620
-894.5223289132158,596
-891.8046263438832,586
-889.0876699604426,578
-886.3714595937089,585
-883.6559950744183,587
-880.9412762332282,577
-878.2273029007168,586
-875.5140749073835,604
-872.8015920836489,582
-870.0898542598545,574
-867.3788612662631,576
-864.6686129330585,582
-861.9591090903457,598
-859.2503495681506,593
-856.5423341964203,600
-853.8350628050229,570
-851.1285352237478,562
-848.4227512823054,553
-845.7177108103272,576
-843.0134136373656,559
-840.3098595928943,602
-837.6070485063082,604
-834.9049802069229,598
-832.2036545239757,585
-829.5030712866244,596
-826.8032303239481,614
-824.1041314649472,615
-821.4057745385428,592
-818.7081593735775,575
-816.0112857988148,563
-813.3151536429393,591
-810.6197627345566,578
-807.9251129021936,571
-805.2312039742981,607
-802.5380357792392,618
-799.8456081453069,565
-797.1539209007124,563
-794.462973873588,611
-791.772766891987,596
-789.083299783884,628
-786.3945723771743,611
-783.7065844996748,575
-781.0193359791231,593
-778.3328266431781,612
-775.6470563194197,628
-772.9620248353489,611
-770.2777320183878,602
-767.5941776958798,591
-764.9113616950891,617
-762.2292838432011,633
-759.5479439673222,604
-756.8673418944801,639
-754.1874774516235,610
-751.5083504656222,587
-748.8299607632671,617
-746.15230817127,654
-743.475392516264,610
-740.7992136248035,644
-738.1237713233636,643
-735.4490654383407,612
-732.7750957960521,678
-730.1018622227365,671
-727.4293645445534,652
-724.7576025875837,640
-722.0865761778291,631
-719.4162851412126,625
-716.7467293035781,631
-714.0779084906909,626
-711.409822528237,650
-708.7424712418238,622
-706.0758544569796,668
-703.4099719991541,679
-700.7448236937178,680
-698.0804093659622,672
-695.4167288411002,660
-692.7537819442656,643
-690.0915685005134,676
-687.4300883348199,658
-684.7693412720819,682
-682.1093271371178,678
-679.4500457546669,657
-676.7914969493897,703
-674.1336805458676,668
-671.4765963686034,698
-668.8202442420206,706
-666.1646239904642,711
-663.5097354382001,712
-660.8555784094151,724
-658.2021527282176,730
-655.5494582186366,724
-652.8974947046223,731
-650.2462620100463,692
-647.5957599587009,719
-644.9459883742998,719
-642.2969470804776,742
-639.6486359007902,729
-637.0010546587141,702
-634.3542031776476,751
-631.7080812809096,705
-629.0626887917401,746
-626.4180255333008,699
-623.7740913286734,708
-621.1308860008619,752
-618.4884093727904,737
-615.8466612673046,708
-613.2056415071715,713
-610.5653499150785,730
-607.9257863136347,717
-605.28695052537,770
-602.6488423727357,735
-600.0114616781036,690
-597.3748082637674,709
-594.7388819519412,708
-592.1036825647604,725
-589.4692099242818,740
-586.8354638524829,743
-584.2024441712624,752
-581.5701507024403,728
-578.9385832677575,730
-576.3077416888759,748
-573.6776257873787,710
-571.0482353847704,731
-568.4195703024757,752
-565.7916303618415,776
-563.164415384135,761
-560.5379251905453,749
-557.9121596021815,724
-555.2871184400748,776
-552.6628015251767,770
-550.0392086783606,783
-547.4163397204204,744
-544.794194472071,750
-542.1727727539491,773
-539.5520743866118,777
-536.9320991905377,820
-534.3128469861261,857
-531.6943175936979,864
-529.0765108334947,895
-526.4594265256793,872
-523.8430644903358,986
-521.2274245474689,1139
-518.612506517005,1161
-515.9983102187913,1157
-513.3848354725959,1171
-510.77208209810846,1172
-508.16004991493924,1218
-505.5487387426199,1388
-502.9381484006032,1555
-500.3282787082628,1577
-497.71912948489364,1577
-495.1107005497117,1424
-492.5029917218539,1368
-489.8960028203786,1232
-487.28973366426493,1109
-484.68418407241325,1060
-482.07935386364494,1038
-479.47524285670266,968
-476.87185087025,964
-474.2691777228715,983
-471.66722323307334,918
-469.0659872192821,917
-466.4654694998459,993
-463.86566989303384,952
-461.26658821703614,934
-458.66822428996414,943
-456.07057792985,980
-453.4736489546475,926
-450.877437182231,932
-448.28194243039627,882
-445.68716451686,871
-443.09310325926003,909
-440.49975847515555,921
-437.9071299820263,876
-435.31521759727354,868
-432.72402113821954,924
-430.13354042210767,942
-427.5437752661022,959
-424.95472548728867,953
-422.36639090267386,958
-419.7787713291855,971
-417.1918665836721,1029
-414.60567648290385,999
-412.0202008435715,1002
-409.4354394822874,1012
-406.8513922155845,1012
-404.26805885991723,1028
-401.685439231661,1068
-399.103533147112,1030
-396.522340422488,1033
-393.9418608739278,927
-391.3620943174908,1024
-388.7830405691583,980
-386.2046994448317,926
-383.6270707603344,885
-381.05015433141045,894
-378.473949973725,812
-375.8984575028645,757
-373.32367673433623,722
-370.74960748356875,655
-368.1762495659117,638
-365.60360279663576,591
-363.03166699093265,532
-360.4604419639154,516
-357.8899275306178,482
-355.32012350599507,500
-352.7510297049233,513
-350.1826459421999,487
-347.61497203254316,451
-345.04800779059235,460
-342.4817530309082,460
-339.91620756797226,485
-337.35137121618743,487
-334.7872437898774,494
-332.22382510328725,494
-329.66111497058273,472
-327.09911320585127,499
-324.53781962310075,485
-321.9772340362607,508
-319.4173562591816,476
-316.8581861056348,468
-314.2997233893127,464
-311.7419679238294,445
-309.1849195227194,433
-306.62857799943856,465
-304.0729431673641,497
-301.51801483979375,520
-298.963792829947,509
-296.41027695096386,502
-293.85746701590574,591
-291.3053628377552,544
-288.7539642294155,524
-286.2032710037115,494
-283.65328297338897,489
-281.1039999511146,521
-278.5554217494762,570
-276.007548180983,561
-273.4603790580651,510
-270.9139141930734,536
-268.3681533982807,514
-265.8230964858798,540
-263.27874326798565,549
-260.7350935566336,550
-258.1921471637804,545
-255.6499039013039,546
-253.10836358100266,575
-250.56752601459698,563
-248.02739101372765,586
-245.48795838995704,620
-242.94922795476816,593
-240.41119951956557,598
-237.8738728956746,643
-235.33724789434166,658
-232.80132432673452,609
-230.2661020039418,541
-227.73158073697357,591
-225.19776033676033,641
-222.66464061415422,683
-220.1322213799284,626
-217.60050244477725,617
-215.06948361931552,638
-212.53916471408013,660
-210.00954553952818,678
-207.48062590603843,665
-204.9524056239104,602
-202.4248845033651,701
-199.8980623545441,732
-197.37193898751036,700
-194.84651421224817,675
-192.32178783866232,702
-189.79775967657952,741
-187.27442953574644,785
-184.7517972258321,778
-182.2298625564256,746
-179.7086253370378,746
-177.18808537710026,687
-174.66824248596583,721
-172.14909647290835,794
-169.6306471471229,772
-167.11289431772548,814
-164.59583779375328,797
-162.07947738416453,799
-159.5638128978386,808
-157.04884414357605,938
-154.53457093009854,1119
-152.02099306604828,1077
-149.50811035998936,849
-146.99592262040665,798
-144.48442965570587,825
-141.97363127421409,964
-139.46352728417958,1048
-136.95411749377126,1124
-134.44540171107985,1094
-131.93737974411636,859
-129.43005140081357,817
-126.92341648902493,1110
-124.41747481652521,1491
-121.91222619101006,1767
-119.40767042009657,2136
-116.90380731132257,2436
-114.40063667214702,2339
-111.8981583099503,1921
-109.3963720320337,1524
-106.89527764561933,1564
-104.39487495785067,1749
-101.89516377579241,2195
-99.39614390642998,3012
-96.89781515667039,3342
-94.40017733334128,3337
-91.90323024319173,2873
-89.40697369289148,3219
-86.91140748903172,4111
-84.41653143812482,4511
-81.92234534660395,3533
-79.42884902082358,2922
-76.93604226705907,4241
-74.4439248915071,8051
-71.95249670028534,11600
-69.46175749943245,14093
-66.97170709490854,13587
-64.48234529259423,11613
-61.99367189829195,9652
-59.50568671772464,8245
-57.01838955653636,6397
-54.53178022029283,6052
-52.045858514480074,7229
-49.560624244506016,7871
-47.07607721569923,7465
-44.59221723330904,6673
-42.10904410250669,6432
-39.62655762838392,6011
-37.14475761595372,6071
-34.66364387015028,6477
-32.18321619582866,7083
-29.70347439776515,7560
-27.224418280657005,8339
-24.74604764912317,9631
-22.26836230770266,13590
-19.7913620608565,24337
-17.315046712966478,43333
-14.83941606833514,62325
-12.36446993118659,65040
-9.89020810566592,65040
-7.416630395839093,65040
-4.94373660569363,65040
-2.471526539137585,65040
-6.821210263296962E-13,65040
2.47084320796705,65040
4.941003281093458,65040
7.410480415786196,65040
9.879274808531363,65040
12.347386655893956,65040
14.814816154518212,65040
17.28156350112681,65040
19.74762889252179,65040
22.21301252558385,65040
24.67771459727237,20709
27.141735304626195,3915
29.605074844762612,2522
32.06773341487792,2224
34.52971121224755,1964
36.99100843422559,1931
39.45162527824516,1793
41.91156194181792,1635
44.370818622535126,1631
46.82939551806646,1302
49.287292826160524,1417
51.74451074464503,1468
54.201049471426245,1501
56.65690920448981,1318
59.112090141899785,1151
61.56659248179983,1082
64.02041642241159,985
66.4735621620365,881
68.92602989905402,938
71.37781983192338,960
73.82893215918205,979
76.27936707944684,1107
78.72912479141326,1119
81.17820549385567,1230
83.62660938562783,1287
86.07433666566146,1305
88.5213875329681,930
90.96776218663751,848
93.41346082583925,884
95.85848364982041,992
98.30283085790859,1000
100.7465026495089,1008
103.18949922410604,1106
105.63182078126385,1059
108.07346752062438,1027
110.51443964190923,837
112.95473734491827,733
115.39436082953114,820
117.83331029570547,930
120.27158594347827,886
122.7091879729652,953
125.1461165843615,977
127.58237197794062,880
130.01795435405518,829
132.4528639131364,838
134.88710085569494,854
137.32066538231982,880
139.75355769367923,790
142.1857779905207,794
144.61732647366978,786
147.04820334403132,832
149.47840880258934,880
151.90794305040674,935
154.33680628862487,1021
156.76499871846443,1237
159.19252054122433,1346
161.61937195828352,1529
164.04555317109896,1668
166.47106438120693,1975
168.89590579022217,2153
171.320077599839,2310
173.7435800118302,2375
176.16641322804742,2504
178.58857745042144,2633
181.01007288096173,2792
183.43089972175687,2790
185.85105817497413,2753
188.27054844285988,2825
190.6893707277394,2701
193.10752523201643,2858
195.5250121581745,2883
197.9418317087751,2940
200.3579840864594,3052
202.7734694939469,3087
205.18828813403627,3025
207.6024402096051,3112
210.01592592360964,3040
212.42874547908548,3067
214.84089907914665,2985
217.2523869269868,2979
219.66320922587727,3061
222.0733661791695,2925
224.48285799029293,2916
226.8916848627572,2929
229.29984700014882,2961
231.7073446061355,3019
234.11417788446204,3006
236.520347038953,3016
238.92585227351185,3095
241.33069379212054,3189
243.73487179884035,3228
246.1383864978112,3274
248.541238093252,3193
250.9434267894609,3268
253.34495279081432,3291
255.74581630176783,3246
258.1460175268563,3202
260.54555667069314,3343
262.9444339379703,3252
265.3426495334594,3166
267.7402036620107,3243
270.1370965285529,3084
272.53332833809407,3069
274.9288992957214,2899
277.32380960660055,2818
279.718059475976,2808
282.1116491091717,2800
284.5045787115897,2764
286.89684848871195,2702
289.2884586460981,2822
291.67940938938807,2774
294.0697009242996,2780
296.4593334566299,2774
298.84830719225477,2711
301.23662233712923,2724
303.6242790972866,2710
306.01127767884,2595
308.39761828798066,2662
310.78330113097934,2653
313.16832641418534,2542
315.5526943440269,2508
317.9364051270112,2476
320.3194589697242,2551
322.70185607883093,2538
325.0835966610754,2508
327.4646809232805,2385
329.8451090723478,2438
332.2248813152577,2526
334.6039978590701,2396
336.9824589109231,2315
339.36026467803447,2265
341.7374153677,2377
344.113911187295,2222
346.48975234427337,2284
348.8649390461686,2295
351.2394715005918,2289
353.61334991523415,2263
355.9865744978655,2210
358.35914545633375,2214
360.73106299856715,2322
363.10232733257146,2264
365.47293866643247,2389
367.84289720831396,2270
370.2122031664593,2154
372.5808567491905,2207
374.9488581649083,2217
377.31620762209275,2143
379.6829053293021,2165
382.0489514951745,2135
384.4143463284262,2132
386.7790900378528,2075
389.14318283232853,2124
391.50662492080653,2137
393.86941651231916,2109
396.23155781597745,2179
398.5930490409713,2100
400.9538903965696,2224
403.3140820921202,2162
405.6736243370498,2058
408.03251734086336,2073
410.3907613131465,2107
412.74835646356166,2116
415.10530300185144,2133
417.4616011378372,2127
419.81725108141893,2111
422.1722530425758,2116
424.5266072313656,2125
426.880313857925,2094
429.2333731324701,2107
431.58578526529516,2098
433.9375504667738,2137
436.2886689473588,2117
438.63914091758113,2067
440.9889665880513,2079
443.33814616945835,2088
445.68667987257015,2064
448.03456790823395,2016
450.3818104873759,2043
452.72840782100013,2043
455.07436012019105,1994
457.41966759611057,2016
459.7643304600007,2116
462.10834892318155,2052
464.4517231970525,2104
466.79445349309174,2014
469.1365400228566,2061
471.4779829979826,1996
473.81878263018564,2020
476.15893913125876,2130
478.4984527130747,2118
480.8373235875855,2133
483.17555196682144,2201
485.5131380628919,2203
487.8500820879857,2281
490.1863842543697,2456
492.52204477439034,2564
494.8570638604725,2833
497.1914417251204,3175
499.52517858091653,3450
501.85827464052306,3559
504.19073011668036,3601
506.5225452222086,3516
508.85372017000566,3354
511.18425517304956,3304
513.514150444396,3547
515.8434061971808,4298
518.1720226446176,5254
520.4999999999999,5561
522.8273384766991,5206
525.1540382881666,4571
527.480099647932,4126
529.8055227696037,3389
532.1303078668694,2782
534.454455153496,2394
536.777964843328,2322
539.1008371502907,2292
541.4230722883866,2238
543.744670471698,2186
546.0656319143858,2141
548.3859568306899,2106
550.7056454349294,2042
553.0246979415016,2081
555.3431145648834,2094
557.6608955196306,2044
559.978041020377,2057
562.2945512818363,2097
564.6104265188006,2151
566.9256669461412,2084
569.2402727788082,2074
571.5542442318302,2139
573.8675815203156,2146
576.1802848594508,2105
578.4923544645015,2168
580.8037905508126,2164
583.114593333807,2219
585.4247630289875,2189
587.7342998519354,2142
590.0432040183106,2100
592.3514757438526,2113
594.6591152443794,2148
596.9661227357875,2095
599.2724984340531,2110
601.578242555231,2143
603.8833553154542,2131
606.1878369309362,2123
608.4916876179676,2084
610.7949075929192,2094
613.0974970722403,2105
615.3994562724587,2075
617.7007854101818,2106
620.0014847020951,2092
622.3015543649641,2198
624.6009946156324,2070
626.8998056710224,2078
629.1979877481361,2084
631.4955410640538,2105
633.7924658359349,2106
636.0887622810175,2150
638.3844306166192,2166
640.6794710601358,2202
642.9738838290426,2110
645.2676691408932,2237
647.5608272133207,2175
649.853358264037,2154
652.1452625108324,2075
654.4365401715764,2299
656.7271914642178,2221
659.0172166067838,2195
661.3066158173809,2106
663.5953893141935,2241
665.8835373154867,2196
668.1710600396028,2249
670.4579577049639,2203
672.7442305300709,2192
675.0298787335033,2193
677.3149025339197,2137
679.599302150058,2220
681.8830778007342,2151
684.1662297048437,2144
686.4487580813608,2132
688.7306631493387,2189
691.0119451279091,2202
693.2926042362834,2142
695.5726406937516,2121
697.8520547196814,2132
700.1308465335215,2097
702.4090163547982,2127
704.6865644031171,2157
706.9634908981619,2104
709.2397960596965,2115
711.5154801075631,2102
713.7905432616823,2205
716.0649857420548,2126
718.3388077687592,2081
720.612009561953,2170
722.8845913418733,2109
725.1565533288352,2180
727.427895743234,2194
729.6986188055427,2139
731.9687227363137,2121
734.238207756178,2106
736.5070740858458,2141
738.7753219461066,2048
741.0429515578281,2185
743.3099631419569,2109
745.5763569195191,2125
747.8421331116193,2107
750.1072919394409,2163
752.3718336242467,2114
754.6357583873777,2145
756.8990664502545,2139
759.1617580343765,2128
761.423833361321,2052
763.6852926527457,2095
765.9461361303862,2166
768.206364016058,2189
770.4659765316536,2100
772.7249738991469,2171
774.9833563405886,2189
777.2411240781092,2134
779.4982773339183,2124
781.7548163303044,2152
784.010741289634,2191
786.2660524343538,2287
788.5207499869881,2151
790.7748341701416,2236
793.0283052064964,2163
795.2811633188143,2147
797.5334087299362,2206
799.7850416627813,2191
802.0360623403484,2242
804.2864709857143,2185
806.5362678220353,2199
808.7854530725468,2261
811.0340269605625,2130
813.2819897094754,2191
815.5293415427581,2270
817.77608268396,2151
820.0222133567116,2165
822.2677337847211,2219
824.5126441917765,2179
826.7569448017433,2230
829.0006358385675,2200
831.2437175262731,2222
833.4861900889629,2259
835.7280537508192,2188
837.9693087361026,2243
840.2099552691533,2222
842.4499935743896,2188
844.689423876309,2266
846.9282463994886,2178
849.1664613685833,2200
851.4040690083276,2231
853.6410695435349,2172
855.877463199097,2171
858.1132501999847,2157
860.3484307712487,2239
862.5830051380175,2231
864.8169735254988,2212
867.0503361589791,2230
869.2830932638243,2201
871.5152450654786,2233
873.7467917894654,2179
875.9777336613873,2188
878.2080709069252,2176
880.4378037518389,2151
882.666932421968,2394
884.8954571432301,2247
887.1233781416219,2343
889.3506956432192,2320
891.5774098741766,2254
893.803521060728,2326
896.0290294291852,2356
898.2539352059397,2296
900.4782386174619,2315
902.7019398903011,2303
904.925039251085,2324
907.147536926521,2300
909.3694331433943,2281
911.59072812857,2220
913.8114221089921,2267
916.0315153116827,2217
918.2510079637437,2173
920.4699002923547,2115
922.6881925247761,2188
924.905884888345,2150
927.1229776104793,2215
929.3394709186747,2181
931.555365040506,2151
933.7706602036275,2215
935.9853566357709,2190
938.1994545647489,2244
940.4129542184515,2249
942.6258558248488,2254
944.8381596119883,2207
947.0498658079974,2267
949.2609746410825,2259
951.4714863395287,2179
953.6814011316998,2228
955.8907192460387,2220
958.0994409110671,2195
960.3075663553858,2179
962.5150958076741,2261
964.7220294966913,2231
966.928367651274,2142
969.1341105003388,2128
971.3392582728806,2162
973.5438111979742,2133
975.747769504772,2105
977.9511334225061,2143
980.153903180487,2064
982.3560790081052,2104
984.5576611348289,2047
986.7586497902058,2021
988.9590452038618,2003
991.158847605503,1996
993.3580572249133,1985
995.5566742919558,2000
997.7546990365728,1946
999.952131688785,1966
1002.1489724786926,1947
1004.3452216364743,1912
1006.5408793923874,1887
1008.7359459767691,1874
1010.9304216200343,1849
1013.1243065526781,1862
1015.3176010052733,1875
1017.510305208472,1887
1019.7024193930064,1842
1021.8939437896848,1774
1024.0848786293977,1860
1026.2752241431122,1876
1028.4649805618747,1791
1030.6541481168115,1850
1032.842727039127,1848
1035.0307175601051,1868
1037.2181199111074,1822
1039.4049343235752,1739
1041.591161029029,1772
1043.7768002590683,1832
1045.9618522453698,1803
1048.1463172196918,1790
1050.3301954138697,1745
1052.513487059818,1796
1054.69619238953,1786
1056.8783116350783,1843
1059.0598450286152,1802
1061.2407928023704,1804
1063.4211551886528,1792
1065.6009324198508,1809
1067.780124728432,1847
1069.9587323469414,1741
1072.1367555080046,1709
1074.314194444325,1748
1076.4910493886855,1747
1078.667320573947,1724
1080.843008233051,1768
1083.0181125990161,1781
1085.1926339049414,1746
1087.3665723840027,1680
1089.5399282694575,1727
1091.7127017946405,1774
1093.8848931929647,1743
1096.0565026979243,1651
1098.2275305430899,1710
1100.3979769621128,1709
1102.567842188722,1660
1104.737126456726,1655
1106.9058300000124,1699
1109.0739530525475,1687
1111.2414958483764,1614
1113.4084586216231,1660
1115.5748416064907,1717
1117.7406450372605,1637
1119.9058691482942,1631
1122.0705141740304,1707
1124.2345803489884,1747
1126.3980679077658,1623
1128.5609770850388,1676
1130.7233081155623,1644
1132.8850612341707,1651
1135.0462366757774,1625
1137.2068346753745,1684
1139.3668554680326,1713
1141.526299288901,1687
1143.68516637321,1632
1145.8434569562655,1719
1148.001171273455,1605
1150.158309560244,1658
1152.3148720521767,1635
1154.470858984876,1659
1156.626270594044,1626
1158.7811071154629,1651
1160.9353687849912,1688
1163.089055838569,1622
1165.242168512213,1644
1167.3947070420209,1668
1169.5466716641677,1582
1171.6980626149075,1610
1173.8488801305748,1619
1175.9991244475814,1627
1178.1487958024186,1675
1180.2978944316555,1633
1182.4464205719428,1562
1184.5943744600072,1591
1186.7417563326567,1544
1188.8885664267755,1657
1191.0348049793297,1565
1193.1804722273619,1579
1195.325568407995,1657
1197.4700937584303,1631
1199.614048515948,1635
1201.7574329179074,1622
1203.900247201746,1666
1206.042491604982,1666
1208.1841663652099,1580
1210.3252717201053,1608
1212.465807907422,1657
1214.6057751649923,1618
1216.7451737307279,1593
1218.8840038426192,1671
1221.0222657387353,1603
1223.1599596572241,1596
1225.2970858363137,1625
1227.4336445143094,1693
1229.5696359295966,1599
1231.705060320639,1668
1233.8399179259786,1701
1235.9742089842384,1683
1238.107933734118,1684
1240.2410924143974,1695
1242.373685263935,1758
1244.5057125216676,1646
1246.6371744266116,1677
1248.7680712178621,1735
1250.898403134593,1729
1253.028170416058,1660
1255.1573733015875,1676
1257.2860120305932,1657
1259.4140868425648,1715
1261.54159797707,1633
1263.6685456737569,1677
1265.7949301723515,1655
1267.9207517126597,1711
1270.046010534565,1697
1272.1707068780306,1720
1274.2948409830983,1776
1276.4184130898889,1734
1278.541423438603,1710
1280.6638722695184,1811
1282.785759822993,1761
1284.9070863394636,1713
1287.0278520594447,1785
1289.1480572235314,1763
1291.2677020723963,1789
1293.3867868467923,1767
1295.5053117875495,1836
1297.623277135579,1786
1299.740683131868,1769
1301.8575300174857,1859
1303.973818033578,1848
1306.0895474213703,1818
1308.2047184221678,1806
1310.3193312773528,1814
1312.4333862283888,1860
1314.5468835168163,1810
1316.659823384255,1742
1318.7722060724045,1889
1320.8840318230418,1830
1322.9953008780249,1811
1325.1060134792888,1786
1327.2161698688478,1815
1329.3257702887959,1821
1331.4348149813054,1862
1333.5433041886276,1788
1335.6512381530933,1858
1337.7586171171101,1752
1339.8654413231675,1816
1341.9717110138317,1814
1344.0774264317488,1794
1346.1825878196432,1784
1348.2871954203192,1837
1350.3912494766587,1851
1352.4947502316231,1797
1354.5976979282532,1763
1356.7000928096686,1775
1358.8019351190665,1809
1360.9032250997243,1792
1363.0039629949988,1810
1365.1041490483235,1837
1367.2037835032133,1787
1369.3028666032606,1803
1371.401398592137,1783
1373.4993797135926,1793
1375.5968102114575,1828
1377.6936903296396,1838
1379.7900203121262,1813
1381.8858004029835,1831
1383.9810308463561,1860
1386.075711886469,1873
1388.1698437676241,1886
1390.2634267342032,1879
1392.356461030667,1915
1394.4489469015557,1887
1396.5408845914872,1913
1398.6322743451592,1892
1400.7231164073469,1917
1402.813411022907,1926
1404.903158436773,1931
1406.9923588939578,1905
1409.0810126395531,1956
1411.1691199187303,1954
1413.2566809767386,2025
1415.343696058907,2004
1417.4301654106425,2026
1419.5160892774315,2012
1421.6014679048399,2019
1423.6863015385125,2060
1425.7705904241707,1988
1427.8543348076178,2037
1429.9375349347342,2106
1432.0201910514802,2040
1434.102303403894,2051
1436.1838722380944,2174
1438.2648978002767,2117
1440.3453803367174,2198
1442.4253200937692,2212
1444.5047173178677,2269
1446.5835722555234,2277
1448.6618851533285,2354
1450.739656257952,2262
1452.8168858161434,2390
1454.8935740747306,2384
1456.96972128062,2489
1459.045327680797,2494
1461.120393522327,2565
1463.1949190523528,2578
1465.2689045180973,2510
1467.3423501668608,2634
1469.415256246024,2744
1471.4876230030463,2726
1473.559450685465,2747
1475.6307395408976,2867
1477.7014898170391,2915
1479.771701761665,2933
1481.8413756226287,3023
1483.9105116478618,3012
1485.9791100853772,3083
1488.0471711832643,3067
1490.1146951896926,3139
1492.1816823529098,3193
1494.2481329212433,3176
1496.3140471430984,3225
1498.3794252669609,3277
1500.4442675413939,3403
1502.5085742150404,3349
1504.572345536622,3412
1506.6355817549388,3502
1508.6982831188702,3586
1510.7604498773744,3509
1512.8220822794883,3598
1514.8831805743293,3595
1516.9437450110909,3683
1519.003775839048,3684
1521.0632733075522,3786
1523.1222376660367,3852
1525.1806691640113,3876
1527.2385680510652,3863
1529.2959345768668,4020
1531.3527689911643,4058
1533.4090715437833,4209
1535.4648424846291,4312
1537.5200820636855,4204
1539.5747905310159,4344
1541.6289681367616,4247
1543.6826151311434,4298
1545.7357317644614,4442
1547.7883182870937,4430
1549.8403749494987,4570
1551.8919020022113,4703
1553.9428996958477,4772
1555.9933682811015,4854
1558.0433080087469,4992
1560.0927191296346,5074
1562.1416018946961,5095
1564.1899565549415,5144
1566.2377833614592,5132
1568.2850825654164,5208
1570.3318544180606,4907
1572.3780991707158,4530
1574.423817074788,4462
1576.4690083817595,4305
1578.5136733431923,4082
1580.5578122107272,3811
1582.601425236085,3711
1584.6445126710646,3558
1586.6870747675434,3315
1588.7291117774776,3174
1590.7706239529034,3080
1592.8116115459347,2911
1594.8520748087658,2862
1596.8920139936686,2697
1598.9314293529933,2556
1600.9703211391711,2553
1603.008689604711,2486
1605.0465350022005,2322
1607.0838575843068,2300
1609.1206576037753,2316
1611.1569353134305,2297
1613.1926909661765,2194
1615.2279248149953,2090
1617.2626371129481,2058
1619.2968281131757,2116
1621.3304980688963,2067
1623.3636472334088,2039
1625.39627586009,2025
1627.428384202396,1932
1629.459972513861,1887
1631.4910410480993,1906
1633.5215900588028,1926
1635.551619799744,1885
1637.5811305247717,1779
1639.6101224878166,1819
1641.6385959428862,1850
1643.6665511440683,1790
1645.693988345528,1786
1647.7209078015112,1783
1649.7473097663405,1803
1651.7731944944203,1808
1653.7985622402307,1815
1655.823413258333,1790
1657.847747803366,1748
1659.8715661300494,1755
1661.8948684931793,1780
1663.9176551476316,1823
1665.9399263483624,1810
1667.9616823504057,1737
1669.982923408873,1796
1672.0036497789574,1743
1674.0238617159293,1761
1676.043559475138,1746
1678.0627433120121,1723
1680.081413482059,1751
1682.0995702408654,1713
1684.117213844096,1661
1686.134344547495,1736
1688.1509626068864,1781
1690.1670682781705,1688
1692.182661817329,1673
1694.1977434804217,1749
1696.2123135235875,1770
1698.226372203043,1658
1700.2399197750851,1683
1702.2529564960905,1704
1704.2654826225112,1820
1706.277498410882,1738
1708.2890041178139,1689
1710.2999999999988,1696
1712.3104863142066,1683
1714.3204633172854,1747
1716.329931266163,1652
1718.3388904178469,1703
1720.3473410294214,1667
1722.3552833580516,1677
1724.3627176609807,1724
1726.3696441955308,1585
1728.3760632191033,1646
1730.3819749891782,1675
1732.3873797633146,1639
1734.3922777991502,1662
1736.3966693544012,1617
1738.4005546868639,1695
1740.4039340544127,1674
1742.406807715001,1607
1744.4091759266616,1659
1746.4110389475054,1582
1748.4123970357223,1660
1750.413250449582,1661
1752.4135994474318,1641
1754.4134442876993,1614
1756.4127852288902,1672
1758.4116225295893,1588
1760.4099564484595,1646
1762.407787244244,1580
1764.405115175764,1569
1766.4019405019203,1593
1768.3982634816916,1605
1770.3940843741357,1640
1772.3894034383907,1587
1774.3842209336717,1601
1776.378537119274,1580
1778.372352254571,1577
1780.3656665990156,1542
1782.3584804121397,1549
1784.3507939535534,1559
1786.3426074829463,1585
1788.3339212600863,1536
1790.3247355448211,1556
1792.3150505970766,1594
1794.3048666768573,1557
1796.2941840442477,1519
1798.2830029594106,1539
1800.2713236825884,1602
1802.2591464741004,1553
1804.2464715943465,1533
1806.2332993038058,1543
1808.2196298630352,1522
1810.2054635326708,1549
1812.190800573428,1515
1814.175641246101,1530
1816.1599858115628,1552
1818.1438345307652,1524
1820.127187664738,1567
1822.1100454745924,1552
1824.092408221516,1508
1826.0742761667766,1500
1828.055649571721,1510
1830.0365286977735,1551
1832.0169138064398,1532
1833.9968051593014,1517
1835.9762030180214,1473
1837.9551076443408,1529
1839.9335193000788,1555
1841.9114382471344,1516
1843.888864747485,1454
1845.8657990631878,1491
1847.842241456378,1489
1849.8181921892697,1451
1851.7936515241558,1486
1853.7686197234098,1570
1855.7430970494815,1511
1857.7170837649014,1492
1859.6905801322787,1532
1861.6635864143004,1485
1863.6361028737338,1536
1865.608129773424,1513
1867.5796673762961,1578
1869.5507159453537,1524
1871.521275743678,1524
1873.4913470344313,1576
1875.4609300808534,1559
1877.4300251462632,1536
1879.3986324940588,1544
1881.366752387717,1548
1883.3343850907936,1532
1885.3015308669228,1580
1887.268189979819,1563
1889.2343626932739,1518
1891.2000492711595,1496
1893.1652499774254,1540
1895.1299650761011,1534
1897.0941948312952,1504
1899.0579395071945,1538
1901.0211993680641,1495
1902.98397467825,1581
1904.9462657021745,1558
1906.9080727043415,1585
1908.869395949332,1554
1910.8302357018065,1636
1912.790592226504,1512
1914.7504657882428,1559
1916.7098566519212,1578
1918.6687650825133,1560
1920.6271913450764,1489
1922.5851357047422,1551
1924.5425984267245,1490
1926.499579776314,1508
1928.4560800188833,1561
1930.4120994198802,1506
1932.367638244833,1512
1934.32269675935,1519
1936.2772752291175,1494
1938.231373919899,1555
1940.1849930975404,1547
1942.1381330279637,1547
1944.0907939771696,1545
1946.0429762112412,1593
1947.9946799963363,1527
1949.9459055986945,1588
1951.896653284633,1588
1953.8469233205478,1541
1955.7967159729142,1569
1957.7460315082863,1563
1959.6948701932974,1517
1961.6432322946594,1595
1963.5911180791632,1584
1965.5385278136787,1562
1967.4854617651545,1473
1969.4319202006182,1557
1971.377903387176,1494
1973.3234115920136,1492
1975.268445082395,1518
1977.2130041256642,1549
1979.1570889892423,1522
1981.1006999406304,1506
1983.04383724741,1521
1984.986501177238,1548
1986.928691997853,1501
1988.8704099770712,1507
1990.811655382789,1532
1992.7524284829801,1538
1994.692729545698,1424
1996.6325588390755,1559
1998.5719166313224,1505
2000.5108031907307,1540
2002.4492187856677,1569
2004.387163684583,1511
2006.3246381560011,1496
2008.2616424685298,1454
2010.1981768908527,1492
2012.1342416917332,1463
2014.069837140014,1495
2016.0049635046162,1454
2017.9396210545406,1382
2019.8738100588666,1474
2021.8075307867502,1496
2023.740783507431,1518
2025.6735684902228,1447
2027.6058860045214,1479
2029.5377363198004,1463
2031.4691197056118,1518
2033.4000364315875,1473
2035.3304867674374,1446
2037.260470982952,1479
2039.189989347998,1476
2041.1190421325232,1475
2043.047629606554,1446
2044.9757520401945,1440
2046.9034097036288,1480
2048.8306028671195,1481
2050.7573318010086,1452
2052.683596775716,1495
2054.609398061742,1463
2056.5347359296647,1366
2058.4596106501403,1441
2060.384022493906,1437
2062.3079717317764,1509
2064.231458634646,1519
2066.1544834734873,1445
2068.077046519352,1489
2069.99914804337,1533
2071.9207883167524,1413
2073.8419676107865,1426
2075.7626861968406,1438
2077.6829443463607,1463
2079.6027423308715,1454
2081.522080421977,1517
2083.440958891362,1514
2085.359378010786,1511
2087.2773380520907,1497
2089.194839287196,1427
2091.111881988101,1507
2093.0284664268825,1384
2094.9445928756973,1450
2096.86026160678,1461
2098.775472892446,1479
2100.690227005088,1488
2102.604524217178,1493
2104.5183648012676,1438
2106.431749029985,1442
2108.34467717604,1470
2110.2571495122206,1424
2112.169166311393,1532
2114.080727846503,1466
2115.9918343905747,1464
2117.902486216711,1479
2119.8126835980956,1494
2121.722426807987,1512
2123.6317161197285,1508
2125.5405518067364,1478
2127.448934142509,1428
2129.356863400624,1559
2131.264339854737,1550
2133.1713637785815,1466
2135.077935445972,1507
2136.9840551308002,1569
2138.889723107037,1537
2140.7949396487334,1442
2142.699705030018,1540
2144.6040195250994,1524
2146.507883408264,1503
2148.4112969538774,1527
2150.3142604363848,1542
2152.2167741303097,1512
2154.1188383102535,1469
2156.0204532508997,1484
2157.9216192270064,1545
2159.822336513414,1517
2161.7226053850413,1496
2163.622426116884,1550
2165.5217989840185,1530
2167.4207242616,1590
2169.319202224862,1529
2171.2172331491165,1594
2173.1148173097563,1569
2175.0119549822507,1551
2176.90864644215,1532
2178.8048919650823,1542
2180.7006918267534,1541
2182.596046302952,1584
2184.4909556695407,1573
2186.3854202024645,1589
2188.279440177746,1592
2190.173015871487,1578
2192.066147559868,1601
2193.958835519149,1600
2195.851080025667,1578
2197.7428813558417,1636
2199.6342397861667,1567
2201.5251555932186,1587
2203.415629053651,1509
2205.3056604441986,1583
2207.19525004167,1598
2209.084398122958,1657
2210.9731049650327,1643
2212.861370844941,1608
2214.749196039812,1629
2216.636580826851,1588
2218.523525483344,1595
2220.410030286655,1707
2222.296095514226,1684
2224.1817214435805,1652
2226.066908352319,1685
2227.951656518121,1604
2229.835966218746,1637
2231.71983773203,1641
2233.6032713358913,1624
2235.486267308324,1617
2237.3688259274036,1654
2239.2509474712824,1617
2241.132632218193,1605
2243.013880446447,1614
2244.8946924344323,1560
2246.7750684606203,1629
2248.6550088035574,1655
2250.534513741871,1621
2252.413583554265,1629
2254.292218519526,1676
2256.170418916517,1636
2258.0481850241786,1626
2259.925517121534,1628
2261.8024154876825,1656
2263.678880401803,1584
2265.5549121431536,1616
2267.430510991071,1681
2269.305677224971,1691
2271.180411124348,1672
2273.0547129687766,1643
2274.9285830379076,1565
2276.8020216114737,1636
2278.6750289692845,1602
2280.5476053912294,1648
2282.4197511572766,1704
2284.2914665474727,1714
2286.162751841943,1694
2288.0336073208937,1699
2289.904033264608,1689
2291.774029953448,1689
2293.6435976678554,1644
2295.5127366883517,1587
2297.381447295534,1561
2299.2497297700825,1542
2301.1175843927526,1542
2302.9850114443825,1448
2304.852011205885,1475
2306.7185839582553,1460
2308.5847299825664,1441
2310.4504495599676,1403
2312.3157429716925,1383
2314.1806104990483,1346
2316.0450524234247,1383
2317.9090690262888,1406
2319.772660589186,1373
2321.635827393742,1364
2323.498569721661,1400
2325.3608878547248,1365
2327.2227820747967,1381
2329.0842526638157,1332
2330.945299903803,1320
2332.805924076857,1368
2334.6661254651535,1361
2336.525904350951,1371
2338.3852610165827,1380
2340.244195744464,1392
2342.102708817088,1371
2343.9608005170253,1401
2345.8184711269287,1375
2347.675720929526,1393
2349.532550207628,1407
2351.38895924412,1388
2353.24494832197,1320
2355.100517724223,1416
2356.955667734004,1313
2358.810398634514,1348
2360.664710709037,1382
2362.5186042409337,1450
2364.3720795136437,1388
2366.225136810686,1406
2368.0777764156583,1330
2369.929998612237,1486
2371.7818036841777,1440
2373.633191915315,1394
2375.484163589562,1406
2377.3347189909114,1395
2379.184858403434,1437
2381.03458211128,1429
2382.8838903986775,1436
2384.732783549936,1436
2386.5812618494406,1379
2388.4293255816588,1412
2390.2769750311327,1372
2392.1242104824883,1366
2393.971032220427,1458
2395.8174405297295,1461
2397.6634356952563,1472
2399.509018001947,1424
2401.3541877348193,1394
2403.1989451789705,1435
2405.043290619576,1492
2406.8872243418905,1421
2408.730746631247,1380
2410.5738577730594,1419
2412.4165580528183,1469
2414.258847756095,1413
2416.100727168537,1492
2417.9421965758734,1453
2419.783256263912,1400
2421.623906518538,1388
2423.4641476257157,1392
2425.303979871491,1456
2427.143403541984,1444
2428.9824189233977,1471
2430.821026302012,1439
2432.6592259641866,1498
2434.497018196361,1472
2436.33440328505,1436
2438.171381516851,1440
2440.00795317844,1399
2441.844118556569,1406
2443.6798779380724,1449
2445.5152316098606,1430
2447.3501798589255,1429
2449.1847229723357,1443
2451.0188612372403,1426
2452.8525949408663,1469
2454.6859243705203,1441
2456.518849813587,1400
2458.3513715575314,1469
2460.183489889895,1454
2462.015205098301,1473
2463.8465174704493,1403
2465.67742729412,1453
2467.5079348571717,1414
2469.338040447542,1445
2471.1677443532476,1483
2472.9970468623833,1478
2474.825948263123,1528
2476.6544488437207,1465
2478.482548892508,1492
2480.310248697896,1448
2482.137548548374,1447
2483.9644487325118,1476
2485.790949538956,1513
2487.617051256433,1476
2489.44275417375,1471
2491.26805857979,1491
2493.0929647635157,1463
2494.917473013971,1542
2496.741583620276,1495
2498.5652968716304,1536
2500.3886130573137,1488
2502.2115324666834,1524
2504.0340553891765,1507
2505.856182114308,1499
2507.6779129316733,1557
2509.499248130945,1551
2511.3201880018764,1524
2513.140732834298,1511
2514.9608829181198,1490
2516.780638543331,1510
2518.6,1528
2520.418967578273,1588
2522.237541568376,1578
2524.0557222606144,1538
2525.8735099453706,1515
2527.6909049131086,1580
2529.507907454368,1588
2531.32451785977,1583
2533.140736420014,1661
2534.9565634258774,1658
2536.771999168218,1635
2538.5870439379714,1646
2540.4016980261526,1624
2542.2159617238544,1701
2544.02983532225,1648
2545.8433191125914,1739
2547.656413386209,1671
2549.4691184345115,1702
2551.2814345489874,1710
2553.093362021204,1711
2554.904901142808,1764
2556.716052205523,1788
2558.526815501153,1726
2560.3371913215824,1799
2562.147179958771,1819
2563.956781704761,1822
2565.7659968516705,1832
2567.5748256916986,1771
2569.3832685171224,1754
2571.1913256202984,1746
2572.9989972936614,1882
2574.806283829725,1834
2576.613185521084,1710
2578.4197026604074,1824
2580.2258355404483,1877
2582.031584454035,1906
2583.836949694077,1915
2585.6419315535613,1869
2587.4465303255533,1902
2589.2507463032002,1898
2591.0545797797245,1932
2592.8580310484303,1915
2594.6611004026995,1968
2596.463788135992,1986
2598.266094541849,1988
2600.0680199138874,1967
2601.869564545807,2046
2603.670728731383,1977
2605.4715127644704,1991
2607.2719169390048,1962
2609.071941548998,1980
2610.8715868885433,2017
2612.670853251811,1956
2614.469740933052,1924
2616.268250226594,1936
2618.0663814268455,1911
2619.864134828292,1984
2621.6615107255006,1958
2623.458509413115,1953
2625.2551311858597,1901
2627.0513763385347,1926
2628.8472451660223,1955
2630.6427379632833,1879
2632.4378550253564,1880
2634.232596647359,1871
2636.026963124488,1839
2637.8209547520187,1818
2639.6145718253065,1755
2641.407814639785,1783
2643.200683490966,1756
2644.9931786744414,1723
2646.7853004858807,1828
2648.577049221034,1781
2650.3684251757277,1761
2652.1594286458712,1754
2653.9500599274484,1709
2655.740319316525,1738
2657.5302071092437,1681
2659.3197236018286,1600
2661.10886909058,1673
2662.8976438718782,1643
2664.686048242183,1597
2666.4740824980327,1636
2668.2617469360443,1673
2670.0490418529134,1641
2671.8359675454153,1595
2673.622524310403,1587
2675.408712444811,1624
2677.1945322456495,1516
2678.979984010009,1562
2680.76506803506,1577
2682.5497846180497,1552
2684.334134056306,1535
2686.1181166472343,1550
2687.9017326883213,1533
2689.6849824771293,1518
2691.4678663113013,1498
2693.2503844885596,1419
2695.032537306705,1499
2696.8143250636167,1472
2698.5957480572542,1420
2700.3768065856534,1473
2702.1575009469316,1420
2703.937831439283,1440
2705.717798360982,1442
2707.4974020103837,1454
2709.276642685917,1453
2711.055520686095,1417
2712.834036309506,1418
2714.612189854819,1430
2716.389981620782,1440
2718.1674119062204,1424
2719.944481010041,1419
2721.721189231226,1427
2723.4975368688415,1429
2725.273524222027,1407
2727.0491515900053,1394
2728.824419272075,1443
2730.5993275676146,1410
2732.3738767760838,1472
2734.148067197016,1389
2735.921899130031,1458
2737.6953728748194,1437
2739.468488731156,1409
2741.2412469988926,1405
2743.0136479779617,1414
2744.785691968372,1370
2746.5573792702116,1417
2748.3287101836504,1382
2750.099685008934,1342
2751.870304046388,1372
2753.640567596418,1431
2755.4104759595057,1388
2757.1800294362156,1407
2758.949228327187,1384
2760.7180729331412,1340
2762.486563554877,1398
2764.254700493272,1401
2766.022484049284,1380
2767.789914523947,1402
2769.5569922183786,1378
2771.3237174337705,1404
2773.090090471394,1422
2774.8561116326036,1333
2776.6217812188274,1322
2778.3870995315756,1365
2780.1520668724356,1397
2781.9166835430747,1316
2783.6809498452394,1384
2785.444866080754,1419
2787.2084325515225,1435
2788.971649559527,1385
2790.73451740683,1404
2792.4970363955713,1364
2794.2592068279705,1375
2796.0210290063264,1356
2797.7825032330147,1332
2799.543629810493,1381
2801.304409041296,1388
2803.0648412280366,1388
2804.8249266734088,1424
2806.5846656801846,1398
2808.344058551212,1336
2810.1031055894246,1383
2811.8618070978273,1372
2813.6201633795085,1331
2815.378174737636,1359
2817.1358414754536,1352
2818.893163896285,1339
2820.6501423035334,1392
2822.4067770006814,1404
2824.1630682912883,1387
2825.9190164789957,1402
2827.6746218675207,1324
2829.429884760661,1352
2831.184805462294,1361
2832.9393842763743,1311
2834.693621506936,1348
2836.4475174580916,1409
2838.201072434034,1320
2839.954286739034,1370
2841.707160677441,1354
2843.459694553685,1358
2845.2118886722724,1343
2846.96374333779,1365
2848.7152588549034,1320
2850.4664355283567,1367
2852.217273662973,1391
2853.9677735636546,1386
2855.7179355353833,1377
2857.4677598832186,1414
2859.217246912299,1369
2860.9663969278427,1333
2862.715210235146,1353
2864.4636871395846,1327
2866.211827946614,1360
2867.9596329617652,1329
2869.7071024906536,1318
2871.4542368389684,1342
2873.20103631248,1387
2874.947501217038,1359
2876.6936318585695,1377
2878.4394285430812,1342
2880.1848915766604,1363
2881.9300212654707,1387
2883.6748179157553,1340
2885.4192818338374,1324
2887.1634133261173,1358
2888.907212699077,1425
2890.6506802592744,1348
2892.393816313348,1424
2894.1366211680142,1356
2895.8790951300693,1341
2897.621238506388,1342
2899.363051603925,1360
2901.1045347297118,1355
2902.8456881908596,1282
2904.58651229456,1328
2906.327007348081,1396
2908.067173658772,1318
2909.8070115340597,1354
2911.5465212814497,1320
2913.285703208527,1334
2915.0245576229563,1345
2916.7630848324807,1366
2918.5012851449196,1401
2920.2391588681758,1370
2921.976706310227,1369
2923.7139277791334,1373
2925.4508235830313,1307
2927.187394030137,1337
2928.923639428745,1344
2930.6595600872306,1349
2932.395156314046,1334
2934.1304284177218,1365
2935.8653767068713,1266
2937.6000014901815,1391
2939.3343030764227,1368
2941.068281774442,1390
2942.8019378931644,1345
2944.5352717415976,1339
2946.2682836288236,1277
2948.0009738640065,1355
2949.7333427563885,1315
2951.465390615289,1359
2953.1971177501086,1304
2954.9285244703265,1371
2956.6596110855,1371
2958.3903779052657,1328
2960.1208252393385,1322
2961.8509533975125,1349
2963.5807626896617,1330
2965.3102534257378,1337
2967.0394259157715,1307
2968.768280469873,1343
2970.496817398232,1352
2972.2250370111146,1411
2973.952939618869,1352
2975.6805255319196,1378
2977.4077950607707,1380
2979.134748516006,1361
2980.861386208289,1363
2982.587708448359,1359
2984.313715547037,1400
2986.039407815222,1393
2987.764785563891,1361
2989.489849104102,1328
2991.2145987469908,1368
2992.9390348037705,1367
2994.6631575857346,1331
2996.3869674042576,1322
2998.1104645707887,1341
2999.83364939686,1346
3001.5565221940783,1335
3003.2790832741334,1382
3005.0013329487924,1352
3006.7232715298996,1347
3008.4448993293804,1371
3010.166216659239,1326
3011.887223831558,1318
3013.607921158498,1368
3015.3283089522993,1323
3017.0483875252826,1320
3018.7681571898443,1278
3020.4876182584626,1343
3022.2067710436927,1380
3023.9256158581707,1345
3025.644153014609,1316
3027.362382825801,1358
3029.0803056046193,1391
3030.797921664012,1360
3032.5152313170106,1347
3034.2322348767225,1358
3035.9489326563353,1360
3037.665324969115,1310
3039.3814121284063,1310
3041.097194447633,1236
3042.812672240299,1304
3044.5278458199855,1328
3046.2427155003525,1322
3047.9572815951406,1302
3049.671544418167,1320
3051.38550428333,1328
3053.0991615046073,1310
3054.812516396051,1404
3056.5255692717974,1381
3058.2383204460575,1383
3059.9507702331257,1339
3061.662918947372,1363
3063.3747669032446,1361
3065.0863144152736,1372
3066.7975617980674,1367
3068.508509366309,1351
3070.219157434767,1329
3071.9295063182844,1371
3073.639556331785,1382
3075.3493077902704,1402
3077.058761008821,1338
3078.7679163025964,1355
3080.476773986837,1364
3082.1853343768594,1331
3083.89359778806,1340
3085.6015645359153,1397
3087.3092349359786,1338
3089.016609303884,1354
3090.7236879553434,1345
3092.4304712061476,1370
3094.136959372166,1344
3095.843152769349,1355
3097.5490517137237,1386
3099.2546565213966,1395
3100.959967508554,1372
3102.66498499146,1359
3104.3697092864577,1325
3106.0741407099695,1374
3107.778279578498,1386
3109.482126208622,1360
3111.1856809170004,1342
3112.8889440203716,1344
3114.5919158355528,1370
3116.294596679439,1373
3117.996986869006,1366
3119.6990867213062,1391
3121.4008965534726,1419
3123.102416682717,1384
3124.803647426329,1365
3126.5045891016784,1410
3128.205242026213,1381
3129.90560651746,1386
3131.605682893025,1380
3133.3054714705922,1402
3135.0049725679282,1433
3136.7041865028714,1425
3138.4031135933465,1407
3140.101754157353,1381
3141.800108512971,1423
3143.498176978357,1456
3145.1959598717494,1366
3146.8934575114636,1355
3148.5906702158954,1352
3150.2875983035183,1366
3151.9842420928853,1389
3153.680601902627,1397
3155.376678051456,1320
3157.07247085816,1368
3158.767980641609,1345
3160.463207720748,1363
3162.158152414606,1360
3163.8528150422862,1363
3165.5471959229726,1359
3167.2412953759303,1358
3168.9351137204976,1305
3170.628651276098,1298
3172.3219083622307,1335
3174.014885298474,1365
3175.707582404485,1326
3177.4000000000005,1373
3179.092138404835,1355
3180.7839979388846,1341
3182.47557892212,1349
3184.166881674594,1355
3185.8579065164386,1310
3187.5486537678626,1365
3189.2391237491547,1335
3190.9293167806827,1313
3192.6192331828934,1355
3194.3088732763117,1323
3195.998237381542,1321
3197.687325819268,1336
3199.376138910251,1314
3201.064676975334,1351
3202.7529403354347,1310
3204.4409293115523,1366
3206.1286442247647,1390
3207.816085396229,1316
3209.5032531471825,1343
3211.190147798936,1300
3212.8767696728846,1338
3214.5631190905015,1314
3216.2491963733373,1325
3217.9350018430214,1329
3219.6205358212637,1276
3221.305798629851,1303
3222.990790590651,1265
3224.6755120256103,1321
3226.359963256751,1319
3228.0441446061795,1332
3229.7280563960758,1369
3231.411698948703,1320
3233.0950725863995,1346
3234.778177631587,1338
3236.461014406761,1313
3238.1435832345005,1322
3239.8258844374595,1270
3241.507918338374,1345
3243.1896852600576,1299
3244.8711855254023,1274
3246.552419457381,1329
3248.233387379042,1352
3249.914089613516,1331
3251.59452648401,1398
3253.274698313813,1344
3254.95460542629,1322
3256.6342481448855,1346
3258.313626793125,1276
3259.9927416946084,1297
3261.6715931730196,1305
3263.3501815521176,1278
3265.0285071557437,1313
3266.706570307815,1302
3268.3843713323286,1329
3270.0619105533615,1317
3271.739188295068,1329
3273.4162048816834,1299
3275.0929606375184,1297
3276.769455886966,1295
3278.445690954498,1313
3280.1216661646613,1327
3281.797381842087,1315
3283.4728383114807,1370
3285.1480358976296,1290
3286.8229749253996,1284
3288.4976557197333,1292
3290.172078605655,1252
3291.846243908266,1313
3293.5201519527463,1264
3295.193803064357,1256
3296.8671975684374,1209
3298.5403357904024,1318
3300.21321805575,1298
3301.8858446900567,1345
3303.558216018975,1252
3305.23033236824,1308
3306.9021940636603,1336
3308.57380143113,1338
3310.2451547966184,1313
3311.916254486174,1364
3313.5871008259246,1310
3315.2576941420766,1330
3316.9280347609147,1336
3318.5981230088046,1254
3320.2679592121895,1329
3321.9375436975924,1335
3323.606876791612,1222
3325.27595882093,1235
3326.944790112305,1241
3328.6133709925753,1279
3330.2817017886573,1268
3331.949782827547,1232
3333.617614436319,1260
3335.2851969421245,1294
3336.952530672199,1346
3338.619615953853,1293
3340.286453114475,1322
3341.9530424815357,1306
3343.619384382583,1313
3345.2854791452437,1309
3346.951327097224,1255
3348.6169285663073,1306
3350.2822838803577,1302
3351.947393367319,1312
3353.61225735521,1268
3355.2768761721345,1289
3356.9412501462693,1311
3358.605379605873,1394
3360.2692648792827,1325
3361.9329062949146,1292
3363.596304181263,1276
