CollectionTime,7/9/2024 11:39:08 AM
ExposureUsed,3
CalibratedSpectrum
-962.7078968117929,690
-959.9714848408522,686
-957.2358232597828,747
-954.5009119013725,731
-951.7667505983302,748
-949.0333391832855,767
-946.3006774887896,742
-943.5687653473143,757
-940.837602591253,726
-938.1071890529199,758
-935.3775245645503,779
-932.6486089583007,748
-929.9204420662485,748
-927.1930237203925,758
-924.4663537526524,721
-921.7404319948689,733
-919.0152582788041,787
-916.2908324361409,796
-913.5671542984834,734
-910.8442236973568,736
-908.1220404642074,743
-905.4006044304027,743
-902.679915427231,747
-899.959973285902,736
-897.2407778375464,755
-894.5223289132158,721
-891.8046263438832,720
-889.0876699604426,715
-886.3714595937089,721
-883.6559950744183,703
-880.9412762332282,744
-878.2273029007168,729
-875.5140749073835,741
-872.8015920836489,716
-870.0898542598545,731
-867.3788612662631,731
-864.6686129330585,752
-861.9591090903457,760
-859.2503495681506,718
-856.5423341964203,738
-853.8350628050229,741
-851.1285352237478,763
-848.4227512823054,722
-845.7177108103272,745
-843.0134136373656,730
-840.3098595928943,733
-837.6070485063082,756
-834.9049802069229,771
-832.2036545239757,762
-829.5030712866244,750
-826.8032303239481,762
-824.1041314649472,753
-821.4057745385428,789
-818.7081593735775,717
-816.0112857988148,779
-813.3151536429393,761
-810.6197627345566,721
-807.9251129021936,734
-805.2312039742981,773
-802.5380357792392,772
-799.8456081453069,735
-797.1539209007124,791
-794.462973873588,721
-791.772766891987,772
-789.083299783884,726
-786.3945723771743,780
-783.7065844996748,811
-781.0193359791231,736
-778.3328266431781,767
-775.6470563194197,781
-772.9620248353489,836
-770.2777320183878,802
-767.5941776958798,774
-764.9113616950891,730
-762.2292838432011,784
-759.5479439673222,768
-756.8673418944801,797
-754.1874774516235,823
-751.5083504656222,764
-748.8299607632671,825
-746.15230817127,786
-743.475392516264,799
-740.7992136248035,809
-738.1237713233636,822
-735.4490654383407,818
-732.7750957960521,811
-730.1018622227365,777
-727.4293645445534,778
-724.7576025875837,780
-722.0865761778291,795
-719.4162851412126,836
-716.7467293035781,804
-714.0779084906909,815
-711.409822528237,817
-708.7424712418238,823
-706.0758544569796,841
-703.4099719991541,847
-700.7448236937178,880
-698.0804093659622,813
-695.4167288411002,848
-692.7537819442656,854
-690.0915685005134,855
-687.4300883348199,839
-684.7693412720819,849
-682.1093271371178,864
-679.4500457546669,878
-676.7914969493897,874
-674.1336805458676,836
-671.4765963686034,852
-668.8202442420206,889
-666.1646239904642,877
-663.5097354382001,886
-660.8555784094151,865
-658.2021527282176,880
-655.5494582186366,893
-652.8974947046223,907
-650.2462620100463,893
-647.5957599587009,909
-644.9459883742998,914
-642.2969470804776,929
-639.6486359007902,930
-637.0010546587141,938
-634.3542031776476,919
-631.7080812809096,931
-629.0626887917401,946
-626.4180255333008,885
-623.7740913286734,880
-621.1308860008619,940
-618.4884093727904,947
-615.8466612673046,915
-613.2056415071715,963
-610.5653499150785,886
-607.9257863136347,926
-605.28695052537,942
-602.6488423727357,920
-600.0114616781036,900
-597.3748082637674,920
-594.7388819519412,918
-592.1036825647604,927
-589.4692099242818,973
-586.8354638524829,914
-584.2024441712624,915
-581.5701507024403,970
-578.9385832677575,949
-576.3077416888759,954
-573.6776257873787,948
-571.0482353847704,914
-568.4195703024757,1024
-565.7916303618415,957
-563.164415384135,932
-560.5379251905453,946
-557.9121596021815,941
-555.2871184400748,872
-552.6628015251767,956
-550.0392086783606,935
-547.4163397204204,951
-544.794194472071,981
-542.1727727539491,970
-539.5520743866118,1012
-536.9320991905377,971
-534.3128469861261,1051
-531.6943175936979,1049
-529.0765108334947,1028
-526.4594265256793,1085
-523.8430644903358,1223
-521.2274245474689,1266
-518.612506517005,1413
-515.9983102187913,1345
-513.3848354725959,1349
-510.77208209810846,1393
-508.16004991493924,1363
-505.5487387426199,1541
-502.9381484006032,1683
-500.3282787082628,1835
-497.71912948489364,1714
-495.1107005497117,1623
-492.5029917218539,1596
-489.8960028203786,1398
-487.28973366426493,1325
-484.68418407241325,1244
-482.07935386364494,1208
-479.47524285670266,1188
-476.87185087025,1224
-474.2691777228715,1155
-471.66722323307334,1168
-469.0659872192821,1164
-466.4654694998459,1160
-463.86566989303384,1163
-461.26658821703614,1135
-458.66822428996414,1185
-456.07057792985,1194
-453.4736489546475,1186
-450.877437182231,1142
-448.28194243039627,1169
-445.68716451686,1174
-443.09310325926003,1185
-440.49975847515555,1122
-437.9071299820263,1112
-435.31521759727354,1188
-432.72402113821954,1146
-430.13354042210767,1200
-427.5437752661022,1129
-424.95472548728867,1169
-422.36639090267386,1214
-419.7787713291855,1190
-417.1918665836721,1311
-414.60567648290385,1299
-412.0202008435715,1221
-409.4354394822874,1220
-406.8513922155845,1235
-404.26805885991723,1232
-401.685439231661,1162
-399.103533147112,1233
-396.522340422488,1230
-393.9418608739278,1205
-391.3620943174908,1176
-388.7830405691583,1141
-386.2046994448317,1093
-383.6270707603344,1035
-381.05015433141045,1028
-378.473949973725,978
-375.8984575028645,901
-373.32367673433623,827
-370.74960748356875,756
-368.1762495659117,744
-365.60360279663576,677
-363.03166699093265,592
-360.4604419639154,569
-357.8899275306178,553
-355.32012350599507,539
-352.7510297049233,505
-350.1826459421999,511
-347.61497203254316,514
-345.04800779059235,501
-342.4817530309082,492
-339.91620756797226,528
-337.35137121618743,545
-334.7872437898774,528
-332.22382510328725,541
-329.66111497058273,488
-327.09911320585127,487
-324.53781962310075,524
-321.9772340362607,512
-319.4173562591816,509
-316.8581861056348,460
-314.2997233893127,472
-311.7419679238294,505
-309.1849195227194,466
-306.62857799943856,552
-304.0729431673641,574
-301.51801483979375,543
-298.963792829947,573
-296.41027695096386,619
-293.85746701590574,602
-291.3053628377552,559
-288.7539642294155,544
-286.2032710037115,530
-283.65328297338897,544
-281.1039999511146,615
-278.5554217494762,637
-276.007548180983,569
-273.4603790580651,553
-270.9139141930734,546
-268.3681533982807,551
-265.8230964858798,568
-263.27874326798565,628
-260.7350935566336,594
-258.1921471637804,629
-255.6499039013039,689
-253.10836358100266,687
-250.56752601459698,635
-248.02739101372765,679
-245.48795838995704,695
-242.94922795476816,629
-240.41119951956557,631
-237.8738728956746,636
-235.33724789434166,666
-232.80132432673452,652
-230.2661020039418,645
-227.73158073697357,637
-225.19776033676033,673
-222.66464061415422,660
-220.1322213799284,656
-217.60050244477725,641
-215.06948361931552,656
-212.53916471408013,720
-210.00954553952818,707
-207.48062590603843,696
-204.9524056239104,719
-202.4248845033651,779
-199.8980623545441,735
-197.37193898751036,737
-194.84651421224817,782
-192.32178783866232,777
-189.79775967657952,714
-187.27442953574644,806
-184.7517972258321,864
-182.2298625564256,850
-179.7086253370378,796
-177.18808537710026,740
-174.66824248596583,807
-172.14909647290835,856
-169.6306471471229,856
-167.11289431772548,867
-164.59583779375328,782
-162.07947738416453,813
-159.5638128978386,955
-157.04884414357605,1054
-154.53457093009854,1370
-152.02099306604828,1247
-149.50811035998936,969
-146.99592262040665,910
-144.48442965570587,1047
-141.97363127421409,1053
-139.46352728417958,1107
-136.95411749377126,1352
-134.44540171107985,1267
-131.93737974411636,1010
-129.43005140081357,1154
-126.92341648902493,1624
-124.41747481652521,1740
-121.91222619101006,1663
-119.40767042009657,1628
-116.90380731132257,2015
-114.40063667214702,1957
-111.8981583099503,2032
-109.3963720320337,2482
-106.89527764561933,3428
-104.39487495785067,3826
-101.89516377579241,3971
-99.39614390642998,4989
-96.89781515667039,7290
-94.40017733334128,9930
-91.90323024319173,10877
-89.40697369289148,10428
-86.91140748903172,7901
-84.41653143812482,4773
-81.92234534660395,3578
-79.42884902082358,5336
-76.93604226705907,10928
-74.4439248915071,17667
-71.95249670028534,23299
-69.46175749943245,24198
-66.97170709490854,21737
-64.48234529259423,16788
-61.99367189829195,13496
-59.50568671772464,11297
-57.01838955653636,8444
-54.53178022029283,8417
-52.045858514480074,10346
-49.560624244506016,12892
-47.07607721569923,13810
-44.59221723330904,14011
-42.10904410250669,14296
-39.62655762838392,14585
-37.14475761595372,13666
-34.66364387015028,14256
-32.18321619582866,13946
-29.70347439776515,13222
-27.224418280657005,12849
-24.74604764912317,13943
-22.26836230770266,17573
-19.7913620608565,30607
-17.315046712966478,55923
-14.83941606833514,65040
-12.36446993118659,65040
-9.89020810566592,65040
-7.416630395839093,65040
-4.94373660569363,65040
-2.471526539137585,65040
-6.821210263296962E-13,65040
2.47084320796705,65040
4.941003281093458,65040
7.410480415786196,65040
9.879274808531363,65040
12.347386655893956,65040
14.814816154518212,65040
17.28156350112681,65040
19.74762889252179,65040
22.21301252558385,22874
24.67771459727237,4422
27.141735304626195,3146
29.605074844762612,2633
32.06773341487792,2597
34.52971121224755,2554
36.99100843422559,2274
39.45162527824516,1882
41.91156194181792,1749
44.370818622535126,1607
46.82939551806646,1553
49.287292826160524,1737
51.74451074464503,1783
54.201049471426245,1518
56.65690920448981,1335
59.112090141899785,1136
61.56659248179983,1159
64.02041642241159,1112
66.4735621620365,1187
68.92602989905402,1277
71.37781983192338,1396
73.82893215918205,1363
76.27936707944684,1285
78.72912479141326,1231
81.17820549385567,1367
83.62660938562783,1232
86.07433666566146,1057
88.5213875329681,967
90.96776218663751,1042
93.41346082583925,1098
95.85848364982041,1301
98.30283085790859,1325
100.7465026495089,1096
103.18949922410604,1203
105.63182078126385,1196
108.07346752062438,1168
110.51443964190923,1063
112.95473734491827,951
115.39436082953114,1034
117.83331029570547,951
120.27158594347827,912
122.7091879729652,986
125.1461165843615,1051
127.58237197794062,991
130.01795435405518,957
132.4528639131364,1091
134.88710085569494,1088
137.32066538231982,1037
139.75355769367923,977
142.1857779905207,987
144.61732647366978,962
147.04820334403132,929
149.47840880258934,950
151.90794305040674,1059
154.33680628862487,1143
156.76499871846443,1332
159.19252054122433,1503
161.61937195828352,1585
164.04555317109896,1787
166.47106438120693,2097
168.89590579022217,2251
171.320077599839,2481
173.7435800118302,2585
176.16641322804742,2727
178.58857745042144,2873
181.01007288096173,3015
183.43089972175687,3230
185.85105817497413,3201
188.27054844285988,3102
190.6893707277394,3140
193.10752523201643,3194
195.5250121581745,3248
197.9418317087751,3318
200.3579840864594,3279
202.7734694939469,3274
205.18828813403627,3352
207.6024402096051,3430
210.01592592360964,3511
212.42874547908548,3508
214.84089907914665,3365
217.2523869269868,3424
219.66320922587727,3374
222.0733661791695,3339
224.48285799029293,3281
226.8916848627572,3380
229.29984700014882,3443
231.7073446061355,3313
234.11417788446204,3339
236.520347038953,3232
238.92585227351185,3507
241.33069379212054,3558
243.73487179884035,3634
246.1383864978112,3692
248.541238093252,3635
250.9434267894609,3669
253.34495279081432,3684
255.74581630176783,3572
258.1460175268563,3565
260.54555667069314,3711
262.9444339379703,3606
265.3426495334594,3479
267.7402036620107,3619
270.1370965285529,3463
272.53332833809407,3317
274.9288992957214,3186
277.32380960660055,3158
279.718059475976,3105
282.1116491091717,3100
284.5045787115897,3077
286.89684848871195,3090
289.2884586460981,3073
291.67940938938807,3091
294.0697009242996,3129
296.4593334566299,3131
298.84830719225477,3020
301.23662233712923,2935
303.6242790972866,3066
306.01127767884,3051
308.39761828798066,2912
310.78330113097934,2946
313.16832641418534,2883
315.5526943440269,2972
317.9364051270112,2862
320.3194589697242,2910
322.70185607883093,2762
325.0835966610754,2968
327.4646809232805,2818
329.8451090723478,2786
332.2248813152577,2741
334.6039978590701,2729
336.9824589109231,2721
339.36026467803447,2703
341.7374153677,2680
344.113911187295,2692
346.48975234427337,2692
348.8649390461686,2661
351.2394715005918,2775
353.61334991523415,2657
355.9865744978655,2669
358.35914545633375,2665
360.73106299856715,2645
363.10232733257146,2736
365.47293866643247,2649
367.84289720831396,2589
370.2122031664593,2619
372.5808567491905,2661
374.9488581649083,2601
377.31620762209275,2522
379.6829053293021,2619
382.0489514951745,2539
384.4143463284262,2545
386.7790900378528,2555
389.14318283232853,2509
391.50662492080653,2597
393.86941651231916,2608
396.23155781597745,2629
398.5930490409713,2597
400.9538903965696,2625
403.3140820921202,2525
405.6736243370498,2537
408.03251734086336,2588
410.3907613131465,2518
412.74835646356166,2415
415.10530300185144,2493
417.4616011378372,2481
419.81725108141893,2579
422.1722530425758,2561
424.5266072313656,2509
426.880313857925,2470
429.2333731324701,2570
431.58578526529516,2498
433.9375504667738,2594
436.2886689473588,2542
438.63914091758113,2429
440.9889665880513,2428
443.33814616945835,2506
445.68667987257015,2451
448.03456790823395,2541
450.3818104873759,2409
452.72840782100013,2451
455.07436012019105,2439
457.41966759611057,2347
459.7643304600007,2428
462.10834892318155,2349
464.4517231970525,2494
466.79445349309174,2428
469.1365400228566,2468
471.4779829979826,2466
473.81878263018564,2416
476.15893913125876,2492
478.4984527130747,2554
480.8373235875855,2469
483.17555196682144,2600
485.5131380628919,2660
487.8500820879857,2763
490.1863842543697,2788
492.52204477439034,2917
494.8570638604725,3218
497.1914417251204,3394
499.52517858091653,3694
501.85827464052306,3862
504.19073011668036,3810
506.5225452222086,3812
508.85372017000566,3658
511.18425517304956,3682
513.514150444396,3885
515.8434061971808,4516
518.1720226446176,5584
520.4999999999999,5847
522.8273384766991,5567
525.1540382881666,5134
527.480099647932,4529
529.8055227696037,3811
532.1303078668694,3122
534.454455153496,2867
536.777964843328,2668
539.1008371502907,2570
541.4230722883866,2570
543.744670471698,2513
546.0656319143858,2596
548.3859568306899,2540
550.7056454349294,2513
553.0246979415016,2478
555.3431145648834,2510
557.6608955196306,2422
559.978041020377,2477
562.2945512818363,2508
564.6104265188006,2575
566.9256669461412,2634
569.2402727788082,2503
571.5542442318302,2556
573.8675815203156,2493
576.1802848594508,2513
578.4923544645015,2486
580.8037905508126,2635
583.114593333807,2519
585.4247630289875,2525
587.7342998519354,2466
590.0432040183106,2514
592.3514757438526,2582
594.6591152443794,2509
596.9661227357875,2603
599.2724984340531,2627
601.578242555231,2643
603.8833553154542,2576
606.1878369309362,2587
608.4916876179676,2541
610.7949075929192,2583
613.0974970722403,2611
615.3994562724587,2517
617.7007854101818,2587
620.0014847020951,2538
622.3015543649641,2541
624.6009946156324,2533
626.8998056710224,2462
629.1979877481361,2516
631.4955410640538,2641
633.7924658359349,2602
636.0887622810175,2555
638.3844306166192,2521
640.6794710601358,2648
642.9738838290426,2599
645.2676691408932,2584
647.5608272133207,2559
649.853358264037,2544
652.1452625108324,2612
654.4365401715764,2550
656.7271914642178,2565
659.0172166067838,2661
661.3066158173809,2571
663.5953893141935,2587
665.8835373154867,2587
668.1710600396028,2672
670.4579577049639,2630
672.7442305300709,2590
675.0298787335033,2611
677.3149025339197,2566
679.599302150058,2645
681.8830778007342,2608
684.1662297048437,2670
686.4487580813608,2653
688.7306631493387,2614
691.0119451279091,2647
693.2926042362834,2643
695.5726406937516,2618
697.8520547196814,2614
700.1308465335215,2594
702.4090163547982,2596
704.6865644031171,2573
706.9634908981619,2550
709.2397960596965,2586
711.5154801075631,2628
713.7905432616823,2602
716.0649857420548,2624
718.3388077687592,2552
720.612009561953,2566
722.8845913418733,2597
725.1565533288352,2552
727.427895743234,2541
729.6986188055427,2547
731.9687227363137,2664
734.238207756178,2661
736.5070740858458,2626
738.7753219461066,2567
741.0429515578281,2558
743.3099631419569,2580
745.5763569195191,2561
747.8421331116193,2620
750.1072919394409,2585
752.3718336242467,2611
754.6357583873777,2652
756.8990664502545,2507
759.1617580343765,2562
761.423833361321,2545
763.6852926527457,2591
765.9461361303862,2640
768.206364016058,2622
770.4659765316536,2667
772.7249738991469,2649
774.9833563405886,2626
777.2411240781092,2633
779.4982773339183,2606
781.7548163303044,2774
784.010741289634,2626
786.2660524343538,2711
788.5207499869881,2707
790.7748341701416,2737
793.0283052064964,2681
795.2811633188143,2632
797.5334087299362,2750
799.7850416627813,2648
802.0360623403484,2731
804.2864709857143,2670
806.5362678220353,2626
808.7854530725468,2687
811.0340269605625,2700
813.2819897094754,2784
815.5293415427581,2651
817.77608268396,2666
820.0222133567116,2645
822.2677337847211,2646
824.5126441917765,2614
826.7569448017433,2565
829.0006358385675,2661
831.2437175262731,2607
833.4861900889629,2691
835.7280537508192,2627
837.9693087361026,2663
840.2099552691533,2680
842.4499935743896,2660
844.689423876309,2644
846.9282463994886,2692
849.1664613685833,2706
851.4040690083276,2739
853.6410695435349,2734
855.877463199097,2713
858.1132501999847,2750
860.3484307712487,2669
862.5830051380175,2661
864.8169735254988,2683
867.0503361589791,2697
869.2830932638243,2645
871.5152450654786,2694
873.7467917894654,2762
875.9777336613873,2731
878.2080709069252,2749
880.4378037518389,2746
882.666932421968,2708
884.8954571432301,2743
887.1233781416219,2755
889.3506956432192,2741
891.5774098741766,2688
893.803521060728,2826
896.0290294291852,2823
898.2539352059397,2709
900.4782386174619,2759
902.7019398903011,2801
904.925039251085,2730
907.147536926521,2850
909.3694331433943,2740
911.59072812857,2719
913.8114221089921,2763
916.0315153116827,2664
918.2510079637437,2689
920.4699002923547,2712
922.6881925247761,2739
924.905884888345,2679
927.1229776104793,2707
929.3394709186747,2647
931.555365040506,2762
933.7706602036275,2661
935.9853566357709,2728
938.1994545647489,2735
940.4129542184515,2694
942.6258558248488,2682
944.8381596119883,2688
947.0498658079974,2701
949.2609746410825,2659
951.4714863395287,2620
953.6814011316998,2652
955.8907192460387,2652
958.0994409110671,2631
960.3075663553858,2684
962.5150958076741,2664
964.7220294966913,2660
966.928367651274,2631
969.1341105003388,2588
971.3392582728806,2547
973.5438111979742,2657
975.747769504772,2648
977.9511334225061,2645
980.153903180487,2612
982.3560790081052,2597
984.5576611348289,2617
986.7586497902058,2545
988.9590452038618,2530
991.158847605503,2546
993.3580572249133,2627
995.5566742919558,2476
997.7546990365728,2520
999.952131688785,2441
1002.1489724786926,2434
1004.3452216364743,2392
1006.5408793923874,2417
1008.7359459767691,2408
1010.9304216200343,2328
1013.1243065526781,2379
1015.3176010052733,2307
1017.510305208472,2435
1019.7024193930064,2369
1021.8939437896848,2415
1024.0848786293977,2413
1026.2752241431122,2369
1028.4649805618747,2417
1030.6541481168115,2404
1032.842727039127,2320
1035.0307175601051,2375
1037.2181199111074,2327
1039.4049343235752,2384
1041.591161029029,2311
1043.7768002590683,2291
1045.9618522453698,2348
1048.1463172196918,2337
1050.3301954138697,2339
1052.513487059818,2370
1054.69619238953,2356
1056.8783116350783,2470
1059.0598450286152,2313
1061.2407928023704,2344
1063.4211551886528,2352
1065.6009324198508,2298
1067.780124728432,2333
1069.9587323469414,2357
1072.1367555080046,2368
1074.314194444325,2370
1076.4910493886855,2356
1078.667320573947,2315
1080.843008233051,2255
1083.0181125990161,2254
1085.1926339049414,2308
1087.3665723840027,2331
1089.5399282694575,2300
1091.7127017946405,2205
1093.8848931929647,2277
1096.0565026979243,2273
1098.2275305430899,2260
1100.3979769621128,2255
1102.567842188722,2207
1104.737126456726,2273
1106.9058300000124,2263
1109.0739530525475,2299
1111.2414958483764,2248
1113.4084586216231,2189
1115.5748416064907,2255
1117.7406450372605,2237
1119.9058691482942,2287
1122.0705141740304,2246
1124.2345803489884,2237
1126.3980679077658,2269
1128.5609770850388,2210
1130.7233081155623,2182
1132.8850612341707,2164
1135.0462366757774,2185
1137.2068346753745,2286
1139.3668554680326,2247
1141.526299288901,2158
1143.68516637321,2310
1145.8434569562655,2212
1148.001171273455,2252
1150.158309560244,2193
1152.3148720521767,2199
1154.470858984876,2153
1156.626270594044,2199
1158.7811071154629,2253
1160.9353687849912,2223
1163.089055838569,2212
1165.242168512213,2224
1167.3947070420209,2144
1169.5466716641677,2172
1171.6980626149075,2121
1173.8488801305748,2219
1175.9991244475814,2172
1178.1487958024186,2202
1180.2978944316555,2172
1182.4464205719428,2193
1184.5943744600072,2229
1186.7417563326567,2222
1188.8885664267755,2146
1191.0348049793297,2149
1193.1804722273619,2208
1195.325568407995,2185
1197.4700937584303,2205
1199.614048515948,2155
1201.7574329179074,2169
1203.900247201746,2211
1206.042491604982,2177
1208.1841663652099,2176
1210.3252717201053,2155
1212.465807907422,2150
1214.6057751649923,2177
1216.7451737307279,2224
1218.8840038426192,2217
1221.0222657387353,2227
1223.1599596572241,2183
1225.2970858363137,2244
1227.4336445143094,2229
1229.5696359295966,2246
1231.705060320639,2228
1233.8399179259786,2234
1235.9742089842384,2198
1238.107933734118,2279
1240.2410924143974,2248
1242.373685263935,2271
1244.5057125216676,2265
1246.6371744266116,2314
1248.7680712178621,2171
1250.898403134593,2194
1253.028170416058,2244
1255.1573733015875,2301
1257.2860120305932,2334
1259.4140868425648,2245
1261.54159797707,2319
1263.6685456737569,2256
1265.7949301723515,2290
1267.9207517126597,2229
1270.046010534565,2298
1272.1707068780306,2304
1274.2948409830983,2334
1276.4184130898889,2277
1278.541423438603,2288
1280.6638722695184,2315
1282.785759822993,2322
1284.9070863394636,2283
1287.0278520594447,2320
1289.1480572235314,2291
1291.2677020723963,2392
1293.3867868467923,2332
1295.5053117875495,2395
1297.623277135579,2389
1299.740683131868,2432
1301.8575300174857,2375
1303.973818033578,2450
1306.0895474213703,2390
1308.2047184221678,2450
1310.3193312773528,2480
1312.4333862283888,2442
1314.5468835168163,2411
1316.659823384255,2355
1318.7722060724045,2542
1320.8840318230418,2449
1322.9953008780249,2406
1325.1060134792888,2436
1327.2161698688478,2433
1329.3257702887959,2352
1331.4348149813054,2442
1333.5433041886276,2349
1335.6512381530933,2399
1337.7586171171101,2401
1339.8654413231675,2463
1341.9717110138317,2417
1344.0774264317488,2436
1346.1825878196432,2429
1348.2871954203192,2389
1350.3912494766587,2332
1352.4947502316231,2362
1354.5976979282532,2468
1356.7000928096686,2468
1358.8019351190665,2454
1360.9032250997243,2480
1363.0039629949988,2450
1365.1041490483235,2353
1367.2037835032133,2497
1369.3028666032606,2396
1371.401398592137,2340
1373.4993797135926,2465
1375.5968102114575,2527
1377.6936903296396,2464
1379.7900203121262,2409
1381.8858004029835,2481
1383.9810308463561,2393
1386.075711886469,2426
1388.1698437676241,2450
1390.2634267342032,2522
1392.356461030667,2505
1394.4489469015557,2448
1396.5408845914872,2535
1398.6322743451592,2588
1400.7231164073469,2567
1402.813411022907,2520
1404.903158436773,2544
1406.9923588939578,2552
1409.0810126395531,2673
1411.1691199187303,2642
1413.2566809767386,2584
1415.343696058907,2687
1417.4301654106425,2685
1419.5160892774315,2629
1421.6014679048399,2571
1423.6863015385125,2713
1425.7705904241707,2716
1427.8543348076178,2712
1429.9375349347342,2676
1432.0201910514802,2752
1434.102303403894,2729
1436.1838722380944,2689
1438.2648978002767,2745
1440.3453803367174,2814
1442.4253200937692,2847
1444.5047173178677,2823
1446.5835722555234,2904
1448.6618851533285,2927
1450.739656257952,2957
1452.8168858161434,3057
1454.8935740747306,3088
1456.96972128062,3066
1459.045327680797,3220
1461.120393522327,3231
1463.1949190523528,3159
1465.2689045180973,3265
1467.3423501668608,3202
1469.415256246024,3258
1471.4876230030463,3407
1473.559450685465,3411
1475.6307395408976,3463
1477.7014898170391,3591
1479.771701761665,3583
1481.8413756226287,3518
1483.9105116478618,3553
1485.9791100853772,3687
1488.0471711832643,3766
1490.1146951896926,3859
1492.1816823529098,3841
1494.2481329212433,3915
1496.3140471430984,4084
1498.3794252669609,4033
1500.4442675413939,4020
1502.5085742150404,4139
1504.572345536622,4190
1506.6355817549388,4261
1508.6982831188702,4207
1510.7604498773744,4314
1512.8220822794883,4312
1514.8831805743293,4388
1516.9437450110909,4324
1519.003775839048,4389
1521.0632733075522,4505
1523.1222376660367,4506
1525.1806691640113,4549
1527.2385680510652,4759
1529.2959345768668,4836
1531.3527689911643,4834
1533.4090715437833,4847
1535.4648424846291,5018
1537.5200820636855,5063
1539.5747905310159,5000
1541.6289681367616,4934
1543.6826151311434,5083
1545.7357317644614,5299
1547.7883182870937,5411
1549.8403749494987,5388
1551.8919020022113,5394
1553.9428996958477,5523
1555.9933682811015,5661
1558.0433080087469,5819
1560.0927191296346,5894
1562.1416018946961,5874
1564.1899565549415,5951
1566.2377833614592,5853
1568.2850825654164,5677
1570.3318544180606,5588
1572.3780991707158,5473
1574.423817074788,5213
1576.4690083817595,5014
1578.5136733431923,4674
1580.5578122107272,4579
1582.601425236085,4485
1584.6445126710646,4141
1586.6870747675434,4029
1588.7291117774776,3804
1590.7706239529034,3717
1592.8116115459347,3621
1594.8520748087658,3431
1596.8920139936686,3362
1598.9314293529933,3281
1600.9703211391711,3162
1603.008689604711,3054
1605.0465350022005,3066
1607.0838575843068,2970
1609.1206576037753,2921
1611.1569353134305,2901
1613.1926909661765,2712
1615.2279248149953,2780
1617.2626371129481,2763
1619.2968281131757,2707
1621.3304980688963,2667
1623.3636472334088,2603
1625.39627586009,2592
1627.428384202396,2620
1629.459972513861,2485
1631.4910410480993,2557
1633.5215900588028,2566
1635.551619799744,2450
1637.5811305247717,2496
1639.6101224878166,2446
1641.6385959428862,2522
1643.6665511440683,2514
1645.693988345528,2397
1647.7209078015112,2372
1649.7473097663405,2403
1651.7731944944203,2440
1653.7985622402307,2578
1655.823413258333,2485
1657.847747803366,2453
1659.8715661300494,2378
1661.8948684931793,2429
1663.9176551476316,2402
1665.9399263483624,2456
1667.9616823504057,2534
1669.982923408873,2474
1672.0036497789574,2396
1674.0238617159293,2424
1676.043559475138,2328
1678.0627433120121,2355
1680.081413482059,2477
1682.0995702408654,2386
1684.117213844096,2389
1686.134344547495,2345
1688.1509626068864,2431
1690.1670682781705,2375
1692.182661817329,2380
1694.1977434804217,2399
1696.2123135235875,2405
1698.226372203043,2414
1700.2399197750851,2359
1702.2529564960905,2473
1704.2654826225112,2393
1706.277498410882,2410
1708.2890041178139,2417
1710.2999999999988,2322
1712.3104863142066,2372
1714.3204633172854,2367
1716.329931266163,2310
1718.3388904178469,2333
1720.3473410294214,2227
1722.3552833580516,2333
1724.3627176609807,2362
1726.3696441955308,2275
1728.3760632191033,2392
1730.3819749891782,2319
1732.3873797633146,2267
1734.3922777991502,2305
1736.3966693544012,2363
1738.4005546868639,2314
1740.4039340544127,2302
1742.406807715001,2240
1744.4091759266616,2293
1746.4110389475054,2353
1748.4123970357223,2294
1750.413250449582,2259
1752.4135994474318,2254
1754.4134442876993,2280
1756.4127852288902,2223
1758.4116225295893,2243
1760.4099564484595,2260
1762.407787244244,2264
1764.405115175764,2232
1766.4019405019203,2235
1768.3982634816916,2126
1770.3940843741357,2138
1772.3894034383907,2148
1774.3842209336717,2130
1776.378537119274,2208
1778.372352254571,2223
1780.3656665990156,2181
1782.3584804121397,2194
1784.3507939535534,2260
1786.3426074829463,2154
1788.3339212600863,2183
1790.3247355448211,2173
1792.3150505970766,2194
1794.3048666768573,2129
1796.2941840442477,2177
1798.2830029594106,2212
1800.2713236825884,2180
1802.2591464741004,2172
1804.2464715943465,2288
1806.2332993038058,2224
1808.2196298630352,2152
1810.2054635326708,2192
1812.190800573428,2120
1814.175641246101,2241
1816.1599858115628,2236
1818.1438345307652,2192
1820.127187664738,2203
1822.1100454745924,2177
1824.092408221516,2259
1826.0742761667766,2141
1828.055649571721,2191
1830.0365286977735,2172
1832.0169138064398,2153
1833.9968051593014,2163
1835.9762030180214,2204
1837.9551076443408,2126
1839.9335193000788,2184
1841.9114382471344,2203
1843.888864747485,2122
1845.8657990631878,2165
1847.842241456378,2124
1849.8181921892697,2163
1851.7936515241558,2231
1853.7686197234098,2175
1855.7430970494815,2100
1857.7170837649014,2270
1859.6905801322787,2141
1861.6635864143004,2224
1863.6361028737338,2153
1865.608129773424,2149
1867.5796673762961,2167
1869.5507159453537,2160
1871.521275743678,2132
1873.4913470344313,2173
1875.4609300808534,2203
1877.4300251462632,2143
1879.3986324940588,2204
1881.366752387717,2247
1883.3343850907936,2196
1885.3015308669228,2291
1887.268189979819,2247
1889.2343626932739,2232
1891.2000492711595,2243
1893.1652499774254,2211
1895.1299650761011,2230
1897.0941948312952,2292
1899.0579395071945,2251
1901.0211993680641,2172
1902.98397467825,2285
1904.9462657021745,2239
1906.9080727043415,2331
1908.869395949332,2217
1910.8302357018065,2257
1912.790592226504,2172
1914.7504657882428,2242
1916.7098566519212,2181
1918.6687650825133,2266
1920.6271913450764,2230
1922.5851357047422,2226
1924.5425984267245,2211
1926.499579776314,2176
1928.4560800188833,2220
1930.4120994198802,2254
1932.367638244833,2299
1934.32269675935,2311
1936.2772752291175,2245
1938.231373919899,2286
1940.1849930975404,2285
1942.1381330279637,2224
1944.0907939771696,2328
1946.0429762112412,2281
1947.9946799963363,2305
1949.9459055986945,2220
1951.896653284633,2191
1953.8469233205478,2171
1955.7967159729142,2186
1957.7460315082863,2228
1959.6948701932974,2250
1961.6432322946594,2185
1963.5911180791632,2204
1965.5385278136787,2257
1967.4854617651545,2223
1969.4319202006182,2253
1971.377903387176,2328
1973.3234115920136,2234
1975.268445082395,2187
1977.2130041256642,2191
1979.1570889892423,2280
1981.1006999406304,2138
1983.04383724741,2226
1984.986501177238,2219
1986.928691997853,2217
1988.8704099770712,2234
1990.811655382789,2178
1992.7524284829801,2219
1994.692729545698,2198
1996.6325588390755,2176
1998.5719166313224,2189
2000.5108031907307,2160
2002.4492187856677,2283
2004.387163684583,2255
2006.3246381560011,2203
2008.2616424685298,2209
2010.1981768908527,2180
2012.1342416917332,2145
2014.069837140014,2122
2016.0049635046162,2167
2017.9396210545406,2199
2019.8738100588666,2142
2021.8075307867502,2173
2023.740783507431,2176
2025.6735684902228,2199
2027.6058860045214,2165
2029.5377363198004,2098
2031.4691197056118,2188
2033.4000364315875,2179
2035.3304867674374,2134
2037.260470982952,2179
2039.189989347998,2166
2041.1190421325232,2132
2043.047629606554,2150
2044.9757520401945,2129
2046.9034097036288,2191
2048.8306028671195,2103
2050.7573318010086,2150
2052.683596775716,2169
2054.609398061742,2169
2056.5347359296647,2148
2058.4596106501403,2225
2060.384022493906,2224
2062.3079717317764,2211
2064.231458634646,2226
2066.1544834734873,2264
2068.077046519352,2202
2069.99914804337,2175
2071.9207883167524,2130
2073.8419676107865,2209
2075.7626861968406,2179
2077.6829443463607,2186
2079.6027423308715,2120
2081.522080421977,2241
2083.440958891362,2217
2085.359378010786,2131
2087.2773380520907,2155
2089.194839287196,2192
2091.111881988101,2185
2093.0284664268825,2214
2094.9445928756973,2192
2096.86026160678,2260
2098.775472892446,2236
2100.690227005088,2224
2102.604524217178,2168
2104.5183648012676,2158
2106.431749029985,2115
2108.34467717604,2247
2110.2571495122206,2256
2112.169166311393,2232
2114.080727846503,2194
2115.9918343905747,2236
2117.902486216711,2115
2119.8126835980956,2221
2121.722426807987,2164
2123.6317161197285,2176
2125.5405518067364,2221
2127.448934142509,2197
2129.356863400624,2235
2131.264339854737,2287
2133.1713637785815,2230
2135.077935445972,2249
2136.9840551308002,2237
2138.889723107037,2237
2140.7949396487334,2257
2142.699705030018,2209
2144.6040195250994,2332
2146.507883408264,2293
2148.4112969538774,2253
2150.3142604363848,2308
2152.2167741303097,2302
2154.1188383102535,2268
2156.0204532508997,2267
2157.9216192270064,2164
2159.822336513414,2193
2161.7226053850413,2259
2163.622426116884,2303
2165.5217989840185,2283
2167.4207242616,2253
2169.319202224862,2340
2171.2172331491165,2370
2173.1148173097563,2227
2175.0119549822507,2290
2176.90864644215,2346
2178.8048919650823,2265
2180.7006918267534,2280
2182.596046302952,2246
2184.4909556695407,2324
2186.3854202024645,2294
2188.279440177746,2312
2190.173015871487,2369
2192.066147559868,2340
2193.958835519149,2285
2195.851080025667,2308
2197.7428813558417,2310
2199.6342397861667,2223
2201.5251555932186,2382
2203.415629053651,2320
2205.3056604441986,2368
2207.19525004167,2342
2209.084398122958,2310
2210.9731049650327,2335
2212.861370844941,2416
2214.749196039812,2371
2216.636580826851,2350
2218.523525483344,2335
2220.410030286655,2369
2222.296095514226,2389
2224.1817214435805,2380
2226.066908352319,2334
2227.951656518121,2351
2229.835966218746,2363
2231.71983773203,2357
2233.6032713358913,2458
2235.486267308324,2353
2237.3688259274036,2337
2239.2509474712824,2421
2241.132632218193,2425
2243.013880446447,2437
2244.8946924344323,2386
2246.7750684606203,2405
2248.6550088035574,2411
2250.534513741871,2344
2252.413583554265,2441
2254.292218519526,2437
2256.170418916517,2488
2258.0481850241786,2394
2259.925517121534,2354
2261.8024154876825,2381
2263.678880401803,2455
2265.5549121431536,2397
2267.430510991071,2362
2269.305677224971,2428
2271.180411124348,2360
2273.0547129687766,2364
2274.9285830379076,2334
2276.8020216114737,2245
2278.6750289692845,2405
2280.5476053912294,2489
2282.4197511572766,2406
2284.2914665474727,2385
2286.162751841943,2465
2288.0336073208937,2307
2289.904033264608,2396
2291.774029953448,2391
2293.6435976678554,2388
2295.5127366883517,2345
2297.381447295534,2277
2299.2497297700825,2283
2301.1175843927526,2305
2302.9850114443825,2269
2304.852011205885,2252
2306.7185839582553,2247
2308.5847299825664,2094
2310.4504495599676,2175
2312.3157429716925,2190
2314.1806104990483,2133
2316.0450524234247,2212
2317.9090690262888,2205
2319.772660589186,2191
2321.635827393742,2192
2323.498569721661,2195
2325.3608878547248,2199
2327.2227820747967,2211
2329.0842526638157,2184
2330.945299903803,2155
2332.805924076857,2158
2334.6661254651535,2181
2336.525904350951,2168
2338.3852610165827,2216
2340.244195744464,2152
2342.102708817088,2138
2343.9608005170253,2165
2345.8184711269287,2222
2347.675720929526,2191
2349.532550207628,2237
2351.38895924412,2199
2353.24494832197,2164
2355.100517724223,2217
2356.955667734004,2258
2358.810398634514,2219
2360.664710709037,2221
2362.5186042409337,2215
2364.3720795136437,2239
2366.225136810686,2249
2368.0777764156583,2246
2369.929998612237,2192
2371.7818036841777,2265
2373.633191915315,2138
2375.484163589562,2167
2377.3347189909114,2129
2379.184858403434,2219
2381.03458211128,2159
2382.8838903986775,2188
2384.732783549936,2276
2386.5812618494406,2223
2388.4293255816588,2264
2390.2769750311327,2191
2392.1242104824883,2196
2393.971032220427,2164
2395.8174405297295,2256
2397.6634356952563,2286
2399.509018001947,2181
2401.3541877348193,2319
2403.1989451789705,2227
2405.043290619576,2220
2406.8872243418905,2223
2408.730746631247,2201
2410.5738577730594,2201
2412.4165580528183,2240
2414.258847756095,2221
2416.100727168537,2228
2417.9421965758734,2203
2419.783256263912,2262
2421.623906518538,2242
2423.4641476257157,2238
2425.303979871491,2284
2427.143403541984,2239
2428.9824189233977,2237
2430.821026302012,2276
2432.6592259641866,2171
2434.497018196361,2244
2436.33440328505,2299
2438.171381516851,2209
2440.00795317844,2287
2441.844118556569,2269
2443.6798779380724,2215
2445.5152316098606,2192
2447.3501798589255,2280
2449.1847229723357,2314
2451.0188612372403,2231
2452.8525949408663,2320
2454.6859243705203,2295
2456.518849813587,2244
2458.3513715575314,2319
2460.183489889895,2234
2462.015205098301,2309
2463.8465174704493,2258
2465.67742729412,2257
2467.5079348571717,2277
2469.338040447542,2353
2471.1677443532476,2289
2472.9970468623833,2347
2474.825948263123,2271
2476.6544488437207,2323
2478.482548892508,2268
2480.310248697896,2356
2482.137548548374,2287
2483.9644487325118,2273
2485.790949538956,2365
2487.617051256433,2305
2489.44275417375,2310
2491.26805857979,2247
2493.0929647635157,2268
2494.917473013971,2320
2496.741583620276,2292
2498.5652968716304,2372
2500.3886130573137,2281
2502.2115324666834,2433
2504.0340553891765,2387
2505.856182114308,2285
2507.6779129316733,2404
2509.499248130945,2319
2511.3201880018764,2357
2513.140732834298,2344
2514.9608829181198,2366
2516.780638543331,2415
2518.6,2332
2520.418967578273,2348
2522.237541568376,2380
2524.0557222606144,2308
2525.8735099453706,2361
2527.6909049131086,2345
2529.507907454368,2409
2531.32451785977,2464
2533.140736420014,2450
2534.9565634258774,2499
2536.771999168218,2476
2538.5870439379714,2526
2540.4016980261526,2492
2542.2159617238544,2549
2544.02983532225,2451
2545.8433191125914,2513
2547.656413386209,2553
2549.4691184345115,2570
2551.2814345489874,2513
2553.093362021204,2457
2554.904901142808,2591
2556.716052205523,2497
2558.526815501153,2609
2560.3371913215824,2641
2562.147179958771,2645
2563.956781704761,2607
2565.7659968516705,2708
2567.5748256916986,2623
2569.3832685171224,2643
2571.1913256202984,2627
2572.9989972936614,2720
2574.806283829725,2743
2576.613185521084,2725
2578.4197026604074,2704
2580.2258355404483,2696
2582.031584454035,2710
2583.836949694077,2719
2585.6419315535613,2774
2587.4465303255533,2689
2589.2507463032002,2856
2591.0545797797245,2739
2592.8580310484303,2736
2594.6611004026995,2847
2596.463788135992,2797
2598.266094541849,2702
2600.0680199138874,2831
2601.869564545807,2879
2603.670728731383,2750
2605.4715127644704,2804
2607.2719169390048,2753
2609.071941548998,2951
2610.8715868885433,2878
2612.670853251811,2789
2614.469740933052,2821
2616.268250226594,2840
2618.0663814268455,2803
2619.864134828292,2844
2621.6615107255006,2788
2623.458509413115,2776
2625.2551311858597,2702
2627.0513763385347,2750
2628.8472451660223,2730
2630.6427379632833,2827
2632.4378550253564,2733
2634.232596647359,2749
2636.026963124488,2784
2637.8209547520187,2646
2639.6145718253065,2651
2641.407814639785,2696
2643.200683490966,2605
2644.9931786744414,2644
2646.7853004858807,2690
2648.577049221034,2604
2650.3684251757277,2526
2652.1594286458712,2592
2653.9500599274484,2615
2655.740319316525,2556
2657.5302071092437,2552
2659.3197236018286,2608
2661.10886909058,2508
2662.8976438718782,2527
2664.686048242183,2562
2666.4740824980327,2526
2668.2617469360443,2470
2670.0490418529134,2499
2671.8359675454153,2506
2673.622524310403,2464
2675.408712444811,2503
2677.1945322456495,2518
2678.979984010009,2461
2680.76506803506,2476
2682.5497846180497,2413
2684.334134056306,2452
2686.1181166472343,2365
2687.9017326883213,2437
2689.6849824771293,2359
2691.4678663113013,2388
2693.2503844885596,2435
2695.032537306705,2374
2696.8143250636167,2326
2698.5957480572542,2384
2700.3768065856534,2488
2702.1575009469316,2458
2703.937831439283,2317
2705.717798360982,2318
2707.4974020103837,2317
2709.276642685917,2311
2711.055520686095,2295
2712.834036309506,2421
2714.612189854819,2336
2716.389981620782,2300
2718.1674119062204,2334
2719.944481010041,2299
2721.721189231226,2320
2723.4975368688415,2341
2725.273524222027,2266
2727.0491515900053,2320
2728.824419272075,2370
2730.5993275676146,2306
2732.3738767760838,2361
2734.148067197016,2249
2735.921899130031,2234
2737.6953728748194,2361
2739.468488731156,2305
2741.2412469988926,2222
2743.0136479779617,2315
2744.785691968372,2281
2746.5573792702116,2323
2748.3287101836504,2189
2750.099685008934,2362
2751.870304046388,2276
2753.640567596418,2317
2755.4104759595057,2281
2757.1800294362156,2308
2758.949228327187,2260
2760.7180729331412,2208
2762.486563554877,2287
2764.254700493272,2323
2766.022484049284,2226
2767.789914523947,2274
2769.5569922183786,2257
2771.3237174337705,2236
2773.090090471394,2240
2774.8561116326036,2306
2776.6217812188274,2321
2778.3870995315756,2275
2780.1520668724356,2247
2781.9166835430747,2338
2783.6809498452394,2329
2785.444866080754,2291
2787.2084325515225,2252
2788.971649559527,2268
2790.73451740683,2320
2792.4970363955713,2206
2794.2592068279705,2327
2796.0210290063264,2307
2797.7825032330147,2217
2799.543629810493,2308
2801.304409041296,2222
2803.0648412280366,2214
2804.8249266734088,2257
2806.5846656801846,2338
2808.344058551212,2306
2810.1031055894246,2192
2811.8618070978273,2210
2813.6201633795085,2309
2815.378174737636,2342
2817.1358414754536,2237
2818.893163896285,2307
2820.6501423035334,2264
2822.4067770006814,2268
2824.1630682912883,2390
2825.9190164789957,2271
2827.6746218675207,2331
2829.429884760661,2287
2831.184805462294,2296
2832.9393842763743,2296
2834.693621506936,2304
2836.4475174580916,2264
2838.201072434034,2284
2839.954286739034,2239
2841.707160677441,2267
2843.459694553685,2276
2845.2118886722724,2277
2846.96374333779,2230
2848.7152588549034,2256
2850.4664355283567,2348
2852.217273662973,2231
2853.9677735636546,2313
2855.7179355353833,2305
2857.4677598832186,2327
2859.217246912299,2383
2860.9663969278427,2245
2862.715210235146,2288
2864.4636871395846,2276
2866.211827946614,2277
2867.9596329617652,2261
2869.7071024906536,2363
2871.4542368389684,2228
2873.20103631248,2249
2874.947501217038,2257
2876.6936318585695,2279
2878.4394285430812,2308
2880.1848915766604,2283
2881.9300212654707,2240
2883.6748179157553,2272
2885.4192818338374,2327
2887.1634133261173,2227
2888.907212699077,2272
2890.6506802592744,2270
2892.393816313348,2407
2894.1366211680142,2375
2895.8790951300693,2322
2897.621238506388,2341
2899.363051603925,2283
2901.1045347297118,2321
2902.8456881908596,2370
2904.58651229456,2289
2906.327007348081,2257
2908.067173658772,2233
2909.8070115340597,2236
2911.5465212814497,2291
2913.285703208527,2291
2915.0245576229563,2233
2916.7630848324807,2312
2918.5012851449196,2292
2920.2391588681758,2209
2921.976706310227,2200
2923.7139277791334,2280
2925.4508235830313,2289
2927.187394030137,2359
2928.923639428745,2367
2930.6595600872306,2300
2932.395156314046,2318
2934.1304284177218,2340
2935.8653767068713,2348
2937.6000014901815,2313
2939.3343030764227,2296
2941.068281774442,2268
2942.8019378931644,2329
2944.5352717415976,2228
2946.2682836288236,2309
2948.0009738640065,2348
2949.7333427563885,2357
2951.465390615289,2361
2953.1971177501086,2291
2954.9285244703265,2309
2956.6596110855,2321
2958.3903779052657,2325
2960.1208252393385,2302
2961.8509533975125,2258
2963.5807626896617,2330
2965.3102534257378,2305
2967.0394259157715,2295
2968.768280469873,2303
2970.496817398232,2300
2972.2250370111146,2248
2973.952939618869,2299
2975.6805255319196,2274
2977.4077950607707,2273
2979.134748516006,2321
2980.861386208289,2344
2982.587708448359,2436
2984.313715547037,2368
2986.039407815222,2393
2987.764785563891,2338
2989.489849104102,2375
2991.2145987469908,2487
2992.9390348037705,2317
2994.6631575857346,2301
2996.3869674042576,2293
2998.1104645707887,2263
2999.83364939686,2317
3001.5565221940783,2311
3003.2790832741334,2297
3005.0013329487924,2312
3006.7232715298996,2283
3008.4448993293804,2326
3010.166216659239,2290
3011.887223831558,2343
3013.607921158498,2329
3015.3283089522993,2335
3017.0483875252826,2320
3018.7681571898443,2312
3020.4876182584626,2303
3022.2067710436927,2344
3023.9256158581707,2358
3025.644153014609,2346
3027.362382825801,2289
3029.0803056046193,2320
3030.797921664012,2287
3032.5152313170106,2321
3034.2322348767225,2307
3035.9489326563353,2326
3037.665324969115,2300
3039.3814121284063,2393
3041.097194447633,2338
3042.812672240299,2330
3044.5278458199855,2346
3046.2427155003525,2322
3047.9572815951406,2373
3049.671544418167,2311
3051.38550428333,2248
3053.0991615046073,2318
3054.812516396051,2364
3056.5255692717974,2318
3058.2383204460575,2325
3059.9507702331257,2315
3061.662918947372,2351
3063.3747669032446,2364
3065.0863144152736,2300
3066.7975617980674,2374
3068.508509366309,2334
3070.219157434767,2344
3071.9295063182844,2374
3073.639556331785,2406
3075.3493077902704,2392
3077.058761008821,2373
3078.7679163025964,2404
3080.476773986837,2383
3082.1853343768594,2329
3083.89359778806,2354
3085.6015645359153,2333
3087.3092349359786,2345
3089.016609303884,2347
3090.7236879553434,2387
3092.4304712061476,2405
3094.136959372166,2376
3095.843152769349,2346
3097.5490517137237,2365
3099.2546565213966,2443
3100.959967508554,2356
3102.66498499146,2359
3104.3697092864577,2379
3106.0741407099695,2327
3107.778279578498,2333
3109.482126208622,2423
3111.1856809170004,2265
3112.8889440203716,2420
3114.5919158355528,2362
3116.294596679439,2359
3117.996986869006,2395
3119.6990867213062,2456
3121.4008965534726,2429
3123.102416682717,2432
3124.803647426329,2382
3126.5045891016784,2447
3128.205242026213,2398
3129.90560651746,2376
3131.605682893025,2406
3133.3054714705922,2372
3135.0049725679282,2395
3136.7041865028714,2465
3138.4031135933465,2461
3140.101754157353,2420
3141.800108512971,2361
3143.498176978357,2384
3145.1959598717494,2473
3146.8934575114636,2367
3148.5906702158954,2336
3150.2875983035183,2326
3151.9842420928853,2406
3153.680601902627,2375
3155.376678051456,2300
3157.07247085816,2301
3158.767980641609,2296
3160.463207720748,2439
3162.158152414606,2313
3163.8528150422862,2470
3165.5471959229726,2398
3167.2412953759303,2440
3168.9351137204976,2435
3170.628651276098,2428
3172.3219083622307,2456
3174.014885298474,2406
3175.707582404485,2408
3177.4000000000005,2471
3179.092138404835,2353
3180.7839979388846,2378
3182.47557892212,2347
3184.166881674594,2374
3185.8579065164386,2379
3187.5486537678626,2395
3189.2391237491547,2440
3190.9293167806827,2478
3192.6192331828934,2399
3194.3088732763117,2397
3195.998237381542,2371
3197.687325819268,2440
3199.376138910251,2412
3201.064676975334,2378
3202.7529403354347,2409
3204.4409293115523,2397
3206.1286442247647,2387
3207.816085396229,2346
3209.5032531471825,2346
3211.190147798936,2361
3212.8767696728846,2297
3214.5631190905015,2266
3216.2491963733373,2430
3217.9350018430214,2377
3219.6205358212637,2298
3221.305798629851,2270
3222.990790590651,2307
3224.6755120256103,2293
3226.359963256751,2220
3228.0441446061795,2388
3229.7280563960758,2373
3231.411698948703,2384
3233.0950725863995,2384
3234.778177631587,2312
3236.461014406761,2419
3238.1435832345005,2385
3239.8258844374595,2353
3241.507918338374,2380
3243.1896852600576,2387
3244.8711855254023,2402
3246.552419457381,2429
3248.233387379042,2365
3249.914089613516,2341
3251.59452648401,2376
3253.274698313813,2410
3254.95460542629,2367
3256.6342481448855,2332
3258.313626793125,2300
3259.9927416946084,2359
3261.6715931730196,2358
3263.3501815521176,2366
3265.0285071557437,2338
3266.706570307815,2372
3268.3843713323286,2377
3270.0619105533615,2351
3271.739188295068,2386
3273.4162048816834,2403
3275.0929606375184,2368
3276.769455886966,2366
3278.445690954498,2449
3280.1216661646613,2404
3281.797381842087,2409
3283.4728383114807,2407
3285.1480358976296,2404
3286.8229749253996,2419
3288.4976557197333,2361
3290.172078605655,2357
3291.846243908266,2282
3293.5201519527463,2339
3295.193803064357,2346
3296.8671975684374,2299
3298.5403357904024,2348
3300.21321805575,2311
3301.8858446900567,2382
3303.558216018975,2371
3305.23033236824,2312
3306.9021940636603,2374
3308.57380143113,2468
3310.2451547966184,2433
3311.916254486174,2351
3313.5871008259246,2480
3315.2576941420766,2432
3316.9280347609147,2378
3318.5981230088046,2331
3320.2679592121895,2341
3321.9375436975924,2318
3323.606876791612,2340
3325.27595882093,2340
3326.944790112305,2318
3328.6133709925753,2359
3330.2817017886573,2321
3331.949782827547,2427
3333.617614436319,2374
3335.2851969421245,2362
3336.952530672199,2388
3338.619615953853,2410
3340.286453114475,2288
3341.9530424815357,2408
3343.619384382583,2380
3345.2854791452437,2425
3346.951327097224,2367
3348.6169285663073,2361
3350.2822838803577,2433
3351.947393367319,2412
3353.61225735521,2324
3355.2768761721345,2403
3356.9412501462693,2334
3358.605379605873,2321
3360.2692648792827,2363
3361.9329062949146,2354
3363.596304181263,2278
