CollectionTime,7/9/2024 11:34:48 AM
ExposureUsed,3
CalibratedSpectrum
-962.7078968117929,493
-959.9714848408522,531
-957.2358232597828,533
-954.5009119013725,510
-951.7667505983302,491
-949.0333391832855,518
-946.3006774887896,525
-943.5687653473143,528
-940.837602591253,492
-938.1071890529199,503
-935.3775245645503,516
-932.6486089583007,499
-929.9204420662485,527
-927.1930237203925,530
-924.4663537526524,521
-921.7404319948689,525
-919.0152582788041,556
-916.2908324361409,584
-913.5671542984834,559
-910.8442236973568,514
-908.1220404642074,529
-905.4006044304027,579
-902.679915427231,526
-899.959973285902,524
-897.2407778375464,563
-894.5223289132158,515
-891.8046263438832,532
-889.0876699604426,521
-886.3714595937089,511
-883.6559950744183,522
-880.9412762332282,506
-878.2273029007168,514
-875.5140749073835,517
-872.8015920836489,517
-870.0898542598545,498
-867.3788612662631,541
-864.6686129330585,496
-861.9591090903457,521
-859.2503495681506,534
-856.5423341964203,509
-853.8350628050229,510
-851.1285352237478,499
-848.4227512823054,490
-845.7177108103272,522
-843.0134136373656,509
-840.3098595928943,505
-837.6070485063082,537
-834.9049802069229,540
-832.2036545239757,540
-829.5030712866244,544
-826.8032303239481,506
-824.1041314649472,528
-821.4057745385428,495
-818.7081593735775,510
-816.0112857988148,516
-813.3151536429393,502
-810.6197627345566,544
-807.9251129021936,557
-805.2312039742981,500
-802.5380357792392,532
-799.8456081453069,528
-797.1539209007124,553
-794.462973873588,543
-791.772766891987,549
-789.083299783884,531
-786.3945723771743,554
-783.7065844996748,536
-781.0193359791231,557
-778.3328266431781,521
-775.6470563194197,549
-772.9620248353489,532
-770.2777320183878,528
-767.5941776958798,520
-764.9113616950891,579
-762.2292838432011,533
-759.5479439673222,527
-756.8673418944801,520
-754.1874774516235,556
-751.5083504656222,551
-748.8299607632671,581
-746.15230817127,566
-743.475392516264,559
-740.7992136248035,574
-738.1237713233636,561
-735.4490654383407,536
-732.7750957960521,547
-730.1018622227365,568
-727.4293645445534,551
-724.7576025875837,570
-722.0865761778291,545
-719.4162851412126,565
-716.7467293035781,571
-714.0779084906909,572
-711.409822528237,571
-708.7424712418238,538
-706.0758544569796,555
-703.4099719991541,596
-700.7448236937178,579
-698.0804093659622,567
-695.4167288411002,570
-692.7537819442656,574
-690.0915685005134,555
-687.4300883348199,575
-684.7693412720819,580
-682.1093271371178,586
-679.4500457546669,562
-676.7914969493897,618
-674.1336805458676,565
-671.4765963686034,567
-668.8202442420206,600
-666.1646239904642,595
-663.5097354382001,576
-660.8555784094151,612
-658.2021527282176,602
-655.5494582186366,610
-652.8974947046223,592
-650.2462620100463,589
-647.5957599587009,608
-644.9459883742998,600
-642.2969470804776,581
-639.6486359007902,608
-637.0010546587141,604
-634.3542031776476,637
-631.7080812809096,611
-629.0626887917401,603
-626.4180255333008,633
-623.7740913286734,656
-621.1308860008619,650
-618.4884093727904,594
-615.8466612673046,626
-613.2056415071715,625
-610.5653499150785,669
-607.9257863136347,625
-605.28695052537,696
-602.6488423727357,633
-600.0114616781036,660
-597.3748082637674,642
-594.7388819519412,654
-592.1036825647604,673
-589.4692099242818,664
-586.8354638524829,658
-584.2024441712624,671
-581.5701507024403,659
-578.9385832677575,621
-576.3077416888759,654
-573.6776257873787,673
-571.0482353847704,621
-568.4195703024757,614
-565.7916303618415,620
-563.164415384135,659
-560.5379251905453,665
-557.9121596021815,647
-555.2871184400748,648
-552.6628015251767,659
-550.0392086783606,653
-547.4163397204204,688
-544.794194472071,682
-542.1727727539491,700
-539.5520743866118,707
-536.9320991905377,707
-534.3128469861261,786
-531.6943175936979,764
-529.0765108334947,815
-526.4594265256793,842
-523.8430644903358,958
-521.2274245474689,1077
-518.612506517005,1098
-515.9983102187913,1119
-513.3848354725959,1164
-510.77208209810846,1148
-508.16004991493924,1344
-505.5487387426199,1542
-502.9381484006032,1608
-500.3282787082628,1748
-497.71912948489364,1667
-495.1107005497117,1585
-492.5029917218539,1361
-489.8960028203786,1228
-487.28973366426493,1077
-484.68418407241325,966
-482.07935386364494,942
-479.47524285670266,912
-476.87185087025,922
-474.2691777228715,889
-471.66722323307334,902
-469.0659872192821,867
-466.4654694998459,875
-463.86566989303384,855
-461.26658821703614,904
-458.66822428996414,874
-456.07057792985,898
-453.4736489546475,851
-450.877437182231,849
-448.28194243039627,834
-445.68716451686,803
-443.09310325926003,825
-440.49975847515555,836
-437.9071299820263,875
-435.31521759727354,832
-432.72402113821954,880
-430.13354042210767,877
-427.5437752661022,868
-424.95472548728867,858
-422.36639090267386,900
-419.7787713291855,917
-417.1918665836721,948
-414.60567648290385,990
-412.0202008435715,893
-409.4354394822874,910
-406.8513922155845,869
-404.26805885991723,908
-401.685439231661,926
-399.103533147112,928
-396.522340422488,906
-393.9418608739278,921
-391.3620943174908,928
-388.7830405691583,951
-386.2046994448317,873
-383.6270707603344,857
-381.05015433141045,811
-378.473949973725,800
-375.8984575028645,720
-373.32367673433623,660
-370.74960748356875,667
-368.1762495659117,650
-365.60360279663576,605
-363.03166699093265,553
-360.4604419639154,560
-357.8899275306178,507
-355.32012350599507,524
-352.7510297049233,493
-350.1826459421999,504
-347.61497203254316,479
-345.04800779059235,488
-342.4817530309082,524
-339.91620756797226,544
-337.35137121618743,509
-334.7872437898774,495
-332.22382510328725,542
-329.66111497058273,499
-327.09911320585127,461
-324.53781962310075,495
-321.9772340362607,498
-319.4173562591816,497
-316.8581861056348,511
-314.2997233893127,485
-311.7419679238294,499
-309.1849195227194,493
-306.62857799943856,528
-304.0729431673641,521
-301.51801483979375,563
-298.963792829947,526
-296.41027695096386,562
-293.85746701590574,596
-291.3053628377552,593
-288.7539642294155,631
-286.2032710037115,569
-283.65328297338897,521
-281.1039999511146,641
-278.5554217494762,664
-276.007548180983,632
-273.4603790580651,591
-270.9139141930734,586
-268.3681533982807,597
-265.8230964858798,596
-263.27874326798565,597
-260.7350935566336,589
-258.1921471637804,587
-255.6499039013039,627
-253.10836358100266,629
-250.56752601459698,590
-248.02739101372765,643
-245.48795838995704,703
-242.94922795476816,635
-240.41119951956557,605
-237.8738728956746,632
-235.33724789434166,792
-232.80132432673452,724
-230.2661020039418,659
-227.73158073697357,690
-225.19776033676033,791
-222.66464061415422,796
-220.1322213799284,735
-217.60050244477725,673
-215.06948361931552,661
-212.53916471408013,737
-210.00954553952818,806
-207.48062590603843,694
-204.9524056239104,735
-202.4248845033651,850
-199.8980623545441,815
-197.37193898751036,799
-194.84651421224817,746
-192.32178783866232,776
-189.79775967657952,807
-187.27442953574644,864
-184.7517972258321,942
-182.2298625564256,956
-179.7086253370378,850
-177.18808537710026,737
-174.66824248596583,813
-172.14909647290835,899
-169.6306471471229,922
-167.11289431772548,946
-164.59583779375328,964
-162.07947738416453,967
-159.5638128978386,974
-157.04884414357605,1090
-154.53457093009854,1308
-152.02099306604828,1122
-149.50811035998936,981
-146.99592262040665,953
-144.48442965570587,956
-141.97363127421409,1096
-139.46352728417958,1251
-136.95411749377126,1341
-134.44540171107985,1292
-131.93737974411636,1076
-129.43005140081357,1014
-126.92341648902493,1570
-124.41747481652521,2096
-121.91222619101006,2538
-119.40767042009657,3221
-116.90380731132257,3693
-114.40063667214702,3539
-111.8981583099503,2817
-109.3963720320337,2168
-106.89527764561933,1959
-104.39487495785067,2249
-101.89516377579241,3083
-99.39614390642998,4385
-96.89781515667039,5271
-94.40017733334128,5382
-91.90323024319173,4804
-89.40697369289148,5317
-86.91140748903172,6614
-84.41653143812482,7087
-81.92234534660395,5594
-79.42884902082358,4169
-76.93604226705907,6312
-74.4439248915071,11746
-71.95249670028534,18053
-69.46175749943245,21654
-66.97170709490854,21189
-64.48234529259423,17892
-61.99367189829195,14287
-59.50568671772464,12334
-57.01838955653636,10409
-54.53178022029283,9734
-52.045858514480074,11305
-49.560624244506016,13303
-47.07607721569923,14594
-44.59221723330904,15912
-42.10904410250669,17206
-39.62655762838392,18376
-37.14475761595372,17150
-34.66364387015028,16359
-32.18321619582866,15807
-29.70347439776515,13669
-27.224418280657005,12859
-24.74604764912317,13619
-22.26836230770266,18169
-19.7913620608565,32495
-17.315046712966478,57911
-14.83941606833514,65039
-12.36446993118659,65039
-9.89020810566592,65039
-7.416630395839093,65039
-4.94373660569363,65039
-2.471526539137585,65039
-6.821210263296962E-13,65039
2.47084320796705,65039
4.941003281093458,65039
7.410480415786196,65039
9.879274808531363,65039
12.347386655893956,65039
14.814816154518212,65039
17.28156350112681,65039
19.74762889252179,65039
22.21301252558385,65039
24.67771459727237,20853
27.141735304626195,4376
29.605074844762612,2673
32.06773341487792,2204
34.52971121224755,2298
36.99100843422559,2540
39.45162527824516,2320
41.91156194181792,2046
44.370818622535126,1787
46.82939551806646,1543
49.287292826160524,1626
51.74451074464503,1530
54.201049471426245,1531
56.65690920448981,1432
59.112090141899785,1363
61.56659248179983,1248
64.02041642241159,1118
66.4735621620365,1046
68.92602989905402,1053
71.37781983192338,1105
73.82893215918205,1091
76.27936707944684,1199
78.72912479141326,1259
81.17820549385567,1220
83.62660938562783,1266
86.07433666566146,1233
88.5213875329681,899
90.96776218663751,930
93.41346082583925,949
95.85848364982041,1108
98.30283085790859,1111
100.7465026495089,1167
103.18949922410604,1211
105.63182078126385,1128
108.07346752062438,1174
110.51443964190923,962
112.95473734491827,930
115.39436082953114,999
117.83331029570547,971
120.27158594347827,959
122.7091879729652,1110
125.1461165843615,1087
127.58237197794062,948
130.01795435405518,879
132.4528639131364,953
134.88710085569494,984
137.32066538231982,912
139.75355769367923,824
142.1857779905207,819
144.61732647366978,893
147.04820334403132,963
149.47840880258934,1016
151.90794305040674,1035
154.33680628862487,1123
156.76499871846443,1246
159.19252054122433,1432
161.61937195828352,1495
164.04555317109896,1619
166.47106438120693,1667
168.89590579022217,1867
171.320077599839,1971
173.7435800118302,2202
176.16641322804742,2159
178.58857745042144,2363
181.01007288096173,2531
183.43089972175687,2619
185.85105817497413,2460
188.27054844285988,2382
190.6893707277394,2340
193.10752523201643,2346
195.5250121581745,2468
197.9418317087751,2567
200.3579840864594,2605
202.7734694939469,2531
205.18828813403627,2521
207.6024402096051,2693
210.01592592360964,2772
212.42874547908548,2765
214.84089907914665,2634
217.2523869269868,2727
219.66320922587727,2625
222.0733661791695,2690
224.48285799029293,2646
226.8916848627572,2578
229.29984700014882,2605
231.7073446061355,2827
234.11417788446204,2699
236.520347038953,2693
238.92585227351185,2648
241.33069379212054,2584
243.73487179884035,2692
246.1383864978112,2794
248.541238093252,2779
250.9434267894609,2672
253.34495279081432,2776
255.74581630176783,2703
258.1460175268563,2647
260.54555667069314,2668
262.9444339379703,2715
265.3426495334594,2696
267.7402036620107,2792
270.1370965285529,2623
272.53332833809407,2640
274.9288992957214,2495
277.32380960660055,2527
279.718059475976,2611
282.1116491091717,2680
284.5045787115897,2545
286.89684848871195,2678
289.2884586460981,2631
291.67940938938807,2603
294.0697009242996,2656
296.4593334566299,2691
298.84830719225477,2560
301.23662233712923,2548
303.6242790972866,2504
306.01127767884,2508
308.39761828798066,2491
310.78330113097934,2484
313.16832641418534,2462
315.5526943440269,2410
317.9364051270112,2400
320.3194589697242,2352
322.70185607883093,2405
325.0835966610754,2412
327.4646809232805,2418
329.8451090723478,2322
332.2248813152577,2325
334.6039978590701,2368
336.9824589109231,2250
339.36026467803447,2201
341.7374153677,2249
344.113911187295,2311
346.48975234427337,2226
348.8649390461686,2308
351.2394715005918,2219
353.61334991523415,2211
355.9865744978655,2191
358.35914545633375,2140
360.73106299856715,2175
363.10232733257146,2191
365.47293866643247,2178
367.84289720831396,2189
370.2122031664593,2151
372.5808567491905,2202
374.9488581649083,2116
377.31620762209275,2095
379.6829053293021,2082
382.0489514951745,2030
384.4143463284262,2084
386.7790900378528,2102
389.14318283232853,2088
391.50662492080653,2112
393.86941651231916,2076
396.23155781597745,2074
398.5930490409713,2065
400.9538903965696,2038
403.3140820921202,2032
405.6736243370498,2134
408.03251734086336,2016
410.3907613131465,2035
412.74835646356166,2040
415.10530300185144,2047
417.4616011378372,2054
419.81725108141893,1982
422.1722530425758,1946
424.5266072313656,1984
426.880313857925,2012
429.2333731324701,1978
431.58578526529516,1980
433.9375504667738,1952
436.2886689473588,1979
438.63914091758113,2061
440.9889665880513,2010
443.33814616945835,1939
445.68667987257015,2035
448.03456790823395,1988
450.3818104873759,1938
452.72840782100013,1950
455.07436012019105,1932
457.41966759611057,1958
459.7643304600007,1970
462.10834892318155,1975
464.4517231970525,2002
466.79445349309174,1970
469.1365400228566,1993
471.4779829979826,2053
473.81878263018564,2031
476.15893913125876,2044
478.4984527130747,2092
480.8373235875855,2089
483.17555196682144,2144
485.5131380628919,2238
487.8500820879857,2291
490.1863842543697,2443
492.52204477439034,2642
494.8570638604725,2999
497.1914417251204,3288
499.52517858091653,3693
501.85827464052306,4020
504.19073011668036,4123
506.5225452222086,4068
508.85372017000566,3968
511.18425517304956,3859
513.514150444396,3763
515.8434061971808,4451
518.1720226446176,5457
520.4999999999999,5734
522.8273384766991,5333
525.1540382881666,4825
527.480099647932,4212
529.8055227696037,3528
532.1303078668694,2875
534.454455153496,2499
536.777964843328,2313
539.1008371502907,2202
541.4230722883866,2237
543.744670471698,2228
546.0656319143858,2221
548.3859568306899,2141
550.7056454349294,2068
553.0246979415016,2068
555.3431145648834,2065
557.6608955196306,2055
559.978041020377,2076
562.2945512818363,1957
564.6104265188006,2059
566.9256669461412,2113
569.2402727788082,2127
571.5542442318302,2062
573.8675815203156,2124
576.1802848594508,2165
578.4923544645015,2165
580.8037905508126,2164
583.114593333807,2076
585.4247630289875,2103
587.7342998519354,2096
590.0432040183106,2137
592.3514757438526,2100
594.6591152443794,2106
596.9661227357875,2134
599.2724984340531,2146
601.578242555231,2090
603.8833553154542,2179
606.1878369309362,2195
608.4916876179676,2063
610.7949075929192,2066
613.0974970722403,2075
615.3994562724587,2022
617.7007854101818,2055
620.0014847020951,2032
622.3015543649641,2066
624.6009946156324,2049
626.8998056710224,2144
629.1979877481361,2098
631.4955410640538,2179
633.7924658359349,2098
636.0887622810175,1988
638.3844306166192,2048
640.6794710601358,2034
642.9738838290426,2013
645.2676691408932,2078
647.5608272133207,2066
649.853358264037,2038
652.1452625108324,2020
654.4365401715764,2098
656.7271914642178,2158
659.0172166067838,2129
661.3066158173809,2078
663.5953893141935,2112
665.8835373154867,2126
668.1710600396028,2102
670.4579577049639,2060
672.7442305300709,2165
675.0298787335033,2095
677.3149025339197,2113
679.599302150058,2061
681.8830778007342,2066
684.1662297048437,2141
686.4487580813608,2131
688.7306631493387,2119
691.0119451279091,2055
693.2926042362834,2032
695.5726406937516,2087
697.8520547196814,2113
700.1308465335215,2039
702.4090163547982,2103
704.6865644031171,2023
706.9634908981619,2052
709.2397960596965,2100
711.5154801075631,2024
713.7905432616823,2045
716.0649857420548,2121
718.3388077687592,2121
720.612009561953,2080
722.8845913418733,2054
725.1565533288352,2141
727.427895743234,2069
729.6986188055427,2101
731.9687227363137,2109
734.238207756178,2128
736.5070740858458,2061
738.7753219461066,2018
741.0429515578281,2068
743.3099631419569,2098
745.5763569195191,2044
747.8421331116193,2078
750.1072919394409,2156
752.3718336242467,2105
754.6357583873777,2130
756.8990664502545,2061
759.1617580343765,2055
761.423833361321,1997
763.6852926527457,2068
765.9461361303862,2157
768.206364016058,2108
770.4659765316536,2086
772.7249738991469,2092
774.9833563405886,2122
777.2411240781092,2141
779.4982773339183,2109
781.7548163303044,2119
784.010741289634,2128
786.2660524343538,2215
788.5207499869881,2102
790.7748341701416,2084
793.0283052064964,2093
795.2811633188143,2111
797.5334087299362,2259
799.7850416627813,2216
802.0360623403484,2096
804.2864709857143,2048
806.5362678220353,2178
808.7854530725468,2203
811.0340269605625,2156
813.2819897094754,2123
815.5293415427581,2138
817.77608268396,2158
820.0222133567116,2139
822.2677337847211,2134
824.5126441917765,2114
826.7569448017433,2141
829.0006358385675,2136
831.2437175262731,2106
833.4861900889629,2109
835.7280537508192,2074
837.9693087361026,2066
840.2099552691533,2179
842.4499935743896,2167
844.689423876309,2114
846.9282463994886,2134
849.1664613685833,2168
851.4040690083276,2077
853.6410695435349,2122
855.877463199097,2084
858.1132501999847,2012
860.3484307712487,2109
862.5830051380175,2074
864.8169735254988,2238
867.0503361589791,2096
869.2830932638243,2182
871.5152450654786,2174
873.7467917894654,2134
875.9777336613873,2160
878.2080709069252,2201
880.4378037518389,2172
882.666932421968,2185
884.8954571432301,2190
887.1233781416219,2147
889.3506956432192,2216
891.5774098741766,2215
893.803521060728,2231
896.0290294291852,2236
898.2539352059397,2242
900.4782386174619,2166
902.7019398903011,2237
904.925039251085,2193
907.147536926521,2309
909.3694331433943,2185
911.59072812857,2153
913.8114221089921,2171
916.0315153116827,2198
918.2510079637437,2167
920.4699002923547,2209
922.6881925247761,2153
924.905884888345,2168
927.1229776104793,2115
929.3394709186747,2090
931.555365040506,2196
933.7706602036275,2133
935.9853566357709,2159
938.1994545647489,2149
940.4129542184515,2191
942.6258558248488,2150
944.8381596119883,2149
947.0498658079974,2098
949.2609746410825,2058
951.4714863395287,2169
953.6814011316998,2130
955.8907192460387,2151
958.0994409110671,2053
960.3075663553858,2043
962.5150958076741,2088
964.7220294966913,2065
966.928367651274,2086
969.1341105003388,2009
971.3392582728806,2068
973.5438111979742,2019
975.747769504772,2061
977.9511334225061,2072
980.153903180487,1983
982.3560790081052,1994
984.5576611348289,1990
986.7586497902058,1962
988.9590452038618,1928
991.158847605503,1956
993.3580572249133,2021
995.5566742919558,1968
997.7546990365728,1833
999.952131688785,1800
1002.1489724786926,1826
1004.3452216364743,1812
1006.5408793923874,1828
1008.7359459767691,1771
1010.9304216200343,1845
1013.1243065526781,1788
1015.3176010052733,1807
1017.510305208472,1715
1019.7024193930064,1680
1021.8939437896848,1743
1024.0848786293977,1799
1026.2752241431122,1733
1028.4649805618747,1707
1030.6541481168115,1695
1032.842727039127,1710
1035.0307175601051,1682
1037.2181199111074,1673
1039.4049343235752,1691
1041.591161029029,1653
1043.7768002590683,1690
1045.9618522453698,1691
1048.1463172196918,1709
1050.3301954138697,1629
1052.513487059818,1689
1054.69619238953,1702
1056.8783116350783,1647
1059.0598450286152,1652
1061.2407928023704,1704
1063.4211551886528,1718
1065.6009324198508,1661
1067.780124728432,1603
1069.9587323469414,1697
1072.1367555080046,1651
1074.314194444325,1674
1076.4910493886855,1682
1078.667320573947,1621
1080.843008233051,1632
1083.0181125990161,1643
1085.1926339049414,1604
1087.3665723840027,1697
1089.5399282694575,1604
1091.7127017946405,1583
1093.8848931929647,1618
1096.0565026979243,1598
1098.2275305430899,1616
1100.3979769621128,1583
1102.567842188722,1577
1104.737126456726,1615
1106.9058300000124,1667
1109.0739530525475,1583
1111.2414958483764,1573
1113.4084586216231,1583
1115.5748416064907,1630
1117.7406450372605,1565
1119.9058691482942,1627
1122.0705141740304,1584
1124.2345803489884,1607
1126.3980679077658,1618
1128.5609770850388,1551
1130.7233081155623,1651
1132.8850612341707,1541
1135.0462366757774,1596
1137.2068346753745,1596
1139.3668554680326,1592
1141.526299288901,1552
1143.68516637321,1518
1145.8434569562655,1553
1148.001171273455,1565
1150.158309560244,1550
1152.3148720521767,1597
1154.470858984876,1517
1156.626270594044,1520
1158.7811071154629,1531
1160.9353687849912,1551
1163.089055838569,1553
1165.242168512213,1554
1167.3947070420209,1493
1169.5466716641677,1551
1171.6980626149075,1515
1173.8488801305748,1540
1175.9991244475814,1536
1178.1487958024186,1522
1180.2978944316555,1536
1182.4464205719428,1536
1184.5943744600072,1579
1186.7417563326567,1537
1188.8885664267755,1517
1191.0348049793297,1480
1193.1804722273619,1520
1195.325568407995,1523
1197.4700937584303,1601
1199.614048515948,1536
1201.7574329179074,1499
1203.900247201746,1516
1206.042491604982,1533
1208.1841663652099,1554
1210.3252717201053,1548
1212.465807907422,1514
1214.6057751649923,1561
1216.7451737307279,1575
1218.8840038426192,1569
1221.0222657387353,1500
1223.1599596572241,1543
1225.2970858363137,1542
1227.4336445143094,1551
1229.5696359295966,1578
1231.705060320639,1554
1233.8399179259786,1617
1235.9742089842384,1538
1238.107933734118,1563
1240.2410924143974,1571
1242.373685263935,1569
1244.5057125216676,1541
1246.6371744266116,1607
1248.7680712178621,1582
1250.898403134593,1585
1253.028170416058,1614
1255.1573733015875,1560
1257.2860120305932,1557
1259.4140868425648,1546
1261.54159797707,1636
1263.6685456737569,1603
1265.7949301723515,1581
1267.9207517126597,1633
1270.046010534565,1557
1272.1707068780306,1613
1274.2948409830983,1610
1276.4184130898889,1551
1278.541423438603,1619
1280.6638722695184,1597
1282.785759822993,1638
1284.9070863394636,1669
1287.0278520594447,1576
1289.1480572235314,1690
1291.2677020723963,1661
1293.3867868467923,1682
1295.5053117875495,1659
1297.623277135579,1728
1299.740683131868,1563
1301.8575300174857,1659
1303.973818033578,1619
1306.0895474213703,1654
1308.2047184221678,1623
1310.3193312773528,1679
1312.4333862283888,1692
1314.5468835168163,1689
1316.659823384255,1667
1318.7722060724045,1626
1320.8840318230418,1683
1322.9953008780249,1671
1325.1060134792888,1628
1327.2161698688478,1669
1329.3257702887959,1666
1331.4348149813054,1704
1333.5433041886276,1659
1335.6512381530933,1653
1337.7586171171101,1647
1339.8654413231675,1749
1341.9717110138317,1645
1344.0774264317488,1684
1346.1825878196432,1531
1348.2871954203192,1618
1350.3912494766587,1637
1352.4947502316231,1632
1354.5976979282532,1698
1356.7000928096686,1688
1358.8019351190665,1599
1360.9032250997243,1608
1363.0039629949988,1648
1365.1041490483235,1622
1367.2037835032133,1602
1369.3028666032606,1688
1371.401398592137,1720
1373.4993797135926,1675
1375.5968102114575,1658
1377.6936903296396,1696
1379.7900203121262,1693
1381.8858004029835,1659
1383.9810308463561,1678
1386.075711886469,1662
1388.1698437676241,1672
1390.2634267342032,1657
1392.356461030667,1711
1394.4489469015557,1674
1396.5408845914872,1696
1398.6322743451592,1686
1400.7231164073469,1782
1402.813411022907,1698
1404.903158436773,1723
1406.9923588939578,1775
1409.0810126395531,1698
1411.1691199187303,1701
1413.2566809767386,1748
1415.343696058907,1724
1417.4301654106425,1766
1419.5160892774315,1789
1421.6014679048399,1806
1423.6863015385125,1812
1425.7705904241707,1756
1427.8543348076178,1758
1429.9375349347342,1763
1432.0201910514802,1719
1434.102303403894,1829
1436.1838722380944,1770
1438.2648978002767,1749
1440.3453803367174,1756
1442.4253200937692,1801
1444.5047173178677,1818
1446.5835722555234,1834
1448.6618851533285,1859
1450.739656257952,1907
1452.8168858161434,1866
1454.8935740747306,1937
1456.96972128062,1838
1459.045327680797,1939
1461.120393522327,1972
1463.1949190523528,1939
1465.2689045180973,1982
1467.3423501668608,2027
1469.415256246024,2087
1471.4876230030463,2000
1473.559450685465,2048
1475.6307395408976,2067
1477.7014898170391,2107
1479.771701761665,2163
1481.8413756226287,2058
1483.9105116478618,2143
1485.9791100853772,2225
1488.0471711832643,2210
1490.1146951896926,2174
1492.1816823529098,2133
1494.2481329212433,2269
1496.3140471430984,2175
1498.3794252669609,2291
1500.4442675413939,2175
1502.5085742150404,2207
1504.572345536622,2255
1506.6355817549388,2247
1508.6982831188702,2301
1510.7604498773744,2322
1512.8220822794883,2328
1514.8831805743293,2307
1516.9437450110909,2374
1519.003775839048,2360
1521.0632733075522,2382
1523.1222376660367,2423
1525.1806691640113,2427
1527.2385680510652,2394
1529.2959345768668,2416
1531.3527689911643,2524
1533.4090715437833,2483
1535.4648424846291,2482
1537.5200820636855,2501
1539.5747905310159,2563
1541.6289681367616,2624
1543.6826151311434,2584
1545.7357317644614,2621
1547.7883182870937,2633
1549.8403749494987,2739
1551.8919020022113,2719
1553.9428996958477,2823
1555.9933682811015,2806
1558.0433080087469,2855
1560.0927191296346,2901
1562.1416018946961,2951
1564.1899565549415,2963
1566.2377833614592,3019
1568.2850825654164,2974
1570.3318544180606,3076
1572.3780991707158,3110
1574.423817074788,2902
1576.4690083817595,2970
1578.5136733431923,2720
1580.5578122107272,2662
1582.601425236085,2593
1584.6445126710646,2570
1586.6870747675434,2465
1588.7291117774776,2347
1590.7706239529034,2347
1592.8116115459347,2205
1594.8520748087658,2216
1596.8920139936686,2130
1598.9314293529933,2027
1600.9703211391711,1982
1603.008689604711,1900
1605.0465350022005,1942
1607.0838575843068,1961
1609.1206576037753,1948
1611.1569353134305,1906
1613.1926909661765,1781
1615.2279248149953,1803
1617.2626371129481,1798
1619.2968281131757,1727
1621.3304980688963,1795
1623.3636472334088,1749
1625.39627586009,1797
1627.428384202396,1721
1629.459972513861,1742
1631.4910410480993,1780
1633.5215900588028,1812
1635.551619799744,1705
1637.5811305247717,1656
1639.6101224878166,1744
1641.6385959428862,1662
1643.6665511440683,1765
1645.693988345528,1650
1647.7209078015112,1682
1649.7473097663405,1683
1651.7731944944203,1693
1653.7985622402307,1643
1655.823413258333,1628
1657.847747803366,1657
1659.8715661300494,1684
1661.8948684931793,1687
1663.9176551476316,1680
1665.9399263483624,1710
1667.9616823504057,1698
1669.982923408873,1668
1672.0036497789574,1679
1674.0238617159293,1705
1676.043559475138,1671
1678.0627433120121,1629
1680.081413482059,1649
1682.0995702408654,1680
1684.117213844096,1718
1686.134344547495,1708
1688.1509626068864,1661
1690.1670682781705,1674
1692.182661817329,1665
1694.1977434804217,1691
1696.2123135235875,1601
1698.226372203043,1622
1700.2399197750851,1707
1702.2529564960905,1663
1704.2654826225112,1691
1706.277498410882,1651
1708.2890041178139,1654
1710.2999999999988,1671
1712.3104863142066,1596
1714.3204633172854,1707
1716.329931266163,1649
1718.3388904178469,1626
1720.3473410294214,1621
1722.3552833580516,1640
1724.3627176609807,1678
1726.3696441955308,1662
1728.3760632191033,1598
1730.3819749891782,1636
1732.3873797633146,1667
1734.3922777991502,1613
1736.3966693544012,1674
1738.4005546868639,1676
1740.4039340544127,1568
1742.406807715001,1570
1744.4091759266616,1621
1746.4110389475054,1621
1748.4123970357223,1682
1750.413250449582,1625
1752.4135994474318,1633
1754.4134442876993,1632
1756.4127852288902,1577
1758.4116225295893,1615
1760.4099564484595,1597
1762.407787244244,1615
1764.405115175764,1659
1766.4019405019203,1587
1768.3982634816916,1628
1770.3940843741357,1588
1772.3894034383907,1617
1774.3842209336717,1609
1776.378537119274,1645
1778.372352254571,1652
1780.3656665990156,1642
1782.3584804121397,1618
1784.3507939535534,1616
1786.3426074829463,1561
1788.3339212600863,1640
1790.3247355448211,1581
1792.3150505970766,1550
1794.3048666768573,1571
1796.2941840442477,1637
1798.2830029594106,1636
1800.2713236825884,1650
1802.2591464741004,1626
1804.2464715943465,1604
1806.2332993038058,1644
1808.2196298630352,1647
1810.2054635326708,1606
1812.190800573428,1582
1814.175641246101,1591
1816.1599858115628,1570
1818.1438345307652,1594
1820.127187664738,1660
1822.1100454745924,1643
1824.092408221516,1584
1826.0742761667766,1624
1828.055649571721,1607
1830.0365286977735,1636
1832.0169138064398,1646
1833.9968051593014,1557
1835.9762030180214,1641
1837.9551076443408,1701
1839.9335193000788,1573
1841.9114382471344,1597
1843.888864747485,1580
1845.8657990631878,1562
1847.842241456378,1575
1849.8181921892697,1620
1851.7936515241558,1590
1853.7686197234098,1540
1855.7430970494815,1576
1857.7170837649014,1627
1859.6905801322787,1625
1861.6635864143004,1615
1863.6361028737338,1571
1865.608129773424,1591
1867.5796673762961,1634
1869.5507159453537,1601
1871.521275743678,1652
1873.4913470344313,1560
1875.4609300808534,1607
1877.4300251462632,1622
1879.3986324940588,1604
1881.366752387717,1632
1883.3343850907936,1653
1885.3015308669228,1580
1887.268189979819,1680
1889.2343626932739,1573
1891.2000492711595,1641
1893.1652499774254,1612
1895.1299650761011,1667
1897.0941948312952,1631
1899.0579395071945,1625
1901.0211993680641,1620
1902.98397467825,1614
1904.9462657021745,1668
1906.9080727043415,1648
1908.869395949332,1659
1910.8302357018065,1631
1912.790592226504,1652
1914.7504657882428,1559
1916.7098566519212,1654
1918.6687650825133,1577
1920.6271913450764,1605
1922.5851357047422,1555
1924.5425984267245,1622
1926.499579776314,1557
1928.4560800188833,1645
1930.4120994198802,1609
1932.367638244833,1667
1934.32269675935,1642
1936.2772752291175,1564
1938.231373919899,1606
1940.1849930975404,1645
1942.1381330279637,1554
1944.0907939771696,1631
1946.0429762112412,1622
1947.9946799963363,1655
1949.9459055986945,1555
1951.896653284633,1664
1953.8469233205478,1618
1955.7967159729142,1563
1957.7460315082863,1635
1959.6948701932974,1650
1961.6432322946594,1596
1963.5911180791632,1605
1965.5385278136787,1546
1967.4854617651545,1590
1969.4319202006182,1606
1971.377903387176,1595
1973.3234115920136,1646
1975.268445082395,1556
1977.2130041256642,1591
1979.1570889892423,1588
1981.1006999406304,1596
1983.04383724741,1588
1984.986501177238,1581
1986.928691997853,1565
1988.8704099770712,1631
1990.811655382789,1616
1992.7524284829801,1578
1994.692729545698,1572
1996.6325588390755,1571
1998.5719166313224,1596
2000.5108031907307,1633
2002.4492187856677,1586
2004.387163684583,1536
2006.3246381560011,1604
2008.2616424685298,1590
2010.1981768908527,1548
2012.1342416917332,1578
2014.069837140014,1548
2016.0049635046162,1609
2017.9396210545406,1591
2019.8738100588666,1587
2021.8075307867502,1536
2023.740783507431,1558
2025.6735684902228,1552
2027.6058860045214,1490
2029.5377363198004,1514
2031.4691197056118,1607
2033.4000364315875,1544
2035.3304867674374,1554
2037.260470982952,1573
2039.189989347998,1571
2041.1190421325232,1519
2043.047629606554,1551
2044.9757520401945,1542
2046.9034097036288,1595
2048.8306028671195,1591
2050.7573318010086,1590
2052.683596775716,1549
2054.609398061742,1540
2056.5347359296647,1496
2058.4596106501403,1563
2060.384022493906,1564
2062.3079717317764,1462
2064.231458634646,1536
2066.1544834734873,1501
2068.077046519352,1539
2069.99914804337,1501
2071.9207883167524,1520
2073.8419676107865,1562
2075.7626861968406,1541
2077.6829443463607,1543
2079.6027423308715,1577
2081.522080421977,1550
2083.440958891362,1521
2085.359378010786,1547
2087.2773380520907,1538
2089.194839287196,1563
2091.111881988101,1591
2093.0284664268825,1477
2094.9445928756973,1505
2096.86026160678,1510
2098.775472892446,1524
2100.690227005088,1579
2102.604524217178,1563
2104.5183648012676,1554
2106.431749029985,1604
2108.34467717604,1530
2110.2571495122206,1616
2112.169166311393,1532
2114.080727846503,1541
2115.9918343905747,1563
2117.902486216711,1583
2119.8126835980956,1521
2121.722426807987,1533
2123.6317161197285,1479
2125.5405518067364,1550
2127.448934142509,1580
2129.356863400624,1539
2131.264339854737,1608
2133.1713637785815,1544
2135.077935445972,1586
2136.9840551308002,1595
2138.889723107037,1571
2140.7949396487334,1618
2142.699705030018,1564
2144.6040195250994,1641
2146.507883408264,1522
2148.4112969538774,1565
2150.3142604363848,1607
2152.2167741303097,1616
2154.1188383102535,1537
2156.0204532508997,1550
2157.9216192270064,1595
2159.822336513414,1643
2161.7226053850413,1597
2163.622426116884,1595
2165.5217989840185,1607
2167.4207242616,1589
2169.319202224862,1547
2171.2172331491165,1571
2173.1148173097563,1591
2175.0119549822507,1582
2176.90864644215,1685
2178.8048919650823,1644
2180.7006918267534,1653
2182.596046302952,1621
2184.4909556695407,1598
2186.3854202024645,1622
2188.279440177746,1639
2190.173015871487,1639
2192.066147559868,1611
2193.958835519149,1600
2195.851080025667,1689
2197.7428813558417,1598
2199.6342397861667,1653
2201.5251555932186,1672
2203.415629053651,1654
2205.3056604441986,1729
2207.19525004167,1697
2209.084398122958,1684
2210.9731049650327,1668
2212.861370844941,1704
2214.749196039812,1723
2216.636580826851,1706
2218.523525483344,1748
2220.410030286655,1716
2222.296095514226,1682
2224.1817214435805,1680
2226.066908352319,1627
2227.951656518121,1659
2229.835966218746,1622
2231.71983773203,1680
2233.6032713358913,1768
2235.486267308324,1741
2237.3688259274036,1655
2239.2509474712824,1702
2241.132632218193,1642
2243.013880446447,1689
2244.8946924344323,1697
2246.7750684606203,1719
2248.6550088035574,1678
2250.534513741871,1767
2252.413583554265,1709
2254.292218519526,1758
2256.170418916517,1643
2258.0481850241786,1654
2259.925517121534,1662
2261.8024154876825,1679
2263.678880401803,1646
2265.5549121431536,1750
2267.430510991071,1626
2269.305677224971,1615
2271.180411124348,1685
2273.0547129687766,1725
2274.9285830379076,1640
2276.8020216114737,1701
2278.6750289692845,1702
2280.5476053912294,1751
2282.4197511572766,1628
2284.2914665474727,1698
2286.162751841943,1785
2288.0336073208937,1810
2289.904033264608,1769
2291.774029953448,1809
2293.6435976678554,1750
2295.5127366883517,1696
2297.381447295534,1602
2299.2497297700825,1545
2301.1175843927526,1569
2302.9850114443825,1553
2304.852011205885,1446
2306.7185839582553,1463
2308.5847299825664,1443
2310.4504495599676,1437
2312.3157429716925,1504
2314.1806104990483,1384
2316.0450524234247,1408
2317.9090690262888,1405
2319.772660589186,1392
2321.635827393742,1399
2323.498569721661,1413
2325.3608878547248,1391
2327.2227820747967,1348
2329.0842526638157,1350
2330.945299903803,1388
2332.805924076857,1414
2334.6661254651535,1433
2336.525904350951,1382
2338.3852610165827,1393
2340.244195744464,1385
2342.102708817088,1349
2343.9608005170253,1397
2345.8184711269287,1364
2347.675720929526,1385
2349.532550207628,1374
2351.38895924412,1406
2353.24494832197,1362
2355.100517724223,1404
2356.955667734004,1402
2358.810398634514,1416
2360.664710709037,1443
2362.5186042409337,1413
2364.3720795136437,1422
2366.225136810686,1358
2368.0777764156583,1384
2369.929998612237,1417
2371.7818036841777,1468
2373.633191915315,1404
2375.484163589562,1358
2377.3347189909114,1395
2379.184858403434,1443
2381.03458211128,1415
2382.8838903986775,1406
2384.732783549936,1396
2386.5812618494406,1396
2388.4293255816588,1430
2390.2769750311327,1404
2392.1242104824883,1429
2393.971032220427,1435
2395.8174405297295,1415
2397.6634356952563,1484
2399.509018001947,1426
2401.3541877348193,1466
2403.1989451789705,1412
2405.043290619576,1434
2406.8872243418905,1420
2408.730746631247,1402
2410.5738577730594,1374
2412.4165580528183,1431
2414.258847756095,1372
2416.100727168537,1430
2417.9421965758734,1381
2419.783256263912,1431
2421.623906518538,1378
2423.4641476257157,1393
2425.303979871491,1390
2427.143403541984,1387
2428.9824189233977,1432
2430.821026302012,1399
2432.6592259641866,1427
2434.497018196361,1397
2436.33440328505,1461
2438.171381516851,1452
2440.00795317844,1394
2441.844118556569,1457
2443.6798779380724,1450
2445.5152316098606,1460
2447.3501798589255,1425
2449.1847229723357,1463
2451.0188612372403,1449
2452.8525949408663,1448
2454.6859243705203,1430
2456.518849813587,1442
2458.3513715575314,1471
2460.183489889895,1429
2462.015205098301,1411
2463.8465174704493,1405
2465.67742729412,1466
2467.5079348571717,1443
2469.338040447542,1447
2471.1677443532476,1426
2472.9970468623833,1443
2474.825948263123,1437
2476.6544488437207,1419
2478.482548892508,1458
2480.310248697896,1430
2482.137548548374,1415
2483.9644487325118,1361
2485.790949538956,1392
2487.617051256433,1477
2489.44275417375,1423
2491.26805857979,1437
2493.0929647635157,1409
2494.917473013971,1424
2496.741583620276,1490
2498.5652968716304,1477
2500.3886130573137,1458
2502.2115324666834,1475
2504.0340553891765,1520
2505.856182114308,1486
2507.6779129316733,1424
2509.499248130945,1579
2511.3201880018764,1502
2513.140732834298,1434
2514.9608829181198,1465
2516.780638543331,1499
2518.6,1501
2520.418967578273,1489
2522.237541568376,1478
2524.0557222606144,1500
2525.8735099453706,1496
2527.6909049131086,1472
2529.507907454368,1509
2531.32451785977,1477
2533.140736420014,1578
2534.9565634258774,1507
2536.771999168218,1551
2538.5870439379714,1484
2540.4016980261526,1539
2542.2159617238544,1566
2544.02983532225,1524
2545.8433191125914,1564
2547.656413386209,1551
2549.4691184345115,1626
2551.2814345489874,1534
2553.093362021204,1574
2554.904901142808,1608
2556.716052205523,1615
2558.526815501153,1595
2560.3371913215824,1580
2562.147179958771,1657
2563.956781704761,1641
2565.7659968516705,1654
2567.5748256916986,1606
2569.3832685171224,1660
2571.1913256202984,1693
2572.9989972936614,1619
2574.806283829725,1693
2576.613185521084,1638
2578.4197026604074,1656
2580.2258355404483,1704
2582.031584454035,1679
2583.836949694077,1674
2585.6419315535613,1697
2587.4465303255533,1658
2589.2507463032002,1679
2591.0545797797245,1665
2592.8580310484303,1690
2594.6611004026995,1755
2596.463788135992,1696
2598.266094541849,1759
2600.0680199138874,1752
2601.869564545807,1781
2603.670728731383,1698
2605.4715127644704,1738
2607.2719169390048,1701
2609.071941548998,1675
2610.8715868885433,1762
2612.670853251811,1729
2614.469740933052,1785
2616.268250226594,1727
2618.0663814268455,1743
2619.864134828292,1697
2621.6615107255006,1719
2623.458509413115,1722
2625.2551311858597,1668
2627.0513763385347,1671
2628.8472451660223,1644
2630.6427379632833,1715
2632.4378550253564,1688
2634.232596647359,1658
2636.026963124488,1622
2637.8209547520187,1626
2639.6145718253065,1695
2641.407814639785,1684
2643.200683490966,1643
2644.9931786744414,1617
2646.7853004858807,1611
2648.577049221034,1576
2650.3684251757277,1572
2652.1594286458712,1613
2653.9500599274484,1596
2655.740319316525,1587
2657.5302071092437,1570
2659.3197236018286,1556
2661.10886909058,1562
2662.8976438718782,1549
2664.686048242183,1597
2666.4740824980327,1519
2668.2617469360443,1506
2670.0490418529134,1530
2671.8359675454153,1528
2673.622524310403,1516
2675.408712444811,1421
2677.1945322456495,1412
2678.979984010009,1435
2680.76506803506,1505
2682.5497846180497,1540
2684.334134056306,1492
2686.1181166472343,1487
2687.9017326883213,1492
2689.6849824771293,1363
2691.4678663113013,1420
2693.2503844885596,1470
2695.032537306705,1448
2696.8143250636167,1500
2698.5957480572542,1448
2700.3768065856534,1444
2702.1575009469316,1400
2703.937831439283,1433
2705.717798360982,1455
2707.4974020103837,1432
2709.276642685917,1429
2711.055520686095,1443
2712.834036309506,1403
2714.612189854819,1454
2716.389981620782,1447
2718.1674119062204,1363
2719.944481010041,1398
2721.721189231226,1406
2723.4975368688415,1391
2725.273524222027,1391
2727.0491515900053,1377
2728.824419272075,1367
2730.5993275676146,1355
2732.3738767760838,1362
2734.148067197016,1376
2735.921899130031,1349
2737.6953728748194,1425
2739.468488731156,1453
2741.2412469988926,1392
2743.0136479779617,1391
2744.785691968372,1432
2746.5573792702116,1380
2748.3287101836504,1358
2750.099685008934,1405
2751.870304046388,1403
2753.640567596418,1362
2755.4104759595057,1399
2757.1800294362156,1383
2758.949228327187,1365
2760.7180729331412,1393
2762.486563554877,1448
2764.254700493272,1453
2766.022484049284,1383
2767.789914523947,1412
2769.5569922183786,1401
2771.3237174337705,1406
2773.090090471394,1424
2774.8561116326036,1369
2776.6217812188274,1388
2778.3870995315756,1355
2780.1520668724356,1406
2781.9166835430747,1368
2783.6809498452394,1377
2785.444866080754,1395
2787.2084325515225,1328
2788.971649559527,1404
2790.73451740683,1382
2792.4970363955713,1378
2794.2592068279705,1371
2796.0210290063264,1362
2797.7825032330147,1414
2799.543629810493,1385
2801.304409041296,1374
2803.0648412280366,1462
2804.8249266734088,1380
2806.5846656801846,1403
2808.344058551212,1373
2810.1031055894246,1350
2811.8618070978273,1381
2813.6201633795085,1393
2815.378174737636,1373
2817.1358414754536,1427
2818.893163896285,1391
2820.6501423035334,1396
2822.4067770006814,1329
2824.1630682912883,1392
2825.9190164789957,1396
2827.6746218675207,1435
2829.429884760661,1450
2831.184805462294,1415
2832.9393842763743,1371
2834.693621506936,1398
2836.4475174580916,1387
2838.201072434034,1403
2839.954286739034,1427
2841.707160677441,1362
2843.459694553685,1347
2845.2118886722724,1413
2846.96374333779,1400
2848.7152588549034,1367
2850.4664355283567,1424
2852.217273662973,1482
2853.9677735636546,1431
2855.7179355353833,1431
2857.4677598832186,1456
2859.217246912299,1437
2860.9663969278427,1344
2862.715210235146,1404
2864.4636871395846,1327
2866.211827946614,1354
2867.9596329617652,1323
2869.7071024906536,1371
2871.4542368389684,1429
2873.20103631248,1391
2874.947501217038,1392
2876.6936318585695,1332
2878.4394285430812,1398
2880.1848915766604,1366
2881.9300212654707,1395
2883.6748179157553,1360
2885.4192818338374,1363
2887.1634133261173,1403
2888.907212699077,1395
2890.6506802592744,1393
2892.393816313348,1383
2894.1366211680142,1382
2895.8790951300693,1408
2897.621238506388,1333
2899.363051603925,1443
2901.1045347297118,1385
2902.8456881908596,1334
2904.58651229456,1431
2906.327007348081,1341
2908.067173658772,1336
2909.8070115340597,1350
2911.5465212814497,1390
2913.285703208527,1390
2915.0245576229563,1354
2916.7630848324807,1402
2918.5012851449196,1348
2920.2391588681758,1411
2921.976706310227,1400
2923.7139277791334,1356
2925.4508235830313,1421
2927.187394030137,1345
2928.923639428745,1390
2930.6595600872306,1416
2932.395156314046,1412
2934.1304284177218,1380
2935.8653767068713,1441
2937.6000014901815,1387
2939.3343030764227,1403
2941.068281774442,1379
2942.8019378931644,1398
2944.5352717415976,1421
2946.2682836288236,1485
2948.0009738640065,1431
2949.7333427563885,1371
2951.465390615289,1346
2953.1971177501086,1358
2954.9285244703265,1343
2956.6596110855,1398
2958.3903779052657,1435
2960.1208252393385,1414
2961.8509533975125,1409
2963.5807626896617,1410
2965.3102534257378,1404
2967.0394259157715,1403
2968.768280469873,1372
2970.496817398232,1329
2972.2250370111146,1370
2973.952939618869,1361
2975.6805255319196,1402
2977.4077950607707,1418
2979.134748516006,1383
2980.861386208289,1477
2982.587708448359,1401
2984.313715547037,1391
2986.039407815222,1416
2987.764785563891,1387
2989.489849104102,1388
2991.2145987469908,1415
2992.9390348037705,1349
2994.6631575857346,1359
2996.3869674042576,1381
2998.1104645707887,1326
2999.83364939686,1352
3001.5565221940783,1354
3003.2790832741334,1381
3005.0013329487924,1354
3006.7232715298996,1375
3008.4448993293804,1325
3010.166216659239,1341
3011.887223831558,1383
3013.607921158498,1351
3015.3283089522993,1330
3017.0483875252826,1323
3018.7681571898443,1351
3020.4876182584626,1339
3022.2067710436927,1326
3023.9256158581707,1335
3025.644153014609,1358
3027.362382825801,1340
3029.0803056046193,1373
3030.797921664012,1334
3032.5152313170106,1352
3034.2322348767225,1330
3035.9489326563353,1383
3037.665324969115,1354
3039.3814121284063,1341
3041.097194447633,1364
3042.812672240299,1363
3044.5278458199855,1376
3046.2427155003525,1371
3047.9572815951406,1404
3049.671544418167,1384
3051.38550428333,1353
3053.0991615046073,1373
3054.812516396051,1415
3056.5255692717974,1374
3058.2383204460575,1332
3059.9507702331257,1344
3061.662918947372,1410
3063.3747669032446,1447
3065.0863144152736,1372
3066.7975617980674,1363
3068.508509366309,1346
3070.219157434767,1378
3071.9295063182844,1327
3073.639556331785,1372
3075.3493077902704,1352
3077.058761008821,1354
3078.7679163025964,1366
3080.476773986837,1386
3082.1853343768594,1388
3083.89359778806,1366
3085.6015645359153,1392
3087.3092349359786,1422
3089.016609303884,1389
3090.7236879553434,1382
3092.4304712061476,1398
3094.136959372166,1328
3095.843152769349,1386
3097.5490517137237,1351
3099.2546565213966,1360
3100.959967508554,1378
3102.66498499146,1365
3104.3697092864577,1366
3106.0741407099695,1385
3107.778279578498,1382
3109.482126208622,1369
3111.1856809170004,1415
3112.8889440203716,1408
3114.5919158355528,1403
3116.294596679439,1371
3117.996986869006,1406
3119.6990867213062,1357
3121.4008965534726,1388
3123.102416682717,1409
3124.803647426329,1464
3126.5045891016784,1425
3128.205242026213,1417
3129.90560651746,1380
3131.605682893025,1450
3133.3054714705922,1376
3135.0049725679282,1383
3136.7041865028714,1374
3138.4031135933465,1381
3140.101754157353,1374
3141.800108512971,1375
3143.498176978357,1401
3145.1959598717494,1411
3146.8934575114636,1388
3148.5906702158954,1374
3150.2875983035183,1377
3151.9842420928853,1337
3153.680601902627,1328
3155.376678051456,1369
3157.07247085816,1350
3158.767980641609,1355
3160.463207720748,1369
3162.158152414606,1361
3163.8528150422862,1357
3165.5471959229726,1376
3167.2412953759303,1397
3168.9351137204976,1397
3170.628651276098,1411
3172.3219083622307,1360
3174.014885298474,1347
3175.707582404485,1412
3177.4000000000005,1393
3179.092138404835,1377
3180.7839979388846,1399
3182.47557892212,1337
3184.166881674594,1355
3185.8579065164386,1355
3187.5486537678626,1374
3189.2391237491547,1374
3190.9293167806827,1395
3192.6192331828934,1362
3194.3088732763117,1382
3195.998237381542,1389
3197.687325819268,1368
3199.376138910251,1332
3201.064676975334,1379
3202.7529403354347,1347
3204.4409293115523,1335
3206.1286442247647,1362
3207.816085396229,1306
3209.5032531471825,1364
3211.190147798936,1327
3212.8767696728846,1311
3214.5631190905015,1325
3216.2491963733373,1321
3217.9350018430214,1332
3219.6205358212637,1328
3221.305798629851,1346
3222.990790590651,1306
3224.6755120256103,1354
3226.359963256751,1299
3228.0441446061795,1290
3229.7280563960758,1303
3231.411698948703,1313
3233.0950725863995,1368
3234.778177631587,1382
3236.461014406761,1379
3238.1435832345005,1377
3239.8258844374595,1415
3241.507918338374,1333
3243.1896852600576,1335
3244.8711855254023,1334
3246.552419457381,1348
3248.233387379042,1308
3249.914089613516,1357
3251.59452648401,1367
3253.274698313813,1426
3254.95460542629,1348
3256.6342481448855,1322
3258.313626793125,1343
3259.9927416946084,1269
3261.6715931730196,1277
3263.3501815521176,1285
3265.0285071557437,1240
3266.706570307815,1363
3268.3843713323286,1300
3270.0619105533615,1380
3271.739188295068,1363
3273.4162048816834,1357
3275.0929606375184,1404
3276.769455886966,1287
3278.445690954498,1380
3280.1216661646613,1351
3281.797381842087,1382
3283.4728383114807,1355
3285.1480358976296,1365
3286.8229749253996,1352
3288.4976557197333,1360
3290.172078605655,1330
3291.846243908266,1316
3293.5201519527463,1279
3295.193803064357,1294
3296.8671975684374,1347
3298.5403357904024,1335
3300.21321805575,1369
3301.8858446900567,1348
3303.558216018975,1328
3305.23033236824,1295
3306.9021940636603,1365
3308.57380143113,1335
3310.2451547966184,1377
3311.916254486174,1346
3313.5871008259246,1383
3315.2576941420766,1340
3316.9280347609147,1376
3318.5981230088046,1321
3320.2679592121895,1319
3321.9375436975924,1314
3323.606876791612,1328
3325.27595882093,1373
3326.944790112305,1322
3328.6133709925753,1347
3330.2817017886573,1302
3331.949782827547,1330
3333.617614436319,1426
3335.2851969421245,1400
3336.952530672199,1360
3338.619615953853,1342
3340.286453114475,1358
3341.9530424815357,1378
3343.619384382583,1352
3345.2854791452437,1342
3346.951327097224,1377
3348.6169285663073,1331
3350.2822838803577,1357
3351.947393367319,1346
3353.61225735521,1327
3355.2768761721345,1292
3356.9412501462693,1353
3358.605379605873,1363
3360.2692648792827,1333
3361.9329062949146,1365
3363.596304181263,1317
