CollectionTime,7/9/2024 11:38:05 AM
ExposureUsed,3
CalibratedSpectrum
-962.7078968117929,665
-959.9714848408522,665
-957.2358232597828,699
-954.5009119013725,644
-951.7667505983302,669
-949.0333391832855,689
-946.3006774887896,673
-943.5687653473143,704
-940.837602591253,665
-938.1071890529199,674
-935.3775245645503,679
-932.6486089583007,679
-929.9204420662485,706
-927.1930237203925,696
-924.4663537526524,694
-921.7404319948689,713
-919.0152582788041,666
-916.2908324361409,715
-913.5671542984834,700
-910.8442236973568,658
-908.1220404642074,689
-905.4006044304027,703
-902.679915427231,730
-899.959973285902,679
-897.2407778375464,671
-894.5223289132158,655
-891.8046263438832,669
-889.0876699604426,665
-886.3714595937089,660
-883.6559950744183,685
-880.9412762332282,626
-878.2273029007168,667
-875.5140749073835,638
-872.8015920836489,664
-870.0898542598545,669
-867.3788612662631,679
-864.6686129330585,685
-861.9591090903457,670
-859.2503495681506,680
-856.5423341964203,669
-853.8350628050229,655
-851.1285352237478,707
-848.4227512823054,725
-845.7177108103272,703
-843.0134136373656,660
-840.3098595928943,729
-837.6070485063082,723
-834.9049802069229,692
-832.2036545239757,724
-829.5030712866244,679
-826.8032303239481,678
-824.1041314649472,659
-821.4057745385428,714
-818.7081593735775,678
-816.0112857988148,701
-813.3151536429393,676
-810.6197627345566,666
-807.9251129021936,729
-805.2312039742981,702
-802.5380357792392,667
-799.8456081453069,687
-797.1539209007124,666
-794.462973873588,687
-791.772766891987,744
-789.083299783884,703
-786.3945723771743,723
-783.7065844996748,733
-781.0193359791231,709
-778.3328266431781,717
-775.6470563194197,729
-772.9620248353489,709
-770.2777320183878,697
-767.5941776958798,705
-764.9113616950891,730
-762.2292838432011,696
-759.5479439673222,713
-756.8673418944801,736
-754.1874774516235,750
-751.5083504656222,714
-748.8299607632671,712
-746.15230817127,762
-743.475392516264,741
-740.7992136248035,702
-738.1237713233636,741
-735.4490654383407,739
-732.7750957960521,732
-730.1018622227365,734
-727.4293645445534,733
-724.7576025875837,759
-722.0865761778291,766
-719.4162851412126,764
-716.7467293035781,761
-714.0779084906909,740
-711.409822528237,742
-708.7424712418238,756
-706.0758544569796,721
-703.4099719991541,791
-700.7448236937178,791
-698.0804093659622,781
-695.4167288411002,787
-692.7537819442656,764
-690.0915685005134,808
-687.4300883348199,805
-684.7693412720819,850
-682.1093271371178,782
-679.4500457546669,834
-676.7914969493897,782
-674.1336805458676,790
-671.4765963686034,770
-668.8202442420206,786
-666.1646239904642,815
-663.5097354382001,821
-660.8555784094151,794
-658.2021527282176,819
-655.5494582186366,831
-652.8974947046223,822
-650.2462620100463,846
-647.5957599587009,814
-644.9459883742998,841
-642.2969470804776,866
-639.6486359007902,872
-637.0010546587141,840
-634.3542031776476,873
-631.7080812809096,835
-629.0626887917401,823
-626.4180255333008,844
-623.7740913286734,815
-621.1308860008619,827
-618.4884093727904,822
-615.8466612673046,833
-613.2056415071715,850
-610.5653499150785,850
-607.9257863136347,859
-605.28695052537,872
-602.6488423727357,860
-600.0114616781036,797
-597.3748082637674,810
-594.7388819519412,858
-592.1036825647604,884
-589.4692099242818,915
-586.8354638524829,851
-584.2024441712624,812
-581.5701507024403,862
-578.9385832677575,866
-576.3077416888759,879
-573.6776257873787,844
-571.0482353847704,866
-568.4195703024757,830
-565.7916303618415,863
-563.164415384135,872
-560.5379251905453,857
-557.9121596021815,823
-555.2871184400748,835
-552.6628015251767,869
-550.0392086783606,844
-547.4163397204204,862
-544.794194472071,886
-542.1727727539491,933
-539.5520743866118,923
-536.9320991905377,913
-534.3128469861261,950
-531.6943175936979,949
-529.0765108334947,989
-526.4594265256793,1006
-523.8430644903358,1141
-521.2274245474689,1248
-518.612506517005,1348
-515.9983102187913,1253
-513.3848354725959,1250
-510.77208209810846,1257
-508.16004991493924,1317
-505.5487387426199,1479
-502.9381484006032,1565
-500.3282787082628,1630
-497.71912948489364,1701
-495.1107005497117,1600
-492.5029917218539,1445
-489.8960028203786,1339
-487.28973366426493,1233
-484.68418407241325,1150
-482.07935386364494,1059
-479.47524285670266,1129
-476.87185087025,1124
-474.2691777228715,1076
-471.66722323307334,1107
-469.0659872192821,1069
-466.4654694998459,1074
-463.86566989303384,1099
-461.26658821703614,1068
-458.66822428996414,1129
-456.07057792985,1065
-453.4736489546475,1063
-450.877437182231,1033
-448.28194243039627,1041
-445.68716451686,1045
-443.09310325926003,1079
-440.49975847515555,1054
-437.9071299820263,1048
-435.31521759727354,1060
-432.72402113821954,1081
-430.13354042210767,1063
-427.5437752661022,1098
-424.95472548728867,1090
-422.36639090267386,1074
-419.7787713291855,1106
-417.1918665836721,1175
-414.60567648290385,1172
-412.0202008435715,1113
-409.4354394822874,1161
-406.8513922155845,1170
-404.26805885991723,1195
-401.685439231661,1200
-399.103533147112,1162
-396.522340422488,1106
-393.9418608739278,1133
-391.3620943174908,1144
-388.7830405691583,1058
-386.2046994448317,1082
-383.6270707603344,1030
-381.05015433141045,922
-378.473949973725,907
-375.8984575028645,854
-373.32367673433623,776
-370.74960748356875,695
-368.1762495659117,693
-365.60360279663576,612
-363.03166699093265,563
-360.4604419639154,542
-357.8899275306178,516
-355.32012350599507,490
-352.7510297049233,477
-350.1826459421999,460
-347.61497203254316,473
-345.04800779059235,477
-342.4817530309082,474
-339.91620756797226,481
-337.35137121618743,495
-334.7872437898774,520
-332.22382510328725,499
-329.66111497058273,444
-327.09911320585127,462
-324.53781962310075,493
-321.9772340362607,489
-319.4173562591816,444
-316.8581861056348,471
-314.2997233893127,467
-311.7419679238294,459
-309.1849195227194,471
-306.62857799943856,477
-304.0729431673641,503
-301.51801483979375,505
-298.963792829947,502
-296.41027695096386,514
-293.85746701590574,527
-291.3053628377552,512
-288.7539642294155,504
-286.2032710037115,530
-283.65328297338897,529
-281.1039999511146,571
-278.5554217494762,556
-276.007548180983,489
-273.4603790580651,520
-270.9139141930734,538
-268.3681533982807,516
-265.8230964858798,523
-263.27874326798565,549
-260.7350935566336,540
-258.1921471637804,564
-255.6499039013039,569
-253.10836358100266,579
-250.56752601459698,565
-248.02739101372765,600
-245.48795838995704,631
-242.94922795476816,542
-240.41119951956557,557
-237.8738728956746,562
-235.33724789434166,628
-232.80132432673452,598
-230.2661020039418,574
-227.73158073697357,580
-225.19776033676033,618
-222.66464061415422,674
-220.1322213799284,656
-217.60050244477725,649
-215.06948361931552,635
-212.53916471408013,623
-210.00954553952818,633
-207.48062590603843,616
-204.9524056239104,686
-202.4248845033651,737
-199.8980623545441,682
-197.37193898751036,696
-194.84651421224817,757
-192.32178783866232,734
-189.79775967657952,676
-187.27442953574644,740
-184.7517972258321,820
-182.2298625564256,714
-179.7086253370378,705
-177.18808537710026,675
-174.66824248596583,795
-172.14909647290835,786
-169.6306471471229,792
-167.11289431772548,740
-164.59583779375328,725
-162.07947738416453,800
-159.5638128978386,848
-157.04884414357605,925
-154.53457093009854,1115
-152.02099306604828,999
-149.50811035998936,844
-146.99592262040665,783
-144.48442965570587,839
-141.97363127421409,880
-139.46352728417958,995
-136.95411749377126,1149
-134.44540171107985,1155
-131.93737974411636,892
-129.43005140081357,995
-126.92341648902493,1258
-124.41747481652521,1499
-121.91222619101006,1519
-119.40767042009657,1715
-116.90380731132257,1986
-114.40063667214702,2023
-111.8981583099503,1650
-109.3963720320337,1395
-106.89527764561933,1585
-104.39487495785067,1911
-101.89516377579241,2515
-99.39614390642998,3432
-96.89781515667039,4338
-94.40017733334128,5256
-91.90323024319173,5313
-89.40697369289148,4932
-86.91140748903172,4571
-84.41653143812482,3842
-81.92234534660395,3146
-79.42884902082358,3843
-76.93604226705907,7016
-74.4439248915071,12249
-71.95249670028534,16478
-69.46175749943245,18632
-66.97170709490854,17574
-64.48234529259423,14147
-61.99367189829195,11331
-59.50568671772464,9618
-57.01838955653636,7571
-54.53178022029283,7442
-52.045858514480074,9202
-49.560624244506016,10739
-47.07607721569923,10871
-44.59221723330904,10724
-42.10904410250669,10448
-39.62655762838392,10867
-37.14475761595372,10589
-34.66364387015028,10239
-32.18321619582866,10257
-29.70347439776515,9519
-27.224418280657005,8913
-24.74604764912317,10459
-22.26836230770266,15204
-19.7913620608565,27511
-17.315046712966478,49223
-14.83941606833514,65040
-12.36446993118659,65040
-9.89020810566592,65040
-7.416630395839093,65040
-4.94373660569363,65040
-2.471526539137585,65040
-6.821210263296962E-13,65040
2.47084320796705,65040
4.941003281093458,65040
7.410480415786196,65040
9.879274808531363,65040
12.347386655893956,65040
14.814816154518212,65040
17.28156350112681,65040
19.74762889252179,65040
22.21301252558385,21386
24.67771459727237,3909
27.141735304626195,2535
29.605074844762612,2179
32.06773341487792,2148
34.52971121224755,1990
36.99100843422559,1760
39.45162527824516,1588
41.91156194181792,1466
44.370818622535126,1396
46.82939551806646,1228
49.287292826160524,1514
51.74451074464503,1554
54.201049471426245,1422
56.65690920448981,1210
59.112090141899785,1058
61.56659248179983,1088
64.02041642241159,1019
66.4735621620365,992
68.92602989905402,984
71.37781983192338,1012
73.82893215918205,973
76.27936707944684,1096
78.72912479141326,1081
81.17820549385567,1127
83.62660938562783,1113
86.07433666566146,1119
88.5213875329681,879
90.96776218663751,830
93.41346082583925,977
95.85848364982041,1092
98.30283085790859,1021
100.7465026495089,999
103.18949922410604,1077
105.63182078126385,1011
108.07346752062438,1010
110.51443964190923,872
112.95473734491827,777
115.39436082953114,832
117.83331029570547,792
120.27158594347827,797
122.7091879729652,880
125.1461165843615,929
127.58237197794062,822
130.01795435405518,797
132.4528639131364,870
134.88710085569494,916
137.32066538231982,880
139.75355769367923,832
142.1857779905207,836
144.61732647366978,808
147.04820334403132,824
149.47840880258934,922
151.90794305040674,911
154.33680628862487,1015
156.76499871846443,1255
159.19252054122433,1448
161.61937195828352,1595
164.04555317109896,1710
166.47106438120693,1904
168.89590579022217,2123
171.320077599839,2412
173.7435800118302,2520
176.16641322804742,2563
178.58857745042144,2813
181.01007288096173,2966
183.43089972175687,3014
185.85105817497413,2929
188.27054844285988,2808
190.6893707277394,2960
193.10752523201643,2975
195.5250121581745,3083
197.9418317087751,3100
200.3579840864594,3141
202.7734694939469,3123
205.18828813403627,3225
207.6024402096051,3224
210.01592592360964,3266
212.42874547908548,3299
214.84089907914665,3211
217.2523869269868,3193
219.66320922587727,3079
222.0733661791695,3082
224.48285799029293,3143
226.8916848627572,3189
229.29984700014882,3148
231.7073446061355,3285
234.11417788446204,3170
236.520347038953,3283
238.92585227351185,3267
241.33069379212054,3231
243.73487179884035,3389
246.1383864978112,3394
248.541238093252,3418
250.9434267894609,3478
253.34495279081432,3363
255.74581630176783,3550
258.1460175268563,3502
260.54555667069314,3436
262.9444339379703,3457
265.3426495334594,3327
267.7402036620107,3419
270.1370965285529,3291
272.53332833809407,3186
274.9288992957214,2995
277.32380960660055,2991
279.718059475976,2939
282.1116491091717,3075
284.5045787115897,2844
286.89684848871195,2833
289.2884586460981,2865
291.67940938938807,2872
294.0697009242996,2904
296.4593334566299,2858
298.84830719225477,2878
301.23662233712923,2892
303.6242790972866,2860
306.01127767884,2852
308.39761828798066,2748
310.78330113097934,2745
313.16832641418534,2772
315.5526943440269,2766
317.9364051270112,2668
320.3194589697242,2698
322.70185607883093,2751
325.0835966610754,2596
327.4646809232805,2638
329.8451090723478,2539
332.2248813152577,2481
334.6039978590701,2524
336.9824589109231,2519
339.36026467803447,2455
341.7374153677,2571
344.113911187295,2577
346.48975234427337,2527
348.8649390461686,2473
351.2394715005918,2478
353.61334991523415,2529
355.9865744978655,2493
358.35914545633375,2534
360.73106299856715,2552
363.10232733257146,2536
365.47293866643247,2429
367.84289720831396,2416
370.2122031664593,2419
372.5808567491905,2349
374.9488581649083,2421
377.31620762209275,2437
379.6829053293021,2404
382.0489514951745,2458
384.4143463284262,2363
386.7790900378528,2363
389.14318283232853,2335
391.50662492080653,2398
393.86941651231916,2465
396.23155781597745,2420
398.5930490409713,2381
400.9538903965696,2418
403.3140820921202,2425
405.6736243370498,2323
408.03251734086336,2411
410.3907613131465,2324
412.74835646356166,2368
415.10530300185144,2269
417.4616011378372,2289
419.81725108141893,2334
422.1722530425758,2306
424.5266072313656,2318
426.880313857925,2337
429.2333731324701,2322
431.58578526529516,2262
433.9375504667738,2260
436.2886689473588,2258
438.63914091758113,2195
440.9889665880513,2301
443.33814616945835,2313
445.68667987257015,2309
448.03456790823395,2227
450.3818104873759,2327
452.72840782100013,2252
455.07436012019105,2271
457.41966759611057,2219
459.7643304600007,2288
462.10834892318155,2250
464.4517231970525,2212
466.79445349309174,2238
469.1365400228566,2217
471.4779829979826,2271
473.81878263018564,2299
476.15893913125876,2355
478.4984527130747,2375
480.8373235875855,2360
483.17555196682144,2437
485.5131380628919,2545
487.8500820879857,2572
490.1863842543697,2640
492.52204477439034,2838
494.8570638604725,3054
497.1914417251204,3280
499.52517858091653,3566
501.85827464052306,3769
504.19073011668036,3826
506.5225452222086,3644
508.85372017000566,3587
511.18425517304956,3450
513.514150444396,3615
515.8434061971808,4371
518.1720226446176,5304
520.4999999999999,5640
522.8273384766991,5227
525.1540382881666,4854
527.480099647932,4263
529.8055227696037,3662
532.1303078668694,3002
534.454455153496,2718
536.777964843328,2532
539.1008371502907,2354
541.4230722883866,2392
543.744670471698,2415
546.0656319143858,2379
548.3859568306899,2376
550.7056454349294,2394
553.0246979415016,2361
555.3431145648834,2329
557.6608955196306,2309
559.978041020377,2293
562.2945512818363,2330
564.6104265188006,2284
566.9256669461412,2417
569.2402727788082,2311
571.5542442318302,2325
573.8675815203156,2315
576.1802848594508,2372
578.4923544645015,2426
580.8037905508126,2359
583.114593333807,2431
585.4247630289875,2361
587.7342998519354,2344
590.0432040183106,2279
592.3514757438526,2357
594.6591152443794,2386
596.9661227357875,2341
599.2724984340531,2351
601.578242555231,2415
603.8833553154542,2384
606.1878369309362,2426
608.4916876179676,2338
610.7949075929192,2345
613.0974970722403,2359
615.3994562724587,2399
617.7007854101818,2351
620.0014847020951,2350
622.3015543649641,2397
624.6009946156324,2410
626.8998056710224,2397
629.1979877481361,2346
631.4955410640538,2370
633.7924658359349,2382
636.0887622810175,2411
638.3844306166192,2337
640.6794710601358,2408
642.9738838290426,2453
645.2676691408932,2420
647.5608272133207,2497
649.853358264037,2425
652.1452625108324,2468
654.4365401715764,2331
656.7271914642178,2373
659.0172166067838,2377
661.3066158173809,2471
663.5953893141935,2405
665.8835373154867,2461
668.1710600396028,2554
670.4579577049639,2372
672.7442305300709,2339
675.0298787335033,2468
677.3149025339197,2519
679.599302150058,2368
681.8830778007342,2457
684.1662297048437,2485
686.4487580813608,2475
688.7306631493387,2436
691.0119451279091,2428
693.2926042362834,2408
695.5726406937516,2390
697.8520547196814,2415
700.1308465335215,2415
702.4090163547982,2404
704.6865644031171,2416
706.9634908981619,2374
709.2397960596965,2354
711.5154801075631,2425
713.7905432616823,2414
716.0649857420548,2385
718.3388077687592,2335
720.612009561953,2365
722.8845913418733,2375
725.1565533288352,2312
727.427895743234,2396
729.6986188055427,2375
731.9687227363137,2330
734.238207756178,2379
736.5070740858458,2429
738.7753219461066,2398
741.0429515578281,2413
743.3099631419569,2411
745.5763569195191,2382
747.8421331116193,2241
750.1072919394409,2427
752.3718336242467,2313
754.6357583873777,2444
756.8990664502545,2386
759.1617580343765,2418
761.423833361321,2404
763.6852926527457,2306
765.9461361303862,2416
768.206364016058,2539
770.4659765316536,2393
772.7249738991469,2427
774.9833563405886,2404
777.2411240781092,2493
779.4982773339183,2478
781.7548163303044,2426
784.010741289634,2460
786.2660524343538,2526
788.5207499869881,2439
790.7748341701416,2428
793.0283052064964,2396
795.2811633188143,2475
797.5334087299362,2426
799.7850416627813,2414
802.0360623403484,2469
804.2864709857143,2477
806.5362678220353,2489
808.7854530725468,2469
811.0340269605625,2461
813.2819897094754,2473
815.5293415427581,2469
817.77608268396,2474
820.0222133567116,2448
822.2677337847211,2468
824.5126441917765,2402
826.7569448017433,2506
829.0006358385675,2496
831.2437175262731,2408
833.4861900889629,2455
835.7280537508192,2453
837.9693087361026,2439
840.2099552691533,2451
842.4499935743896,2396
844.689423876309,2559
846.9282463994886,2540
849.1664613685833,2421
851.4040690083276,2469
853.6410695435349,2456
855.877463199097,2414
858.1132501999847,2479
860.3484307712487,2498
862.5830051380175,2490
864.8169735254988,2417
867.0503361589791,2450
869.2830932638243,2543
871.5152450654786,2461
873.7467917894654,2514
875.9777336613873,2489
878.2080709069252,2556
880.4378037518389,2587
882.666932421968,2512
884.8954571432301,2517
887.1233781416219,2527
889.3506956432192,2573
891.5774098741766,2607
893.803521060728,2583
896.0290294291852,2581
898.2539352059397,2648
900.4782386174619,2551
902.7019398903011,2597
904.925039251085,2493
907.147536926521,2585
909.3694331433943,2524
911.59072812857,2564
913.8114221089921,2507
916.0315153116827,2488
918.2510079637437,2447
920.4699002923547,2412
922.6881925247761,2520
924.905884888345,2398
927.1229776104793,2511
929.3394709186747,2501
931.555365040506,2455
933.7706602036275,2521
935.9853566357709,2563
938.1994545647489,2601
940.4129542184515,2564
942.6258558248488,2467
944.8381596119883,2481
947.0498658079974,2546
949.2609746410825,2555
951.4714863395287,2509
953.6814011316998,2503
955.8907192460387,2450
958.0994409110671,2368
960.3075663553858,2495
962.5150958076741,2543
964.7220294966913,2457
966.928367651274,2506
969.1341105003388,2505
971.3392582728806,2499
973.5438111979742,2415
975.747769504772,2378
977.9511334225061,2373
980.153903180487,2495
982.3560790081052,2387
984.5576611348289,2422
986.7586497902058,2359
988.9590452038618,2364
991.158847605503,2302
993.3580572249133,2281
995.5566742919558,2257
997.7546990365728,2254
999.952131688785,2244
1002.1489724786926,2262
1004.3452216364743,2222
1006.5408793923874,2155
1008.7359459767691,2178
1010.9304216200343,2134
1013.1243065526781,2112
1015.3176010052733,2169
1017.510305208472,2150
1019.7024193930064,2141
1021.8939437896848,2101
1024.0848786293977,2151
1026.2752241431122,2172
1028.4649805618747,2075
1030.6541481168115,2104
1032.842727039127,2092
1035.0307175601051,2154
1037.2181199111074,2102
1039.4049343235752,2141
1041.591161029029,2057
1043.7768002590683,2117
1045.9618522453698,2055
1048.1463172196918,2034
1050.3301954138697,2138
1052.513487059818,2140
1054.69619238953,2081
1056.8783116350783,2090
1059.0598450286152,2089
1061.2407928023704,2033
1063.4211551886528,2140
1065.6009324198508,2071
1067.780124728432,2096
1069.9587323469414,2073
1072.1367555080046,2060
1074.314194444325,2033
1076.4910493886855,2064
1078.667320573947,2038
1080.843008233051,2077
1083.0181125990161,2038
1085.1926339049414,2041
1087.3665723840027,1950
1089.5399282694575,1989
1091.7127017946405,2023
1093.8848931929647,2038
1096.0565026979243,2003
1098.2275305430899,2003
1100.3979769621128,1932
1102.567842188722,2034
1104.737126456726,1980
1106.9058300000124,1962
1109.0739530525475,1987
1111.2414958483764,2012
1113.4084586216231,1959
1115.5748416064907,1932
1117.7406450372605,1993
1119.9058691482942,2019
1122.0705141740304,2031
1124.2345803489884,2016
1126.3980679077658,1930
1128.5609770850388,2016
1130.7233081155623,1933
1132.8850612341707,1917
1135.0462366757774,1921
1137.2068346753745,1995
1139.3668554680326,2027
1141.526299288901,1919
1143.68516637321,1912
1145.8434569562655,1915
1148.001171273455,1958
1150.158309560244,1990
1152.3148720521767,1931
1154.470858984876,1943
1156.626270594044,1925
1158.7811071154629,1883
1160.9353687849912,1937
1163.089055838569,1881
1165.242168512213,1965
1167.3947070420209,1894
1169.5466716641677,1904
1171.6980626149075,1849
1173.8488801305748,1933
1175.9991244475814,1868
1178.1487958024186,1878
1180.2978944316555,1918
1182.4464205719428,1922
1184.5943744600072,1836
1186.7417563326567,1933
1188.8885664267755,1927
1191.0348049793297,1889
1193.1804722273619,1873
1195.325568407995,1892
1197.4700937584303,1938
1199.614048515948,1992
1201.7574329179074,1906
1203.900247201746,1904
1206.042491604982,1910
1208.1841663652099,1888
1210.3252717201053,1950
1212.465807907422,1961
1214.6057751649923,1936
1216.7451737307279,1927
1218.8840038426192,1959
1221.0222657387353,1929
1223.1599596572241,1967
1225.2970858363137,1955
1227.4336445143094,1956
1229.5696359295966,2028
1231.705060320639,1972
1233.8399179259786,1963
1235.9742089842384,2017
1238.107933734118,1977
1240.2410924143974,2050
1242.373685263935,1924
1244.5057125216676,2035
1246.6371744266116,1972
1248.7680712178621,2033
1250.898403134593,2030
1253.028170416058,2010
1255.1573733015875,1936
1257.2860120305932,1979
1259.4140868425648,1951
1261.54159797707,1998
1263.6685456737569,2023
1265.7949301723515,2048
1267.9207517126597,2005
1270.046010534565,1953
1272.1707068780306,1948
1274.2948409830983,2048
1276.4184130898889,2024
1278.541423438603,2078
1280.6638722695184,2003
1282.785759822993,1995
1284.9070863394636,2021
1287.0278520594447,2059
1289.1480572235314,2052
1291.2677020723963,2143
1293.3867868467923,2025
1295.5053117875495,2106
1297.623277135579,2116
1299.740683131868,2098
1301.8575300174857,2126
1303.973818033578,2075
1306.0895474213703,2149
1308.2047184221678,2147
1310.3193312773528,2117
1312.4333862283888,2145
1314.5468835168163,2087
1316.659823384255,2120
1318.7722060724045,2133
1320.8840318230418,2110
1322.9953008780249,2081
1325.1060134792888,2153
1327.2161698688478,2157
1329.3257702887959,2137
1331.4348149813054,2149
1333.5433041886276,2146
1335.6512381530933,2173
1337.7586171171101,2115
1339.8654413231675,2186
1341.9717110138317,2136
1344.0774264317488,2068
1346.1825878196432,2141
1348.2871954203192,2186
1350.3912494766587,2182
1352.4947502316231,2109
1354.5976979282532,2061
1356.7000928096686,2143
1358.8019351190665,2103
1360.9032250997243,2113
1363.0039629949988,2087
1365.1041490483235,2120
1367.2037835032133,2091
1369.3028666032606,2155
1371.401398592137,2190
1373.4993797135926,2094
1375.5968102114575,2211
1377.6936903296396,2098
1379.7900203121262,2114
1381.8858004029835,2142
1383.9810308463561,2220
1386.075711886469,2218
1388.1698437676241,2201
1390.2634267342032,2079
1392.356461030667,2096
1394.4489469015557,2181
1396.5408845914872,2292
1398.6322743451592,2223
1400.7231164073469,2266
1402.813411022907,2248
1404.903158436773,2260
1406.9923588939578,2330
1409.0810126395531,2277
1411.1691199187303,2264
1413.2566809767386,2325
1415.343696058907,2311
1417.4301654106425,2352
1419.5160892774315,2329
1421.6014679048399,2369
1423.6863015385125,2278
1425.7705904241707,2389
1427.8543348076178,2372
1429.9375349347342,2430
1432.0201910514802,2394
1434.102303403894,2365
1436.1838722380944,2412
1438.2648978002767,2589
1440.3453803367174,2520
1442.4253200937692,2556
1444.5047173178677,2631
1446.5835722555234,2594
1448.6618851533285,2669
1450.739656257952,2673
1452.8168858161434,2721
1454.8935740747306,2689
1456.96972128062,2821
1459.045327680797,2771
1461.120393522327,2817
1463.1949190523528,2898
1465.2689045180973,2956
1467.3423501668608,2932
1469.415256246024,2960
1471.4876230030463,3036
1473.559450685465,3137
1475.6307395408976,3299
1477.7014898170391,3305
1479.771701761665,3190
1481.8413756226287,3313
1483.9105116478618,3347
1485.9791100853772,3334
1488.0471711832643,3465
1490.1146951896926,3532
1492.1816823529098,3542
1494.2481329212433,3623
1496.3140471430984,3682
1498.3794252669609,3560
1500.4442675413939,3674
1502.5085742150404,3787
1504.572345536622,3904
1506.6355817549388,3777
1508.6982831188702,3942
1510.7604498773744,3871
1512.8220822794883,3941
1514.8831805743293,3881
1516.9437450110909,4117
1519.003775839048,4178
1521.0632733075522,4149
1523.1222376660367,4175
1525.1806691640113,4255
1527.2385680510652,4269
1529.2959345768668,4356
1531.3527689911643,4460
1533.4090715437833,4592
1535.4648424846291,4614
1537.5200820636855,4734
1539.5747905310159,4697
1541.6289681367616,4788
1543.6826151311434,4815
1545.7357317644614,4814
1547.7883182870937,4805
1549.8403749494987,5098
1551.8919020022113,5052
1553.9428996958477,5284
1555.9933682811015,5264
1558.0433080087469,5425
1560.0927191296346,5548
1562.1416018946961,5618
1564.1899565549415,5567
1566.2377833614592,5580
1568.2850825654164,5485
1570.3318544180606,5344
1572.3780991707158,5204
1574.423817074788,4860
1576.4690083817595,4845
1578.5136733431923,4569
1580.5578122107272,4374
1582.601425236085,4052
1584.6445126710646,3903
1586.6870747675434,3777
1588.7291117774776,3560
1590.7706239529034,3467
1592.8116115459347,3371
1594.8520748087658,3220
1596.8920139936686,3013
1598.9314293529933,2932
1600.9703211391711,2891
1603.008689604711,2745
1605.0465350022005,2717
1607.0838575843068,2656
1609.1206576037753,2561
1611.1569353134305,2562
1613.1926909661765,2541
1615.2279248149953,2383
1617.2626371129481,2403
1619.2968281131757,2366
1621.3304980688963,2351
1623.3636472334088,2379
1625.39627586009,2339
1627.428384202396,2294
1629.459972513861,2261
1631.4910410480993,2241
1633.5215900588028,2148
1635.551619799744,2199
1637.5811305247717,2148
1639.6101224878166,2194
1641.6385959428862,2198
1643.6665511440683,2232
1645.693988345528,2100
1647.7209078015112,2121
1649.7473097663405,2132
1651.7731944944203,2084
1653.7985622402307,2084
1655.823413258333,2083
1657.847747803366,2146
1659.8715661300494,2102
1661.8948684931793,2100
1663.9176551476316,2065
1665.9399263483624,2086
1667.9616823504057,2090
1669.982923408873,2133
1672.0036497789574,2050
1674.0238617159293,2011
1676.043559475138,2097
1678.0627433120121,2097
1680.081413482059,2081
1682.0995702408654,2036
1684.117213844096,2084
1686.134344547495,2063
1688.1509626068864,1980
1690.1670682781705,2072
1692.182661817329,2081
1694.1977434804217,2106
1696.2123135235875,2007
1698.226372203043,2053
1700.2399197750851,2106
1702.2529564960905,2092
1704.2654826225112,2006
1706.277498410882,2040
1708.2890041178139,2009
1710.2999999999988,2034
1712.3104863142066,2072
1714.3204633172854,2053
1716.329931266163,2068
1718.3388904178469,2000
1720.3473410294214,2061
1722.3552833580516,1974
1724.3627176609807,2094
1726.3696441955308,2011
1728.3760632191033,1969
1730.3819749891782,1940
1732.3873797633146,1984
1734.3922777991502,1992
1736.3966693544012,1989
1738.4005546868639,1983
1740.4039340544127,1960
1742.406807715001,1945
1744.4091759266616,1871
1746.4110389475054,1964
1748.4123970357223,1987
1750.413250449582,1995
1752.4135994474318,1882
1754.4134442876993,1950
1756.4127852288902,1882
1758.4116225295893,1923
1760.4099564484595,1894
1762.407787244244,1876
1764.405115175764,1883
1766.4019405019203,1947
1768.3982634816916,1894
1770.3940843741357,1915
1772.3894034383907,1919
1774.3842209336717,1899
1776.378537119274,1873
1778.372352254571,1885
1780.3656665990156,1847
1782.3584804121397,1896
1784.3507939535534,1851
1786.3426074829463,1830
1788.3339212600863,1846
1790.3247355448211,1869
1792.3150505970766,1910
1794.3048666768573,1880
1796.2941840442477,1888
1798.2830029594106,1910
1800.2713236825884,1915
1802.2591464741004,1899
1804.2464715943465,1975
1806.2332993038058,1841
1808.2196298630352,1872
1810.2054635326708,1874
1812.190800573428,1882
1814.175641246101,1948
1816.1599858115628,1873
1818.1438345307652,1900
1820.127187664738,1888
1822.1100454745924,1880
1824.092408221516,1905
1826.0742761667766,1950
1828.055649571721,1837
1830.0365286977735,1895
1832.0169138064398,1945
1833.9968051593014,1874
1835.9762030180214,1810
1837.9551076443408,1869
1839.9335193000788,1831
1841.9114382471344,1872
1843.888864747485,1865
1845.8657990631878,1879
1847.842241456378,1840
1849.8181921892697,1829
1851.7936515241558,1897
1853.7686197234098,1817
1855.7430970494815,1827
1857.7170837649014,1855
1859.6905801322787,1894
1861.6635864143004,1891
1863.6361028737338,1869
1865.608129773424,1826
1867.5796673762961,1844
1869.5507159453537,1911
1871.521275743678,1905
1873.4913470344313,1882
1875.4609300808534,1811
1877.4300251462632,1850
1879.3986324940588,1871
1881.366752387717,1843
1883.3343850907936,1889
1885.3015308669228,1831
1887.268189979819,1925
1889.2343626932739,1885
1891.2000492711595,1932
1893.1652499774254,1850
1895.1299650761011,1851
1897.0941948312952,1906
1899.0579395071945,1893
1901.0211993680641,1946
1902.98397467825,1896
1904.9462657021745,1884
1906.9080727043415,1904
1908.869395949332,1896
1910.8302357018065,1886
1912.790592226504,1927
1914.7504657882428,1885
1916.7098566519212,1939
1918.6687650825133,1905
1920.6271913450764,1949
1922.5851357047422,1797
1924.5425984267245,1875
1926.499579776314,1870
1928.4560800188833,1890
1930.4120994198802,1885
1932.367638244833,1970
1934.32269675935,1873
1936.2772752291175,1908
1938.231373919899,2010
1940.1849930975404,1948
1942.1381330279637,1820
1944.0907939771696,1930
1946.0429762112412,1891
1947.9946799963363,1881
1949.9459055986945,1911
1951.896653284633,1865
1953.8469233205478,1896
1955.7967159729142,1863
1957.7460315082863,1830
1959.6948701932974,1904
1961.6432322946594,1861
1963.5911180791632,1888
1965.5385278136787,1880
1967.4854617651545,1889
1969.4319202006182,1885
1971.377903387176,1871
1973.3234115920136,1967
1975.268445082395,1809
1977.2130041256642,1843
1979.1570889892423,1880
1981.1006999406304,1889
1983.04383724741,1917
1984.986501177238,1901
1986.928691997853,1886
1988.8704099770712,1882
1990.811655382789,1807
1992.7524284829801,1825
1994.692729545698,1865
1996.6325588390755,1859
1998.5719166313224,1779
2000.5108031907307,1910
2002.4492187856677,1923
2004.387163684583,1781
2006.3246381560011,1873
2008.2616424685298,1865
2010.1981768908527,1839
2012.1342416917332,1841
2014.069837140014,1821
2016.0049635046162,1848
2017.9396210545406,1855
2019.8738100588666,1859
2021.8075307867502,1822
2023.740783507431,1825
2025.6735684902228,1874
2027.6058860045214,1853
2029.5377363198004,1821
2031.4691197056118,1886
2033.4000364315875,1819
2035.3304867674374,1778
2037.260470982952,1799
2039.189989347998,1870
2041.1190421325232,1806
2043.047629606554,1780
2044.9757520401945,1808
2046.9034097036288,1859
2048.8306028671195,1860
2050.7573318010086,1852
2052.683596775716,1777
2054.609398061742,1832
2056.5347359296647,1782
2058.4596106501403,1793
2060.384022493906,1798
2062.3079717317764,1842
2064.231458634646,1823
2066.1544834734873,1811
2068.077046519352,1837
2069.99914804337,1790
2071.9207883167524,1851
2073.8419676107865,1814
2075.7626861968406,1778
2077.6829443463607,1837
2079.6027423308715,1817
2081.522080421977,1841
2083.440958891362,1791
2085.359378010786,1834
2087.2773380520907,1802
2089.194839287196,1853
2091.111881988101,1888
2093.0284664268825,1766
2094.9445928756973,1800
2096.86026160678,1792
2098.775472892446,1863
2100.690227005088,1866
2102.604524217178,1818
2104.5183648012676,1796
2106.431749029985,1837
2108.34467717604,1844
2110.2571495122206,1783
2112.169166311393,1805
2114.080727846503,1839
2115.9918343905747,1877
2117.902486216711,1824
2119.8126835980956,1907
2121.722426807987,1813
2123.6317161197285,1821
2125.5405518067364,1812
2127.448934142509,1837
2129.356863400624,1870
2131.264339854737,1877
2133.1713637785815,1728
2135.077935445972,1874
2136.9840551308002,1896
2138.889723107037,1834
2140.7949396487334,1847
2142.699705030018,1872
2144.6040195250994,1838
2146.507883408264,1942
2148.4112969538774,1913
2150.3142604363848,1944
2152.2167741303097,1854
2154.1188383102535,1928
2156.0204532508997,1851
2157.9216192270064,1929
2159.822336513414,1993
2161.7226053850413,1899
2163.622426116884,1852
2165.5217989840185,1825
2167.4207242616,1932
2169.319202224862,1936
2171.2172331491165,1882
2173.1148173097563,1953
2175.0119549822507,1917
2176.90864644215,1892
2178.8048919650823,1959
2180.7006918267534,1867
2182.596046302952,1882
2184.4909556695407,1921
2186.3854202024645,1949
2188.279440177746,1944
2190.173015871487,1883
2192.066147559868,1874
2193.958835519149,1927
2195.851080025667,1864
2197.7428813558417,1900
2199.6342397861667,1974
2201.5251555932186,1937
2203.415629053651,1964
2205.3056604441986,1974
2207.19525004167,2007
2209.084398122958,1895
2210.9731049650327,1968
2212.861370844941,1901
2214.749196039812,1946
2216.636580826851,2030
2218.523525483344,1986
2220.410030286655,2013
2222.296095514226,1977
2224.1817214435805,1987
2226.066908352319,1940
2227.951656518121,1960
2229.835966218746,1956
2231.71983773203,1917
2233.6032713358913,2018
2235.486267308324,2019
2237.3688259274036,1933
2239.2509474712824,1905
2241.132632218193,1979
2243.013880446447,2005
2244.8946924344323,2037
2246.7750684606203,1927
2248.6550088035574,2016
2250.534513741871,2023
2252.413583554265,2036
2254.292218519526,2089
2256.170418916517,1938
2258.0481850241786,1913
2259.925517121534,2021
2261.8024154876825,2007
2263.678880401803,2004
2265.5549121431536,1998
2267.430510991071,1998
2269.305677224971,1964
2271.180411124348,1983
2273.0547129687766,1993
2274.9285830379076,2001
2276.8020216114737,1966
2278.6750289692845,2001
2280.5476053912294,2019
2282.4197511572766,2012
2284.2914665474727,2078
2286.162751841943,2046
2288.0336073208937,2123
2289.904033264608,2013
2291.774029953448,1996
2293.6435976678554,1998
2295.5127366883517,2042
2297.381447295534,1874
2299.2497297700825,1851
2301.1175843927526,1839
2302.9850114443825,1861
2304.852011205885,1835
2306.7185839582553,1870
2308.5847299825664,1739
2310.4504495599676,1761
2312.3157429716925,1732
2314.1806104990483,1766
2316.0450524234247,1700
2317.9090690262888,1749
2319.772660589186,1738
2321.635827393742,1750
2323.498569721661,1879
2325.3608878547248,1765
2327.2227820747967,1806
2329.0842526638157,1680
2330.945299903803,1766
2332.805924076857,1733
2334.6661254651535,1680
2336.525904350951,1730
2338.3852610165827,1712
2340.244195744464,1696
2342.102708817088,1800
2343.9608005170253,1700
2345.8184711269287,1755
2347.675720929526,1781
2349.532550207628,1810
2351.38895924412,1795
2353.24494832197,1758
2355.100517724223,1789
2356.955667734004,1705
2358.810398634514,1821
2360.664710709037,1843
2362.5186042409337,1741
2364.3720795136437,1815
2366.225136810686,1784
2368.0777764156583,1792
2369.929998612237,1819
2371.7818036841777,1816
2373.633191915315,1779
2375.484163589562,1749
2377.3347189909114,1771
2379.184858403434,1793
2381.03458211128,1796
2382.8838903986775,1772
2384.732783549936,1795
2386.5812618494406,1798
2388.4293255816588,1856
2390.2769750311327,1788
2392.1242104824883,1839
2393.971032220427,1892
2395.8174405297295,1817
2397.6634356952563,1799
2399.509018001947,1856
2401.3541877348193,1827
2403.1989451789705,1910
2405.043290619576,1793
2406.8872243418905,1752
2408.730746631247,1784
2410.5738577730594,1811
2412.4165580528183,1871
2414.258847756095,1842
2416.100727168537,1831
2417.9421965758734,1815
2419.783256263912,1828
2421.623906518538,1889
2423.4641476257157,1858
2425.303979871491,1864
2427.143403541984,1802
2428.9824189233977,1841
2430.821026302012,1804
2432.6592259641866,1835
2434.497018196361,1885
2436.33440328505,1845
2438.171381516851,1860
2440.00795317844,1811
2441.844118556569,1842
2443.6798779380724,1821
2445.5152316098606,1853
2447.3501798589255,1848
2449.1847229723357,1823
2451.0188612372403,1815
2452.8525949408663,1868
2454.6859243705203,1835
2456.518849813587,1808
2458.3513715575314,1889
2460.183489889895,1837
2462.015205098301,1858
2463.8465174704493,1865
2465.67742729412,1799
2467.5079348571717,1836
2469.338040447542,1854
2471.1677443532476,1802
2472.9970468623833,1917
2474.825948263123,1861
2476.6544488437207,1798
2478.482548892508,1897
2480.310248697896,1900
2482.137548548374,1835
2483.9644487325118,1854
2485.790949538956,1904
2487.617051256433,1906
2489.44275417375,1822
2491.26805857979,1868
2493.0929647635157,1841
2494.917473013971,1954
2496.741583620276,1833
2498.5652968716304,1906
2500.3886130573137,1921
2502.2115324666834,1958
2504.0340553891765,1964
2505.856182114308,1913
2507.6779129316733,1966
2509.499248130945,2000
2511.3201880018764,1904
2513.140732834298,1941
2514.9608829181198,1860
2516.780638543331,1871
2518.6,1846
2520.418967578273,1947
2522.237541568376,1969
2524.0557222606144,2002
2525.8735099453706,1991
2527.6909049131086,2009
2529.507907454368,1983
2531.32451785977,1953
2533.140736420014,1997
2534.9565634258774,1960
2536.771999168218,1986
2538.5870439379714,2061
2540.4016980261526,2062
2542.2159617238544,1988
2544.02983532225,2073
2545.8433191125914,2091
2547.656413386209,2089
2549.4691184345115,2090
2551.2814345489874,2058
2553.093362021204,2072
2554.904901142808,2055
2556.716052205523,2103
2558.526815501153,2075
2560.3371913215824,2091
2562.147179958771,2191
2563.956781704761,2196
2565.7659968516705,2206
2567.5748256916986,2196
2569.3832685171224,2235
2571.1913256202984,2137
2572.9989972936614,2195
2574.806283829725,2186
2576.613185521084,2147
2578.4197026604074,2289
2580.2258355404483,2280
2582.031584454035,2322
2583.836949694077,2228
2585.6419315535613,2327
2587.4465303255533,2303
2589.2507463032002,2291
2591.0545797797245,2397
2592.8580310484303,2307
2594.6611004026995,2343
2596.463788135992,2267
2598.266094541849,2346
2600.0680199138874,2371
2601.869564545807,2439
2603.670728731383,2330
2605.4715127644704,2403
2607.2719169390048,2405
2609.071941548998,2368
2610.8715868885433,2372
2612.670853251811,2356
2614.469740933052,2373
2616.268250226594,2330
2618.0663814268455,2423
2619.864134828292,2433
2621.6615107255006,2411
2623.458509413115,2340
2625.2551311858597,2291
2627.0513763385347,2276
2628.8472451660223,2344
2630.6427379632833,2332
2632.4378550253564,2315
2634.232596647359,2303
2636.026963124488,2269
2637.8209547520187,2214
2639.6145718253065,2230
2641.407814639785,2190
2643.200683490966,2145
2644.9931786744414,2134
2646.7853004858807,2171
2648.577049221034,2190
2650.3684251757277,2127
2652.1594286458712,2134
2653.9500599274484,2129
2655.740319316525,2076
2657.5302071092437,2029
2659.3197236018286,2130
2661.10886909058,2023
2662.8976438718782,2079
2664.686048242183,2002
2666.4740824980327,2012
2668.2617469360443,2020
2670.0490418529134,2092
2671.8359675454153,2005
2673.622524310403,2018
2675.408712444811,1985
2677.1945322456495,1945
2678.979984010009,1928
2680.76506803506,1919
2682.5497846180497,2037
2684.334134056306,1936
2686.1181166472343,1923
2687.9017326883213,1890
2689.6849824771293,1875
2691.4678663113013,1937
2693.2503844885596,1887
2695.032537306705,1983
2696.8143250636167,1891
2698.5957480572542,1987
2700.3768065856534,1973
2702.1575009469316,1913
2703.937831439283,1848
2705.717798360982,1875
2707.4974020103837,1866
2709.276642685917,1886
2711.055520686095,1830
2712.834036309506,1900
2714.612189854819,1895
2716.389981620782,1799
2718.1674119062204,1843
2719.944481010041,1881
2721.721189231226,1821
2723.4975368688415,1864
2725.273524222027,1808
2727.0491515900053,1860
2728.824419272075,1783
2730.5993275676146,1797
2732.3738767760838,1842
2734.148067197016,1807
2735.921899130031,1828
2737.6953728748194,1872
2739.468488731156,1826
2741.2412469988926,1837
2743.0136479779617,1831
2744.785691968372,1743
2746.5573792702116,1812
2748.3287101836504,1725
2750.099685008934,1751
2751.870304046388,1787
2753.640567596418,1794
2755.4104759595057,1812
2757.1800294362156,1820
2758.949228327187,1770
2760.7180729331412,1791
2762.486563554877,1768
2764.254700493272,1846
2766.022484049284,1716
2767.789914523947,1788
2769.5569922183786,1775
2771.3237174337705,1762
2773.090090471394,1860
2774.8561116326036,1821
2776.6217812188274,1802
2778.3870995315756,1829
2780.1520668724356,1748
2781.9166835430747,1775
2783.6809498452394,1805
2785.444866080754,1847
2787.2084325515225,1812
2788.971649559527,1777
2790.73451740683,1745
2792.4970363955713,1850
2794.2592068279705,1744
2796.0210290063264,1777
2797.7825032330147,1780
2799.543629810493,1748
2801.304409041296,1732
2803.0648412280366,1836
2804.8249266734088,1732
2806.5846656801846,1858
2808.344058551212,1827
2810.1031055894246,1762
2811.8618070978273,1809
2813.6201633795085,1745
2815.378174737636,1793
2817.1358414754536,1812
2818.893163896285,1798
2820.6501423035334,1805
2822.4067770006814,1769
2824.1630682912883,1863
2825.9190164789957,1752
2827.6746218675207,1764
2829.429884760661,1784
2831.184805462294,1841
2832.9393842763743,1795
2834.693621506936,1784
2836.4475174580916,1802
2838.201072434034,1826
2839.954286739034,1809
2841.707160677441,1802
2843.459694553685,1839
2845.2118886722724,1816
2846.96374333779,1767
2848.7152588549034,1730
2850.4664355283567,1803
2852.217273662973,1804
2853.9677735636546,1811
2855.7179355353833,1831
2857.4677598832186,1773
2859.217246912299,1783
2860.9663969278427,1753
2862.715210235146,1788
2864.4636871395846,1773
2866.211827946614,1827
2867.9596329617652,1793
2869.7071024906536,1803
2871.4542368389684,1768
2873.20103631248,1765
2874.947501217038,1769
2876.6936318585695,1787
2878.4394285430812,1781
2880.1848915766604,1740
2881.9300212654707,1744
2883.6748179157553,1727
2885.4192818338374,1801
2887.1634133261173,1849
2888.907212699077,1859
2890.6506802592744,1710
2892.393816313348,1721
2894.1366211680142,1726
2895.8790951300693,1811
2897.621238506388,1768
2899.363051603925,1801
2901.1045347297118,1746
2902.8456881908596,1769
2904.58651229456,1758
2906.327007348081,1799
2908.067173658772,1751
2909.8070115340597,1726
2911.5465212814497,1810
2913.285703208527,1725
2915.0245576229563,1800
2916.7630848324807,1784
2918.5012851449196,1712
2920.2391588681758,1733
2921.976706310227,1713
2923.7139277791334,1755
2925.4508235830313,1875
2927.187394030137,1774
2928.923639428745,1793
2930.6595600872306,1782
2932.395156314046,1765
2934.1304284177218,1828
2935.8653767068713,1792
2937.6000014901815,1788
2939.3343030764227,1815
2941.068281774442,1853
2942.8019378931644,1784
2944.5352717415976,1817
2946.2682836288236,1817
2948.0009738640065,1841
2949.7333427563885,1787
2951.465390615289,1828
2953.1971177501086,1779
2954.9285244703265,1746
2956.6596110855,1774
2958.3903779052657,1848
2960.1208252393385,1824
2961.8509533975125,1846
2963.5807626896617,1814
2965.3102534257378,1782
2967.0394259157715,1848
2968.768280469873,1739
2970.496817398232,1781
2972.2250370111146,1785
2973.952939618869,1841
2975.6805255319196,1788
2977.4077950607707,1794
2979.134748516006,1794
2980.861386208289,1908
2982.587708448359,1909
2984.313715547037,1828
2986.039407815222,1789
2987.764785563891,1843
2989.489849104102,1758
2991.2145987469908,1728
2992.9390348037705,1811
2994.6631575857346,1782
2996.3869674042576,1793
2998.1104645707887,1802
2999.83364939686,1744
3001.5565221940783,1776
3003.2790832741334,1819
3005.0013329487924,1833
3006.7232715298996,1803
3008.4448993293804,1785
3010.166216659239,1776
3011.887223831558,1723
3013.607921158498,1796
3015.3283089522993,1795
3017.0483875252826,1807
3018.7681571898443,1817
3020.4876182584626,1811
3022.2067710436927,1774
3023.9256158581707,1821
3025.644153014609,1849
3027.362382825801,1814
3029.0803056046193,1732
3030.797921664012,1726
3032.5152313170106,1801
3034.2322348767225,1803
3035.9489326563353,1747
3037.665324969115,1775
3039.3814121284063,1844
3041.097194447633,1808
3042.812672240299,1783
3044.5278458199855,1799
3046.2427155003525,1814
3047.9572815951406,1796
3049.671544418167,1793
3051.38550428333,1777
3053.0991615046073,1832
3054.812516396051,1807
3056.5255692717974,1879
3058.2383204460575,1835
3059.9507702331257,1828
3061.662918947372,1825
3063.3747669032446,1794
3065.0863144152736,1844
3066.7975617980674,1841
3068.508509366309,1792
3070.219157434767,1763
3071.9295063182844,1816
3073.639556331785,1803
3075.3493077902704,1862
3077.058761008821,1774
3078.7679163025964,1777
3080.476773986837,1778
3082.1853343768594,1811
3083.89359778806,1782
3085.6015645359153,1878
3087.3092349359786,1916
3089.016609303884,1781
3090.7236879553434,1836
3092.4304712061476,1863
3094.136959372166,1929
3095.843152769349,1854
3097.5490517137237,1831
3099.2546565213966,1870
3100.959967508554,1803
3102.66498499146,1824
3104.3697092864577,1815
3106.0741407099695,1853
3107.778279578498,1828
3109.482126208622,1855
3111.1856809170004,1931
3112.8889440203716,1875
3114.5919158355528,1783
3116.294596679439,1887
3117.996986869006,1816
3119.6990867213062,1920
3121.4008965534726,1788
3123.102416682717,1870
3124.803647426329,1878
3126.5045891016784,1892
3128.205242026213,1787
3129.90560651746,1833
3131.605682893025,1876
3133.3054714705922,1882
3135.0049725679282,1937
3136.7041865028714,1796
3138.4031135933465,1887
3140.101754157353,1831
3141.800108512971,1831
3143.498176978357,1843
3145.1959598717494,1851
3146.8934575114636,1796
3148.5906702158954,1823
3150.2875983035183,1853
3151.9842420928853,1830
3153.680601902627,1855
3155.376678051456,1851
3157.07247085816,1926
3158.767980641609,1864
3160.463207720748,1832
3162.158152414606,1845
3163.8528150422862,1792
3165.5471959229726,1754
3167.2412953759303,1894
3168.9351137204976,1848
3170.628651276098,1883
3172.3219083622307,1865
3174.014885298474,1881
3175.707582404485,1889
3177.4000000000005,1889
3179.092138404835,1772
3180.7839979388846,1789
3182.47557892212,1858
3184.166881674594,1863
3185.8579065164386,1875
3187.5486537678626,1870
3189.2391237491547,1886
3190.9293167806827,1840
3192.6192331828934,1820
3194.3088732763117,1842
3195.998237381542,1779
3197.687325819268,1851
3199.376138910251,1795
3201.064676975334,1809
3202.7529403354347,1819
3204.4409293115523,1811
3206.1286442247647,1808
3207.816085396229,1758
3209.5032531471825,1833
3211.190147798936,1904
3212.8767696728846,1779
3214.5631190905015,1808
3216.2491963733373,1855
3217.9350018430214,1785
3219.6205358212637,1802
3221.305798629851,1780
3222.990790590651,1701
3224.6755120256103,1767
3226.359963256751,1754
3228.0441446061795,1862
3229.7280563960758,1827
3231.411698948703,1769
3233.0950725863995,1832
3234.778177631587,1788
3236.461014406761,1867
3238.1435832345005,1860
3239.8258844374595,1812
3241.507918338374,1788
3243.1896852600576,1838
3244.8711855254023,1840
3246.552419457381,1823
3248.233387379042,1847
3249.914089613516,1829
3251.59452648401,1789
3253.274698313813,1797
3254.95460542629,1776
3256.6342481448855,1759
3258.313626793125,1748
3259.9927416946084,1793
3261.6715931730196,1763
3263.3501815521176,1765
3265.0285071557437,1759
3266.706570307815,1746
3268.3843713323286,1777
3270.0619105533615,1765
3271.739188295068,1823
3273.4162048816834,1784
3275.0929606375184,1845
3276.769455886966,1772
3278.445690954498,1811
3280.1216661646613,1810
3281.797381842087,1779
3283.4728383114807,1871
3285.1480358976296,1843
3286.8229749253996,1831
3288.4976557197333,1875
3290.172078605655,1747
3291.846243908266,1813
3293.5201519527463,1801
3295.193803064357,1775
3296.8671975684374,1749
3298.5403357904024,1794
3300.21321805575,1812
3301.8858446900567,1834
3303.558216018975,1758
3305.23033236824,1758
3306.9021940636603,1844
3308.57380143113,1793
3310.2451547966184,1787
3311.916254486174,1860
3313.5871008259246,1778
3315.2576941420766,1804
3316.9280347609147,1864
3318.5981230088046,1837
3320.2679592121895,1844
3321.9375436975924,1874
3323.606876791612,1783
3325.27595882093,1846
3326.944790112305,1809
3328.6133709925753,1832
3330.2817017886573,1767
3331.949782827547,1793
3333.617614436319,1767
3335.2851969421245,1760
3336.952530672199,1801
3338.619615953853,1761
3340.286453114475,1780
3341.9530424815357,1846
3343.619384382583,1703
3345.2854791452437,1794
3346.951327097224,1829
3348.6169285663073,1820
3350.2822838803577,1789
3351.947393367319,1778
3353.61225735521,1830
3355.2768761721345,1795
3356.9412501462693,1877
3358.605379605873,1797
3360.2692648792827,1797
3361.9329062949146,1796
3363.596304181263,1748
