CollectionTime,6/28/2024 2:08:38 PM
ExposureUsed,3
CalibratedSpectrum
-962.7078968117929,919
-959.9714848408522,967
-957.2358232597828,921
-954.5009119013725,939
-951.7667505983302,970
-949.0333391832855,984
-946.3006774887896,968
-943.5687653473143,979
-940.837602591253,975
-938.1071890529199,929
-935.3775245645503,980
-932.6486089583007,970
-929.9204420662485,994
-927.1930237203925,949
-924.4663537526524,939
-921.7404319948689,951
-919.0152582788041,1008
-916.2908324361409,988
-913.5671542984834,1005
-910.8442236973568,1001
-908.1220404642074,981
-905.4006044304027,981
-902.679915427231,954
-899.959973285902,1007
-897.2407778375464,936
-894.5223289132158,996
-891.8046263438832,947
-889.0876699604426,952
-886.3714595937089,922
-883.6559950744183,908
-880.9412762332282,934
-878.2273029007168,924
-875.5140749073835,939
-872.8015920836489,913
-870.0898542598545,919
-867.3788612662631,912
-864.6686129330585,871
-861.9591090903457,892
-859.2503495681506,896
-856.5423341964203,944
-853.8350628050229,900
-851.1285352237478,956
-848.4227512823054,895
-845.7177108103272,932
-843.0134136373656,893
-840.3098595928943,926
-837.6070485063082,948
-834.9049802069229,940
-832.2036545239757,897
-829.5030712866244,907
-826.8032303239481,917
-824.1041314649472,910
-821.4057745385428,941
-818.7081593735775,921
-816.0112857988148,889
-813.3151536429393,915
-810.6197627345566,931
-807.9251129021936,902
-805.2312039742981,933
-802.5380357792392,918
-799.8456081453069,970
-797.1539209007124,907
-794.462973873588,901
-791.772766891987,948
-789.083299783884,910
-786.3945723771743,936
-783.7065844996748,958
-781.0193359791231,958
-778.3328266431781,971
-775.6470563194197,938
-772.9620248353489,949
-770.2777320183878,910
-767.5941776958798,951
-764.9113616950891,929
-762.2292838432011,906
-759.5479439673222,910
-756.8673418944801,892
-754.1874774516235,954
-751.5083504656222,982
-748.8299607632671,947
-746.15230817127,954
-743.475392516264,952
-740.7992136248035,966
-738.1237713233636,909
-735.4490654383407,977
-732.7750957960521,979
-730.1018622227365,962
-727.4293645445534,949
-724.7576025875837,923
-722.0865761778291,989
-719.4162851412126,982
-716.7467293035781,1027
-714.0779084906909,998
-711.409822528237,1003
-708.7424712418238,984
-706.0758544569796,967
-703.4099719991541,961
-700.7448236937178,1001
-698.0804093659622,1028
-695.4167288411002,1025
-692.7537819442656,1034
-690.0915685005134,976
-687.4300883348199,1009
-684.7693412720819,1001
-682.1093271371178,1020
-679.4500457546669,979
-676.7914969493897,987
-674.1336805458676,1028
-671.4765963686034,1033
-668.8202442420206,1036
-666.1646239904642,1013
-663.5097354382001,1007
-660.8555784094151,1049
-658.2021527282176,1054
-655.5494582186366,1097
-652.8974947046223,1099
-650.2462620100463,1058
-647.5957599587009,1028
-644.9459883742998,1068
-642.2969470804776,1095
-639.6486359007902,1055
-637.0010546587141,1047
-634.3542031776476,990
-631.7080812809096,1035
-629.0626887917401,1037
-626.4180255333008,1047
-623.7740913286734,1012
-621.1308860008619,1025
-618.4884093727904,1002
-615.8466612673046,987
-613.2056415071715,1032
-610.5653499150785,1005
-607.9257863136347,1054
-605.28695052537,1016
-602.6488423727357,1044
-600.0114616781036,1037
-597.3748082637674,1050
-594.7388819519412,1037
-592.1036825647604,1019
-589.4692099242818,1026
-586.8354638524829,979
-584.2024441712624,1004
-581.5701507024403,1044
-578.9385832677575,1027
-576.3077416888759,1000
-573.6776257873787,1037
-571.0482353847704,1071
-568.4195703024757,1064
-565.7916303618415,1106
-563.164415384135,1144
-560.5379251905453,1099
-557.9121596021815,1045
-555.2871184400748,1069
-552.6628015251767,1073
-550.0392086783606,1030
-547.4163397204204,1032
-544.794194472071,1068
-542.1727727539491,1045
-539.5520743866118,1083
-536.9320991905377,1078
-534.3128469861261,1076
-531.6943175936979,1171
-529.0765108334947,1113
-526.4594265256793,1213
-523.8430644903358,1310
-521.2274245474689,1434
-518.612506517005,1540
-515.9983102187913,1503
-513.3848354725959,1690
-510.77208209810846,1752
-508.16004991493924,1823
-505.5487387426199,1934
-502.9381484006032,2042
-500.3282787082628,2189
-497.71912948489364,2182
-495.1107005497117,2154
-492.5029917218539,1932
-489.8960028203786,1743
-487.28973366426493,1546
-484.68418407241325,1449
-482.07935386364494,1292
-479.47524285670266,1323
-476.87185087025,1319
-474.2691777228715,1287
-471.66722323307334,1306
-469.0659872192821,1281
-466.4654694998459,1239
-463.86566989303384,1253
-461.26658821703614,1231
-458.66822428996414,1179
-456.07057792985,1230
-453.4736489546475,1234
-450.877437182231,1253
-448.28194243039627,1241
-445.68716451686,1216
-443.09310325926003,1195
-440.49975847515555,1198
-437.9071299820263,1218
-435.31521759727354,1203
-432.72402113821954,1245
-430.13354042210767,1258
-427.5437752661022,1226
-424.95472548728867,1227
-422.36639090267386,1230
-419.7787713291855,1277
-417.1918665836721,1254
-414.60567648290385,1286
-412.0202008435715,1279
-409.4354394822874,1241
-406.8513922155845,1237
-404.26805885991723,1299
-401.685439231661,1297
-399.103533147112,1276
-396.522340422488,1246
-393.9418608739278,1168
-391.3620943174908,1186
-388.7830405691583,1113
-386.2046994448317,1135
-383.6270707603344,1034
-381.05015433141045,993
-378.473949973725,911
-375.8984575028645,825
-373.32367673433623,817
-370.74960748356875,734
-368.1762495659117,649
-365.60360279663576,592
-363.03166699093265,584
-360.4604419639154,547
-357.8899275306178,539
-355.32012350599507,542
-352.7510297049233,526
-350.1826459421999,511
-347.61497203254316,465
-345.04800779059235,491
-342.4817530309082,502
-339.91620756797226,523
-337.35137121618743,491
-334.7872437898774,440
-332.22382510328725,468
-329.66111497058273,503
-327.09911320585127,528
-324.53781962310075,510
-321.9772340362607,518
-319.4173562591816,527
-316.8581861056348,563
-314.2997233893127,544
-311.7419679238294,581
-309.1849195227194,517
-306.62857799943856,499
-304.0729431673641,515
-301.51801483979375,486
-298.963792829947,487
-296.41027695096386,499
-293.85746701590574,532
-291.3053628377552,572
-288.7539642294155,515
-286.2032710037115,540
-283.65328297338897,546
-281.1039999511146,603
-278.5554217494762,652
-276.007548180983,659
-273.4603790580651,613
-270.9139141930734,546
-268.3681533982807,583
-265.8230964858798,595
-263.27874326798565,626
-260.7350935566336,619
-258.1921471637804,639
-255.6499039013039,603
-253.10836358100266,582
-250.56752601459698,603
-248.02739101372765,664
-245.48795838995704,758
-242.94922795476816,755
-240.41119951956557,758
-237.8738728956746,730
-235.33724789434166,790
-232.80132432673452,967
-230.2661020039418,814
-227.73158073697357,685
-225.19776033676033,637
-222.66464061415422,686
-220.1322213799284,695
-217.60050244477725,725
-215.06948361931552,704
-212.53916471408013,736
-210.00954553952818,747
-207.48062590603843,816
-204.9524056239104,855
-202.4248845033651,772
-199.8980623545441,690
-197.37193898751036,663
-194.84651421224817,729
-192.32178783866232,785
-189.79775967657952,778
-187.27442953574644,770
-184.7517972258321,743
-182.2298625564256,878
-179.7086253370378,870
-177.18808537710026,782
-174.66824248596583,786
-172.14909647290835,832
-169.6306471471229,812
-167.11289431772548,809
-164.59583779375328,754
-162.07947738416453,818
-159.5638128978386,882
-157.04884414357605,859
-154.53457093009854,901
-152.02099306604828,931
-149.50811035998936,917
-146.99592262040665,881
-144.48442965570587,963
-141.97363127421409,921
-139.46352728417958,916
-136.95411749377126,908
-134.44540171107985,1062
-131.93737974411636,985
-129.43005140081357,904
-126.92341648902493,1012
-124.41747481652521,1153
-121.91222619101006,1193
-119.40767042009657,1063
-116.90380731132257,1132
-114.40063667214702,1092
-111.8981583099503,1219
-109.3963720320337,1341
-106.89527764561933,1276
-104.39487495785067,1444
-101.89516377579241,1245
-99.39614390642998,1376
-96.89781515667039,1431
-94.40017733334128,1717
-91.90323024319173,1595
-89.40697369289148,1462
-86.91140748903172,1535
-84.41653143812482,1528
-81.92234534660395,1510
-79.42884902082358,1614
-76.93604226705907,1843
-74.4439248915071,1787
-71.95249670028534,1606
-69.46175749943245,1696
-66.97170709490854,1917
-64.48234529259423,2252
-61.99367189829195,1793
-59.50568671772464,1883
-57.01838955653636,2199
-54.53178022029283,2185
-52.045858514480074,2492
-49.560624244506016,2488
-47.07607721569923,2608
-44.59221723330904,2700
-42.10904410250669,2599
-39.62655762838392,3240
-37.14475761595372,4080
-34.66364387015028,4371
-32.18321619582866,5086
-29.70347439776515,5618
-27.224418280657005,7144
-24.74604764912317,9879
-22.26836230770266,16073
-19.7913620608565,26123
-17.315046712966478,35634
-14.83941606833514,37530
-12.36446993118659,65030
-9.89020810566592,65030
-7.416630395839093,65030
-4.94373660569363,65030
-2.471526539137585,65030
-6.821210263296962E-13,65030
2.47084320796705,65030
4.941003281093458,65030
7.410480415786196,65030
9.879274808531363,65030
12.347386655893956,65030
14.814816154518212,65030
17.28156350112681,65030
19.74762889252179,65030
22.21301252558385,65030
24.67771459727237,29927
27.141735304626195,10170
29.605074844762612,6262
32.06773341487792,7320
34.52971121224755,9285
36.99100843422559,8931
39.45162527824516,7899
41.91156194181792,8083
44.370818622535126,9871
46.82939551806646,11249
49.287292826160524,12652
51.74451074464503,10794
54.201049471426245,7304
56.65690920448981,6003
59.112090141899785,4802
61.56659248179983,3723
64.02041642241159,3320
66.4735621620365,2854
68.92602989905402,2320
71.37781983192338,2313
73.82893215918205,2381
76.27936707944684,2276
78.72912479141326,1877
81.17820549385567,1742
83.62660938562783,1881
86.07433666566146,1916
88.5213875329681,1822
90.96776218663751,1735
93.41346082583925,1555
95.85848364982041,1558
98.30283085790859,1546
100.7465026495089,1336
103.18949922410604,1638
105.63182078126385,1884
108.07346752062438,1556
110.51443964190923,1397
112.95473734491827,1351
115.39436082953114,1299
117.83331029570547,1512
120.27158594347827,1577
122.7091879729652,1318
125.1461165843615,1130
127.58237197794062,1125
130.01795435405518,1220
132.4528639131364,1304
134.88710085569494,1178
137.32066538231982,1297
139.75355769367923,1470
142.1857779905207,1404
144.61732647366978,1184
147.04820334403132,1332
149.47840880258934,1452
151.90794305040674,1414
154.33680628862487,1518
156.76499871846443,1625
159.19252054122433,1701
161.61937195828352,1831
164.04555317109896,1962
166.47106438120693,2228
168.89590579022217,2262
171.320077599839,2437
173.7435800118302,2551
176.16641322804742,2558
178.58857745042144,2658
181.01007288096173,2723
183.43089972175687,2908
185.85105817497413,2972
188.27054844285988,3010
190.6893707277394,2843
193.10752523201643,2759
195.5250121581745,3058
197.9418317087751,3076
200.3579840864594,3058
202.7734694939469,3032
205.18828813403627,3010
207.6024402096051,3023
210.01592592360964,2979
212.42874547908548,2990
214.84089907914665,2937
217.2523869269868,2919
219.66320922587727,2949
222.0733661791695,3004
224.48285799029293,3033
226.8916848627572,3141
229.29984700014882,3131
231.7073446061355,3263
234.11417788446204,3215
236.520347038953,3337
238.92585227351185,3361
241.33069379212054,3642
243.73487179884035,3609
246.1383864978112,3665
248.541238093252,3595
250.9434267894609,3599
253.34495279081432,3740
255.74581630176783,3794
258.1460175268563,3911
260.54555667069314,3930
262.9444339379703,3889
265.3426495334594,3769
267.7402036620107,3639
270.1370965285529,3388
272.53332833809407,3247
274.9288992957214,3117
277.32380960660055,3178
279.718059475976,3022
282.1116491091717,3039
284.5045787115897,3025
286.89684848871195,2907
289.2884586460981,2842
291.67940938938807,2908
294.0697009242996,2857
296.4593334566299,2888
298.84830719225477,2938
301.23662233712923,2815
303.6242790972866,2842
306.01127767884,2796
308.39761828798066,2696
310.78330113097934,2677
313.16832641418534,2740
315.5526943440269,2620
317.9364051270112,2642
320.3194589697242,2496
322.70185607883093,2576
325.0835966610754,2482
327.4646809232805,2486
329.8451090723478,2486
332.2248813152577,2458
334.6039978590701,2498
336.9824589109231,2453
339.36026467803447,2457
341.7374153677,2468
344.113911187295,2374
346.48975234427337,2340
348.8649390461686,2311
351.2394715005918,2398
353.61334991523415,2349
355.9865744978655,2258
358.35914545633375,2365
360.73106299856715,2298
363.10232733257146,2318
365.47293866643247,2302
367.84289720831396,2313
370.2122031664593,2252
372.5808567491905,2236
374.9488581649083,2291
377.31620762209275,2247
379.6829053293021,2145
382.0489514951745,2180
384.4143463284262,2146
386.7790900378528,2153
389.14318283232853,2134
391.50662492080653,2240
393.86941651231916,2164
396.23155781597745,2203
398.5930490409713,2196
400.9538903965696,2118
403.3140820921202,2124
405.6736243370498,2140
408.03251734086336,2152
410.3907613131465,2124
412.74835646356166,2132
415.10530300185144,2162
417.4616011378372,2184
419.81725108141893,2170
422.1722530425758,2180
424.5266072313656,2211
426.880313857925,2143
429.2333731324701,2172
431.58578526529516,2098
433.9375504667738,2134
436.2886689473588,2142
438.63914091758113,2189
440.9889665880513,2143
443.33814616945835,2160
445.68667987257015,2118
448.03456790823395,2019
450.3818104873759,2068
452.72840782100013,2088
455.07436012019105,2053
457.41966759611057,2078
459.7643304600007,1955
462.10834892318155,2061
464.4517231970525,2038
466.79445349309174,2017
469.1365400228566,2100
471.4779829979826,2105
473.81878263018564,2100
476.15893913125876,2177
478.4984527130747,2118
480.8373235875855,2130
483.17555196682144,2183
485.5131380628919,2249
487.8500820879857,2370
490.1863842543697,2499
492.52204477439034,2599
494.8570638604725,2697
497.1914417251204,3056
499.52517858091653,3322
501.85827464052306,3627
504.19073011668036,3669
506.5225452222086,3611
508.85372017000566,3528
511.18425517304956,3483
513.514150444396,3565
515.8434061971808,4068
518.1720226446176,4452
520.4999999999999,4704
522.8273384766991,4906
525.1540382881666,5094
527.480099647932,4826
529.8055227696037,3922
532.1303078668694,2745
534.454455153496,2313
536.777964843328,2113
539.1008371502907,2028
541.4230722883866,2084
543.744670471698,2059
546.0656319143858,1969
548.3859568306899,1960
550.7056454349294,1949
553.0246979415016,1959
555.3431145648834,1930
557.6608955196306,1881
559.978041020377,1921
562.2945512818363,1835
564.6104265188006,1914
566.9256669461412,1942
569.2402727788082,1938
571.5542442318302,1875
573.8675815203156,1894
576.1802848594508,1911
578.4923544645015,1918
580.8037905508126,1891
583.114593333807,1892
585.4247630289875,1933
587.7342998519354,1858
590.0432040183106,1904
592.3514757438526,1970
594.6591152443794,1906
596.9661227357875,1892
599.2724984340531,2030
601.578242555231,1956
603.8833553154542,1885
606.1878369309362,1890
608.4916876179676,1936
610.7949075929192,1973
613.0974970722403,1911
615.3994562724587,1904
617.7007854101818,1922
620.0014847020951,1972
622.3015543649641,1952
624.6009946156324,1918
626.8998056710224,1922
629.1979877481361,2029
631.4955410640538,1930
633.7924658359349,1984
636.0887622810175,1896
638.3844306166192,1949
640.6794710601358,1939
642.9738838290426,2059
645.2676691408932,1991
647.5608272133207,1923
649.853358264037,2028
652.1452625108324,1968
654.4365401715764,1998
656.7271914642178,1983
659.0172166067838,1969
661.3066158173809,1996
663.5953893141935,2016
665.8835373154867,2020
668.1710600396028,2050
670.4579577049639,1985
672.7442305300709,1973
675.0298787335033,2045
677.3149025339197,2081
679.599302150058,2062
681.8830778007342,2072
684.1662297048437,1994
686.4487580813608,2009
688.7306631493387,2038
691.0119451279091,2029
693.2926042362834,1997
695.5726406937516,1990
697.8520547196814,2000
700.1308465335215,1978
702.4090163547982,2037
704.6865644031171,2111
706.9634908981619,2074
709.2397960596965,2040
711.5154801075631,1907
713.7905432616823,1970
716.0649857420548,1918
718.3388077687592,1934
720.612009561953,1945
722.8845913418733,1982
725.1565533288352,1931
727.427895743234,1970
729.6986188055427,1922
731.9687227363137,1968
734.238207756178,1980
736.5070740858458,1911
738.7753219461066,2031
741.0429515578281,1940
743.3099631419569,1952
745.5763569195191,1880
747.8421331116193,2077
750.1072919394409,1999
752.3718336242467,1998
754.6357583873777,2020
756.8990664502545,1918
759.1617580343765,2014
761.423833361321,1975
763.6852926527457,1987
765.9461361303862,1944
768.206364016058,1995
770.4659765316536,1973
772.7249738991469,2045
774.9833563405886,2038
777.2411240781092,2037
779.4982773339183,1993
781.7548163303044,1995
784.010741289634,2082
786.2660524343538,2097
788.5207499869881,2007
790.7748341701416,2003
793.0283052064964,2034
795.2811633188143,2010
797.5334087299362,2055
799.7850416627813,2099
802.0360623403484,2009
804.2864709857143,2013
806.5362678220353,2029
808.7854530725468,2040
811.0340269605625,2049
813.2819897094754,2002
815.5293415427581,2017
817.77608268396,2037
820.0222133567116,1997
822.2677337847211,1968
824.5126441917765,1967
826.7569448017433,2002
829.0006358385675,2060
831.2437175262731,1962
833.4861900889629,2047
835.7280537508192,2062
837.9693087361026,1999
840.2099552691533,2010
842.4499935743896,2023
844.689423876309,2032
846.9282463994886,1941
849.1664613685833,2090
851.4040690083276,1962
853.6410695435349,1991
855.877463199097,1965
858.1132501999847,2036
860.3484307712487,1988
862.5830051380175,2117
864.8169735254988,2071
867.0503361589791,2045
869.2830932638243,2010
871.5152450654786,2051
873.7467917894654,2037
875.9777336613873,1939
878.2080709069252,2013
880.4378037518389,2045
882.666932421968,2062
884.8954571432301,2034
887.1233781416219,2150
889.3506956432192,2072
891.5774098741766,2101
893.803521060728,2080
896.0290294291852,2100
898.2539352059397,2038
900.4782386174619,2125
902.7019398903011,2065
904.925039251085,2074
907.147536926521,2086
909.3694331433943,2024
911.59072812857,2082
913.8114221089921,2096
916.0315153116827,2108
918.2510079637437,2103
920.4699002923547,2045
922.6881925247761,1964
924.905884888345,1986
927.1229776104793,2011
929.3394709186747,2031
931.555365040506,2041
933.7706602036275,2048
935.9853566357709,2103
938.1994545647489,1998
940.4129542184515,2078
942.6258558248488,2113
944.8381596119883,2073
947.0498658079974,2082
949.2609746410825,2089
951.4714863395287,2082
953.6814011316998,2067
955.8907192460387,2080
958.0994409110671,2041
960.3075663553858,2076
962.5150958076741,1934
964.7220294966913,2028
966.928367651274,2016
969.1341105003388,2013
971.3392582728806,2003
973.5438111979742,2012
975.747769504772,2010
977.9511334225061,2011
980.153903180487,1976
982.3560790081052,1924
984.5576611348289,1909
986.7586497902058,1921
988.9590452038618,1960
991.158847605503,1851
993.3580572249133,1928
995.5566742919558,1827
997.7546990365728,1838
999.952131688785,1830
1002.1489724786926,1808
1004.3452216364743,1726
1006.5408793923874,1786
1008.7359459767691,1759
1010.9304216200343,1734
1013.1243065526781,1771
1015.3176010052733,1735
1017.510305208472,1703
1019.7024193930064,1653
1021.8939437896848,1730
1024.0848786293977,1803
1026.2752241431122,1697
1028.4649805618747,1709
1030.6541481168115,1760
1032.842727039127,1710
1035.0307175601051,1654
1037.2181199111074,1685
1039.4049343235752,1704
1041.591161029029,1672
1043.7768002590683,1727
1045.9618522453698,1692
1048.1463172196918,1655
1050.3301954138697,1707
1052.513487059818,1675
1054.69619238953,1677
1056.8783116350783,1671
1059.0598450286152,1651
1061.2407928023704,1686
1063.4211551886528,1695
1065.6009324198508,1659
1067.780124728432,1680
1069.9587323469414,1620
1072.1367555080046,1630
1074.314194444325,1638
1076.4910493886855,1644
1078.667320573947,1686
1080.843008233051,1676
1083.0181125990161,1667
1085.1926339049414,1595
1087.3665723840027,1616
1089.5399282694575,1604
1091.7127017946405,1639
1093.8848931929647,1600
1096.0565026979243,1584
1098.2275305430899,1598
1100.3979769621128,1604
1102.567842188722,1557
1104.737126456726,1609
1106.9058300000124,1596
1109.0739530525475,1653
1111.2414958483764,1574
1113.4084586216231,1616
1115.5748416064907,1635
1117.7406450372605,1550
1119.9058691482942,1528
1122.0705141740304,1649
1124.2345803489884,1584
1126.3980679077658,1628
1128.5609770850388,1630
1130.7233081155623,1536
1132.8850612341707,1566
1135.0462366757774,1602
1137.2068346753745,1543
1139.3668554680326,1512
1141.526299288901,1560
1143.68516637321,1582
1145.8434569562655,1531
1148.001171273455,1521
1150.158309560244,1538
1152.3148720521767,1538
1154.470858984876,1503
1156.626270594044,1476
1158.7811071154629,1497
1160.9353687849912,1565
1163.089055838569,1540
1165.242168512213,1539
1167.3947070420209,1548
1169.5466716641677,1515
1171.6980626149075,1553
1173.8488801305748,1530
1175.9991244475814,1594
1178.1487958024186,1531
1180.2978944316555,1523
1182.4464205719428,1546
1184.5943744600072,1600
1186.7417563326567,1536
1188.8885664267755,1505
1191.0348049793297,1556
1193.1804722273619,1553
1195.325568407995,1593
1197.4700937584303,1552
1199.614048515948,1551
1201.7574329179074,1569
1203.900247201746,1560
1206.042491604982,1561
1208.1841663652099,1519
1210.3252717201053,1498
1212.465807907422,1551
1214.6057751649923,1557
1216.7451737307279,1562
1218.8840038426192,1579
1221.0222657387353,1533
1223.1599596572241,1543
1225.2970858363137,1538
1227.4336445143094,1534
1229.5696359295966,1497
1231.705060320639,1539
1233.8399179259786,1622
1235.9742089842384,1598
1238.107933734118,1556
1240.2410924143974,1617
1242.373685263935,1498
1244.5057125216676,1546
1246.6371744266116,1610
1248.7680712178621,1623
1250.898403134593,1618
1253.028170416058,1591
1255.1573733015875,1566
1257.2860120305932,1582
1259.4140868425648,1650
1261.54159797707,1588
1263.6685456737569,1629
1265.7949301723515,1600
1267.9207517126597,1589
1270.046010534565,1631
1272.1707068780306,1666
1274.2948409830983,1597
1276.4184130898889,1651
1278.541423438603,1673
1280.6638722695184,1618
1282.785759822993,1723
1284.9070863394636,1699
1287.0278520594447,1665
1289.1480572235314,1675
1291.2677020723963,1716
1293.3867868467923,1716
1295.5053117875495,1721
1297.623277135579,1739
1299.740683131868,1665
1301.8575300174857,1719
1303.973818033578,1714
1306.0895474213703,1739
1308.2047184221678,1765
1310.3193312773528,1699
1312.4333862283888,1697
1314.5468835168163,1715
1316.659823384255,1717
1318.7722060724045,1703
1320.8840318230418,1763
1322.9953008780249,1765
1325.1060134792888,1766
1327.2161698688478,1752
1329.3257702887959,1759
1331.4348149813054,1714
1333.5433041886276,1800
1335.6512381530933,1781
1337.7586171171101,1721
1339.8654413231675,1754
1341.9717110138317,1720
1344.0774264317488,1722
1346.1825878196432,1692
1348.2871954203192,1755
1350.3912494766587,1772
1352.4947502316231,1716
1354.5976979282532,1716
1356.7000928096686,1698
1358.8019351190665,1659
1360.9032250997243,1687
1363.0039629949988,1724
1365.1041490483235,1738
1367.2037835032133,1735
1369.3028666032606,1752
1371.401398592137,1786
1373.4993797135926,1678
1375.5968102114575,1703
1377.6936903296396,1727
1379.7900203121262,1779
1381.8858004029835,1788
1383.9810308463561,1734
1386.075711886469,1738
1388.1698437676241,1677
1390.2634267342032,1797
1392.356461030667,1698
1394.4489469015557,1789
1396.5408845914872,1776
1398.6322743451592,1787
1400.7231164073469,1784
1402.813411022907,1725
1404.903158436773,1778
1406.9923588939578,1775
1409.0810126395531,1866
1411.1691199187303,1840
1413.2566809767386,1800
1415.343696058907,1840
1417.4301654106425,1875
1419.5160892774315,1825
1421.6014679048399,1907
1423.6863015385125,1860
1425.7705904241707,1890
1427.8543348076178,1856
1429.9375349347342,1865
1432.0201910514802,1927
1434.102303403894,2005
1436.1838722380944,1903
1438.2648978002767,1902
1440.3453803367174,2002
1442.4253200937692,1933
1444.5047173178677,2107
1446.5835722555234,2087
1448.6618851533285,2073
1450.739656257952,2067
1452.8168858161434,2164
1454.8935740747306,2079
1456.96972128062,2195
1459.045327680797,2207
1461.120393522327,2157
1463.1949190523528,2246
1465.2689045180973,2400
1467.3423501668608,2344
1469.415256246024,2311
1471.4876230030463,2416
1473.559450685465,2466
1475.6307395408976,2533
1477.7014898170391,2472
1479.771701761665,2626
1481.8413756226287,2655
1483.9105116478618,2721
1485.9791100853772,2768
1488.0471711832643,2644
1490.1146951896926,2795
1492.1816823529098,2804
1494.2481329212433,2797
1496.3140471430984,2872
1498.3794252669609,2829
1500.4442675413939,2832
1502.5085742150404,2861
1504.572345536622,2961
1506.6355817549388,2888
1508.6982831188702,3011
1510.7604498773744,2934
1512.8220822794883,3012
1514.8831805743293,3010
1516.9437450110909,3048
1519.003775839048,3079
1521.0632733075522,2922
1523.1222376660367,3024
1525.1806691640113,3083
1527.2385680510652,3137
1529.2959345768668,3246
1531.3527689911643,3154
1533.4090715437833,3170
1535.4648424846291,3233
1537.5200820636855,3305
1539.5747905310159,3313
1541.6289681367616,3310
1543.6826151311434,3350
1545.7357317644614,3441
1547.7883182870937,3442
1549.8403749494987,3604
1551.8919020022113,3553
1553.9428996958477,3641
1555.9933682811015,3642
1558.0433080087469,3706
1560.0927191296346,3755
1562.1416018946961,3760
1564.1899565549415,3776
1566.2377833614592,3742
1568.2850825654164,3777
1570.3318544180606,3648
1572.3780991707158,3629
1574.423817074788,3453
1576.4690083817595,3314
1578.5136733431923,3214
1580.5578122107272,3038
1582.601425236085,2967
1584.6445126710646,2851
1586.6870747675434,2689
1588.7291117774776,2633
1590.7706239529034,2588
1592.8116115459347,2455
1594.8520748087658,2301
1596.8920139936686,2227
1598.9314293529933,2258
1600.9703211391711,2146
1603.008689604711,2105
1605.0465350022005,2026
1607.0838575843068,1970
1609.1206576037753,1936
1611.1569353134305,1934
1613.1926909661765,1947
1615.2279248149953,1898
1617.2626371129481,1838
1619.2968281131757,1843
1621.3304980688963,1753
1623.3636472334088,1788
1625.39627586009,1751
1627.428384202396,1739
1629.459972513861,1718
1631.4910410480993,1790
1633.5215900588028,1721
1635.551619799744,1724
1637.5811305247717,1660
1639.6101224878166,1679
1641.6385959428862,1663
1643.6665511440683,1688
1645.693988345528,1620
1647.7209078015112,1721
1649.7473097663405,1665
1651.7731944944203,1688
1653.7985622402307,1638
1655.823413258333,1642
1657.847747803366,1638
1659.8715661300494,1756
1661.8948684931793,1660
1663.9176551476316,1657
1665.9399263483624,1615
1667.9616823504057,1594
1669.982923408873,1577
1672.0036497789574,1597
1674.0238617159293,1589
1676.043559475138,1604
1678.0627433120121,1586
1680.081413482059,1569
1682.0995702408654,1597
1684.117213844096,1545
1686.134344547495,1574
1688.1509626068864,1533
1690.1670682781705,1528
1692.182661817329,1583
1694.1977434804217,1616
1696.2123135235875,1578
1698.226372203043,1557
1700.2399197750851,1607
1702.2529564960905,1581
1704.2654826225112,1596
1706.277498410882,1600
1708.2890041178139,1594
1710.2999999999988,1538
1712.3104863142066,1591
1714.3204633172854,1535
1716.329931266163,1561
1718.3388904178469,1501
1720.3473410294214,1504
1722.3552833580516,1513
1724.3627176609807,1541
1726.3696441955308,1567
1728.3760632191033,1588
1730.3819749891782,1506
1732.3873797633146,1586
1734.3922777991502,1557
1736.3966693544012,1526
1738.4005546868639,1493
1740.4039340544127,1450
1742.406807715001,1475
1744.4091759266616,1476
1746.4110389475054,1481
1748.4123970357223,1468
1750.413250449582,1470
1752.4135994474318,1480
1754.4134442876993,1474
1756.4127852288902,1511
1758.4116225295893,1519
1760.4099564484595,1499
1762.407787244244,1489
1764.405115175764,1442
1766.4019405019203,1449
1768.3982634816916,1445
1770.3940843741357,1438
1772.3894034383907,1461
1774.3842209336717,1440
1776.378537119274,1449
1778.372352254571,1470
1780.3656665990156,1472
1782.3584804121397,1442
1784.3507939535534,1466
1786.3426074829463,1415
1788.3339212600863,1417
1790.3247355448211,1354
1792.3150505970766,1377
1794.3048666768573,1442
1796.2941840442477,1434
1798.2830029594106,1374
1800.2713236825884,1424
1802.2591464741004,1499
1804.2464715943465,1420
1806.2332993038058,1384
1808.2196298630352,1430
1810.2054635326708,1452
1812.190800573428,1436
1814.175641246101,1430
1816.1599858115628,1392
1818.1438345307652,1354
1820.127187664738,1401
1822.1100454745924,1386
1824.092408221516,1350
1826.0742761667766,1372
1828.055649571721,1343
1830.0365286977735,1437
1832.0169138064398,1394
1833.9968051593014,1423
1835.9762030180214,1414
1837.9551076443408,1392
1839.9335193000788,1350
1841.9114382471344,1380
1843.888864747485,1381
1845.8657990631878,1389
1847.842241456378,1403
1849.8181921892697,1508
1851.7936515241558,1375
1853.7686197234098,1393
1855.7430970494815,1390
1857.7170837649014,1381
1859.6905801322787,1403
1861.6635864143004,1424
1863.6361028737338,1364
1865.608129773424,1432
1867.5796673762961,1382
1869.5507159453537,1357
1871.521275743678,1395
1873.4913470344313,1415
1875.4609300808534,1432
1877.4300251462632,1381
1879.3986324940588,1427
1881.366752387717,1407
1883.3343850907936,1401
1885.3015308669228,1385
1887.268189979819,1381
1889.2343626932739,1420
1891.2000492711595,1454
1893.1652499774254,1413
1895.1299650761011,1455
1897.0941948312952,1387
1899.0579395071945,1415
1901.0211993680641,1442
1902.98397467825,1421
1904.9462657021745,1440
1906.9080727043415,1420
1908.869395949332,1479
1910.8302357018065,1446
1912.790592226504,1435
1914.7504657882428,1421
1916.7098566519212,1442
1918.6687650825133,1414
1920.6271913450764,1389
1922.5851357047422,1435
1924.5425984267245,1428
1926.499579776314,1382
1928.4560800188833,1408
1930.4120994198802,1408
1932.367638244833,1429
1934.32269675935,1421
1936.2772752291175,1424
1938.231373919899,1443
1940.1849930975404,1367
1942.1381330279637,1432
1944.0907939771696,1389
1946.0429762112412,1442
1947.9946799963363,1459
1949.9459055986945,1396
1951.896653284633,1385
1953.8469233205478,1432
1955.7967159729142,1409
1957.7460315082863,1379
1959.6948701932974,1386
1961.6432322946594,1447
1963.5911180791632,1390
1965.5385278136787,1390
1967.4854617651545,1433
1969.4319202006182,1387
1971.377903387176,1410
1973.3234115920136,1446
1975.268445082395,1441
1977.2130041256642,1409
1979.1570889892423,1334
1981.1006999406304,1391
1983.04383724741,1395
1984.986501177238,1348
1986.928691997853,1382
1988.8704099770712,1366
1990.811655382789,1343
1992.7524284829801,1437
1994.692729545698,1406
1996.6325588390755,1367
1998.5719166313224,1370
2000.5108031907307,1431
2002.4492187856677,1395
2004.387163684583,1407
2006.3246381560011,1403
2008.2616424685298,1347
2010.1981768908527,1386
2012.1342416917332,1340
2014.069837140014,1348
2016.0049635046162,1306
2017.9396210545406,1355
2019.8738100588666,1356
2021.8075307867502,1314
2023.740783507431,1391
2025.6735684902228,1414
2027.6058860045214,1347
2029.5377363198004,1374
2031.4691197056118,1377
2033.4000364315875,1322
2035.3304867674374,1377
2037.260470982952,1384
2039.189989347998,1362
2041.1190421325232,1356
2043.047629606554,1310
2044.9757520401945,1351
2046.9034097036288,1349
2048.8306028671195,1362
2050.7573318010086,1340
2052.683596775716,1389
2054.609398061742,1299
2056.5347359296647,1319
2058.4596106501403,1385
2060.384022493906,1328
2062.3079717317764,1361
2064.231458634646,1432
2066.1544834734873,1346
2068.077046519352,1339
2069.99914804337,1410
2071.9207883167524,1337
2073.8419676107865,1351
2075.7626861968406,1390
2077.6829443463607,1328
2079.6027423308715,1384
2081.522080421977,1328
2083.440958891362,1341
2085.359378010786,1341
2087.2773380520907,1354
2089.194839287196,1341
2091.111881988101,1327
2093.0284664268825,1310
2094.9445928756973,1317
2096.86026160678,1367
2098.775472892446,1368
2100.690227005088,1408
2102.604524217178,1342
2104.5183648012676,1339
2106.431749029985,1406
2108.34467717604,1350
2110.2571495122206,1346
2112.169166311393,1332
2114.080727846503,1340
2115.9918343905747,1319
2117.902486216711,1334
2119.8126835980956,1394
2121.722426807987,1354
2123.6317161197285,1358
2125.5405518067364,1346
2127.448934142509,1339
2129.356863400624,1349
2131.264339854737,1330
2133.1713637785815,1342
2135.077935445972,1279
2136.9840551308002,1338
2138.889723107037,1345
2140.7949396487334,1362
2142.699705030018,1367
2144.6040195250994,1367
2146.507883408264,1348
2148.4112969538774,1310
2150.3142604363848,1303
2152.2167741303097,1320
2154.1188383102535,1334
2156.0204532508997,1386
2157.9216192270064,1338
2159.822336513414,1340
2161.7226053850413,1309
2163.622426116884,1321
2165.5217989840185,1316
2167.4207242616,1302
2169.319202224862,1302
2171.2172331491165,1356
2173.1148173097563,1356
2175.0119549822507,1354
2176.90864644215,1356
2178.8048919650823,1357
2180.7006918267534,1295
2182.596046302952,1320
2184.4909556695407,1333
2186.3854202024645,1329
2188.279440177746,1314
2190.173015871487,1336
2192.066147559868,1362
2193.958835519149,1315
2195.851080025667,1338
2197.7428813558417,1338
2199.6342397861667,1366
2201.5251555932186,1346
2203.415629053651,1317
2205.3056604441986,1308
2207.19525004167,1305
2209.084398122958,1355
2210.9731049650327,1339
2212.861370844941,1356
2214.749196039812,1344
2216.636580826851,1394
2218.523525483344,1336
2220.410030286655,1331
2222.296095514226,1376
2224.1817214435805,1382
2226.066908352319,1346
2227.951656518121,1362
2229.835966218746,1356
2231.71983773203,1371
2233.6032713358913,1382
2235.486267308324,1351
2237.3688259274036,1362
2239.2509474712824,1322
2241.132632218193,1328
2243.013880446447,1327
2244.8946924344323,1332
2246.7750684606203,1361
2248.6550088035574,1341
2250.534513741871,1311
2252.413583554265,1354
2254.292218519526,1289
2256.170418916517,1315
2258.0481850241786,1287
2259.925517121534,1330
2261.8024154876825,1350
2263.678880401803,1294
2265.5549121431536,1349
2267.430510991071,1338
2269.305677224971,1387
2271.180411124348,1371
2273.0547129687766,1335
2274.9285830379076,1335
2276.8020216114737,1360
2278.6750289692845,1356
2280.5476053912294,1357
2282.4197511572766,1363
2284.2914665474727,1340
2286.162751841943,1389
2288.0336073208937,1364
2289.904033264608,1351
2291.774029953448,1378
2293.6435976678554,1374
2295.5127366883517,1310
2297.381447295534,1366
2299.2497297700825,1393
2301.1175843927526,1351
2302.9850114443825,1313
2304.852011205885,1278
2306.7185839582553,1366
2308.5847299825664,1414
2310.4504495599676,1336
2312.3157429716925,1327
2314.1806104990483,1355
2316.0450524234247,1346
2317.9090690262888,1360
2319.772660589186,1399
2321.635827393742,1337
2323.498569721661,1383
2325.3608878547248,1372
2327.2227820747967,1389
2329.0842526638157,1352
2330.945299903803,1383
2332.805924076857,1406
2334.6661254651535,1408
2336.525904350951,1331
2338.3852610165827,1322
2340.244195744464,1400
2342.102708817088,1362
2343.9608005170253,1400
2345.8184711269287,1336
2347.675720929526,1366
2349.532550207628,1371
2351.38895924412,1375
2353.24494832197,1378
2355.100517724223,1343
2356.955667734004,1397
2358.810398634514,1331
2360.664710709037,1402
2362.5186042409337,1371
2364.3720795136437,1409
2366.225136810686,1374
2368.0777764156583,1403
2369.929998612237,1339
2371.7818036841777,1439
2373.633191915315,1421
2375.484163589562,1410
2377.3347189909114,1372
2379.184858403434,1399
2381.03458211128,1379
2382.8838903986775,1409
2384.732783549936,1395
2386.5812618494406,1459
2388.4293255816588,1395
2390.2769750311327,1414
2392.1242104824883,1412
2393.971032220427,1356
2395.8174405297295,1466
2397.6634356952563,1383
2399.509018001947,1441
2401.3541877348193,1417
2403.1989451789705,1384
2405.043290619576,1362
2406.8872243418905,1428
2408.730746631247,1414
2410.5738577730594,1423
2412.4165580528183,1406
2414.258847756095,1397
2416.100727168537,1431
2417.9421965758734,1369
2419.783256263912,1398
2421.623906518538,1401
2423.4641476257157,1394
2425.303979871491,1415
2427.143403541984,1349
2428.9824189233977,1469
2430.821026302012,1472
2432.6592259641866,1399
2434.497018196361,1399
2436.33440328505,1385
2438.171381516851,1437
2440.00795317844,1422
2441.844118556569,1418
2443.6798779380724,1372
2445.5152316098606,1424
2447.3501798589255,1469
2449.1847229723357,1430
2451.0188612372403,1406
2452.8525949408663,1392
2454.6859243705203,1402
2456.518849813587,1439
2458.3513715575314,1409
2460.183489889895,1363
2462.015205098301,1349
2463.8465174704493,1426
2465.67742729412,1385
2467.5079348571717,1430
2469.338040447542,1404
2471.1677443532476,1438
2472.9970468623833,1415
2474.825948263123,1366
2476.6544488437207,1409
2478.482548892508,1395
2480.310248697896,1430
2482.137548548374,1379
2483.9644487325118,1450
2485.790949538956,1402
2487.617051256433,1406
2489.44275417375,1457
2491.26805857979,1436
2493.0929647635157,1376
2494.917473013971,1443
2496.741583620276,1393
2498.5652968716304,1453
2500.3886130573137,1463
2502.2115324666834,1433
2504.0340553891765,1474
2505.856182114308,1434
2507.6779129316733,1449
2509.499248130945,1427
2511.3201880018764,1513
2513.140732834298,1433
2514.9608829181198,1502
2516.780638543331,1483
2518.6,1524
2520.418967578273,1431
2522.237541568376,1422
2524.0557222606144,1496
2525.8735099453706,1434
2527.6909049131086,1419
2529.507907454368,1459
2531.32451785977,1418
2533.140736420014,1504
2534.9565634258774,1479
2536.771999168218,1518
2538.5870439379714,1546
2540.4016980261526,1558
2542.2159617238544,1527
2544.02983532225,1559
2545.8433191125914,1507
2547.656413386209,1538
2549.4691184345115,1544
2551.2814345489874,1489
2553.093362021204,1630
2554.904901142808,1563
2556.716052205523,1586
2558.526815501153,1575
2560.3371913215824,1648
2562.147179958771,1628
2563.956781704761,1589
2565.7659968516705,1574
2567.5748256916986,1600
2569.3832685171224,1627
2571.1913256202984,1647
2572.9989972936614,1624
2574.806283829725,1659
2576.613185521084,1697
2578.4197026604074,1636
2580.2258355404483,1618
2582.031584454035,1660
2583.836949694077,1682
2585.6419315535613,1647
2587.4465303255533,1675
2589.2507463032002,1676
2591.0545797797245,1681
2592.8580310484303,1705
2594.6611004026995,1718
2596.463788135992,1672
2598.266094541849,1638
2600.0680199138874,1699
2601.869564545807,1711
2603.670728731383,1700
2605.4715127644704,1712
2607.2719169390048,1720
2609.071941548998,1719
2610.8715868885433,1680
2612.670853251811,1650
2614.469740933052,1728
2616.268250226594,1711
2618.0663814268455,1714
2619.864134828292,1689
2621.6615107255006,1695
2623.458509413115,1683
2625.2551311858597,1712
2627.0513763385347,1663
2628.8472451660223,1628
2630.6427379632833,1649
2632.4378550253564,1653
2634.232596647359,1630
2636.026963124488,1617
2637.8209547520187,1582
2639.6145718253065,1587
2641.407814639785,1655
2643.200683490966,1621
2644.9931786744414,1586
2646.7853004858807,1524
2648.577049221034,1594
2650.3684251757277,1506
2652.1594286458712,1566
2653.9500599274484,1538
2655.740319316525,1527
2657.5302071092437,1526
2659.3197236018286,1510
2661.10886909058,1580
2662.8976438718782,1537
2664.686048242183,1429
2666.4740824980327,1460
2668.2617469360443,1456
2670.0490418529134,1442
2671.8359675454153,1433
2673.622524310403,1464
2675.408712444811,1464
2677.1945322456495,1505
2678.979984010009,1466
2680.76506803506,1404
2682.5497846180497,1367
2684.334134056306,1414
2686.1181166472343,1369
2687.9017326883213,1418
2689.6849824771293,1429
2691.4678663113013,1442
2693.2503844885596,1360
2695.032537306705,1412
2696.8143250636167,1426
2698.5957480572542,1431
2700.3768065856534,1453
2702.1575009469316,1384
2703.937831439283,1318
2705.717798360982,1371
2707.4974020103837,1316
2709.276642685917,1312
2711.055520686095,1354
2712.834036309506,1305
2714.612189854819,1361
2716.389981620782,1397
2718.1674119062204,1375
2719.944481010041,1352
2721.721189231226,1269
2723.4975368688415,1373
2725.273524222027,1267
2727.0491515900053,1325
2728.824419272075,1289
2730.5993275676146,1362
2732.3738767760838,1316
2734.148067197016,1327
2735.921899130031,1324
2737.6953728748194,1371
2739.468488731156,1322
2741.2412469988926,1343
2743.0136479779617,1279
2744.785691968372,1345
2746.5573792702116,1302
2748.3287101836504,1345
2750.099685008934,1265
2751.870304046388,1270
2753.640567596418,1290
2755.4104759595057,1296
2757.1800294362156,1344
2758.949228327187,1317
2760.7180729331412,1280
2762.486563554877,1267
2764.254700493272,1298
2766.022484049284,1293
2767.789914523947,1320
2769.5569922183786,1301
2771.3237174337705,1317
2773.090090471394,1258
2774.8561116326036,1319
2776.6217812188274,1330
2778.3870995315756,1315
2780.1520668724356,1294
2781.9166835430747,1333
2783.6809498452394,1274
2785.444866080754,1303
2787.2084325515225,1298
2788.971649559527,1247
2790.73451740683,1270
2792.4970363955713,1318
2794.2592068279705,1320
2796.0210290063264,1320
2797.7825032330147,1324
2799.543629810493,1295
2801.304409041296,1283
2803.0648412280366,1332
2804.8249266734088,1271
2806.5846656801846,1303
2808.344058551212,1308
2810.1031055894246,1285
2811.8618070978273,1317
2813.6201633795085,1285
2815.378174737636,1367
2817.1358414754536,1305
2818.893163896285,1287
2820.6501423035334,1306
2822.4067770006814,1332
2824.1630682912883,1315
2825.9190164789957,1329
2827.6746218675207,1276
2829.429884760661,1282
2831.184805462294,1281
2832.9393842763743,1317
2834.693621506936,1283
2836.4475174580916,1271
2838.201072434034,1274
2839.954286739034,1232
2841.707160677441,1298
2843.459694553685,1294
2845.2118886722724,1338
2846.96374333779,1324
2848.7152588549034,1255
2850.4664355283567,1286
2852.217273662973,1307
2853.9677735636546,1306
2855.7179355353833,1320
2857.4677598832186,1295
2859.217246912299,1323
2860.9663969278427,1283
2862.715210235146,1284
2864.4636871395846,1236
2866.211827946614,1264
2867.9596329617652,1310
2869.7071024906536,1277
2871.4542368389684,1280
2873.20103631248,1296
2874.947501217038,1363
2876.6936318585695,1255
2878.4394285430812,1318
2880.1848915766604,1256
2881.9300212654707,1269
2883.6748179157553,1318
2885.4192818338374,1254
2887.1634133261173,1303
2888.907212699077,1275
2890.6506802592744,1327
2892.393816313348,1220
2894.1366211680142,1247
2895.8790951300693,1266
2897.621238506388,1337
2899.363051603925,1248
2901.1045347297118,1271
2902.8456881908596,1320
2904.58651229456,1226
2906.327007348081,1334
2908.067173658772,1284
2909.8070115340597,1300
2911.5465212814497,1257
2913.285703208527,1271
2915.0245576229563,1236
2916.7630848324807,1355
2918.5012851449196,1284
2920.2391588681758,1242
2921.976706310227,1275
2923.7139277791334,1295
2925.4508235830313,1240
2927.187394030137,1295
2928.923639428745,1268
2930.6595600872306,1326
2932.395156314046,1330
2934.1304284177218,1271
2935.8653767068713,1300
2937.6000014901815,1330
2939.3343030764227,1318
2941.068281774442,1305
2942.8019378931644,1262
2944.5352717415976,1250
2946.2682836288236,1241
2948.0009738640065,1242
2949.7333427563885,1268
2951.465390615289,1321
2953.1971177501086,1316
2954.9285244703265,1266
2956.6596110855,1252
2958.3903779052657,1250
2960.1208252393385,1262
2961.8509533975125,1274
2963.5807626896617,1280
2965.3102534257378,1270
2967.0394259157715,1278
2968.768280469873,1284
2970.496817398232,1310
2972.2250370111146,1242
2973.952939618869,1272
2975.6805255319196,1314
2977.4077950607707,1241
2979.134748516006,1283
2980.861386208289,1346
2982.587708448359,1306
2984.313715547037,1301
2986.039407815222,1281
2987.764785563891,1311
2989.489849104102,1237
2991.2145987469908,1278
2992.9390348037705,1202
2994.6631575857346,1216
2996.3869674042576,1254
2998.1104645707887,1270
2999.83364939686,1257
3001.5565221940783,1239
3003.2790832741334,1258
3005.0013329487924,1285
3006.7232715298996,1237
3008.4448993293804,1195
3010.166216659239,1239
3011.887223831558,1289
3013.607921158498,1277
3015.3283089522993,1252
3017.0483875252826,1240
3018.7681571898443,1286
3020.4876182584626,1274
3022.2067710436927,1218
3023.9256158581707,1250
3025.644153014609,1310
3027.362382825801,1261
3029.0803056046193,1246
3030.797921664012,1292
3032.5152313170106,1236
3034.2322348767225,1282
3035.9489326563353,1283
3037.665324969115,1264
3039.3814121284063,1264
3041.097194447633,1213
3042.812672240299,1289
3044.5278458199855,1339
3046.2427155003525,1281
3047.9572815951406,1279
3049.671544418167,1294
3051.38550428333,1260
3053.0991615046073,1324
3054.812516396051,1329
3056.5255692717974,1255
3058.2383204460575,1267
3059.9507702331257,1290
3061.662918947372,1295
3063.3747669032446,1254
3065.0863144152736,1248
3066.7975617980674,1277
3068.508509366309,1257
3070.219157434767,1261
3071.9295063182844,1294
3073.639556331785,1282
3075.3493077902704,1258
3077.058761008821,1258
3078.7679163025964,1291
3080.476773986837,1277
3082.1853343768594,1273
3083.89359778806,1230
3085.6015645359153,1253
3087.3092349359786,1268
3089.016609303884,1320
3090.7236879553434,1313
3092.4304712061476,1244
3094.136959372166,1271
3095.843152769349,1261
3097.5490517137237,1236
3099.2546565213966,1306
3100.959967508554,1288
3102.66498499146,1285
3104.3697092864577,1256
3106.0741407099695,1288
3107.778279578498,1274
3109.482126208622,1319
3111.1856809170004,1255
3112.8889440203716,1261
3114.5919158355528,1245
3116.294596679439,1262
3117.996986869006,1321
3119.6990867213062,1232
3121.4008965534726,1285
3123.102416682717,1261
3124.803647426329,1291
3126.5045891016784,1243
3128.205242026213,1329
3129.90560651746,1254
3131.605682893025,1287
3133.3054714705922,1317
3135.0049725679282,1289
3136.7041865028714,1349
3138.4031135933465,1237
3140.101754157353,1281
3141.800108512971,1289
3143.498176978357,1265
3145.1959598717494,1247
3146.8934575114636,1272
3148.5906702158954,1264
3150.2875983035183,1236
3151.9842420928853,1270
3153.680601902627,1293
3155.376678051456,1265
3157.07247085816,1271
3158.767980641609,1254
3160.463207720748,1295
3162.158152414606,1284
3163.8528150422862,1287
3165.5471959229726,1242
3167.2412953759303,1279
3168.9351137204976,1278
3170.628651276098,1319
3172.3219083622307,1258
3174.014885298474,1294
3175.707582404485,1324
3177.4000000000005,1256
3179.092138404835,1269
3180.7839979388846,1262
3182.47557892212,1326
3184.166881674594,1293
3185.8579065164386,1289
3187.5486537678626,1275
3189.2391237491547,1226
3190.9293167806827,1283
3192.6192331828934,1283
3194.3088732763117,1280
3195.998237381542,1309
3197.687325819268,1255
3199.376138910251,1212
3201.064676975334,1219
3202.7529403354347,1272
3204.4409293115523,1250
3206.1286442247647,1236
3207.816085396229,1268
3209.5032531471825,1248
3211.190147798936,1234
3212.8767696728846,1211
3214.5631190905015,1246
3216.2491963733373,1260
3217.9350018430214,1240
3219.6205358212637,1233
3221.305798629851,1251
3222.990790590651,1224
3224.6755120256103,1250
3226.359963256751,1211
3228.0441446061795,1254
3229.7280563960758,1269
3231.411698948703,1301
3233.0950725863995,1205
3234.778177631587,1241
3236.461014406761,1264
3238.1435832345005,1260
3239.8258844374595,1238
3241.507918338374,1264
3243.1896852600576,1240
3244.8711855254023,1240
3246.552419457381,1261
3248.233387379042,1178
3249.914089613516,1255
3251.59452648401,1281
3253.274698313813,1252
3254.95460542629,1211
3256.6342481448855,1256
3258.313626793125,1252
3259.9927416946084,1206
3261.6715931730196,1234
3263.3501815521176,1212
3265.0285071557437,1231
3266.706570307815,1195
3268.3843713323286,1263
3270.0619105533615,1214
3271.739188295068,1225
3273.4162048816834,1169
3275.0929606375184,1253
3276.769455886966,1252
3278.445690954498,1203
3280.1216661646613,1257
3281.797381842087,1281
3283.4728383114807,1246
3285.1480358976296,1222
3286.8229749253996,1241
3288.4976557197333,1250
3290.172078605655,1224
3291.846243908266,1233
3293.5201519527463,1244
3295.193803064357,1210
3296.8671975684374,1249
3298.5403357904024,1223
3300.21321805575,1203
3301.8858446900567,1222
3303.558216018975,1225
3305.23033236824,1222
3306.9021940636603,1229
3308.57380143113,1196
3310.2451547966184,1227
3311.916254486174,1270
3313.5871008259246,1211
3315.2576941420766,1258
3316.9280347609147,1303
3318.5981230088046,1242
3320.2679592121895,1266
3321.9375436975924,1207
3323.606876791612,1235
3325.27595882093,1266
3326.944790112305,1240
3328.6133709925753,1237
3330.2817017886573,1227
3331.949782827547,1207
3333.617614436319,1226
3335.2851969421245,1232
3336.952530672199,1257
3338.619615953853,1190
3340.286453114475,1271
3341.9530424815357,1243
3343.619384382583,1296
3345.2854791452437,1315
3346.951327097224,1252
3348.6169285663073,1274
3350.2822838803577,1271
3351.947393367319,1263
3353.61225735521,1317
3355.2768761721345,1247
3356.9412501462693,1278
3358.605379605873,1215
3360.2692648792827,1261
3361.9329062949146,1314
3363.596304181263,1196
