CollectionTime,6/28/2024 2:05:37 PM
ExposureUsed,3
CalibratedSpectrum
-962.7078968117929,668
-959.9714848408522,737
-957.2358232597828,682
-954.5009119013725,688
-951.7667505983302,735
-949.0333391832855,747
-946.3006774887896,711
-943.5687653473143,741
-940.837602591253,730
-938.1071890529199,717
-935.3775245645503,760
-932.6486089583007,757
-929.9204420662485,757
-927.1930237203925,732
-924.4663537526524,750
-921.7404319948689,725
-919.0152582788041,742
-916.2908324361409,750
-913.5671542984834,766
-910.8442236973568,762
-908.1220404642074,742
-905.4006044304027,793
-902.679915427231,752
-899.959973285902,688
-897.2407778375464,721
-894.5223289132158,700
-891.8046263438832,697
-889.0876699604426,697
-886.3714595937089,700
-883.6559950744183,659
-880.9412762332282,680
-878.2273029007168,683
-875.5140749073835,667
-872.8015920836489,693
-870.0898542598545,647
-867.3788612662631,674
-864.6686129330585,673
-861.9591090903457,671
-859.2503495681506,672
-856.5423341964203,668
-853.8350628050229,683
-851.1285352237478,674
-848.4227512823054,701
-845.7177108103272,699
-843.0134136373656,677
-840.3098595928943,692
-837.6070485063082,722
-834.9049802069229,687
-832.2036545239757,698
-829.5030712866244,709
-826.8032303239481,660
-824.1041314649472,698
-821.4057745385428,696
-818.7081593735775,681
-816.0112857988148,733
-813.3151536429393,691
-810.6197627345566,705
-807.9251129021936,688
-805.2312039742981,703
-802.5380357792392,683
-799.8456081453069,663
-797.1539209007124,646
-794.462973873588,680
-791.772766891987,689
-789.083299783884,675
-786.3945723771743,692
-783.7065844996748,676
-781.0193359791231,695
-778.3328266431781,700
-775.6470563194197,707
-772.9620248353489,682
-770.2777320183878,702
-767.5941776958798,679
-764.9113616950891,722
-762.2292838432011,681
-759.5479439673222,739
-756.8673418944801,753
-754.1874774516235,728
-751.5083504656222,729
-748.8299607632671,690
-746.15230817127,718
-743.475392516264,697
-740.7992136248035,704
-738.1237713233636,724
-735.4490654383407,698
-732.7750957960521,756
-730.1018622227365,744
-727.4293645445534,697
-724.7576025875837,746
-722.0865761778291,746
-719.4162851412126,739
-716.7467293035781,729
-714.0779084906909,760
-711.409822528237,738
-708.7424712418238,795
-706.0758544569796,766
-703.4099719991541,774
-700.7448236937178,740
-698.0804093659622,755
-695.4167288411002,759
-692.7537819442656,748
-690.0915685005134,764
-687.4300883348199,767
-684.7693412720819,802
-682.1093271371178,791
-679.4500457546669,808
-676.7914969493897,803
-674.1336805458676,785
-671.4765963686034,792
-668.8202442420206,810
-666.1646239904642,793
-663.5097354382001,778
-660.8555784094151,801
-658.2021527282176,823
-655.5494582186366,831
-652.8974947046223,821
-650.2462620100463,862
-647.5957599587009,849
-644.9459883742998,848
-642.2969470804776,866
-639.6486359007902,862
-637.0010546587141,866
-634.3542031776476,855
-631.7080812809096,812
-629.0626887917401,834
-626.4180255333008,796
-623.7740913286734,799
-621.1308860008619,837
-618.4884093727904,812
-615.8466612673046,788
-613.2056415071715,808
-610.5653499150785,813
-607.9257863136347,809
-605.28695052537,809
-602.6488423727357,804
-600.0114616781036,821
-597.3748082637674,792
-594.7388819519412,837
-592.1036825647604,822
-589.4692099242818,838
-586.8354638524829,848
-584.2024441712624,783
-581.5701507024403,789
-578.9385832677575,807
-576.3077416888759,770
-573.6776257873787,814
-571.0482353847704,814
-568.4195703024757,834
-565.7916303618415,823
-563.164415384135,814
-560.5379251905453,789
-557.9121596021815,852
-555.2871184400748,765
-552.6628015251767,831
-550.0392086783606,855
-547.4163397204204,834
-544.794194472071,834
-542.1727727539491,807
-539.5520743866118,816
-536.9320991905377,839
-534.3128469861261,859
-531.6943175936979,884
-529.0765108334947,929
-526.4594265256793,1077
-523.8430644903358,1070
-521.2274245474689,1225
-518.612506517005,1343
-515.9983102187913,1334
-513.3848354725959,1519
-510.77208209810846,1571
-508.16004991493924,1733
-505.5487387426199,1844
-502.9381484006032,1985
-500.3282787082628,2029
-497.71912948489364,2059
-495.1107005497117,1947
-492.5029917218539,1842
-489.8960028203786,1477
-487.28973366426493,1349
-484.68418407241325,1234
-482.07935386364494,1110
-479.47524285670266,1134
-476.87185087025,1140
-474.2691777228715,1151
-471.66722323307334,1060
-469.0659872192821,1032
-466.4654694998459,1062
-463.86566989303384,1029
-461.26658821703614,1017
-458.66822428996414,1075
-456.07057792985,1011
-453.4736489546475,1070
-450.877437182231,975
-448.28194243039627,1022
-445.68716451686,1024
-443.09310325926003,981
-440.49975847515555,1035
-437.9071299820263,1003
-435.31521759727354,971
-432.72402113821954,990
-430.13354042210767,1021
-427.5437752661022,1079
-424.95472548728867,1048
-422.36639090267386,1102
-419.7787713291855,1109
-417.1918665836721,1068
-414.60567648290385,1085
-412.0202008435715,1101
-409.4354394822874,1064
-406.8513922155845,1106
-404.26805885991723,1100
-401.685439231661,1089
-399.103533147112,1038
-396.522340422488,1078
-393.9418608739278,1025
-391.3620943174908,1047
-388.7830405691583,1112
-386.2046994448317,1001
-383.6270707603344,922
-381.05015433141045,837
-378.473949973725,816
-375.8984575028645,794
-373.32367673433623,697
-370.74960748356875,669
-368.1762495659117,640
-365.60360279663576,615
-363.03166699093265,523
-360.4604419639154,552
-357.8899275306178,506
-355.32012350599507,533
-352.7510297049233,496
-350.1826459421999,488
-347.61497203254316,472
-345.04800779059235,489
-342.4817530309082,492
-339.91620756797226,517
-337.35137121618743,487
-334.7872437898774,477
-332.22382510328725,490
-329.66111497058273,511
-327.09911320585127,492
-324.53781962310075,510
-321.9772340362607,512
-319.4173562591816,482
-316.8581861056348,524
-314.2997233893127,534
-311.7419679238294,573
-309.1849195227194,536
-306.62857799943856,506
-304.0729431673641,514
-301.51801483979375,540
-298.963792829947,510
-296.41027695096386,547
-293.85746701590574,529
-291.3053628377552,637
-288.7539642294155,585
-286.2032710037115,530
-283.65328297338897,519
-281.1039999511146,569
-278.5554217494762,600
-276.007548180983,577
-273.4603790580651,509
-270.9139141930734,537
-268.3681533982807,578
-265.8230964858798,563
-263.27874326798565,579
-260.7350935566336,608
-258.1921471637804,583
-255.6499039013039,566
-253.10836358100266,547
-250.56752601459698,592
-248.02739101372765,676
-245.48795838995704,631
-242.94922795476816,644
-240.41119951956557,664
-237.8738728956746,745
-235.33724789434166,817
-232.80132432673452,820
-230.2661020039418,813
-227.73158073697357,786
-225.19776033676033,669
-222.66464061415422,658
-220.1322213799284,672
-217.60050244477725,638
-215.06948361931552,714
-212.53916471408013,665
-210.00954553952818,712
-207.48062590603843,737
-204.9524056239104,746
-202.4248845033651,663
-199.8980623545441,698
-197.37193898751036,759
-194.84651421224817,741
-192.32178783866232,759
-189.79775967657952,805
-187.27442953574644,829
-184.7517972258321,741
-182.2298625564256,731
-179.7086253370378,731
-177.18808537710026,760
-174.66824248596583,737
-172.14909647290835,769
-169.6306471471229,797
-167.11289431772548,834
-164.59583779375328,833
-162.07947738416453,836
-159.5638128978386,895
-157.04884414357605,925
-154.53457093009854,971
-152.02099306604828,892
-149.50811035998936,928
-146.99592262040665,955
-144.48442965570587,964
-141.97363127421409,1033
-139.46352728417958,1010
-136.95411749377126,1011
-134.44540171107985,1171
-131.93737974411636,1198
-129.43005140081357,1167
-126.92341648902493,1090
-124.41747481652521,1099
-121.91222619101006,1107
-119.40767042009657,1179
-116.90380731132257,1211
-114.40063667214702,1282
-111.8981583099503,1289
-109.3963720320337,1245
-106.89527764561933,1370
-104.39487495785067,1483
-101.89516377579241,1412
-99.39614390642998,1566
-96.89781515667039,1565
-94.40017733334128,1638
-91.90323024319173,1582
-89.40697369289148,1531
-86.91140748903172,1476
-84.41653143812482,1458
-81.92234534660395,1668
-79.42884902082358,1628
-76.93604226705907,1818
-74.4439248915071,1711
-71.95249670028534,1718
-69.46175749943245,1829
-66.97170709490854,2163
-64.48234529259423,2674
-61.99367189829195,2255
-59.50568671772464,2274
-57.01838955653636,2393
-54.53178022029283,2365
-52.045858514480074,2389
-49.560624244506016,2708
-47.07607721569923,2781
-44.59221723330904,2659
-42.10904410250669,2815
-39.62655762838392,3567
-37.14475761595372,4372
-34.66364387015028,4766
-32.18321619582866,5087
-29.70347439776515,6577
-27.224418280657005,8522
-24.74604764912317,12083
-22.26836230770266,20107
-19.7913620608565,33450
-17.315046712966478,43466
-14.83941606833514,45216
-12.36446993118659,65030
-9.89020810566592,65030
-7.416630395839093,65030
-4.94373660569363,65030
-2.471526539137585,65030
-6.821210263296962E-13,65030
2.47084320796705,65030
4.941003281093458,65030
7.410480415786196,65030
9.879274808531363,65030
12.347386655893956,65030
14.814816154518212,65030
17.28156350112681,65030
19.74762889252179,65030
22.21301252558385,65030
24.67771459727237,34191
27.141735304626195,13719
29.605074844762612,8994
32.06773341487792,8230
34.52971121224755,7471
36.99100843422559,7495
39.45162527824516,8241
41.91156194181792,8359
44.370818622535126,9745
46.82939551806646,11294
49.287292826160524,13188
51.74451074464503,11383
54.201049471426245,8334
56.65690920448981,6747
59.112090141899785,4968
61.56659248179983,3621
64.02041642241159,3036
66.4735621620365,2943
68.92602989905402,2109
71.37781983192338,2563
73.82893215918205,2895
76.27936707944684,2490
78.72912479141326,2393
81.17820549385567,2325
83.62660938562783,1863
86.07433666566146,1857
88.5213875329681,2093
90.96776218663751,1892
93.41346082583925,1655
95.85848364982041,1703
98.30283085790859,1939
100.7465026495089,1783
103.18949922410604,1588
105.63182078126385,1605
108.07346752062438,1780
110.51443964190923,1484
112.95473734491827,1379
115.39436082953114,1360
117.83331029570547,1427
120.27158594347827,1530
122.7091879729652,1488
125.1461165843615,1374
127.58237197794062,1330
130.01795435405518,1110
132.4528639131364,1109
134.88710085569494,1303
137.32066538231982,1266
139.75355769367923,1203
142.1857779905207,1362
144.61732647366978,1427
147.04820334403132,1354
149.47840880258934,1299
151.90794305040674,1492
154.33680628862487,1559
156.76499871846443,1515
159.19252054122433,1734
161.61937195828352,1781
164.04555317109896,1726
166.47106438120693,2044
168.89590579022217,2257
171.320077599839,2264
173.7435800118302,2406
176.16641322804742,2500
178.58857745042144,2568
181.01007288096173,2567
183.43089972175687,2622
185.85105817497413,2606
188.27054844285988,2527
190.6893707277394,2592
193.10752523201643,2575
195.5250121581745,2642
197.9418317087751,2680
200.3579840864594,2812
202.7734694939469,2791
205.18828813403627,2700
207.6024402096051,2755
210.01592592360964,2738
212.42874547908548,2705
214.84089907914665,2659
217.2523869269868,2770
219.66320922587727,2798
222.0733661791695,2704
224.48285799029293,2727
226.8916848627572,2824
229.29984700014882,2818
231.7073446061355,2882
234.11417788446204,2984
236.520347038953,3040
238.92585227351185,3155
241.33069379212054,3190
243.73487179884035,3298
246.1383864978112,3297
248.541238093252,3391
250.9434267894609,3469
253.34495279081432,3530
255.74581630176783,3468
258.1460175268563,3685
260.54555667069314,3666
262.9444339379703,3606
265.3426495334594,3594
267.7402036620107,3429
270.1370965285529,3215
272.53332833809407,3012
274.9288992957214,2975
277.32380960660055,2827
279.718059475976,2741
282.1116491091717,2777
284.5045787115897,2833
286.89684848871195,2623
289.2884586460981,2615
291.67940938938807,2662
294.0697009242996,2632
296.4593334566299,2608
298.84830719225477,2621
301.23662233712923,2578
303.6242790972866,2619
306.01127767884,2597
308.39761828798066,2575
310.78330113097934,2471
313.16832641418534,2526
315.5526943440269,2424
317.9364051270112,2365
320.3194589697242,2352
322.70185607883093,2322
325.0835966610754,2259
327.4646809232805,2356
329.8451090723478,2311
332.2248813152577,2287
334.6039978590701,2273
336.9824589109231,2308
339.36026467803447,2199
341.7374153677,2224
344.113911187295,2129
346.48975234427337,2239
348.8649390461686,2123
351.2394715005918,2144
353.61334991523415,2178
355.9865744978655,2114
358.35914545633375,2182
360.73106299856715,2149
363.10232733257146,2119
365.47293866643247,2146
367.84289720831396,2090
370.2122031664593,2076
372.5808567491905,2071
374.9488581649083,2078
377.31620762209275,2099
379.6829053293021,2054
382.0489514951745,2020
384.4143463284262,2059
386.7790900378528,2009
389.14318283232853,2066
391.50662492080653,1985
393.86941651231916,1931
396.23155781597745,2040
398.5930490409713,1952
400.9538903965696,2003
403.3140820921202,1973
405.6736243370498,1987
408.03251734086336,1959
410.3907613131465,2023
412.74835646356166,1964
415.10530300185144,2004
417.4616011378372,1972
419.81725108141893,2005
422.1722530425758,1923
424.5266072313656,1989
426.880313857925,1883
429.2333731324701,1969
431.58578526529516,1907
433.9375504667738,1959
436.2886689473588,1921
438.63914091758113,1884
440.9889665880513,1907
443.33814616945835,1873
445.68667987257015,1915
448.03456790823395,1871
450.3818104873759,1907
452.72840782100013,1903
455.07436012019105,1894
457.41966759611057,1929
459.7643304600007,1869
462.10834892318155,1923
464.4517231970525,1897
466.79445349309174,1930
469.1365400228566,1962
471.4779829979826,1985
473.81878263018564,1898
476.15893913125876,1974
478.4984527130747,1940
480.8373235875855,1935
483.17555196682144,2085
485.5131380628919,2122
487.8500820879857,2155
490.1863842543697,2223
492.52204477439034,2396
494.8570638604725,2531
497.1914417251204,2882
499.52517858091653,3212
501.85827464052306,3493
504.19073011668036,3587
506.5225452222086,3607
508.85372017000566,3575
511.18425517304956,3506
513.514150444396,3595
515.8434061971808,4068
518.1720226446176,4328
520.4999999999999,4592
522.8273384766991,4702
525.1540382881666,4799
527.480099647932,4728
529.8055227696037,3698
532.1303078668694,2682
534.454455153496,2192
536.777964843328,1973
539.1008371502907,1858
541.4230722883866,1923
543.744670471698,1841
546.0656319143858,1783
548.3859568306899,1756
550.7056454349294,1780
553.0246979415016,1760
555.3431145648834,1731
557.6608955196306,1750
559.978041020377,1746
562.2945512818363,1731
564.6104265188006,1761
566.9256669461412,1762
569.2402727788082,1727
571.5542442318302,1751
573.8675815203156,1726
576.1802848594508,1698
578.4923544645015,1731
580.8037905508126,1747
583.114593333807,1677
585.4247630289875,1704
587.7342998519354,1718
590.0432040183106,1692
592.3514757438526,1680
594.6591152443794,1683
596.9661227357875,1726
599.2724984340531,1771
601.578242555231,1734
603.8833553154542,1779
606.1878369309362,1831
608.4916876179676,1761
610.7949075929192,1754
613.0974970722403,1735
615.3994562724587,1710
617.7007854101818,1768
620.0014847020951,1779
622.3015543649641,1766
624.6009946156324,1770
626.8998056710224,1690
629.1979877481361,1771
631.4955410640538,1845
633.7924658359349,1750
636.0887622810175,1745
638.3844306166192,1749
640.6794710601358,1793
642.9738838290426,1789
645.2676691408932,1758
647.5608272133207,1755
649.853358264037,1757
652.1452625108324,1772
654.4365401715764,1800
656.7271914642178,1871
659.0172166067838,1830
661.3066158173809,1812
663.5953893141935,1839
665.8835373154867,1889
668.1710600396028,1828
670.4579577049639,1869
672.7442305300709,1908
675.0298787335033,1892
677.3149025339197,1825
679.599302150058,1868
681.8830778007342,1924
684.1662297048437,1902
686.4487580813608,1837
688.7306631493387,1795
691.0119451279091,1864
693.2926042362834,1844
695.5726406937516,1815
697.8520547196814,1827
700.1308465335215,1818
702.4090163547982,1814
704.6865644031171,1846
706.9634908981619,1854
709.2397960596965,1818
711.5154801075631,1760
713.7905432616823,1819
716.0649857420548,1781
718.3388077687592,1781
720.612009561953,1768
722.8845913418733,1835
725.1565533288352,1796
727.427895743234,1747
729.6986188055427,1739
731.9687227363137,1826
734.238207756178,1804
736.5070740858458,1730
738.7753219461066,1786
741.0429515578281,1708
743.3099631419569,1800
745.5763569195191,1793
747.8421331116193,1805
750.1072919394409,1784
752.3718336242467,1836
754.6357583873777,1779
756.8990664502545,1799
759.1617580343765,1714
761.423833361321,1728
763.6852926527457,1736
765.9461361303862,1742
768.206364016058,1752
770.4659765316536,1785
772.7249738991469,1753
774.9833563405886,1846
777.2411240781092,1887
779.4982773339183,1777
781.7548163303044,1810
784.010741289634,1766
786.2660524343538,1867
788.5207499869881,1775
790.7748341701416,1845
793.0283052064964,1772
795.2811633188143,1812
797.5334087299362,1835
799.7850416627813,1921
802.0360623403484,1777
804.2864709857143,1797
806.5362678220353,1803
808.7854530725468,1785
811.0340269605625,1926
813.2819897094754,1839
815.5293415427581,1813
817.77608268396,1831
820.0222133567116,1811
822.2677337847211,1845
824.5126441917765,1809
826.7569448017433,1769
829.0006358385675,1751
831.2437175262731,1822
833.4861900889629,1793
835.7280537508192,1798
837.9693087361026,1760
840.2099552691533,1754
842.4499935743896,1763
844.689423876309,1839
846.9282463994886,1793
849.1664613685833,1820
851.4040690083276,1828
853.6410695435349,1790
855.877463199097,1802
858.1132501999847,1762
860.3484307712487,1854
862.5830051380175,1838
864.8169735254988,1915
867.0503361589791,1898
869.2830932638243,1881
871.5152450654786,1849
873.7467917894654,1926
875.9777336613873,1869
878.2080709069252,1813
880.4378037518389,1839
882.666932421968,1869
884.8954571432301,1827
887.1233781416219,1881
889.3506956432192,1891
891.5774098741766,1852
893.803521060728,1887
896.0290294291852,1861
898.2539352059397,1982
900.4782386174619,1921
902.7019398903011,1876
904.925039251085,1836
907.147536926521,1930
909.3694331433943,1894
911.59072812857,1874
913.8114221089921,1882
916.0315153116827,1932
918.2510079637437,1859
920.4699002923547,1852
922.6881925247761,1795
924.905884888345,1824
927.1229776104793,1864
929.3394709186747,1905
931.555365040506,1917
933.7706602036275,1843
935.9853566357709,1880
938.1994545647489,1902
940.4129542184515,1849
942.6258558248488,1919
944.8381596119883,1827
947.0498658079974,1859
949.2609746410825,1875
951.4714863395287,1827
953.6814011316998,1872
955.8907192460387,1866
958.0994409110671,1814
960.3075663553858,1787
962.5150958076741,1854
964.7220294966913,1843
966.928367651274,1832
969.1341105003388,1791
971.3392582728806,1785
973.5438111979742,1782
975.747769504772,1756
977.9511334225061,1740
980.153903180487,1714
982.3560790081052,1764
984.5576611348289,1720
986.7586497902058,1665
988.9590452038618,1727
991.158847605503,1674
993.3580572249133,1652
995.5566742919558,1686
997.7546990365728,1603
999.952131688785,1623
1002.1489724786926,1577
1004.3452216364743,1626
1006.5408793923874,1574
1008.7359459767691,1545
1010.9304216200343,1538
1013.1243065526781,1546
1015.3176010052733,1576
1017.510305208472,1452
1019.7024193930064,1518
1021.8939437896848,1559
1024.0848786293977,1436
1026.2752241431122,1452
1028.4649805618747,1491
1030.6541481168115,1501
1032.842727039127,1505
1035.0307175601051,1438
1037.2181199111074,1483
1039.4049343235752,1494
1041.591161029029,1510
1043.7768002590683,1470
1045.9618522453698,1450
1048.1463172196918,1468
1050.3301954138697,1449
1052.513487059818,1454
1054.69619238953,1423
1056.8783116350783,1468
1059.0598450286152,1403
1061.2407928023704,1440
1063.4211551886528,1458
1065.6009324198508,1467
1067.780124728432,1507
1069.9587323469414,1425
1072.1367555080046,1474
1074.314194444325,1469
1076.4910493886855,1480
1078.667320573947,1468
1080.843008233051,1462
1083.0181125990161,1442
1085.1926339049414,1410
1087.3665723840027,1393
1089.5399282694575,1394
1091.7127017946405,1366
1093.8848931929647,1328
1096.0565026979243,1413
1098.2275305430899,1358
1100.3979769621128,1331
1102.567842188722,1414
1104.737126456726,1370
1106.9058300000124,1381
1109.0739530525475,1409
1111.2414958483764,1375
1113.4084586216231,1363
1115.5748416064907,1381
1117.7406450372605,1370
1119.9058691482942,1363
1122.0705141740304,1347
1124.2345803489884,1351
1126.3980679077658,1379
1128.5609770850388,1333
1130.7233081155623,1320
1132.8850612341707,1362
1135.0462366757774,1382
1137.2068346753745,1351
1139.3668554680326,1344
1141.526299288901,1326
1143.68516637321,1337
1145.8434569562655,1379
1148.001171273455,1319
1150.158309560244,1379
1152.3148720521767,1351
1154.470858984876,1325
1156.626270594044,1278
1158.7811071154629,1364
1160.9353687849912,1353
1163.089055838569,1368
1165.242168512213,1299
1167.3947070420209,1285
1169.5466716641677,1343
1171.6980626149075,1353
1173.8488801305748,1393
1175.9991244475814,1313
1178.1487958024186,1368
1180.2978944316555,1378
1182.4464205719428,1322
1184.5943744600072,1306
1186.7417563326567,1288
1188.8885664267755,1347
1191.0348049793297,1348
1193.1804722273619,1324
1195.325568407995,1325
1197.4700937584303,1311
1199.614048515948,1357
1201.7574329179074,1382
1203.900247201746,1294
1206.042491604982,1338
1208.1841663652099,1311
1210.3252717201053,1296
1212.465807907422,1314
1214.6057751649923,1364
1216.7451737307279,1304
1218.8840038426192,1336
1221.0222657387353,1379
1223.1599596572241,1350
1225.2970858363137,1369
1227.4336445143094,1387
1229.5696359295966,1352
1231.705060320639,1346
1233.8399179259786,1336
1235.9742089842384,1349
1238.107933734118,1383
1240.2410924143974,1351
1242.373685263935,1368
1244.5057125216676,1358
1246.6371744266116,1349
1248.7680712178621,1372
1250.898403134593,1297
1253.028170416058,1366
1255.1573733015875,1343
1257.2860120305932,1373
1259.4140868425648,1362
1261.54159797707,1357
1263.6685456737569,1396
1265.7949301723515,1372
1267.9207517126597,1406
1270.046010534565,1354
1272.1707068780306,1377
1274.2948409830983,1405
1276.4184130898889,1343
1278.541423438603,1403
1280.6638722695184,1387
1282.785759822993,1435
1284.9070863394636,1384
1287.0278520594447,1346
1289.1480572235314,1409
1291.2677020723963,1458
1293.3867868467923,1479
1295.5053117875495,1449
1297.623277135579,1472
1299.740683131868,1520
1301.8575300174857,1458
1303.973818033578,1470
1306.0895474213703,1462
1308.2047184221678,1560
1310.3193312773528,1524
1312.4333862283888,1519
1314.5468835168163,1470
1316.659823384255,1469
1318.7722060724045,1502
1320.8840318230418,1504
1322.9953008780249,1521
1325.1060134792888,1499
1327.2161698688478,1491
1329.3257702887959,1487
1331.4348149813054,1484
1333.5433041886276,1453
1335.6512381530933,1487
1337.7586171171101,1468
1339.8654413231675,1518
1341.9717110138317,1534
1344.0774264317488,1489
1346.1825878196432,1460
1348.2871954203192,1439
1350.3912494766587,1461
1352.4947502316231,1420
1354.5976979282532,1503
1356.7000928096686,1530
1358.8019351190665,1497
1360.9032250997243,1458
1363.0039629949988,1474
1365.1041490483235,1533
1367.2037835032133,1429
1369.3028666032606,1491
1371.401398592137,1497
1373.4993797135926,1504
1375.5968102114575,1449
1377.6936903296396,1474
1379.7900203121262,1496
1381.8858004029835,1498
1383.9810308463561,1471
1386.075711886469,1382
1388.1698437676241,1418
1390.2634267342032,1417
1392.356461030667,1482
1394.4489469015557,1531
1396.5408845914872,1512
1398.6322743451592,1520
1400.7231164073469,1527
1402.813411022907,1466
1404.903158436773,1547
1406.9923588939578,1608
1409.0810126395531,1578
1411.1691199187303,1566
1413.2566809767386,1558
1415.343696058907,1529
1417.4301654106425,1553
1419.5160892774315,1562
1421.6014679048399,1549
1423.6863015385125,1571
1425.7705904241707,1571
1427.8543348076178,1634
1429.9375349347342,1615
1432.0201910514802,1551
1434.102303403894,1674
1436.1838722380944,1727
1438.2648978002767,1713
1440.3453803367174,1766
1442.4253200937692,1739
1444.5047173178677,1778
1446.5835722555234,1797
1448.6618851533285,1838
1450.739656257952,1772
1452.8168858161434,1875
1454.8935740747306,1849
1456.96972128062,1899
1459.045327680797,1845
1461.120393522327,1906
1463.1949190523528,1928
1465.2689045180973,1954
1467.3423501668608,1961
1469.415256246024,2112
1471.4876230030463,2130
1473.559450685465,2114
1475.6307395408976,2100
1477.7014898170391,2110
1479.771701761665,2175
1481.8413756226287,2214
1483.9105116478618,2292
1485.9791100853772,2346
1488.0471711832643,2326
1490.1146951896926,2361
1492.1816823529098,2352
1494.2481329212433,2442
1496.3140471430984,2450
1498.3794252669609,2434
1500.4442675413939,2473
1502.5085742150404,2386
1504.572345536622,2431
1506.6355817549388,2468
1508.6982831188702,2493
1510.7604498773744,2542
1512.8220822794883,2516
1514.8831805743293,2556
1516.9437450110909,2507
1519.003775839048,2637
1521.0632733075522,2589
1523.1222376660367,2604
1525.1806691640113,2690
1527.2385680510652,2617
1529.2959345768668,2600
1531.3527689911643,2663
1533.4090715437833,2668
1535.4648424846291,2682
1537.5200820636855,2743
1539.5747905310159,2779
1541.6289681367616,2790
1543.6826151311434,2814
1545.7357317644614,2919
1547.7883182870937,2848
1549.8403749494987,2880
1551.8919020022113,2921
1553.9428996958477,3033
1555.9933682811015,3087
1558.0433080087469,3091
1560.0927191296346,3133
1562.1416018946961,3180
1564.1899565549415,3328
1566.2377833614592,3282
1568.2850825654164,3225
1570.3318544180606,3203
1572.3780991707158,3083
1574.423817074788,2979
1576.4690083817595,2952
1578.5136733431923,2819
1580.5578122107272,2691
1582.601425236085,2648
1584.6445126710646,2496
1586.6870747675434,2397
1588.7291117774776,2231
1590.7706239529034,2171
1592.8116115459347,2077
1594.8520748087658,2110
1596.8920139936686,2046
1598.9314293529933,1916
1600.9703211391711,1852
1603.008689604711,1869
1605.0465350022005,1848
1607.0838575843068,1744
1609.1206576037753,1721
1611.1569353134305,1718
1613.1926909661765,1665
1615.2279248149953,1605
1617.2626371129481,1548
1619.2968281131757,1589
1621.3304980688963,1532
1623.3636472334088,1556
1625.39627586009,1497
1627.428384202396,1451
1629.459972513861,1525
1631.4910410480993,1464
1633.5215900588028,1404
1635.551619799744,1443
1637.5811305247717,1420
1639.6101224878166,1441
1641.6385959428862,1447
1643.6665511440683,1438
1645.693988345528,1434
1647.7209078015112,1442
1649.7473097663405,1396
1651.7731944944203,1411
1653.7985622402307,1375
1655.823413258333,1334
1657.847747803366,1406
1659.8715661300494,1351
1661.8948684931793,1453
1663.9176551476316,1394
1665.9399263483624,1425
1667.9616823504057,1379
1669.982923408873,1360
1672.0036497789574,1356
1674.0238617159293,1427
1676.043559475138,1377
1678.0627433120121,1399
1680.081413482059,1392
1682.0995702408654,1405
1684.117213844096,1364
1686.134344547495,1386
1688.1509626068864,1346
1690.1670682781705,1338
1692.182661817329,1349
1694.1977434804217,1336
1696.2123135235875,1379
1698.226372203043,1402
1700.2399197750851,1410
1702.2529564960905,1305
1704.2654826225112,1337
1706.277498410882,1393
1708.2890041178139,1366
1710.2999999999988,1412
1712.3104863142066,1359
1714.3204633172854,1358
1716.329931266163,1294
1718.3388904178469,1375
1720.3473410294214,1319
1722.3552833580516,1357
1724.3627176609807,1340
1726.3696441955308,1342
1728.3760632191033,1382
1730.3819749891782,1322
1732.3873797633146,1324
1734.3922777991502,1309
1736.3966693544012,1313
1738.4005546868639,1293
1740.4039340544127,1290
1742.406807715001,1273
1744.4091759266616,1232
1746.4110389475054,1263
1748.4123970357223,1346
1750.413250449582,1268
1752.4135994474318,1339
1754.4134442876993,1218
1756.4127852288902,1264
1758.4116225295893,1283
1760.4099564484595,1257
1762.407787244244,1279
1764.405115175764,1251
1766.4019405019203,1300
1768.3982634816916,1240
1770.3940843741357,1309
1772.3894034383907,1261
1774.3842209336717,1229
1776.378537119274,1179
1778.372352254571,1212
1780.3656665990156,1228
1782.3584804121397,1199
1784.3507939535534,1256
1786.3426074829463,1297
1788.3339212600863,1246
1790.3247355448211,1259
1792.3150505970766,1210
1794.3048666768573,1216
1796.2941840442477,1221
1798.2830029594106,1254
1800.2713236825884,1265
1802.2591464741004,1220
1804.2464715943465,1263
1806.2332993038058,1241
1808.2196298630352,1227
1810.2054635326708,1251
1812.190800573428,1212
1814.175641246101,1226
1816.1599858115628,1182
1818.1438345307652,1206
1820.127187664738,1217
1822.1100454745924,1170
1824.092408221516,1197
1826.0742761667766,1228
1828.055649571721,1186
1830.0365286977735,1166
1832.0169138064398,1167
1833.9968051593014,1181
1835.9762030180214,1167
1837.9551076443408,1217
1839.9335193000788,1224
1841.9114382471344,1224
1843.888864747485,1177
1845.8657990631878,1215
1847.842241456378,1200
1849.8181921892697,1242
1851.7936515241558,1194
1853.7686197234098,1221
1855.7430970494815,1222
1857.7170837649014,1200
1859.6905801322787,1192
1861.6635864143004,1241
1863.6361028737338,1200
1865.608129773424,1248
1867.5796673762961,1197
1869.5507159453537,1256
1871.521275743678,1216
1873.4913470344313,1183
1875.4609300808534,1252
1877.4300251462632,1230
1879.3986324940588,1211
1881.366752387717,1223
1883.3343850907936,1234
1885.3015308669228,1265
1887.268189979819,1247
1889.2343626932739,1230
1891.2000492711595,1248
1893.1652499774254,1211
1895.1299650761011,1239
1897.0941948312952,1259
1899.0579395071945,1250
1901.0211993680641,1190
1902.98397467825,1224
1904.9462657021745,1255
1906.9080727043415,1231
1908.869395949332,1218
1910.8302357018065,1283
1912.790592226504,1225
1914.7504657882428,1255
1916.7098566519212,1276
1918.6687650825133,1218
1920.6271913450764,1230
1922.5851357047422,1233
1924.5425984267245,1246
1926.499579776314,1215
1928.4560800188833,1218
1930.4120994198802,1220
1932.367638244833,1197
1934.32269675935,1215
1936.2772752291175,1200
1938.231373919899,1212
1940.1849930975404,1181
1942.1381330279637,1251
1944.0907939771696,1203
1946.0429762112412,1255
1947.9946799963363,1225
1949.9459055986945,1218
1951.896653284633,1294
1953.8469233205478,1179
1955.7967159729142,1228
1957.7460315082863,1228
1959.6948701932974,1240
1961.6432322946594,1195
1963.5911180791632,1200
1965.5385278136787,1185
1967.4854617651545,1209
1969.4319202006182,1220
1971.377903387176,1227
1973.3234115920136,1228
1975.268445082395,1238
1977.2130041256642,1240
1979.1570889892423,1170
1981.1006999406304,1200
1983.04383724741,1204
1984.986501177238,1152
1986.928691997853,1222
1988.8704099770712,1207
1990.811655382789,1184
1992.7524284829801,1193
1994.692729545698,1173
1996.6325588390755,1134
1998.5719166313224,1205
2000.5108031907307,1157
2002.4492187856677,1175
2004.387163684583,1206
2006.3246381560011,1206
2008.2616424685298,1230
2010.1981768908527,1175
2012.1342416917332,1186
2014.069837140014,1194
2016.0049635046162,1152
2017.9396210545406,1164
2019.8738100588666,1176
2021.8075307867502,1143
2023.740783507431,1182
2025.6735684902228,1154
2027.6058860045214,1168
2029.5377363198004,1165
2031.4691197056118,1177
2033.4000364315875,1190
2035.3304867674374,1199
2037.260470982952,1182
2039.189989347998,1152
2041.1190421325232,1164
2043.047629606554,1225
2044.9757520401945,1131
2046.9034097036288,1194
2048.8306028671195,1203
2050.7573318010086,1174
2052.683596775716,1189
2054.609398061742,1184
2056.5347359296647,1170
2058.4596106501403,1160
2060.384022493906,1172
2062.3079717317764,1175
2064.231458634646,1149
2066.1544834734873,1209
2068.077046519352,1152
2069.99914804337,1210
2071.9207883167524,1195
2073.8419676107865,1192
2075.7626861968406,1150
2077.6829443463607,1134
2079.6027423308715,1208
2081.522080421977,1210
2083.440958891362,1159
2085.359378010786,1175
2087.2773380520907,1196
2089.194839287196,1215
2091.111881988101,1194
2093.0284664268825,1150
2094.9445928756973,1217
2096.86026160678,1156
2098.775472892446,1126
2100.690227005088,1166
2102.604524217178,1157
2104.5183648012676,1137
2106.431749029985,1183
2108.34467717604,1185
2110.2571495122206,1187
2112.169166311393,1196
2114.080727846503,1163
2115.9918343905747,1148
2117.902486216711,1119
2119.8126835980956,1229
2121.722426807987,1147
2123.6317161197285,1145
2125.5405518067364,1179
2127.448934142509,1214
2129.356863400624,1180
2131.264339854737,1162
2133.1713637785815,1230
2135.077935445972,1179
2136.9840551308002,1164
2138.889723107037,1168
2140.7949396487334,1178
2142.699705030018,1194
2144.6040195250994,1198
2146.507883408264,1178
2148.4112969538774,1176
2150.3142604363848,1187
2152.2167741303097,1154
2154.1188383102535,1196
2156.0204532508997,1234
2157.9216192270064,1154
2159.822336513414,1153
2161.7226053850413,1229
2163.622426116884,1155
2165.5217989840185,1190
2167.4207242616,1206
2169.319202224862,1195
2171.2172331491165,1190
2173.1148173097563,1155
2175.0119549822507,1183
2176.90864644215,1175
2178.8048919650823,1183
2180.7006918267534,1175
2182.596046302952,1194
2184.4909556695407,1184
2186.3854202024645,1150
2188.279440177746,1174
2190.173015871487,1157
2192.066147559868,1183
2193.958835519149,1180
2195.851080025667,1178
2197.7428813558417,1196
2199.6342397861667,1147
2201.5251555932186,1185
2203.415629053651,1184
2205.3056604441986,1146
2207.19525004167,1172
2209.084398122958,1187
2210.9731049650327,1205
2212.861370844941,1191
2214.749196039812,1174
2216.636580826851,1218
2218.523525483344,1211
2220.410030286655,1147
2222.296095514226,1181
2224.1817214435805,1183
2226.066908352319,1214
2227.951656518121,1213
2229.835966218746,1214
2231.71983773203,1212
2233.6032713358913,1212
2235.486267308324,1172
2237.3688259274036,1184
2239.2509474712824,1136
2241.132632218193,1202
2243.013880446447,1197
2244.8946924344323,1178
2246.7750684606203,1206
2248.6550088035574,1194
2250.534513741871,1190
2252.413583554265,1167
2254.292218519526,1186
2256.170418916517,1203
2258.0481850241786,1184
2259.925517121534,1153
2261.8024154876825,1184
2263.678880401803,1212
2265.5549121431536,1223
2267.430510991071,1210
2269.305677224971,1205
2271.180411124348,1140
2273.0547129687766,1197
2274.9285830379076,1171
2276.8020216114737,1218
2278.6750289692845,1206
2280.5476053912294,1218
2282.4197511572766,1152
2284.2914665474727,1188
2286.162751841943,1165
2288.0336073208937,1164
2289.904033264608,1162
2291.774029953448,1155
2293.6435976678554,1142
2295.5127366883517,1178
2297.381447295534,1149
2299.2497297700825,1199
2301.1175843927526,1160
2302.9850114443825,1184
2304.852011205885,1204
2306.7185839582553,1170
2308.5847299825664,1205
2310.4504495599676,1213
2312.3157429716925,1149
2314.1806104990483,1202
2316.0450524234247,1212
2317.9090690262888,1185
2319.772660589186,1137
2321.635827393742,1170
2323.498569721661,1227
2325.3608878547248,1202
2327.2227820747967,1216
2329.0842526638157,1193
2330.945299903803,1183
2332.805924076857,1213
2334.6661254651535,1173
2336.525904350951,1231
2338.3852610165827,1184
2340.244195744464,1236
2342.102708817088,1220
2343.9608005170253,1200
2345.8184711269287,1199
2347.675720929526,1227
2349.532550207628,1217
2351.38895924412,1222
2353.24494832197,1220
2355.100517724223,1201
2356.955667734004,1199
2358.810398634514,1216
2360.664710709037,1259
2362.5186042409337,1222
2364.3720795136437,1229
2366.225136810686,1186
2368.0777764156583,1247
2369.929998612237,1198
2371.7818036841777,1229
2373.633191915315,1218
2375.484163589562,1200
2377.3347189909114,1218
2379.184858403434,1261
2381.03458211128,1212
2382.8838903986775,1214
2384.732783549936,1239
2386.5812618494406,1208
2388.4293255816588,1253
2390.2769750311327,1213
2392.1242104824883,1290
2393.971032220427,1252
2395.8174405297295,1258
2397.6634356952563,1265
2399.509018001947,1284
2401.3541877348193,1205
2403.1989451789705,1211
2405.043290619576,1240
2406.8872243418905,1304
2408.730746631247,1214
2410.5738577730594,1260
2412.4165580528183,1281
2414.258847756095,1215
2416.100727168537,1231
2417.9421965758734,1159
2419.783256263912,1210
2421.623906518538,1201
2423.4641476257157,1235
2425.303979871491,1294
2427.143403541984,1253
2428.9824189233977,1282
2430.821026302012,1280
2432.6592259641866,1298
2434.497018196361,1302
2436.33440328505,1285
2438.171381516851,1273
2440.00795317844,1228
2441.844118556569,1229
2443.6798779380724,1275
2445.5152316098606,1314
2447.3501798589255,1258
2449.1847229723357,1235
2451.0188612372403,1248
2452.8525949408663,1236
2454.6859243705203,1242
2456.518849813587,1248
2458.3513715575314,1243
2460.183489889895,1256
2462.015205098301,1215
2463.8465174704493,1297
2465.67742729412,1251
2467.5079348571717,1239
2469.338040447542,1241
2471.1677443532476,1203
2472.9970468623833,1246
2474.825948263123,1246
2476.6544488437207,1255
2478.482548892508,1294
2480.310248697896,1246
2482.137548548374,1264
2483.9644487325118,1193
2485.790949538956,1266
2487.617051256433,1274
2489.44275417375,1293
2491.26805857979,1276
2493.0929647635157,1255
2494.917473013971,1267
2496.741583620276,1284
2498.5652968716304,1242
2500.3886130573137,1265
2502.2115324666834,1211
2504.0340553891765,1279
2505.856182114308,1313
2507.6779129316733,1368
2509.499248130945,1285
2511.3201880018764,1287
2513.140732834298,1294
2514.9608829181198,1303
2516.780638543331,1299
2518.6,1288
2520.418967578273,1298
2522.237541568376,1324
2524.0557222606144,1261
2525.8735099453706,1324
2527.6909049131086,1333
2529.507907454368,1231
2531.32451785977,1333
2533.140736420014,1333
2534.9565634258774,1337
2536.771999168218,1351
2538.5870439379714,1352
2540.4016980261526,1385
2542.2159617238544,1374
2544.02983532225,1350
2545.8433191125914,1373
2547.656413386209,1293
2549.4691184345115,1342
2551.2814345489874,1405
2553.093362021204,1436
2554.904901142808,1398
2556.716052205523,1398
2558.526815501153,1450
2560.3371913215824,1530
2562.147179958771,1434
2563.956781704761,1503
2565.7659968516705,1349
2567.5748256916986,1446
2569.3832685171224,1448
2571.1913256202984,1443
2572.9989972936614,1452
2574.806283829725,1478
2576.613185521084,1457
2578.4197026604074,1496
2580.2258355404483,1427
2582.031584454035,1466
2583.836949694077,1544
2585.6419315535613,1553
2587.4465303255533,1536
2589.2507463032002,1498
2591.0545797797245,1531
2592.8580310484303,1504
2594.6611004026995,1492
2596.463788135992,1548
2598.266094541849,1501
2600.0680199138874,1496
2601.869564545807,1500
2603.670728731383,1577
2605.4715127644704,1559
2607.2719169390048,1489
2609.071941548998,1586
2610.8715868885433,1542
2612.670853251811,1556
2614.469740933052,1504
2616.268250226594,1539
2618.0663814268455,1505
2619.864134828292,1475
2621.6615107255006,1502
2623.458509413115,1548
2625.2551311858597,1439
2627.0513763385347,1523
2628.8472451660223,1469
2630.6427379632833,1476
2632.4378550253564,1495
2634.232596647359,1486
2636.026963124488,1450
2637.8209547520187,1411
2639.6145718253065,1465
2641.407814639785,1444
2643.200683490966,1404
2644.9931786744414,1410
2646.7853004858807,1358
2648.577049221034,1333
2650.3684251757277,1328
2652.1594286458712,1367
2653.9500599274484,1411
2655.740319316525,1397
2657.5302071092437,1376
2659.3197236018286,1347
2661.10886909058,1355
2662.8976438718782,1363
2664.686048242183,1386
2666.4740824980327,1324
2668.2617469360443,1326
2670.0490418529134,1353
2671.8359675454153,1361
2673.622524310403,1269
2675.408712444811,1302
2677.1945322456495,1337
2678.979984010009,1278
2680.76506803506,1296
2682.5497846180497,1266
2684.334134056306,1263
2686.1181166472343,1260
2687.9017326883213,1308
2689.6849824771293,1254
2691.4678663113013,1262
2693.2503844885596,1280
2695.032537306705,1258
2696.8143250636167,1213
2698.5957480572542,1294
2700.3768065856534,1242
2702.1575009469316,1229
2703.937831439283,1294
2705.717798360982,1258
2707.4974020103837,1210
2709.276642685917,1264
2711.055520686095,1218
2712.834036309506,1220
2714.612189854819,1221
2716.389981620782,1194
2718.1674119062204,1170
2719.944481010041,1249
2721.721189231226,1182
2723.4975368688415,1196
2725.273524222027,1240
2727.0491515900053,1174
2728.824419272075,1203
2730.5993275676146,1199
2732.3738767760838,1195
2734.148067197016,1213
2735.921899130031,1178
2737.6953728748194,1199
2739.468488731156,1149
2741.2412469988926,1160
2743.0136479779617,1263
2744.785691968372,1182
2746.5573792702116,1181
2748.3287101836504,1207
2750.099685008934,1168
2751.870304046388,1157
2753.640567596418,1140
2755.4104759595057,1206
2757.1800294362156,1147
2758.949228327187,1145
2760.7180729331412,1117
2762.486563554877,1172
2764.254700493272,1133
2766.022484049284,1188
2767.789914523947,1160
2769.5569922183786,1162
2771.3237174337705,1172
2773.090090471394,1183
2774.8561116326036,1227
2776.6217812188274,1177
2778.3870995315756,1124
2780.1520668724356,1184
2781.9166835430747,1111
2783.6809498452394,1167
2785.444866080754,1243
2787.2084325515225,1235
2788.971649559527,1164
2790.73451740683,1165
2792.4970363955713,1181
2794.2592068279705,1190
2796.0210290063264,1153
2797.7825032330147,1200
2799.543629810493,1182
2801.304409041296,1183
2803.0648412280366,1167
2804.8249266734088,1167
2806.5846656801846,1131
2808.344058551212,1198
2810.1031055894246,1136
2811.8618070978273,1210
2813.6201633795085,1149
2815.378174737636,1217
2817.1358414754536,1193
2818.893163896285,1125
2820.6501423035334,1163
2822.4067770006814,1152
2824.1630682912883,1169
2825.9190164789957,1104
2827.6746218675207,1195
2829.429884760661,1132
2831.184805462294,1146
2832.9393842763743,1162
2834.693621506936,1127
2836.4475174580916,1194
2838.201072434034,1184
2839.954286739034,1156
2841.707160677441,1235
2843.459694553685,1197
2845.2118886722724,1201
2846.96374333779,1167
2848.7152588549034,1173
2850.4664355283567,1152
2852.217273662973,1157
2853.9677735636546,1145
2855.7179355353833,1181
2857.4677598832186,1135
2859.217246912299,1189
2860.9663969278427,1195
2862.715210235146,1190
2864.4636871395846,1165
2866.211827946614,1169
2867.9596329617652,1181
2869.7071024906536,1186
2871.4542368389684,1145
2873.20103631248,1135
2874.947501217038,1143
2876.6936318585695,1132
2878.4394285430812,1181
2880.1848915766604,1150
2881.9300212654707,1176
2883.6748179157553,1211
2885.4192818338374,1210
2887.1634133261173,1154
2888.907212699077,1165
2890.6506802592744,1176
2892.393816313348,1127
2894.1366211680142,1140
2895.8790951300693,1158
2897.621238506388,1178
2899.363051603925,1134
2901.1045347297118,1178
2902.8456881908596,1213
2904.58651229456,1166
2906.327007348081,1135
2908.067173658772,1166
2909.8070115340597,1159
2911.5465212814497,1158
2913.285703208527,1178
2915.0245576229563,1139
2916.7630848324807,1170
2918.5012851449196,1132
2920.2391588681758,1122
2921.976706310227,1181
2923.7139277791334,1150
2925.4508235830313,1091
2927.187394030137,1223
2928.923639428745,1173
2930.6595600872306,1152
2932.395156314046,1147
2934.1304284177218,1151
2935.8653767068713,1153
2937.6000014901815,1148
2939.3343030764227,1157
2941.068281774442,1213
2942.8019378931644,1209
2944.5352717415976,1190
2946.2682836288236,1100
2948.0009738640065,1156
2949.7333427563885,1202
2951.465390615289,1156
2953.1971177501086,1182
2954.9285244703265,1178
2956.6596110855,1187
2958.3903779052657,1175
2960.1208252393385,1162
2961.8509533975125,1153
2963.5807626896617,1141
2965.3102534257378,1156
2967.0394259157715,1159
2968.768280469873,1185
2970.496817398232,1130
2972.2250370111146,1126
2973.952939618869,1175
2975.6805255319196,1104
2977.4077950607707,1157
2979.134748516006,1129
2980.861386208289,1191
2982.587708448359,1185
2984.313715547037,1205
2986.039407815222,1178
2987.764785563891,1152
2989.489849104102,1171
2991.2145987469908,1143
2992.9390348037705,1156
2994.6631575857346,1134
2996.3869674042576,1149
2998.1104645707887,1160
2999.83364939686,1089
3001.5565221940783,1121
3003.2790832741334,1135
3005.0013329487924,1188
3006.7232715298996,1217
3008.4448993293804,1149
3010.166216659239,1103
3011.887223831558,1155
3013.607921158498,1142
3015.3283089522993,1140
3017.0483875252826,1194
3018.7681571898443,1162
3020.4876182584626,1170
3022.2067710436927,1188
3023.9256158581707,1188
3025.644153014609,1192
3027.362382825801,1191
3029.0803056046193,1107
3030.797921664012,1125
3032.5152313170106,1141
3034.2322348767225,1193
3035.9489326563353,1149
3037.665324969115,1150
3039.3814121284063,1186
3041.097194447633,1168
3042.812672240299,1187
3044.5278458199855,1177
3046.2427155003525,1209
3047.9572815951406,1160
3049.671544418167,1147
3051.38550428333,1231
3053.0991615046073,1137
3054.812516396051,1123
3056.5255692717974,1154
3058.2383204460575,1157
3059.9507702331257,1198
3061.662918947372,1189
3063.3747669032446,1186
3065.0863144152736,1141
3066.7975617980674,1166
3068.508509366309,1153
3070.219157434767,1113
3071.9295063182844,1149
3073.639556331785,1178
3075.3493077902704,1178
3077.058761008821,1169
3078.7679163025964,1204
3080.476773986837,1164
3082.1853343768594,1147
3083.89359778806,1174
3085.6015645359153,1162
3087.3092349359786,1174
3089.016609303884,1152
3090.7236879553434,1182
3092.4304712061476,1119
3094.136959372166,1212
3095.843152769349,1140
3097.5490517137237,1172
3099.2546565213966,1174
3100.959967508554,1178
3102.66498499146,1120
3104.3697092864577,1203
3106.0741407099695,1167
3107.778279578498,1169
3109.482126208622,1171
3111.1856809170004,1137
3112.8889440203716,1179
3114.5919158355528,1180
3116.294596679439,1158
3117.996986869006,1203
3119.6990867213062,1203
3121.4008965534726,1164
3123.102416682717,1121
3124.803647426329,1125
3126.5045891016784,1152
3128.205242026213,1185
3129.90560651746,1212
3131.605682893025,1187
3133.3054714705922,1180
3135.0049725679282,1206
3136.7041865028714,1119
3138.4031135933465,1159
3140.101754157353,1119
3141.800108512971,1128
3143.498176978357,1173
3145.1959598717494,1157
3146.8934575114636,1135
3148.5906702158954,1211
3150.2875983035183,1171
3151.9842420928853,1093
3153.680601902627,1132
3155.376678051456,1119
3157.07247085816,1122
3158.767980641609,1188
3160.463207720748,1159
3162.158152414606,1200
3163.8528150422862,1127
3165.5471959229726,1188
3167.2412953759303,1102
3168.9351137204976,1137
3170.628651276098,1197
3172.3219083622307,1178
3174.014885298474,1157
3175.707582404485,1130
3177.4000000000005,1125
3179.092138404835,1167
3180.7839979388846,1148
3182.47557892212,1122
3184.166881674594,1141
3185.8579065164386,1137
3187.5486537678626,1184
3189.2391237491547,1139
3190.9293167806827,1151
3192.6192331828934,1157
3194.3088732763117,1186
3195.998237381542,1143
3197.687325819268,1158
3199.376138910251,1146
3201.064676975334,1145
3202.7529403354347,1100
3204.4409293115523,1164
3206.1286442247647,1102
3207.816085396229,1119
3209.5032531471825,1177
3211.190147798936,1162
3212.8767696728846,1110
3214.5631190905015,1088
3216.2491963733373,1079
3217.9350018430214,1112
3219.6205358212637,1133
3221.305798629851,1110
3222.990790590651,1116
3224.6755120256103,1148
3226.359963256751,1090
3228.0441446061795,1091
3229.7280563960758,1172
3231.411698948703,1131
3233.0950725863995,1140
3234.778177631587,1163
3236.461014406761,1177
3238.1435832345005,1117
3239.8258844374595,1146
3241.507918338374,1171
3243.1896852600576,1093
3244.8711855254023,1166
3246.552419457381,1170
3248.233387379042,1134
3249.914089613516,1100
3251.59452648401,1126
3253.274698313813,1169
3254.95460542629,1171
3256.6342481448855,1172
3258.313626793125,1138
3259.9927416946084,1127
3261.6715931730196,1127
3263.3501815521176,1098
3265.0285071557437,1136
3266.706570307815,1163
3268.3843713323286,1178
3270.0619105533615,1115
3271.739188295068,1149
3273.4162048816834,1149
3275.0929606375184,1151
3276.769455886966,1121
3278.445690954498,1140
3280.1216661646613,1159
3281.797381842087,1076
3283.4728383114807,1126
3285.1480358976296,1121
3286.8229749253996,1125
3288.4976557197333,1091
3290.172078605655,1078
3291.846243908266,1114
3293.5201519527463,1109
3295.193803064357,1141
3296.8671975684374,1124
3298.5403357904024,1125
3300.21321805575,1109
3301.8858446900567,1161
3303.558216018975,1168
3305.23033236824,1108
3306.9021940636603,1182
3308.57380143113,1202
3310.2451547966184,1098
3311.916254486174,1206
3313.5871008259246,1108
3315.2576941420766,1104
3316.9280347609147,1161
3318.5981230088046,1175
3320.2679592121895,1110
3321.9375436975924,1082
3323.606876791612,1129
3325.27595882093,1103
3326.944790112305,1064
3328.6133709925753,1096
3330.2817017886573,1152
3331.949782827547,1091
3333.617614436319,1089
3335.2851969421245,1104
3336.952530672199,1121
3338.619615953853,1148
3340.286453114475,1130
3341.9530424815357,1116
3343.619384382583,1159
3345.2854791452437,1122
3346.951327097224,1107
3348.6169285663073,1140
3350.2822838803577,1120
3351.947393367319,1111
3353.61225735521,1152
3355.2768761721345,1141
3356.9412501462693,1174
3358.605379605873,1146
3360.2692648792827,1149
3361.9329062949146,1107
3363.596304181263,1079
