CollectionTime,6/28/2024 2:07:59 PM
ExposureUsed,3
CalibratedSpectrum
-962.7078968117929,701
-959.9714848408522,766
-957.2358232597828,764
-954.5009119013725,723
-951.7667505983302,740
-949.0333391832855,745
-946.3006774887896,678
-943.5687653473143,703
-940.837602591253,740
-938.1071890529199,763
-935.3775245645503,781
-932.6486089583007,759
-929.9204420662485,757
-927.1930237203925,757
-924.4663537526524,745
-921.7404319948689,743
-919.0152582788041,748
-916.2908324361409,730
-913.5671542984834,758
-910.8442236973568,753
-908.1220404642074,743
-905.4006044304027,705
-902.679915427231,732
-899.959973285902,778
-897.2407778375464,746
-894.5223289132158,715
-891.8046263438832,682
-889.0876699604426,702
-886.3714595937089,718
-883.6559950744183,714
-880.9412762332282,708
-878.2273029007168,694
-875.5140749073835,700
-872.8015920836489,664
-870.0898542598545,701
-867.3788612662631,687
-864.6686129330585,720
-861.9591090903457,698
-859.2503495681506,707
-856.5423341964203,691
-853.8350628050229,702
-851.1285352237478,684
-848.4227512823054,680
-845.7177108103272,708
-843.0134136373656,698
-840.3098595928943,696
-837.6070485063082,702
-834.9049802069229,737
-832.2036545239757,678
-829.5030712866244,683
-826.8032303239481,685
-824.1041314649472,686
-821.4057745385428,679
-818.7081593735775,697
-816.0112857988148,673
-813.3151536429393,681
-810.6197627345566,693
-807.9251129021936,686
-805.2312039742981,713
-802.5380357792392,670
-799.8456081453069,678
-797.1539209007124,681
-794.462973873588,701
-791.772766891987,700
-789.083299783884,717
-786.3945723771743,728
-783.7065844996748,705
-781.0193359791231,690
-778.3328266431781,727
-775.6470563194197,732
-772.9620248353489,700
-770.2777320183878,705
-767.5941776958798,688
-764.9113616950891,708
-762.2292838432011,669
-759.5479439673222,705
-756.8673418944801,718
-754.1874774516235,708
-751.5083504656222,724
-748.8299607632671,702
-746.15230817127,703
-743.475392516264,703
-740.7992136248035,708
-738.1237713233636,714
-735.4490654383407,697
-732.7750957960521,725
-730.1018622227365,704
-727.4293645445534,722
-724.7576025875837,732
-722.0865761778291,772
-719.4162851412126,726
-716.7467293035781,790
-714.0779084906909,797
-711.409822528237,738
-708.7424712418238,756
-706.0758544569796,801
-703.4099719991541,781
-700.7448236937178,753
-698.0804093659622,793
-695.4167288411002,784
-692.7537819442656,794
-690.0915685005134,779
-687.4300883348199,775
-684.7693412720819,812
-682.1093271371178,806
-679.4500457546669,778
-676.7914969493897,816
-674.1336805458676,824
-671.4765963686034,824
-668.8202442420206,817
-666.1646239904642,773
-663.5097354382001,818
-660.8555784094151,847
-658.2021527282176,841
-655.5494582186366,887
-652.8974947046223,839
-650.2462620100463,871
-647.5957599587009,850
-644.9459883742998,889
-642.2969470804776,872
-639.6486359007902,856
-637.0010546587141,837
-634.3542031776476,855
-631.7080812809096,844
-629.0626887917401,814
-626.4180255333008,849
-623.7740913286734,823
-621.1308860008619,830
-618.4884093727904,831
-615.8466612673046,809
-613.2056415071715,788
-610.5653499150785,822
-607.9257863136347,762
-605.28695052537,804
-602.6488423727357,801
-600.0114616781036,800
-597.3748082637674,796
-594.7388819519412,849
-592.1036825647604,785
-589.4692099242818,814
-586.8354638524829,804
-584.2024441712624,829
-581.5701507024403,806
-578.9385832677575,803
-576.3077416888759,820
-573.6776257873787,844
-571.0482353847704,838
-568.4195703024757,814
-565.7916303618415,871
-563.164415384135,867
-560.5379251905453,852
-557.9121596021815,837
-555.2871184400748,790
-552.6628015251767,832
-550.0392086783606,859
-547.4163397204204,837
-544.794194472071,867
-542.1727727539491,872
-539.5520743866118,855
-536.9320991905377,862
-534.3128469861261,891
-531.6943175936979,930
-529.0765108334947,899
-526.4594265256793,992
-523.8430644903358,1080
-521.2274245474689,1204
-518.612506517005,1345
-515.9983102187913,1344
-513.3848354725959,1519
-510.77208209810846,1614
-508.16004991493924,1655
-505.5487387426199,1814
-502.9381484006032,1863
-500.3282787082628,1930
-497.71912948489364,1949
-495.1107005497117,1764
-492.5029917218539,1629
-489.8960028203786,1442
-487.28973366426493,1284
-484.68418407241325,1123
-482.07935386364494,1053
-479.47524285670266,1071
-476.87185087025,1106
-474.2691777228715,1043
-471.66722323307334,1061
-469.0659872192821,1051
-466.4654694998459,1022
-463.86566989303384,1082
-461.26658821703614,1088
-458.66822428996414,1022
-456.07057792985,1027
-453.4736489546475,990
-450.877437182231,1008
-448.28194243039627,1043
-445.68716451686,976
-443.09310325926003,963
-440.49975847515555,994
-437.9071299820263,999
-435.31521759727354,944
-432.72402113821954,981
-430.13354042210767,1046
-427.5437752661022,1025
-424.95472548728867,1027
-422.36639090267386,1089
-419.7787713291855,1013
-417.1918665836721,1046
-414.60567648290385,1088
-412.0202008435715,1061
-409.4354394822874,1037
-406.8513922155845,1072
-404.26805885991723,1128
-401.685439231661,1093
-399.103533147112,1081
-396.522340422488,1063
-393.9418608739278,1053
-391.3620943174908,1023
-388.7830405691583,994
-386.2046994448317,971
-383.6270707603344,906
-381.05015433141045,823
-378.473949973725,803
-375.8984575028645,753
-373.32367673433623,713
-370.74960748356875,667
-368.1762495659117,619
-365.60360279663576,577
-363.03166699093265,557
-360.4604419639154,501
-357.8899275306178,517
-355.32012350599507,513
-352.7510297049233,500
-350.1826459421999,467
-347.61497203254316,458
-345.04800779059235,484
-342.4817530309082,444
-339.91620756797226,446
-337.35137121618743,477
-334.7872437898774,483
-332.22382510328725,470
-329.66111497058273,462
-327.09911320585127,505
-324.53781962310075,517
-321.9772340362607,511
-319.4173562591816,507
-316.8581861056348,509
-314.2997233893127,517
-311.7419679238294,518
-309.1849195227194,506
-306.62857799943856,481
-304.0729431673641,497
-301.51801483979375,512
-298.963792829947,530
-296.41027695096386,549
-293.85746701590574,558
-291.3053628377552,530
-288.7539642294155,526
-286.2032710037115,574
-283.65328297338897,553
-281.1039999511146,615
-278.5554217494762,610
-276.007548180983,582
-273.4603790580651,522
-270.9139141930734,515
-268.3681533982807,558
-265.8230964858798,629
-263.27874326798565,584
-260.7350935566336,571
-258.1921471637804,603
-255.6499039013039,584
-253.10836358100266,545
-250.56752601459698,616
-248.02739101372765,689
-245.48795838995704,733
-242.94922795476816,685
-240.41119951956557,634
-237.8738728956746,695
-235.33724789434166,835
-232.80132432673452,870
-230.2661020039418,747
-227.73158073697357,684
-225.19776033676033,635
-222.66464061415422,635
-220.1322213799284,677
-217.60050244477725,653
-215.06948361931552,715
-212.53916471408013,729
-210.00954553952818,663
-207.48062590603843,736
-204.9524056239104,710
-202.4248845033651,655
-199.8980623545441,605
-197.37193898751036,676
-194.84651421224817,760
-192.32178783866232,705
-189.79775967657952,730
-187.27442953574644,720
-184.7517972258321,764
-182.2298625564256,792
-179.7086253370378,735
-177.18808537710026,703
-174.66824248596583,752
-172.14909647290835,814
-169.6306471471229,762
-167.11289431772548,753
-164.59583779375328,766
-162.07947738416453,794
-159.5638128978386,827
-157.04884414357605,858
-154.53457093009854,861
-152.02099306604828,909
-149.50811035998936,856
-146.99592262040665,871
-144.48442965570587,905
-141.97363127421409,905
-139.46352728417958,853
-136.95411749377126,871
-134.44540171107985,1061
-131.93737974411636,1023
-129.43005140081357,994
-126.92341648902493,1102
-124.41747481652521,1169
-121.91222619101006,1119
-119.40767042009657,1087
-116.90380731132257,1095
-114.40063667214702,1133
-111.8981583099503,1233
-109.3963720320337,1219
-106.89527764561933,1321
-104.39487495785067,1386
-101.89516377579241,1353
-99.39614390642998,1378
-96.89781515667039,1363
-94.40017733334128,1564
-91.90323024319173,1510
-89.40697369289148,1355
-86.91140748903172,1446
-84.41653143812482,1393
-81.92234534660395,1563
-79.42884902082358,1662
-76.93604226705907,1691
-74.4439248915071,1624
-71.95249670028534,1628
-69.46175749943245,1842
-66.97170709490854,2079
-64.48234529259423,2445
-61.99367189829195,2110
-59.50568671772464,1982
-57.01838955653636,2187
-54.53178022029283,2095
-52.045858514480074,2306
-49.560624244506016,2453
-47.07607721569923,2723
-44.59221723330904,2812
-42.10904410250669,2685
-39.62655762838392,3173
-37.14475761595372,3862
-34.66364387015028,4110
-32.18321619582866,4794
-29.70347439776515,5977
-27.224418280657005,7211
-24.74604764912317,9765
-22.26836230770266,16895
-19.7913620608565,28777
-17.315046712966478,36292
-14.83941606833514,36361
-12.36446993118659,65030
-9.89020810566592,65030
-7.416630395839093,65030
-4.94373660569363,65030
-2.471526539137585,65030
-6.821210263296962E-13,65030
2.47084320796705,65030
4.941003281093458,65030
7.410480415786196,65030
9.879274808531363,65030
12.347386655893956,65030
14.814816154518212,65030
17.28156350112681,65030
19.74762889252179,65030
22.21301252558385,65030
24.67771459727237,29614
27.141735304626195,9908
29.605074844762612,6700
32.06773341487792,7799
34.52971121224755,8594
36.99100843422559,7732
39.45162527824516,7249
41.91156194181792,7334
44.370818622535126,8218
46.82939551806646,9189
49.287292826160524,10604
51.74451074464503,9373
54.201049471426245,7074
56.65690920448981,6269
59.112090141899785,4722
61.56659248179983,3415
64.02041642241159,2814
66.4735621620365,2474
68.92602989905402,2220
71.37781983192338,2247
73.82893215918205,2647
76.27936707944684,2421
78.72912479141326,2020
81.17820549385567,1872
83.62660938562783,1969
86.07433666566146,1764
88.5213875329681,1905
90.96776218663751,1800
93.41346082583925,1636
95.85848364982041,1680
98.30283085790859,1729
100.7465026495089,1632
103.18949922410604,1702
105.63182078126385,1666
108.07346752062438,1523
110.51443964190923,1547
112.95473734491827,1269
115.39436082953114,1241
117.83331029570547,1406
120.27158594347827,1447
122.7091879729652,1247
125.1461165843615,1227
127.58237197794062,1284
130.01795435405518,1133
132.4528639131364,1058
134.88710085569494,1140
137.32066538231982,1262
139.75355769367923,1222
142.1857779905207,1150
144.61732647366978,1153
147.04820334403132,1277
149.47840880258934,1320
151.90794305040674,1331
154.33680628862487,1538
156.76499871846443,1509
159.19252054122433,1667
161.61937195828352,1726
164.04555317109896,1844
166.47106438120693,2007
168.89590579022217,2272
171.320077599839,2316
173.7435800118302,2332
176.16641322804742,2366
178.58857745042144,2515
181.01007288096173,2689
183.43089972175687,2699
185.85105817497413,2677
188.27054844285988,2715
190.6893707277394,2528
193.10752523201643,2601
195.5250121581745,2818
197.9418317087751,2797
200.3579840864594,2773
202.7734694939469,2882
205.18828813403627,2796
207.6024402096051,2798
210.01592592360964,2769
212.42874547908548,2793
214.84089907914665,2698
217.2523869269868,2781
219.66320922587727,2766
222.0733661791695,2706
224.48285799029293,2771
226.8916848627572,2905
229.29984700014882,2984
231.7073446061355,2955
234.11417788446204,3020
236.520347038953,3109
238.92585227351185,3248
241.33069379212054,3283
243.73487179884035,3272
246.1383864978112,3325
248.541238093252,3421
250.9434267894609,3565
253.34495279081432,3398
255.74581630176783,3638
258.1460175268563,3735
260.54555667069314,3652
262.9444339379703,3532
265.3426495334594,3669
267.7402036620107,3472
270.1370965285529,3239
272.53332833809407,3130
274.9288992957214,2925
277.32380960660055,2754
279.718059475976,2711
282.1116491091717,2705
284.5045787115897,2685
286.89684848871195,2642
289.2884586460981,2629
291.67940938938807,2576
294.0697009242996,2633
296.4593334566299,2577
298.84830719225477,2607
301.23662233712923,2515
303.6242790972866,2509
306.01127767884,2492
308.39761828798066,2482
310.78330113097934,2526
313.16832641418534,2428
315.5526943440269,2361
317.9364051270112,2343
320.3194589697242,2289
322.70185607883093,2203
325.0835966610754,2220
327.4646809232805,2316
329.8451090723478,2216
332.2248813152577,2173
334.6039978590701,2221
336.9824589109231,2170
339.36026467803447,2171
341.7374153677,2217
344.113911187295,2164
346.48975234427337,2074
348.8649390461686,2078
351.2394715005918,2118
353.61334991523415,2046
355.9865744978655,2036
358.35914545633375,2090
360.73106299856715,2093
363.10232733257146,2038
365.47293866643247,2031
367.84289720831396,1999
370.2122031664593,1975
372.5808567491905,2024
374.9488581649083,1956
377.31620762209275,1999
379.6829053293021,2042
382.0489514951745,1963
384.4143463284262,1955
386.7790900378528,1955
389.14318283232853,1978
391.50662492080653,1906
393.86941651231916,1928
396.23155781597745,1982
398.5930490409713,1872
400.9538903965696,1911
403.3140820921202,1974
405.6736243370498,1881
408.03251734086336,1911
410.3907613131465,1934
412.74835646356166,1899
415.10530300185144,1962
417.4616011378372,1917
419.81725108141893,1972
422.1722530425758,1926
424.5266072313656,1945
426.880313857925,1878
429.2333731324701,1891
431.58578526529516,1826
433.9375504667738,1901
436.2886689473588,1894
438.63914091758113,1933
440.9889665880513,1885
443.33814616945835,1897
445.68667987257015,1863
448.03456790823395,1866
450.3818104873759,1816
452.72840782100013,1921
455.07436012019105,1812
457.41966759611057,1886
459.7643304600007,1816
462.10834892318155,1827
464.4517231970525,1800
466.79445349309174,1877
469.1365400228566,1866
471.4779829979826,1869
473.81878263018564,1831
476.15893913125876,1932
478.4984527130747,1891
480.8373235875855,1928
483.17555196682144,2003
485.5131380628919,1941
487.8500820879857,2117
490.1863842543697,2205
492.52204477439034,2238
494.8570638604725,2500
497.1914417251204,2650
499.52517858091653,2915
501.85827464052306,3234
504.19073011668036,3325
506.5225452222086,3407
508.85372017000566,3305
511.18425517304956,3359
513.514150444396,3537
515.8434061971808,3847
518.1720226446176,4191
520.4999999999999,4390
522.8273384766991,4560
525.1540382881666,4613
527.480099647932,4318
529.8055227696037,3473
532.1303078668694,2494
534.454455153496,2064
536.777964843328,1977
539.1008371502907,1867
541.4230722883866,1866
543.744670471698,1847
546.0656319143858,1792
548.3859568306899,1725
550.7056454349294,1725
553.0246979415016,1763
555.3431145648834,1644
557.6608955196306,1677
559.978041020377,1730
562.2945512818363,1712
564.6104265188006,1690
566.9256669461412,1638
569.2402727788082,1641
571.5542442318302,1712
573.8675815203156,1649
576.1802848594508,1635
578.4923544645015,1643
580.8037905508126,1683
583.114593333807,1695
585.4247630289875,1687
587.7342998519354,1662
590.0432040183106,1668
592.3514757438526,1692
594.6591152443794,1728
596.9661227357875,1717
599.2724984340531,1667
601.578242555231,1746
603.8833553154542,1736
606.1878369309362,1710
608.4916876179676,1768
610.7949075929192,1789
613.0974970722403,1653
615.3994562724587,1701
617.7007854101818,1688
620.0014847020951,1729
622.3015543649641,1674
624.6009946156324,1681
626.8998056710224,1761
629.1979877481361,1763
631.4955410640538,1751
633.7924658359349,1746
636.0887622810175,1701
638.3844306166192,1699
640.6794710601358,1823
642.9738838290426,1725
645.2676691408932,1785
647.5608272133207,1728
649.853358264037,1790
652.1452625108324,1745
654.4365401715764,1804
656.7271914642178,1808
659.0172166067838,1796
661.3066158173809,1784
663.5953893141935,1797
665.8835373154867,1812
668.1710600396028,1807
670.4579577049639,1880
672.7442305300709,1808
675.0298787335033,1795
677.3149025339197,1868
679.599302150058,1832
681.8830778007342,1820
684.1662297048437,1818
686.4487580813608,1784
688.7306631493387,1811
691.0119451279091,1762
693.2926042362834,1787
695.5726406937516,1837
697.8520547196814,1771
700.1308465335215,1819
702.4090163547982,1783
704.6865644031171,1769
706.9634908981619,1829
709.2397960596965,1808
711.5154801075631,1756
713.7905432616823,1859
716.0649857420548,1723
718.3388077687592,1772
720.612009561953,1877
722.8845913418733,1792
725.1565533288352,1801
727.427895743234,1700
729.6986188055427,1783
731.9687227363137,1801
734.238207756178,1805
736.5070740858458,1746
738.7753219461066,1730
741.0429515578281,1790
743.3099631419569,1751
745.5763569195191,1755
747.8421331116193,1756
750.1072919394409,1733
752.3718336242467,1741
754.6357583873777,1758
756.8990664502545,1752
759.1617580343765,1742
761.423833361321,1808
763.6852926527457,1768
765.9461361303862,1770
768.206364016058,1795
770.4659765316536,1760
772.7249738991469,1788
774.9833563405886,1735
777.2411240781092,1726
779.4982773339183,1849
781.7548163303044,1754
784.010741289634,1797
786.2660524343538,1805
788.5207499869881,1802
790.7748341701416,1788
793.0283052064964,1756
795.2811633188143,1742
797.5334087299362,1768
799.7850416627813,1781
802.0360623403484,1809
804.2864709857143,1767
806.5362678220353,1809
808.7854530725468,1701
811.0340269605625,1796
813.2819897094754,1859
815.5293415427581,1775
817.77608268396,1787
820.0222133567116,1814
822.2677337847211,1849
824.5126441917765,1778
826.7569448017433,1784
829.0006358385675,1802
831.2437175262731,1751
833.4861900889629,1720
835.7280537508192,1724
837.9693087361026,1768
840.2099552691533,1792
842.4499935743896,1819
844.689423876309,1807
846.9282463994886,1806
849.1664613685833,1754
851.4040690083276,1707
853.6410695435349,1792
855.877463199097,1793
858.1132501999847,1815
860.3484307712487,1778
862.5830051380175,1821
864.8169735254988,1806
867.0503361589791,1769
869.2830932638243,1801
871.5152450654786,1809
873.7467917894654,1772
875.9777336613873,1783
878.2080709069252,1827
880.4378037518389,1804
882.666932421968,1783
884.8954571432301,1849
887.1233781416219,1868
889.3506956432192,1798
891.5774098741766,1834
893.803521060728,1775
896.0290294291852,1807
898.2539352059397,1849
900.4782386174619,1853
902.7019398903011,1887
904.925039251085,1818
907.147536926521,1821
909.3694331433943,1854
911.59072812857,1850
913.8114221089921,1865
916.0315153116827,1822
918.2510079637437,1859
920.4699002923547,1868
922.6881925247761,1833
924.905884888345,1862
927.1229776104793,1853
929.3394709186747,1808
931.555365040506,1822
933.7706602036275,1855
935.9853566357709,1828
938.1994545647489,1863
940.4129542184515,1867
942.6258558248488,1872
944.8381596119883,1825
947.0498658079974,1820
949.2609746410825,1798
951.4714863395287,1817
953.6814011316998,1746
955.8907192460387,1889
958.0994409110671,1842
960.3075663553858,1787
962.5150958076741,1853
964.7220294966913,1787
966.928367651274,1749
969.1341105003388,1812
971.3392582728806,1786
973.5438111979742,1700
975.747769504772,1703
977.9511334225061,1700
980.153903180487,1719
982.3560790081052,1694
984.5576611348289,1741
986.7586497902058,1698
988.9590452038618,1740
991.158847605503,1684
993.3580572249133,1686
995.5566742919558,1539
997.7546990365728,1620
999.952131688785,1623
1002.1489724786926,1605
1004.3452216364743,1608
1006.5408793923874,1589
1008.7359459767691,1553
1010.9304216200343,1522
1013.1243065526781,1525
1015.3176010052733,1514
1017.510305208472,1512
1019.7024193930064,1469
1021.8939437896848,1420
1024.0848786293977,1500
1026.2752241431122,1450
1028.4649805618747,1540
1030.6541481168115,1462
1032.842727039127,1515
1035.0307175601051,1419
1037.2181199111074,1482
1039.4049343235752,1514
1041.591161029029,1461
1043.7768002590683,1479
1045.9618522453698,1463
1048.1463172196918,1447
1050.3301954138697,1394
1052.513487059818,1491
1054.69619238953,1477
1056.8783116350783,1411
1059.0598450286152,1429
1061.2407928023704,1368
1063.4211551886528,1433
1065.6009324198508,1445
1067.780124728432,1465
1069.9587323469414,1408
1072.1367555080046,1455
1074.314194444325,1487
1076.4910493886855,1423
1078.667320573947,1417
1080.843008233051,1424
1083.0181125990161,1383
1085.1926339049414,1411
1087.3665723840027,1399
1089.5399282694575,1400
1091.7127017946405,1404
1093.8848931929647,1350
1096.0565026979243,1377
1098.2275305430899,1367
1100.3979769621128,1335
1102.567842188722,1320
1104.737126456726,1348
1106.9058300000124,1335
1109.0739530525475,1321
1111.2414958483764,1348
1113.4084586216231,1360
1115.5748416064907,1429
1117.7406450372605,1330
1119.9058691482942,1338
1122.0705141740304,1300
1124.2345803489884,1362
1126.3980679077658,1371
1128.5609770850388,1411
1130.7233081155623,1353
1132.8850612341707,1329
1135.0462366757774,1284
1137.2068346753745,1318
1139.3668554680326,1306
1141.526299288901,1359
1143.68516637321,1354
1145.8434569562655,1312
1148.001171273455,1345
1150.158309560244,1316
1152.3148720521767,1330
1154.470858984876,1268
1156.626270594044,1352
1158.7811071154629,1304
1160.9353687849912,1334
1163.089055838569,1320
1165.242168512213,1348
1167.3947070420209,1276
1169.5466716641677,1400
1171.6980626149075,1394
1173.8488801305748,1281
1175.9991244475814,1314
1178.1487958024186,1276
1180.2978944316555,1292
1182.4464205719428,1326
1184.5943744600072,1333
1186.7417563326567,1258
1188.8885664267755,1295
1191.0348049793297,1359
1193.1804722273619,1345
1195.325568407995,1318
1197.4700937584303,1320
1199.614048515948,1306
1201.7574329179074,1291
1203.900247201746,1312
1206.042491604982,1358
1208.1841663652099,1320
1210.3252717201053,1339
1212.465807907422,1302
1214.6057751649923,1344
1216.7451737307279,1368
1218.8840038426192,1316
1221.0222657387353,1387
1223.1599596572241,1346
1225.2970858363137,1320
1227.4336445143094,1342
1229.5696359295966,1328
1231.705060320639,1390
1233.8399179259786,1341
1235.9742089842384,1311
1238.107933734118,1359
1240.2410924143974,1386
1242.373685263935,1343
1244.5057125216676,1291
1246.6371744266116,1310
1248.7680712178621,1368
1250.898403134593,1375
1253.028170416058,1399
1255.1573733015875,1396
1257.2860120305932,1365
1259.4140868425648,1369
1261.54159797707,1413
1263.6685456737569,1352
1265.7949301723515,1396
1267.9207517126597,1392
1270.046010534565,1459
1272.1707068780306,1404
1274.2948409830983,1366
1276.4184130898889,1378
1278.541423438603,1424
1280.6638722695184,1394
1282.785759822993,1415
1284.9070863394636,1392
1287.0278520594447,1529
1289.1480572235314,1474
1291.2677020723963,1499
1293.3867868467923,1425
1295.5053117875495,1444
1297.623277135579,1465
1299.740683131868,1524
1301.8575300174857,1570
1303.973818033578,1543
1306.0895474213703,1507
1308.2047184221678,1513
1310.3193312773528,1488
1312.4333862283888,1509
1314.5468835168163,1525
1316.659823384255,1517
1318.7722060724045,1501
1320.8840318230418,1498
1322.9953008780249,1483
1325.1060134792888,1480
1327.2161698688478,1504
1329.3257702887959,1512
1331.4348149813054,1538
1333.5433041886276,1498
1335.6512381530933,1494
1337.7586171171101,1562
1339.8654413231675,1529
1341.9717110138317,1479
1344.0774264317488,1468
1346.1825878196432,1483
1348.2871954203192,1496
1350.3912494766587,1474
1352.4947502316231,1466
1354.5976979282532,1470
1356.7000928096686,1556
1358.8019351190665,1540
1360.9032250997243,1454
1363.0039629949988,1531
1365.1041490483235,1545
1367.2037835032133,1497
1369.3028666032606,1493
1371.401398592137,1502
1373.4993797135926,1481
1375.5968102114575,1412
1377.6936903296396,1504
1379.7900203121262,1504
1381.8858004029835,1485
1383.9810308463561,1518
1386.075711886469,1516
1388.1698437676241,1557
1390.2634267342032,1506
1392.356461030667,1554
1394.4489469015557,1525
1396.5408845914872,1489
1398.6322743451592,1581
1400.7231164073469,1596
1402.813411022907,1551
1404.903158436773,1568
1406.9923588939578,1553
1409.0810126395531,1531
1411.1691199187303,1556
1413.2566809767386,1593
1415.343696058907,1569
1417.4301654106425,1571
1419.5160892774315,1630
1421.6014679048399,1630
1423.6863015385125,1629
1425.7705904241707,1636
1427.8543348076178,1640
1429.9375349347342,1734
1432.0201910514802,1708
1434.102303403894,1732
1436.1838722380944,1696
1438.2648978002767,1779
1440.3453803367174,1749
1442.4253200937692,1725
1444.5047173178677,1799
1446.5835722555234,1738
1448.6618851533285,1870
1450.739656257952,1938
1452.8168858161434,1861
1454.8935740747306,1954
1456.96972128062,1950
1459.045327680797,2012
1461.120393522327,1994
1463.1949190523528,2081
1465.2689045180973,2068
1467.3423501668608,2143
1469.415256246024,2140
1471.4876230030463,2257
1473.559450685465,2247
1475.6307395408976,2324
1477.7014898170391,2229
1479.771701761665,2333
1481.8413756226287,2370
1483.9105116478618,2410
1485.9791100853772,2462
1488.0471711832643,2432
1490.1146951896926,2500
1492.1816823529098,2615
1494.2481329212433,2667
1496.3140471430984,2565
1498.3794252669609,2573
1500.4442675413939,2664
1502.5085742150404,2601
1504.572345536622,2653
1506.6355817549388,2611
1508.6982831188702,2675
1510.7604498773744,2665
1512.8220822794883,2758
1514.8831805743293,2777
1516.9437450110909,2751
1519.003775839048,2835
1521.0632733075522,2789
1523.1222376660367,2738
1525.1806691640113,2826
1527.2385680510652,2759
1529.2959345768668,2820
1531.3527689911643,2910
1533.4090715437833,2937
1535.4648424846291,2940
1537.5200820636855,2913
1539.5747905310159,3061
1541.6289681367616,3058
1543.6826151311434,3141
1545.7357317644614,3079
1547.7883182870937,3149
1549.8403749494987,3233
1551.8919020022113,3311
1553.9428996958477,3334
1555.9933682811015,3325
1558.0433080087469,3345
1560.0927191296346,3445
1562.1416018946961,3546
1564.1899565549415,3579
1566.2377833614592,3514
1568.2850825654164,3515
1570.3318544180606,3602
1572.3780991707158,3401
1574.423817074788,3338
1576.4690083817595,3206
1578.5136733431923,3074
1580.5578122107272,2903
1582.601425236085,2820
1584.6445126710646,2734
1586.6870747675434,2616
1588.7291117774776,2472
1590.7706239529034,2386
1592.8116115459347,2282
1594.8520748087658,2221
1596.8920139936686,2108
1598.9314293529933,2046
1600.9703211391711,2009
1603.008689604711,1897
1605.0465350022005,1832
1607.0838575843068,1863
1609.1206576037753,1754
1611.1569353134305,1729
1613.1926909661765,1692
1615.2279248149953,1670
1617.2626371129481,1630
1619.2968281131757,1628
1621.3304980688963,1631
1623.3636472334088,1588
1625.39627586009,1556
1627.428384202396,1582
1629.459972513861,1521
1631.4910410480993,1509
1633.5215900588028,1500
1635.551619799744,1488
1637.5811305247717,1508
1639.6101224878166,1508
1641.6385959428862,1487
1643.6665511440683,1454
1645.693988345528,1425
1647.7209078015112,1466
1649.7473097663405,1437
1651.7731944944203,1413
1653.7985622402307,1384
1655.823413258333,1384
1657.847747803366,1368
1659.8715661300494,1354
1661.8948684931793,1383
1663.9176551476316,1437
1665.9399263483624,1386
1667.9616823504057,1358
1669.982923408873,1373
1672.0036497789574,1336
1674.0238617159293,1382
1676.043559475138,1349
1678.0627433120121,1397
1680.081413482059,1371
1682.0995702408654,1371
1684.117213844096,1403
1686.134344547495,1385
1688.1509626068864,1379
1690.1670682781705,1361
1692.182661817329,1341
1694.1977434804217,1327
1696.2123135235875,1338
1698.226372203043,1342
1700.2399197750851,1339
1702.2529564960905,1383
1704.2654826225112,1341
1706.277498410882,1356
1708.2890041178139,1399
1710.2999999999988,1345
1712.3104863142066,1370
1714.3204633172854,1362
1716.329931266163,1337
1718.3388904178469,1340
1720.3473410294214,1390
1722.3552833580516,1362
1724.3627176609807,1304
1726.3696441955308,1335
1728.3760632191033,1315
1730.3819749891782,1310
1732.3873797633146,1327
1734.3922777991502,1298
1736.3966693544012,1264
1738.4005546868639,1272
1740.4039340544127,1308
1742.406807715001,1265
1744.4091759266616,1297
1746.4110389475054,1261
1748.4123970357223,1318
1750.413250449582,1245
1752.4135994474318,1226
1754.4134442876993,1308
1756.4127852288902,1278
1758.4116225295893,1245
1760.4099564484595,1253
1762.407787244244,1237
1764.405115175764,1219
1766.4019405019203,1219
1768.3982634816916,1214
1770.3940843741357,1218
1772.3894034383907,1255
1774.3842209336717,1193
1776.378537119274,1276
1778.372352254571,1175
1780.3656665990156,1200
1782.3584804121397,1219
1784.3507939535534,1193
1786.3426074829463,1193
1788.3339212600863,1263
1790.3247355448211,1211
1792.3150505970766,1214
1794.3048666768573,1202
1796.2941840442477,1255
1798.2830029594106,1223
1800.2713236825884,1242
1802.2591464741004,1243
1804.2464715943465,1231
1806.2332993038058,1213
1808.2196298630352,1218
1810.2054635326708,1226
1812.190800573428,1223
1814.175641246101,1217
1816.1599858115628,1204
1818.1438345307652,1188
1820.127187664738,1220
1822.1100454745924,1189
1824.092408221516,1217
1826.0742761667766,1177
1828.055649571721,1185
1830.0365286977735,1191
1832.0169138064398,1178
1833.9968051593014,1225
1835.9762030180214,1188
1837.9551076443408,1201
1839.9335193000788,1194
1841.9114382471344,1189
1843.888864747485,1178
1845.8657990631878,1188
1847.842241456378,1152
1849.8181921892697,1138
1851.7936515241558,1170
1853.7686197234098,1227
1855.7430970494815,1221
1857.7170837649014,1203
1859.6905801322787,1178
1861.6635864143004,1141
1863.6361028737338,1145
1865.608129773424,1227
1867.5796673762961,1163
1869.5507159453537,1159
1871.521275743678,1185
1873.4913470344313,1197
1875.4609300808534,1180
1877.4300251462632,1191
1879.3986324940588,1192
1881.366752387717,1181
1883.3343850907936,1190
1885.3015308669228,1246
1887.268189979819,1185
1889.2343626932739,1204
1891.2000492711595,1219
1893.1652499774254,1212
1895.1299650761011,1246
1897.0941948312952,1195
1899.0579395071945,1182
1901.0211993680641,1182
1902.98397467825,1224
1904.9462657021745,1249
1906.9080727043415,1214
1908.869395949332,1223
1910.8302357018065,1181
1912.790592226504,1205
1914.7504657882428,1206
1916.7098566519212,1209
1918.6687650825133,1222
1920.6271913450764,1187
1922.5851357047422,1211
1924.5425984267245,1193
1926.499579776314,1180
1928.4560800188833,1215
1930.4120994198802,1175
1932.367638244833,1203
1934.32269675935,1197
1936.2772752291175,1228
1938.231373919899,1250
1940.1849930975404,1221
1942.1381330279637,1167
1944.0907939771696,1243
1946.0429762112412,1167
1947.9946799963363,1228
1949.9459055986945,1196
1951.896653284633,1207
1953.8469233205478,1140
1955.7967159729142,1190
1957.7460315082863,1192
1959.6948701932974,1194
1961.6432322946594,1191
1963.5911180791632,1184
1965.5385278136787,1130
1967.4854617651545,1214
1969.4319202006182,1151
1971.377903387176,1171
1973.3234115920136,1211
1975.268445082395,1183
1977.2130041256642,1199
1979.1570889892423,1215
1981.1006999406304,1199
1983.04383724741,1272
1984.986501177238,1143
1986.928691997853,1214
1988.8704099770712,1159
1990.811655382789,1178
1992.7524284829801,1169
1994.692729545698,1190
1996.6325588390755,1217
1998.5719166313224,1156
2000.5108031907307,1192
2002.4492187856677,1180
2004.387163684583,1104
2006.3246381560011,1199
2008.2616424685298,1155
2010.1981768908527,1146
2012.1342416917332,1130
2014.069837140014,1110
2016.0049635046162,1167
2017.9396210545406,1175
2019.8738100588666,1180
2021.8075307867502,1141
2023.740783507431,1146
2025.6735684902228,1215
2027.6058860045214,1164
2029.5377363198004,1148
2031.4691197056118,1210
2033.4000364315875,1135
2035.3304867674374,1143
2037.260470982952,1158
2039.189989347998,1145
2041.1190421325232,1137
2043.047629606554,1160
2044.9757520401945,1145
2046.9034097036288,1165
2048.8306028671195,1145
2050.7573318010086,1142
2052.683596775716,1114
2054.609398061742,1139
2056.5347359296647,1145
2058.4596106501403,1141
2060.384022493906,1108
2062.3079717317764,1144
2064.231458634646,1131
2066.1544834734873,1112
2068.077046519352,1122
2069.99914804337,1150
2071.9207883167524,1164
2073.8419676107865,1171
2075.7626861968406,1137
2077.6829443463607,1146
2079.6027423308715,1121
2081.522080421977,1177
2083.440958891362,1140
2085.359378010786,1152
2087.2773380520907,1140
2089.194839287196,1123
2091.111881988101,1169
2093.0284664268825,1137
2094.9445928756973,1175
2096.86026160678,1190
2098.775472892446,1102
2100.690227005088,1145
2102.604524217178,1105
2104.5183648012676,1159
2106.431749029985,1190
2108.34467717604,1126
2110.2571495122206,1133
2112.169166311393,1164
2114.080727846503,1129
2115.9918343905747,1175
2117.902486216711,1112
2119.8126835980956,1184
2121.722426807987,1112
2123.6317161197285,1161
2125.5405518067364,1167
2127.448934142509,1133
2129.356863400624,1150
2131.264339854737,1096
2133.1713637785815,1150
2135.077935445972,1162
2136.9840551308002,1157
2138.889723107037,1171
2140.7949396487334,1137
2142.699705030018,1165
2144.6040195250994,1171
2146.507883408264,1128
2148.4112969538774,1132
2150.3142604363848,1163
2152.2167741303097,1141
2154.1188383102535,1163
2156.0204532508997,1174
2157.9216192270064,1179
2159.822336513414,1150
2161.7226053850413,1183
2163.622426116884,1140
2165.5217989840185,1117
2167.4207242616,1075
2169.319202224862,1176
2171.2172331491165,1135
2173.1148173097563,1146
2175.0119549822507,1132
2176.90864644215,1108
2178.8048919650823,1157
2180.7006918267534,1172
2182.596046302952,1104
2184.4909556695407,1191
2186.3854202024645,1204
2188.279440177746,1187
2190.173015871487,1133
2192.066147559868,1175
2193.958835519149,1152
2195.851080025667,1140
2197.7428813558417,1147
2199.6342397861667,1161
2201.5251555932186,1126
2203.415629053651,1175
2205.3056604441986,1128
2207.19525004167,1134
2209.084398122958,1156
2210.9731049650327,1112
2212.861370844941,1133
2214.749196039812,1130
2216.636580826851,1148
2218.523525483344,1153
2220.410030286655,1099
2222.296095514226,1118
2224.1817214435805,1163
2226.066908352319,1161
2227.951656518121,1140
2229.835966218746,1161
2231.71983773203,1112
2233.6032713358913,1159
2235.486267308324,1168
2237.3688259274036,1110
2239.2509474712824,1125
2241.132632218193,1182
2243.013880446447,1101
2244.8946924344323,1127
2246.7750684606203,1132
2248.6550088035574,1176
2250.534513741871,1146
2252.413583554265,1182
2254.292218519526,1150
2256.170418916517,1094
2258.0481850241786,1207
2259.925517121534,1137
2261.8024154876825,1132
2263.678880401803,1193
2265.5549121431536,1103
2267.430510991071,1115
2269.305677224971,1184
2271.180411124348,1146
2273.0547129687766,1144
2274.9285830379076,1141
2276.8020216114737,1150
2278.6750289692845,1127
2280.5476053912294,1135
2282.4197511572766,1127
2284.2914665474727,1142
2286.162751841943,1137
2288.0336073208937,1168
2289.904033264608,1150
2291.774029953448,1153
2293.6435976678554,1154
2295.5127366883517,1177
2297.381447295534,1149
2299.2497297700825,1151
2301.1175843927526,1166
2302.9850114443825,1196
2304.852011205885,1190
2306.7185839582553,1175
2308.5847299825664,1180
2310.4504495599676,1170
2312.3157429716925,1154
2314.1806104990483,1179
2316.0450524234247,1189
2317.9090690262888,1162
2319.772660589186,1131
2321.635827393742,1139
2323.498569721661,1178
2325.3608878547248,1220
2327.2227820747967,1145
2329.0842526638157,1184
2330.945299903803,1151
2332.805924076857,1214
2334.6661254651535,1142
2336.525904350951,1153
2338.3852610165827,1172
2340.244195744464,1170
2342.102708817088,1184
2343.9608005170253,1190
2345.8184711269287,1175
2347.675720929526,1140
2349.532550207628,1184
2351.38895924412,1159
2353.24494832197,1167
2355.100517724223,1188
2356.955667734004,1179
2358.810398634514,1206
2360.664710709037,1183
2362.5186042409337,1226
2364.3720795136437,1199
2366.225136810686,1155
2368.0777764156583,1200
2369.929998612237,1141
2371.7818036841777,1179
2373.633191915315,1227
2375.484163589562,1179
2377.3347189909114,1222
2379.184858403434,1193
2381.03458211128,1174
2382.8838903986775,1195
2384.732783549936,1150
2386.5812618494406,1191
2388.4293255816588,1179
2390.2769750311327,1228
2392.1242104824883,1238
2393.971032220427,1191
2395.8174405297295,1178
2397.6634356952563,1221
2399.509018001947,1194
2401.3541877348193,1257
2403.1989451789705,1194
2405.043290619576,1189
2406.8872243418905,1264
2408.730746631247,1147
2410.5738577730594,1236
2412.4165580528183,1188
2414.258847756095,1185
2416.100727168537,1197
2417.9421965758734,1217
2419.783256263912,1222
2421.623906518538,1237
2423.4641476257157,1197
2425.303979871491,1273
2427.143403541984,1242
2428.9824189233977,1312
2430.821026302012,1272
2432.6592259641866,1267
2434.497018196361,1234
2436.33440328505,1273
2438.171381516851,1282
2440.00795317844,1262
2441.844118556569,1232
2443.6798779380724,1181
2445.5152316098606,1208
2447.3501798589255,1227
2449.1847229723357,1215
2451.0188612372403,1230
2452.8525949408663,1223
2454.6859243705203,1216
2456.518849813587,1204
2458.3513715575314,1225
2460.183489889895,1209
2462.015205098301,1221
2463.8465174704493,1210
2465.67742729412,1217
2467.5079348571717,1262
2469.338040447542,1272
2471.1677443532476,1246
2472.9970468623833,1226
2474.825948263123,1231
2476.6544488437207,1203
2478.482548892508,1230
2480.310248697896,1187
2482.137548548374,1193
2483.9644487325118,1235
2485.790949538956,1194
2487.617051256433,1291
2489.44275417375,1209
2491.26805857979,1178
2493.0929647635157,1264
2494.917473013971,1311
2496.741583620276,1242
2498.5652968716304,1246
2500.3886130573137,1256
2502.2115324666834,1217
2504.0340553891765,1271
2505.856182114308,1264
2507.6779129316733,1275
2509.499248130945,1239
2511.3201880018764,1264
2513.140732834298,1276
2514.9608829181198,1298
2516.780638543331,1295
2518.6,1332
2520.418967578273,1247
2522.237541568376,1308
2524.0557222606144,1272
2525.8735099453706,1260
2527.6909049131086,1259
2529.507907454368,1293
2531.32451785977,1387
2533.140736420014,1306
2534.9565634258774,1306
2536.771999168218,1304
2538.5870439379714,1327
2540.4016980261526,1318
2542.2159617238544,1350
2544.02983532225,1319
2545.8433191125914,1370
2547.656413386209,1326
2549.4691184345115,1403
2551.2814345489874,1371
2553.093362021204,1381
2554.904901142808,1399
2556.716052205523,1371
2558.526815501153,1443
2560.3371913215824,1434
2562.147179958771,1373
2563.956781704761,1388
2565.7659968516705,1409
2567.5748256916986,1459
2569.3832685171224,1472
2571.1913256202984,1471
2572.9989972936614,1498
2574.806283829725,1468
2576.613185521084,1466
2578.4197026604074,1538
2580.2258355404483,1469
2582.031584454035,1493
2583.836949694077,1502
2585.6419315535613,1508
2587.4465303255533,1509
2589.2507463032002,1458
2591.0545797797245,1450
2592.8580310484303,1518
2594.6611004026995,1532
2596.463788135992,1558
2598.266094541849,1567
2600.0680199138874,1547
2601.869564545807,1555
2603.670728731383,1538
2605.4715127644704,1581
2607.2719169390048,1505
2609.071941548998,1588
2610.8715868885433,1522
2612.670853251811,1573
2614.469740933052,1548
2616.268250226594,1554
2618.0663814268455,1551
2619.864134828292,1524
2621.6615107255006,1560
2623.458509413115,1560
2625.2551311858597,1508
2627.0513763385347,1531
2628.8472451660223,1504
2630.6427379632833,1447
2632.4378550253564,1521
2634.232596647359,1504
2636.026963124488,1443
2637.8209547520187,1499
2639.6145718253065,1439
2641.407814639785,1424
2643.200683490966,1449
2644.9931786744414,1423
2646.7853004858807,1469
2648.577049221034,1465
2650.3684251757277,1302
2652.1594286458712,1353
2653.9500599274484,1349
2655.740319316525,1334
2657.5302071092437,1335
2659.3197236018286,1362
2661.10886909058,1338
2662.8976438718782,1335
2664.686048242183,1313
2666.4740824980327,1338
2668.2617469360443,1376
2670.0490418529134,1309
2671.8359675454153,1294
2673.622524310403,1292
2675.408712444811,1285
2677.1945322456495,1251
2678.979984010009,1261
2680.76506803506,1254
2682.5497846180497,1297
2684.334134056306,1263
2686.1181166472343,1255
2687.9017326883213,1291
2689.6849824771293,1235
2691.4678663113013,1278
2693.2503844885596,1263
2695.032537306705,1230
2696.8143250636167,1214
2698.5957480572542,1220
2700.3768065856534,1161
2702.1575009469316,1174
2703.937831439283,1173
2705.717798360982,1249
2707.4974020103837,1203
2709.276642685917,1195
2711.055520686095,1211
2712.834036309506,1235
2714.612189854819,1176
2716.389981620782,1142
2718.1674119062204,1167
2719.944481010041,1220
2721.721189231226,1148
2723.4975368688415,1136
2725.273524222027,1149
2727.0491515900053,1185
2728.824419272075,1157
2730.5993275676146,1167
2732.3738767760838,1216
2734.148067197016,1124
2735.921899130031,1183
2737.6953728748194,1192
2739.468488731156,1198
2741.2412469988926,1184
2743.0136479779617,1156
2744.785691968372,1159
2746.5573792702116,1125
2748.3287101836504,1181
2750.099685008934,1200
2751.870304046388,1176
2753.640567596418,1138
2755.4104759595057,1110
2757.1800294362156,1148
2758.949228327187,1148
2760.7180729331412,1175
2762.486563554877,1162
2764.254700493272,1148
2766.022484049284,1200
2767.789914523947,1130
2769.5569922183786,1098
2771.3237174337705,1109
2773.090090471394,1117
2774.8561116326036,1161
2776.6217812188274,1101
2778.3870995315756,1146
2780.1520668724356,1125
2781.9166835430747,1172
2783.6809498452394,1175
2785.444866080754,1156
2787.2084325515225,1168
2788.971649559527,1150
2790.73451740683,1094
2792.4970363955713,1165
2794.2592068279705,1183
2796.0210290063264,1138
2797.7825032330147,1142
2799.543629810493,1123
2801.304409041296,1155
2803.0648412280366,1145
2804.8249266734088,1165
2806.5846656801846,1143
2808.344058551212,1101
2810.1031055894246,1203
2811.8618070978273,1138
2813.6201633795085,1115
2815.378174737636,1151
2817.1358414754536,1138
2818.893163896285,1062
2820.6501423035334,1155
2822.4067770006814,1124
2824.1630682912883,1175
2825.9190164789957,1142
2827.6746218675207,1154
2829.429884760661,1108
2831.184805462294,1096
2832.9393842763743,1149
2834.693621506936,1114
2836.4475174580916,1149
2838.201072434034,1112
2839.954286739034,1105
2841.707160677441,1138
2843.459694553685,1121
2845.2118886722724,1132
2846.96374333779,1124
2848.7152588549034,1132
2850.4664355283567,1119
2852.217273662973,1158
2853.9677735636546,1150
2855.7179355353833,1111
2857.4677598832186,1126
2859.217246912299,1126
2860.9663969278427,1150
2862.715210235146,1122
2864.4636871395846,1158
2866.211827946614,1124
2867.9596329617652,1161
2869.7071024906536,1195
2871.4542368389684,1153
2873.20103631248,1156
2874.947501217038,1149
2876.6936318585695,1140
2878.4394285430812,1178
2880.1848915766604,1117
2881.9300212654707,1105
2883.6748179157553,1137
2885.4192818338374,1142
2887.1634133261173,1113
2888.907212699077,1113
2890.6506802592744,1083
2892.393816313348,1088
2894.1366211680142,1176
2895.8790951300693,1122
2897.621238506388,1125
2899.363051603925,1120
2901.1045347297118,1133
2902.8456881908596,1114
2904.58651229456,1197
2906.327007348081,1156
2908.067173658772,1115
2909.8070115340597,1101
2911.5465212814497,1104
2913.285703208527,1158
2915.0245576229563,1086
2916.7630848324807,1148
2918.5012851449196,1108
2920.2391588681758,1092
2921.976706310227,1064
2923.7139277791334,1174
2925.4508235830313,1120
2927.187394030137,1146
2928.923639428745,1118
2930.6595600872306,1145
2932.395156314046,1124
2934.1304284177218,1134
2935.8653767068713,1127
2937.6000014901815,1065
2939.3343030764227,1129
2941.068281774442,1104
2942.8019378931644,1106
2944.5352717415976,1095
2946.2682836288236,1110
2948.0009738640065,1161
2949.7333427563885,1099
2951.465390615289,1100
2953.1971177501086,1149
2954.9285244703265,1163
2956.6596110855,1118
2958.3903779052657,1125
2960.1208252393385,1145
2961.8509533975125,1136
2963.5807626896617,1147
2965.3102534257378,1089
2967.0394259157715,1067
2968.768280469873,1111
2970.496817398232,1129
2972.2250370111146,1107
2973.952939618869,1142
2975.6805255319196,1105
2977.4077950607707,1123
2979.134748516006,1149
2980.861386208289,1188
2982.587708448359,1150
2984.313715547037,1167
2986.039407815222,1104
2987.764785563891,1168
2989.489849104102,1125
2991.2145987469908,1137
2992.9390348037705,1141
2994.6631575857346,1177
2996.3869674042576,1122
2998.1104645707887,1123
2999.83364939686,1120
3001.5565221940783,1121
3003.2790832741334,1111
3005.0013329487924,1106
3006.7232715298996,1126
3008.4448993293804,1112
3010.166216659239,1067
3011.887223831558,1106
3013.607921158498,1104
3015.3283089522993,1104
3017.0483875252826,1104
3018.7681571898443,1113
3020.4876182584626,1119
3022.2067710436927,1093
3023.9256158581707,1124
3025.644153014609,1091
3027.362382825801,1133
3029.0803056046193,1118
3030.797921664012,1140
3032.5152313170106,1130
3034.2322348767225,1115
3035.9489326563353,1118
3037.665324969115,1089
3039.3814121284063,1084
3041.097194447633,1128
3042.812672240299,1094
3044.5278458199855,1095
3046.2427155003525,1119
3047.9572815951406,1140
3049.671544418167,1118
3051.38550428333,1174
3053.0991615046073,1105
3054.812516396051,1115
3056.5255692717974,1130
3058.2383204460575,1118
3059.9507702331257,1140
3061.662918947372,1125
3063.3747669032446,1167
3065.0863144152736,1137
3066.7975617980674,1104
3068.508509366309,1151
3070.219157434767,1105
3071.9295063182844,1145
3073.639556331785,1160
3075.3493077902704,1122
3077.058761008821,1072
3078.7679163025964,1162
3080.476773986837,1103
3082.1853343768594,1107
3083.89359778806,1086
3085.6015645359153,1123
3087.3092349359786,1127
3089.016609303884,1083
3090.7236879553434,1100
3092.4304712061476,1141
3094.136959372166,1103
3095.843152769349,1121
3097.5490517137237,1079
3099.2546565213966,1140
3100.959967508554,1084
3102.66498499146,1100
3104.3697092864577,1100
3106.0741407099695,1119
3107.778279578498,1123
3109.482126208622,1095
3111.1856809170004,1129
3112.8889440203716,1133
3114.5919158355528,1110
3116.294596679439,1121
3117.996986869006,1090
3119.6990867213062,1128
3121.4008965534726,1131
3123.102416682717,1119
3124.803647426329,1140
3126.5045891016784,1149
3128.205242026213,1160
3129.90560651746,1113
3131.605682893025,1138
3133.3054714705922,1089
3135.0049725679282,1134
3136.7041865028714,1131
3138.4031135933465,1127
3140.101754157353,1130
3141.800108512971,1136
3143.498176978357,1102
3145.1959598717494,1138
3146.8934575114636,1204
3148.5906702158954,1136
3150.2875983035183,1137
3151.9842420928853,1096
3153.680601902627,1143
3155.376678051456,1122
3157.07247085816,1159
3158.767980641609,1113
3160.463207720748,1088
3162.158152414606,1117
3163.8528150422862,1122
3165.5471959229726,1131
3167.2412953759303,1133
3168.9351137204976,1131
3170.628651276098,1148
3172.3219083622307,1143
3174.014885298474,1122
3175.707582404485,1132
3177.4000000000005,1096
3179.092138404835,1141
3180.7839979388846,1153
3182.47557892212,1102
3184.166881674594,1110
3185.8579065164386,1125
3187.5486537678626,1152
3189.2391237491547,1166
3190.9293167806827,1115
3192.6192331828934,1123
3194.3088732763117,1079
3195.998237381542,1135
3197.687325819268,1106
3199.376138910251,1118
3201.064676975334,1089
3202.7529403354347,1122
3204.4409293115523,1144
3206.1286442247647,1164
3207.816085396229,1117
3209.5032531471825,1125
3211.190147798936,1131
3212.8767696728846,1116
3214.5631190905015,1072
3216.2491963733373,1080
3217.9350018430214,1105
3219.6205358212637,1101
3221.305798629851,1075
3222.990790590651,1066
3224.6755120256103,1097
3226.359963256751,1099
3228.0441446061795,1113
3229.7280563960758,1106
3231.411698948703,1114
3233.0950725863995,1076
3234.778177631587,1124
3236.461014406761,1093
3238.1435832345005,1044
3239.8258844374595,1093
3241.507918338374,1111
3243.1896852600576,1087
3244.8711855254023,1075
3246.552419457381,1132
3248.233387379042,1099
3249.914089613516,1074
3251.59452648401,1088
3253.274698313813,1118
3254.95460542629,1100
3256.6342481448855,1089
3258.313626793125,1057
3259.9927416946084,1074
3261.6715931730196,1167
3263.3501815521176,1107
3265.0285071557437,1067
3266.706570307815,1071
3268.3843713323286,1062
3270.0619105533615,1084
3271.739188295068,1107
3273.4162048816834,1109
3275.0929606375184,1118
3276.769455886966,1098
3278.445690954498,1096
3280.1216661646613,1168
3281.797381842087,1119
3283.4728383114807,1077
3285.1480358976296,1068
3286.8229749253996,1131
3288.4976557197333,1079
3290.172078605655,1125
3291.846243908266,1082
3293.5201519527463,1110
3295.193803064357,1087
3296.8671975684374,1083
3298.5403357904024,1087
3300.21321805575,1078
3301.8858446900567,1086
3303.558216018975,1062
3305.23033236824,1086
3306.9021940636603,1116
3308.57380143113,1101
3310.2451547966184,1103
3311.916254486174,1065
3313.5871008259246,1176
3315.2576941420766,1092
3316.9280347609147,1030
3318.5981230088046,1082
3320.2679592121895,1115
3321.9375436975924,1127
3323.606876791612,1076
3325.27595882093,1038
3326.944790112305,1027
3328.6133709925753,1081
3330.2817017886573,1104
3331.949782827547,1050
3333.617614436319,1090
3335.2851969421245,1066
3336.952530672199,1089
3338.619615953853,1072
3340.286453114475,1114
3341.9530424815357,1107
3343.619384382583,1089
3345.2854791452437,1088
3346.951327097224,1116
3348.6169285663073,1050
3350.2822838803577,1090
3351.947393367319,1120
3353.61225735521,1089
3355.2768761721345,1073
3356.9412501462693,1082
3358.605379605873,1106
3360.2692648792827,1091
3361.9329062949146,1087
3363.596304181263,1069
