CollectionTime,6/28/2024 2:06:06 PM
ExposureUsed,3
CalibratedSpectrum
-962.7078968117929,720
-959.9714848408522,779
-957.2358232597828,763
-954.5009119013725,774
-951.7667505983302,820
-949.0333391832855,758
-946.3006774887896,815
-943.5687653473143,856
-940.837602591253,858
-938.1071890529199,811
-935.3775245645503,818
-932.6486089583007,838
-929.9204420662485,825
-927.1930237203925,785
-924.4663537526524,816
-921.7404319948689,869
-919.0152582788041,845
-916.2908324361409,865
-913.5671542984834,865
-910.8442236973568,864
-908.1220404642074,804
-905.4006044304027,822
-902.679915427231,818
-899.959973285902,811
-897.2407778375464,786
-894.5223289132158,799
-891.8046263438832,775
-889.0876699604426,770
-886.3714595937089,782
-883.6559950744183,794
-880.9412762332282,788
-878.2273029007168,778
-875.5140749073835,753
-872.8015920836489,726
-870.0898542598545,746
-867.3788612662631,775
-864.6686129330585,767
-861.9591090903457,763
-859.2503495681506,788
-856.5423341964203,782
-853.8350628050229,805
-851.1285352237478,786
-848.4227512823054,746
-845.7177108103272,723
-843.0134136373656,756
-840.3098595928943,786
-837.6070485063082,777
-834.9049802069229,776
-832.2036545239757,799
-829.5030712866244,771
-826.8032303239481,758
-824.1041314649472,768
-821.4057745385428,770
-818.7081593735775,783
-816.0112857988148,783
-813.3151536429393,743
-810.6197627345566,773
-807.9251129021936,779
-805.2312039742981,761
-802.5380357792392,747
-799.8456081453069,745
-797.1539209007124,746
-794.462973873588,767
-791.772766891987,738
-789.083299783884,786
-786.3945723771743,743
-783.7065844996748,756
-781.0193359791231,787
-778.3328266431781,783
-775.6470563194197,789
-772.9620248353489,785
-770.2777320183878,803
-767.5941776958798,788
-764.9113616950891,746
-762.2292838432011,783
-759.5479439673222,756
-756.8673418944801,802
-754.1874774516235,810
-751.5083504656222,797
-748.8299607632671,729
-746.15230817127,781
-743.475392516264,814
-740.7992136248035,813
-738.1237713233636,818
-735.4490654383407,806
-732.7750957960521,759
-730.1018622227365,812
-727.4293645445534,848
-724.7576025875837,838
-722.0865761778291,865
-719.4162851412126,784
-716.7467293035781,833
-714.0779084906909,840
-711.409822528237,836
-708.7424712418238,819
-706.0758544569796,815
-703.4099719991541,848
-700.7448236937178,823
-698.0804093659622,858
-695.4167288411002,888
-692.7537819442656,848
-690.0915685005134,851
-687.4300883348199,912
-684.7693412720819,863
-682.1093271371178,903
-679.4500457546669,881
-676.7914969493897,919
-674.1336805458676,851
-671.4765963686034,888
-668.8202442420206,896
-666.1646239904642,884
-663.5097354382001,879
-660.8555784094151,849
-658.2021527282176,921
-655.5494582186366,933
-652.8974947046223,964
-650.2462620100463,893
-647.5957599587009,912
-644.9459883742998,937
-642.2969470804776,934
-639.6486359007902,931
-637.0010546587141,958
-634.3542031776476,904
-631.7080812809096,881
-629.0626887917401,889
-626.4180255333008,881
-623.7740913286734,902
-621.1308860008619,900
-618.4884093727904,869
-615.8466612673046,912
-613.2056415071715,902
-610.5653499150785,869
-607.9257863136347,884
-605.28695052537,868
-602.6488423727357,898
-600.0114616781036,915
-597.3748082637674,863
-594.7388819519412,890
-592.1036825647604,909
-589.4692099242818,904
-586.8354638524829,883
-584.2024441712624,889
-581.5701507024403,870
-578.9385832677575,896
-576.3077416888759,934
-573.6776257873787,869
-571.0482353847704,879
-568.4195703024757,924
-565.7916303618415,927
-563.164415384135,882
-560.5379251905453,893
-557.9121596021815,886
-555.2871184400748,916
-552.6628015251767,912
-550.0392086783606,950
-547.4163397204204,932
-544.794194472071,915
-542.1727727539491,942
-539.5520743866118,930
-536.9320991905377,987
-534.3128469861261,1016
-531.6943175936979,1033
-529.0765108334947,1042
-526.4594265256793,1078
-523.8430644903358,1175
-521.2274245474689,1349
-518.612506517005,1438
-515.9983102187913,1519
-513.3848354725959,1567
-510.77208209810846,1672
-508.16004991493924,1758
-505.5487387426199,1845
-502.9381484006032,1989
-500.3282787082628,2076
-497.71912948489364,2081
-495.1107005497117,2091
-492.5029917218539,1972
-489.8960028203786,1703
-487.28973366426493,1483
-484.68418407241325,1364
-482.07935386364494,1260
-479.47524285670266,1276
-476.87185087025,1183
-474.2691777228715,1152
-471.66722323307334,1242
-469.0659872192821,1187
-466.4654694998459,1194
-463.86566989303384,1181
-461.26658821703614,1114
-458.66822428996414,1103
-456.07057792985,1088
-453.4736489546475,1073
-450.877437182231,1088
-448.28194243039627,1048
-445.68716451686,1079
-443.09310325926003,1078
-440.49975847515555,1057
-437.9071299820263,1087
-435.31521759727354,1101
-432.72402113821954,1120
-430.13354042210767,1164
-427.5437752661022,1107
-424.95472548728867,1137
-422.36639090267386,1110
-419.7787713291855,1137
-417.1918665836721,1106
-414.60567648290385,1139
-412.0202008435715,1162
-409.4354394822874,1130
-406.8513922155845,1164
-404.26805885991723,1185
-401.685439231661,1178
-399.103533147112,1166
-396.522340422488,1176
-393.9418608739278,1118
-391.3620943174908,1105
-388.7830405691583,1054
-386.2046994448317,1029
-383.6270707603344,993
-381.05015433141045,889
-378.473949973725,806
-375.8984575028645,817
-373.32367673433623,783
-370.74960748356875,710
-368.1762495659117,667
-365.60360279663576,600
-363.03166699093265,578
-360.4604419639154,570
-357.8899275306178,548
-355.32012350599507,511
-352.7510297049233,507
-350.1826459421999,513
-347.61497203254316,495
-345.04800779059235,501
-342.4817530309082,523
-339.91620756797226,540
-337.35137121618743,482
-334.7872437898774,455
-332.22382510328725,483
-329.66111497058273,510
-327.09911320585127,515
-324.53781962310075,530
-321.9772340362607,520
-319.4173562591816,523
-316.8581861056348,512
-314.2997233893127,535
-311.7419679238294,581
-309.1849195227194,534
-306.62857799943856,497
-304.0729431673641,534
-301.51801483979375,516
-298.963792829947,511
-296.41027695096386,530
-293.85746701590574,585
-291.3053628377552,653
-288.7539642294155,546
-286.2032710037115,539
-283.65328297338897,542
-281.1039999511146,601
-278.5554217494762,602
-276.007548180983,582
-273.4603790580651,577
-270.9139141930734,581
-268.3681533982807,573
-265.8230964858798,581
-263.27874326798565,575
-260.7350935566336,602
-258.1921471637804,648
-255.6499039013039,630
-253.10836358100266,606
-250.56752601459698,612
-248.02739101372765,645
-245.48795838995704,662
-242.94922795476816,707
-240.41119951956557,764
-237.8738728956746,710
-235.33724789434166,791
-232.80132432673452,804
-230.2661020039418,891
-227.73158073697357,767
-225.19776033676033,627
-222.66464061415422,716
-220.1322213799284,747
-217.60050244477725,678
-215.06948361931552,671
-212.53916471408013,702
-210.00954553952818,781
-207.48062590603843,879
-204.9524056239104,843
-202.4248845033651,779
-199.8980623545441,743
-197.37193898751036,751
-194.84651421224817,755
-192.32178783866232,908
-189.79775967657952,834
-187.27442953574644,798
-184.7517972258321,759
-182.2298625564256,855
-179.7086253370378,811
-177.18808537710026,761
-174.66824248596583,773
-172.14909647290835,760
-169.6306471471229,809
-167.11289431772548,834
-164.59583779375328,817
-162.07947738416453,894
-159.5638128978386,939
-157.04884414357605,982
-154.53457093009854,917
-152.02099306604828,952
-149.50811035998936,931
-146.99592262040665,943
-144.48442965570587,1027
-141.97363127421409,1015
-139.46352728417958,1018
-136.95411749377126,972
-134.44540171107985,1155
-131.93737974411636,1051
-129.43005140081357,918
-126.92341648902493,1000
-124.41747481652521,1050
-121.91222619101006,1104
-119.40767042009657,1123
-116.90380731132257,1165
-114.40063667214702,1101
-111.8981583099503,1114
-109.3963720320337,1333
-106.89527764561933,1363
-104.39487495785067,1384
-101.89516377579241,1421
-99.39614390642998,1461
-96.89781515667039,1470
-94.40017733334128,1684
-91.90323024319173,1651
-89.40697369289148,1479
-86.91140748903172,1529
-84.41653143812482,1544
-81.92234534660395,1427
-79.42884902082358,1575
-76.93604226705907,1914
-74.4439248915071,1829
-71.95249670028534,1626
-69.46175749943245,1714
-66.97170709490854,1871
-64.48234529259423,2451
-61.99367189829195,1918
-59.50568671772464,1818
-57.01838955653636,2063
-54.53178022029283,2150
-52.045858514480074,2395
-49.560624244506016,2529
-47.07607721569923,2629
-44.59221723330904,2543
-42.10904410250669,2657
-39.62655762838392,3291
-37.14475761595372,4234
-34.66364387015028,4651
-32.18321619582866,5056
-29.70347439776515,5678
-27.224418280657005,7667
-24.74604764912317,11219
-22.26836230770266,17823
-19.7913620608565,27954
-17.315046712966478,35617
-14.83941606833514,37615
-12.36446993118659,65030
-9.89020810566592,65030
-7.416630395839093,65030
-4.94373660569363,65030
-2.471526539137585,65030
-6.821210263296962E-13,65030
2.47084320796705,65030
4.941003281093458,65030
7.410480415786196,65030
9.879274808531363,65030
12.347386655893956,65030
14.814816154518212,65030
17.28156350112681,65030
19.74762889252179,65030
22.21301252558385,65030
24.67771459727237,33778
27.141735304626195,12819
29.605074844762612,7881
32.06773341487792,7221
34.52971121224755,7719
36.99100843422559,7948
39.45162527824516,8442
41.91156194181792,9004
44.370818622535126,10600
46.82939551806646,12605
49.287292826160524,14932
51.74451074464503,12761
54.201049471426245,8943
56.65690920448981,6616
59.112090141899785,4964
61.56659248179983,3741
64.02041642241159,3478
66.4735621620365,3147
68.92602989905402,2324
71.37781983192338,2362
73.82893215918205,2357
76.27936707944684,2039
78.72912479141326,1966
81.17820549385567,2037
83.62660938562783,1790
86.07433666566146,1872
88.5213875329681,1833
90.96776218663751,1763
93.41346082583925,1522
95.85848364982041,1557
98.30283085790859,1735
100.7465026495089,1609
103.18949922410604,1605
105.63182078126385,1709
108.07346752062438,1633
110.51443964190923,1342
112.95473734491827,1394
115.39436082953114,1328
117.83331029570547,1494
120.27158594347827,1554
122.7091879729652,1348
125.1461165843615,1204
127.58237197794062,1157
130.01795435405518,1130
132.4528639131364,1311
134.88710085569494,1290
137.32066538231982,1382
139.75355769367923,1399
142.1857779905207,1459
144.61732647366978,1308
147.04820334403132,1334
149.47840880258934,1376
151.90794305040674,1401
154.33680628862487,1394
156.76499871846443,1581
159.19252054122433,1824
161.61937195828352,1804
164.04555317109896,1860
166.47106438120693,2093
168.89590579022217,2137
171.320077599839,2261
173.7435800118302,2583
176.16641322804742,2576
178.58857745042144,2488
181.01007288096173,2589
183.43089972175687,2781
185.85105817497413,2730
188.27054844285988,2753
190.6893707277394,2665
193.10752523201643,2719
195.5250121581745,2815
197.9418317087751,2863
200.3579840864594,2831
202.7734694939469,2777
205.18828813403627,2836
207.6024402096051,2799
210.01592592360964,2903
212.42874547908548,2897
214.84089907914665,2879
217.2523869269868,2875
219.66320922587727,2843
222.0733661791695,2852
224.48285799029293,2986
226.8916848627572,2968
229.29984700014882,3183
231.7073446061355,3077
234.11417788446204,3206
236.520347038953,3173
238.92585227351185,3264
241.33069379212054,3426
243.73487179884035,3329
246.1383864978112,3569
248.541238093252,3422
250.9434267894609,3501
253.34495279081432,3706
255.74581630176783,3678
258.1460175268563,3796
260.54555667069314,3741
262.9444339379703,3664
265.3426495334594,3628
267.7402036620107,3472
270.1370965285529,3230
272.53332833809407,3112
274.9288992957214,2956
277.32380960660055,2991
279.718059475976,2916
282.1116491091717,2778
284.5045787115897,2901
286.89684848871195,2779
289.2884586460981,2798
291.67940938938807,2782
294.0697009242996,2802
296.4593334566299,2787
298.84830719225477,2695
301.23662233712923,2773
303.6242790972866,2686
306.01127767884,2790
308.39761828798066,2553
310.78330113097934,2546
313.16832641418534,2525
315.5526943440269,2525
317.9364051270112,2525
320.3194589697242,2474
322.70185607883093,2453
325.0835966610754,2438
327.4646809232805,2376
329.8451090723478,2419
332.2248813152577,2381
334.6039978590701,2291
336.9824589109231,2309
339.36026467803447,2376
341.7374153677,2296
344.113911187295,2264
346.48975234427337,2210
348.8649390461686,2304
351.2394715005918,2252
353.61334991523415,2232
355.9865744978655,2307
358.35914545633375,2214
360.73106299856715,2249
363.10232733257146,2236
365.47293866643247,2269
367.84289720831396,2196
370.2122031664593,2159
372.5808567491905,2202
374.9488581649083,2194
377.31620762209275,2148
379.6829053293021,2062
382.0489514951745,2108
384.4143463284262,2129
386.7790900378528,2115
389.14318283232853,2084
391.50662492080653,2023
393.86941651231916,2111
396.23155781597745,2079
398.5930490409713,2103
400.9538903965696,2085
403.3140820921202,2055
405.6736243370498,2095
408.03251734086336,2050
410.3907613131465,2123
412.74835646356166,2114
415.10530300185144,1977
417.4616011378372,2159
419.81725108141893,2120
422.1722530425758,2117
424.5266072313656,2054
426.880313857925,1986
429.2333731324701,2035
431.58578526529516,2023
433.9375504667738,2052
436.2886689473588,2003
438.63914091758113,2042
440.9889665880513,1997
443.33814616945835,2087
445.68667987257015,2030
448.03456790823395,2050
450.3818104873759,2053
452.72840782100013,1879
455.07436012019105,1992
457.41966759611057,2044
459.7643304600007,1936
462.10834892318155,1991
464.4517231970525,2046
466.79445349309174,2072
469.1365400228566,2017
471.4779829979826,2015
473.81878263018564,2064
476.15893913125876,2055
478.4984527130747,2085
480.8373235875855,2121
483.17555196682144,2168
485.5131380628919,2228
487.8500820879857,2384
490.1863842543697,2473
492.52204477439034,2470
494.8570638604725,2804
497.1914417251204,3114
499.52517858091653,3349
501.85827464052306,3593
504.19073011668036,3569
506.5225452222086,3660
508.85372017000566,3616
511.18425517304956,3499
513.514150444396,3663
515.8434061971808,4037
518.1720226446176,4530
520.4999999999999,4563
522.8273384766991,4887
525.1540382881666,5005
527.480099647932,4895
529.8055227696037,3760
532.1303078668694,2764
534.454455153496,2255
536.777964843328,2077
539.1008371502907,2015
541.4230722883866,1979
543.744670471698,2028
546.0656319143858,1924
548.3859568306899,1905
550.7056454349294,1936
553.0246979415016,1891
555.3431145648834,1860
557.6608955196306,1835
559.978041020377,1987
562.2945512818363,1961
564.6104265188006,1792
566.9256669461412,1837
569.2402727788082,1770
571.5542442318302,1831
573.8675815203156,1902
576.1802848594508,1860
578.4923544645015,1817
580.8037905508126,1815
583.114593333807,1821
585.4247630289875,1810
587.7342998519354,1816
590.0432040183106,1823
592.3514757438526,1777
594.6591152443794,1786
596.9661227357875,1782
599.2724984340531,1859
601.578242555231,1884
603.8833553154542,1908
606.1878369309362,1875
608.4916876179676,1829
610.7949075929192,1884
613.0974970722403,1847
615.3994562724587,1865
617.7007854101818,1832
620.0014847020951,1900
622.3015543649641,1836
624.6009946156324,1845
626.8998056710224,1808
629.1979877481361,1899
631.4955410640538,1907
633.7924658359349,1886
636.0887622810175,1851
638.3844306166192,1870
640.6794710601358,1908
642.9738838290426,1893
645.2676691408932,1813
647.5608272133207,1926
649.853358264037,1905
652.1452625108324,1930
654.4365401715764,1918
656.7271914642178,1925
659.0172166067838,1962
661.3066158173809,1897
663.5953893141935,1886
665.8835373154867,1928
668.1710600396028,1943
670.4579577049639,1954
672.7442305300709,1922
675.0298787335033,1934
677.3149025339197,1954
679.599302150058,1965
681.8830778007342,1910
684.1662297048437,1934
686.4487580813608,1912
688.7306631493387,1979
691.0119451279091,1914
693.2926042362834,1907
695.5726406937516,1878
697.8520547196814,2037
700.1308465335215,1924
702.4090163547982,1906
704.6865644031171,1899
706.9634908981619,1880
709.2397960596965,1866
711.5154801075631,1922
713.7905432616823,1925
716.0649857420548,1927
718.3388077687592,1946
720.612009561953,1993
722.8845913418733,1845
725.1565533288352,1915
727.427895743234,1805
729.6986188055427,1921
731.9687227363137,1820
734.238207756178,1885
736.5070740858458,1917
738.7753219461066,1834
741.0429515578281,1928
743.3099631419569,1854
745.5763569195191,1906
747.8421331116193,1868
750.1072919394409,1882
752.3718336242467,1871
754.6357583873777,1871
756.8990664502545,1940
759.1617580343765,1855
761.423833361321,1849
763.6852926527457,1875
765.9461361303862,1875
768.206364016058,1924
770.4659765316536,1904
772.7249738991469,1927
774.9833563405886,1916
777.2411240781092,1984
779.4982773339183,1950
781.7548163303044,2012
784.010741289634,1926
786.2660524343538,1985
788.5207499869881,1857
790.7748341701416,1985
793.0283052064964,1970
795.2811633188143,1925
797.5334087299362,1958
799.7850416627813,1997
802.0360623403484,1927
804.2864709857143,1952
806.5362678220353,1929
808.7854530725468,1971
811.0340269605625,2009
813.2819897094754,1954
815.5293415427581,1954
817.77608268396,1901
820.0222133567116,1957
822.2677337847211,1964
824.5126441917765,1861
826.7569448017433,1897
829.0006358385675,1968
831.2437175262731,1906
833.4861900889629,1906
835.7280537508192,1885
837.9693087361026,1911
840.2099552691533,1907
842.4499935743896,1928
844.689423876309,1916
846.9282463994886,1934
849.1664613685833,1922
851.4040690083276,1878
853.6410695435349,1886
855.877463199097,1908
858.1132501999847,1869
860.3484307712487,1955
862.5830051380175,1950
864.8169735254988,1917
867.0503361589791,1890
869.2830932638243,1914
871.5152450654786,1964
873.7467917894654,1983
875.9777336613873,1889
878.2080709069252,1924
880.4378037518389,1938
882.666932421968,2028
884.8954571432301,1978
887.1233781416219,1932
889.3506956432192,1936
891.5774098741766,1957
893.803521060728,2017
896.0290294291852,1988
898.2539352059397,2028
900.4782386174619,2055
902.7019398903011,1992
904.925039251085,2005
907.147536926521,1941
909.3694331433943,1965
911.59072812857,1956
913.8114221089921,1936
916.0315153116827,1940
918.2510079637437,1960
920.4699002923547,1947
922.6881925247761,1948
924.905884888345,1960
927.1229776104793,1934
929.3394709186747,1929
931.555365040506,1969
933.7706602036275,1956
935.9853566357709,1978
938.1994545647489,1946
940.4129542184515,2082
942.6258558248488,1946
944.8381596119883,2007
947.0498658079974,1902
949.2609746410825,1942
951.4714863395287,1946
953.6814011316998,1960
955.8907192460387,1981
958.0994409110671,2002
960.3075663553858,1938
962.5150958076741,1943
964.7220294966913,1916
966.928367651274,1868
969.1341105003388,1865
971.3392582728806,1861
973.5438111979742,1864
975.747769504772,1914
977.9511334225061,1865
980.153903180487,1871
982.3560790081052,1844
984.5576611348289,1770
986.7586497902058,1871
988.9590452038618,1795
991.158847605503,1730
993.3580572249133,1714
995.5566742919558,1687
997.7546990365728,1693
999.952131688785,1731
1002.1489724786926,1716
1004.3452216364743,1671
1006.5408793923874,1632
1008.7359459767691,1598
1010.9304216200343,1603
1013.1243065526781,1571
1015.3176010052733,1650
1017.510305208472,1592
1019.7024193930064,1626
1021.8939437896848,1588
1024.0848786293977,1610
1026.2752241431122,1582
1028.4649805618747,1601
1030.6541481168115,1627
1032.842727039127,1644
1035.0307175601051,1583
1037.2181199111074,1605
1039.4049343235752,1576
1041.591161029029,1515
1043.7768002590683,1599
1045.9618522453698,1547
1048.1463172196918,1551
1050.3301954138697,1598
1052.513487059818,1574
1054.69619238953,1558
1056.8783116350783,1529
1059.0598450286152,1516
1061.2407928023704,1516
1063.4211551886528,1569
1065.6009324198508,1497
1067.780124728432,1518
1069.9587323469414,1518
1072.1367555080046,1500
1074.314194444325,1541
1076.4910493886855,1524
1078.667320573947,1546
1080.843008233051,1534
1083.0181125990161,1553
1085.1926339049414,1462
1087.3665723840027,1512
1089.5399282694575,1466
1091.7127017946405,1507
1093.8848931929647,1442
1096.0565026979243,1442
1098.2275305430899,1506
1100.3979769621128,1455
1102.567842188722,1484
1104.737126456726,1487
1106.9058300000124,1432
1109.0739530525475,1470
1111.2414958483764,1470
1113.4084586216231,1418
1115.5748416064907,1466
1117.7406450372605,1420
1119.9058691482942,1419
1122.0705141740304,1522
1124.2345803489884,1407
1126.3980679077658,1460
1128.5609770850388,1374
1130.7233081155623,1373
1132.8850612341707,1419
1135.0462366757774,1402
1137.2068346753745,1379
1139.3668554680326,1368
1141.526299288901,1442
1143.68516637321,1498
1145.8434569562655,1428
1148.001171273455,1402
1150.158309560244,1373
1152.3148720521767,1430
1154.470858984876,1431
1156.626270594044,1407
1158.7811071154629,1416
1160.9353687849912,1403
1163.089055838569,1418
1165.242168512213,1445
1167.3947070420209,1366
1169.5466716641677,1429
1171.6980626149075,1440
1173.8488801305748,1375
1175.9991244475814,1419
1178.1487958024186,1463
1180.2978944316555,1416
1182.4464205719428,1389
1184.5943744600072,1476
1186.7417563326567,1377
1188.8885664267755,1488
1191.0348049793297,1418
1193.1804722273619,1384
1195.325568407995,1394
1197.4700937584303,1424
1199.614048515948,1471
1201.7574329179074,1437
1203.900247201746,1414
1206.042491604982,1355
1208.1841663652099,1391
1210.3252717201053,1422
1212.465807907422,1450
1214.6057751649923,1421
1216.7451737307279,1412
1218.8840038426192,1466
1221.0222657387353,1453
1223.1599596572241,1427
1225.2970858363137,1478
1227.4336445143094,1404
1229.5696359295966,1483
1231.705060320639,1418
1233.8399179259786,1423
1235.9742089842384,1420
1238.107933734118,1484
1240.2410924143974,1416
1242.373685263935,1451
1244.5057125216676,1429
1246.6371744266116,1423
1248.7680712178621,1403
1250.898403134593,1431
1253.028170416058,1416
1255.1573733015875,1425
1257.2860120305932,1497
1259.4140868425648,1396
1261.54159797707,1460
1263.6685456737569,1447
1265.7949301723515,1482
1267.9207517126597,1480
1270.046010534565,1486
1272.1707068780306,1447
1274.2948409830983,1482
1276.4184130898889,1484
1278.541423438603,1507
1280.6638722695184,1513
1282.785759822993,1566
1284.9070863394636,1499
1287.0278520594447,1521
1289.1480572235314,1556
1291.2677020723963,1512
1293.3867868467923,1578
1295.5053117875495,1562
1297.623277135579,1592
1299.740683131868,1548
1301.8575300174857,1614
1303.973818033578,1586
1306.0895474213703,1523
1308.2047184221678,1598
1310.3193312773528,1515
1312.4333862283888,1525
1314.5468835168163,1568
1316.659823384255,1580
1318.7722060724045,1642
1320.8840318230418,1566
1322.9953008780249,1618
1325.1060134792888,1614
1327.2161698688478,1652
1329.3257702887959,1606
1331.4348149813054,1566
1333.5433041886276,1580
1335.6512381530933,1562
1337.7586171171101,1553
1339.8654413231675,1579
1341.9717110138317,1579
1344.0774264317488,1616
1346.1825878196432,1567
1348.2871954203192,1518
1350.3912494766587,1544
1352.4947502316231,1553
1354.5976979282532,1537
1356.7000928096686,1577
1358.8019351190665,1561
1360.9032250997243,1586
1363.0039629949988,1620
1365.1041490483235,1575
1367.2037835032133,1547
1369.3028666032606,1566
1371.401398592137,1562
1373.4993797135926,1587
1375.5968102114575,1590
1377.6936903296396,1544
1379.7900203121262,1516
1381.8858004029835,1579
1383.9810308463561,1562
1386.075711886469,1574
1388.1698437676241,1599
1390.2634267342032,1498
1392.356461030667,1566
1394.4489469015557,1566
1396.5408845914872,1542
1398.6322743451592,1677
1400.7231164073469,1633
1402.813411022907,1619
1404.903158436773,1627
1406.9923588939578,1659
1409.0810126395531,1583
1411.1691199187303,1683
1413.2566809767386,1639
1415.343696058907,1656
1417.4301654106425,1672
1419.5160892774315,1678
1421.6014679048399,1704
1423.6863015385125,1674
1425.7705904241707,1703
1427.8543348076178,1709
1429.9375349347342,1813
1432.0201910514802,1786
1434.102303403894,1702
1436.1838722380944,1728
1438.2648978002767,1677
1440.3453803367174,1795
1442.4253200937692,1807
1444.5047173178677,1812
1446.5835722555234,1871
1448.6618851533285,1998
1450.739656257952,1906
1452.8168858161434,1951
1454.8935740747306,1973
1456.96972128062,1931
1459.045327680797,2011
1461.120393522327,1945
1463.1949190523528,2054
1465.2689045180973,2137
1467.3423501668608,2135
1469.415256246024,2120
1471.4876230030463,2160
1473.559450685465,2228
1475.6307395408976,2191
1477.7014898170391,2225
1479.771701761665,2338
1481.8413756226287,2333
1483.9105116478618,2473
1485.9791100853772,2409
1488.0471711832643,2513
1490.1146951896926,2481
1492.1816823529098,2559
1494.2481329212433,2516
1496.3140471430984,2468
1498.3794252669609,2568
1500.4442675413939,2576
1502.5085742150404,2535
1504.572345536622,2675
1506.6355817549388,2567
1508.6982831188702,2598
1510.7604498773744,2597
1512.8220822794883,2602
1514.8831805743293,2658
1516.9437450110909,2671
1519.003775839048,2750
1521.0632733075522,2759
1523.1222376660367,2788
1525.1806691640113,2772
1527.2385680510652,2819
1529.2959345768668,2874
1531.3527689911643,2821
1533.4090715437833,2844
1535.4648424846291,2912
1537.5200820636855,2894
1539.5747905310159,2967
1541.6289681367616,3021
1543.6826151311434,3013
1545.7357317644614,3088
1547.7883182870937,3010
1549.8403749494987,3082
1551.8919020022113,3091
1553.9428996958477,3173
1555.9933682811015,3356
1558.0433080087469,3422
1560.0927191296346,3390
1562.1416018946961,3408
1564.1899565549415,3432
1566.2377833614592,3395
1568.2850825654164,3326
1570.3318544180606,3284
1572.3780991707158,3231
1574.423817074788,3157
1576.4690083817595,3129
1578.5136733431923,2851
1580.5578122107272,2721
1582.601425236085,2574
1584.6445126710646,2517
1586.6870747675434,2469
1588.7291117774776,2302
1590.7706239529034,2281
1592.8116115459347,2228
1594.8520748087658,2165
1596.8920139936686,2021
1598.9314293529933,2007
1600.9703211391711,1963
1603.008689604711,1986
1605.0465350022005,1806
1607.0838575843068,1808
1609.1206576037753,1822
1611.1569353134305,1727
1613.1926909661765,1704
1615.2279248149953,1724
1617.2626371129481,1657
1619.2968281131757,1652
1621.3304980688963,1622
1623.3636472334088,1668
1625.39627586009,1577
1627.428384202396,1606
1629.459972513861,1647
1631.4910410480993,1561
1633.5215900588028,1556
1635.551619799744,1478
1637.5811305247717,1536
1639.6101224878166,1549
1641.6385959428862,1527
1643.6665511440683,1476
1645.693988345528,1465
1647.7209078015112,1524
1649.7473097663405,1472
1651.7731944944203,1520
1653.7985622402307,1495
1655.823413258333,1546
1657.847747803366,1484
1659.8715661300494,1438
1661.8948684931793,1491
1663.9176551476316,1407
1665.9399263483624,1462
1667.9616823504057,1482
1669.982923408873,1383
1672.0036497789574,1475
1674.0238617159293,1456
1676.043559475138,1426
1678.0627433120121,1457
1680.081413482059,1432
1682.0995702408654,1434
1684.117213844096,1408
1686.134344547495,1456
1688.1509626068864,1412
1690.1670682781705,1452
1692.182661817329,1412
1694.1977434804217,1451
1696.2123135235875,1444
1698.226372203043,1366
1700.2399197750851,1427
1702.2529564960905,1411
1704.2654826225112,1398
1706.277498410882,1443
1708.2890041178139,1445
1710.2999999999988,1465
1712.3104863142066,1438
1714.3204633172854,1382
1716.329931266163,1377
1718.3388904178469,1443
1720.3473410294214,1378
1722.3552833580516,1424
1724.3627176609807,1403
1726.3696441955308,1375
1728.3760632191033,1383
1730.3819749891782,1414
1732.3873797633146,1356
1734.3922777991502,1374
1736.3966693544012,1382
1738.4005546868639,1349
1740.4039340544127,1331
1742.406807715001,1328
1744.4091759266616,1388
1746.4110389475054,1329
1748.4123970357223,1347
1750.413250449582,1369
1752.4135994474318,1376
1754.4134442876993,1319
1756.4127852288902,1340
1758.4116225295893,1423
1760.4099564484595,1376
1762.407787244244,1363
1764.405115175764,1349
1766.4019405019203,1334
1768.3982634816916,1315
1770.3940843741357,1321
1772.3894034383907,1344
1774.3842209336717,1280
1776.378537119274,1272
1778.372352254571,1318
1780.3656665990156,1294
1782.3584804121397,1321
1784.3507939535534,1284
1786.3426074829463,1288
1788.3339212600863,1305
1790.3247355448211,1321
1792.3150505970766,1304
1794.3048666768573,1278
1796.2941840442477,1282
1798.2830029594106,1305
1800.2713236825884,1310
1802.2591464741004,1309
1804.2464715943465,1338
1806.2332993038058,1296
1808.2196298630352,1335
1810.2054635326708,1277
1812.190800573428,1260
1814.175641246101,1258
1816.1599858115628,1328
1818.1438345307652,1284
1820.127187664738,1283
1822.1100454745924,1304
1824.092408221516,1338
1826.0742761667766,1280
1828.055649571721,1242
1830.0365286977735,1249
1832.0169138064398,1366
1833.9968051593014,1323
1835.9762030180214,1263
1837.9551076443408,1278
1839.9335193000788,1282
1841.9114382471344,1258
1843.888864747485,1237
1845.8657990631878,1247
1847.842241456378,1286
1849.8181921892697,1240
1851.7936515241558,1293
1853.7686197234098,1270
1855.7430970494815,1304
1857.7170837649014,1236
1859.6905801322787,1274
1861.6635864143004,1232
1863.6361028737338,1283
1865.608129773424,1282
1867.5796673762961,1274
1869.5507159453537,1283
1871.521275743678,1315
1873.4913470344313,1353
1875.4609300808534,1315
1877.4300251462632,1275
1879.3986324940588,1329
1881.366752387717,1358
1883.3343850907936,1278
1885.3015308669228,1293
1887.268189979819,1260
1889.2343626932739,1258
1891.2000492711595,1272
1893.1652499774254,1294
1895.1299650761011,1254
1897.0941948312952,1290
1899.0579395071945,1285
1901.0211993680641,1318
1902.98397467825,1281
1904.9462657021745,1362
1906.9080727043415,1293
1908.869395949332,1300
1910.8302357018065,1314
1912.790592226504,1271
1914.7504657882428,1275
1916.7098566519212,1365
1918.6687650825133,1282
1920.6271913450764,1295
1922.5851357047422,1282
1924.5425984267245,1301
1926.499579776314,1244
1928.4560800188833,1280
1930.4120994198802,1319
1932.367638244833,1342
1934.32269675935,1318
1936.2772752291175,1330
1938.231373919899,1289
1940.1849930975404,1280
1942.1381330279637,1354
1944.0907939771696,1319
1946.0429762112412,1354
1947.9946799963363,1317
1949.9459055986945,1357
1951.896653284633,1292
1953.8469233205478,1283
1955.7967159729142,1309
1957.7460315082863,1285
1959.6948701932974,1265
1961.6432322946594,1251
1963.5911180791632,1317
1965.5385278136787,1249
1967.4854617651545,1308
1969.4319202006182,1249
1971.377903387176,1302
1973.3234115920136,1264
1975.268445082395,1289
1977.2130041256642,1290
1979.1570889892423,1251
1981.1006999406304,1243
1983.04383724741,1269
1984.986501177238,1278
1986.928691997853,1275
1988.8704099770712,1248
1990.811655382789,1271
1992.7524284829801,1283
1994.692729545698,1284
1996.6325588390755,1279
1998.5719166313224,1271
2000.5108031907307,1265
2002.4492187856677,1307
2004.387163684583,1250
2006.3246381560011,1277
2008.2616424685298,1269
2010.1981768908527,1238
2012.1342416917332,1228
2014.069837140014,1225
2016.0049635046162,1267
2017.9396210545406,1240
2019.8738100588666,1261
2021.8075307867502,1296
2023.740783507431,1260
2025.6735684902228,1228
2027.6058860045214,1287
2029.5377363198004,1214
2031.4691197056118,1229
2033.4000364315875,1243
2035.3304867674374,1214
2037.260470982952,1237
2039.189989347998,1243
2041.1190421325232,1275
2043.047629606554,1295
2044.9757520401945,1284
2046.9034097036288,1232
2048.8306028671195,1245
2050.7573318010086,1221
2052.683596775716,1250
2054.609398061742,1261
2056.5347359296647,1228
2058.4596106501403,1240
2060.384022493906,1212
2062.3079717317764,1261
2064.231458634646,1256
2066.1544834734873,1241
2068.077046519352,1285
2069.99914804337,1211
2071.9207883167524,1268
2073.8419676107865,1264
2075.7626861968406,1221
2077.6829443463607,1276
2079.6027423308715,1237
2081.522080421977,1289
2083.440958891362,1229
2085.359378010786,1267
2087.2773380520907,1207
2089.194839287196,1230
2091.111881988101,1228
2093.0284664268825,1222
2094.9445928756973,1215
2096.86026160678,1307
2098.775472892446,1268
2100.690227005088,1227
2102.604524217178,1241
2104.5183648012676,1242
2106.431749029985,1150
2108.34467717604,1238
2110.2571495122206,1254
2112.169166311393,1275
2114.080727846503,1278
2115.9918343905747,1255
2117.902486216711,1240
2119.8126835980956,1229
2121.722426807987,1299
2123.6317161197285,1212
2125.5405518067364,1286
2127.448934142509,1273
2129.356863400624,1218
2131.264339854737,1187
2133.1713637785815,1283
2135.077935445972,1219
2136.9840551308002,1235
2138.889723107037,1272
2140.7949396487334,1232
2142.699705030018,1266
2144.6040195250994,1208
2146.507883408264,1279
2148.4112969538774,1253
2150.3142604363848,1239
2152.2167741303097,1217
2154.1188383102535,1242
2156.0204532508997,1249
2157.9216192270064,1274
2159.822336513414,1244
2161.7226053850413,1271
2163.622426116884,1250
2165.5217989840185,1274
2167.4207242616,1226
2169.319202224862,1238
2171.2172331491165,1220
2173.1148173097563,1285
2175.0119549822507,1251
2176.90864644215,1241
2178.8048919650823,1246
2180.7006918267534,1230
2182.596046302952,1193
2184.4909556695407,1256
2186.3854202024645,1296
2188.279440177746,1222
2190.173015871487,1208
2192.066147559868,1218
2193.958835519149,1259
2195.851080025667,1239
2197.7428813558417,1230
2199.6342397861667,1204
2201.5251555932186,1236
2203.415629053651,1279
2205.3056604441986,1262
2207.19525004167,1249
2209.084398122958,1236
2210.9731049650327,1271
2212.861370844941,1233
2214.749196039812,1218
2216.636580826851,1272
2218.523525483344,1294
2220.410030286655,1270
2222.296095514226,1258
2224.1817214435805,1260
2226.066908352319,1250
2227.951656518121,1278
2229.835966218746,1252
2231.71983773203,1244
2233.6032713358913,1264
2235.486267308324,1251
2237.3688259274036,1295
2239.2509474712824,1285
2241.132632218193,1298
2243.013880446447,1280
2244.8946924344323,1252
2246.7750684606203,1218
2248.6550088035574,1244
2250.534513741871,1216
2252.413583554265,1225
2254.292218519526,1260
2256.170418916517,1315
2258.0481850241786,1267
2259.925517121534,1240
2261.8024154876825,1276
2263.678880401803,1256
2265.5549121431536,1243
2267.430510991071,1268
2269.305677224971,1274
2271.180411124348,1232
2273.0547129687766,1244
2274.9285830379076,1223
2276.8020216114737,1290
2278.6750289692845,1330
2280.5476053912294,1317
2282.4197511572766,1248
2284.2914665474727,1243
2286.162751841943,1220
2288.0336073208937,1209
2289.904033264608,1215
2291.774029953448,1202
2293.6435976678554,1247
2295.5127366883517,1235
2297.381447295534,1220
2299.2497297700825,1235
2301.1175843927526,1248
2302.9850114443825,1235
2304.852011205885,1212
2306.7185839582553,1266
2308.5847299825664,1274
2310.4504495599676,1237
2312.3157429716925,1248
2314.1806104990483,1264
2316.0450524234247,1227
2317.9090690262888,1256
2319.772660589186,1246
2321.635827393742,1232
2323.498569721661,1274
2325.3608878547248,1297
2327.2227820747967,1322
2329.0842526638157,1302
2330.945299903803,1233
2332.805924076857,1305
2334.6661254651535,1230
2336.525904350951,1301
2338.3852610165827,1261
2340.244195744464,1308
2342.102708817088,1246
2343.9608005170253,1249
2345.8184711269287,1243
2347.675720929526,1266
2349.532550207628,1308
2351.38895924412,1258
2353.24494832197,1336
2355.100517724223,1297
2356.955667734004,1315
2358.810398634514,1261
2360.664710709037,1315
2362.5186042409337,1285
2364.3720795136437,1252
2366.225136810686,1323
2368.0777764156583,1308
2369.929998612237,1345
2371.7818036841777,1316
2373.633191915315,1290
2375.484163589562,1320
2377.3347189909114,1282
2379.184858403434,1305
2381.03458211128,1304
2382.8838903986775,1300
2384.732783549936,1314
2386.5812618494406,1289
2388.4293255816588,1317
2390.2769750311327,1271
2392.1242104824883,1325
2393.971032220427,1332
2395.8174405297295,1261
2397.6634356952563,1299
2399.509018001947,1350
2401.3541877348193,1297
2403.1989451789705,1271
2405.043290619576,1279
2406.8872243418905,1292
2408.730746631247,1326
2410.5738577730594,1256
2412.4165580528183,1283
2414.258847756095,1303
2416.100727168537,1319
2417.9421965758734,1295
2419.783256263912,1296
2421.623906518538,1324
2423.4641476257157,1316
2425.303979871491,1370
2427.143403541984,1313
2428.9824189233977,1304
2430.821026302012,1385
2432.6592259641866,1353
2434.497018196361,1340
2436.33440328505,1278
2438.171381516851,1354
2440.00795317844,1398
2441.844118556569,1321
2443.6798779380724,1344
2445.5152316098606,1353
2447.3501798589255,1243
2449.1847229723357,1339
2451.0188612372403,1275
2452.8525949408663,1303
2454.6859243705203,1309
2456.518849813587,1312
2458.3513715575314,1352
2460.183489889895,1282
2462.015205098301,1308
2463.8465174704493,1361
2465.67742729412,1381
2467.5079348571717,1311
2469.338040447542,1267
2471.1677443532476,1346
2472.9970468623833,1312
2474.825948263123,1339
2476.6544488437207,1372
2478.482548892508,1344
2480.310248697896,1322
2482.137548548374,1370
2483.9644487325118,1340
2485.790949538956,1369
2487.617051256433,1305
2489.44275417375,1359
2491.26805857979,1328
2493.0929647635157,1388
2494.917473013971,1304
2496.741583620276,1346
2498.5652968716304,1374
2500.3886130573137,1329
2502.2115324666834,1421
2504.0340553891765,1338
2505.856182114308,1354
2507.6779129316733,1315
2509.499248130945,1319
2511.3201880018764,1314
2513.140732834298,1363
2514.9608829181198,1412
2516.780638543331,1338
2518.6,1321
2520.418967578273,1370
2522.237541568376,1391
2524.0557222606144,1337
2525.8735099453706,1387
2527.6909049131086,1428
2529.507907454368,1394
2531.32451785977,1366
2533.140736420014,1408
2534.9565634258774,1337
2536.771999168218,1396
2538.5870439379714,1460
2540.4016980261526,1380
2542.2159617238544,1460
2544.02983532225,1389
2545.8433191125914,1463
2547.656413386209,1434
2549.4691184345115,1463
2551.2814345489874,1449
2553.093362021204,1501
2554.904901142808,1440
2556.716052205523,1485
2558.526815501153,1493
2560.3371913215824,1491
2562.147179958771,1509
2563.956781704761,1473
2565.7659968516705,1463
2567.5748256916986,1491
2569.3832685171224,1527
2571.1913256202984,1470
2572.9989972936614,1522
2574.806283829725,1489
2576.613185521084,1556
2578.4197026604074,1501
2580.2258355404483,1618
2582.031584454035,1518
2583.836949694077,1576
2585.6419315535613,1588
2587.4465303255533,1560
2589.2507463032002,1541
2591.0545797797245,1573
2592.8580310484303,1574
2594.6611004026995,1557
2596.463788135992,1617
2598.266094541849,1615
2600.0680199138874,1553
2601.869564545807,1555
2603.670728731383,1549
2605.4715127644704,1587
2607.2719169390048,1590
2609.071941548998,1601
2610.8715868885433,1606
2612.670853251811,1606
2614.469740933052,1600
2616.268250226594,1565
2618.0663814268455,1631
2619.864134828292,1600
2621.6615107255006,1617
2623.458509413115,1616
2625.2551311858597,1491
2627.0513763385347,1552
2628.8472451660223,1524
2630.6427379632833,1557
2632.4378550253564,1509
2634.232596647359,1543
2636.026963124488,1498
2637.8209547520187,1480
2639.6145718253065,1488
2641.407814639785,1528
2643.200683490966,1487
2644.9931786744414,1496
2646.7853004858807,1486
2648.577049221034,1464
2650.3684251757277,1426
2652.1594286458712,1451
2653.9500599274484,1455
2655.740319316525,1471
2657.5302071092437,1424
2659.3197236018286,1415
2661.10886909058,1409
2662.8976438718782,1432
2664.686048242183,1417
2666.4740824980327,1390
2668.2617469360443,1343
2670.0490418529134,1374
2671.8359675454153,1338
2673.622524310403,1330
2675.408712444811,1299
2677.1945322456495,1314
2678.979984010009,1341
2680.76506803506,1373
2682.5497846180497,1324
2684.334134056306,1307
2686.1181166472343,1357
2687.9017326883213,1358
2689.6849824771293,1311
2691.4678663113013,1270
2693.2503844885596,1273
2695.032537306705,1296
2696.8143250636167,1284
2698.5957480572542,1255
2700.3768065856534,1303
2702.1575009469316,1338
2703.937831439283,1286
2705.717798360982,1296
2707.4974020103837,1308
2709.276642685917,1281
2711.055520686095,1286
2712.834036309506,1276
2714.612189854819,1311
2716.389981620782,1288
2718.1674119062204,1282
2719.944481010041,1265
2721.721189231226,1263
2723.4975368688415,1290
2725.273524222027,1239
2727.0491515900053,1249
2728.824419272075,1229
2730.5993275676146,1210
2732.3738767760838,1265
2734.148067197016,1301
2735.921899130031,1300
2737.6953728748194,1258
2739.468488731156,1213
2741.2412469988926,1256
2743.0136479779617,1243
2744.785691968372,1249
2746.5573792702116,1224
2748.3287101836504,1261
2750.099685008934,1275
2751.870304046388,1292
2753.640567596418,1294
2755.4104759595057,1242
2757.1800294362156,1197
2758.949228327187,1220
2760.7180729331412,1266
2762.486563554877,1234
2764.254700493272,1256
2766.022484049284,1225
2767.789914523947,1238
2769.5569922183786,1232
2771.3237174337705,1271
2773.090090471394,1236
2774.8561116326036,1224
2776.6217812188274,1202
2778.3870995315756,1226
2780.1520668724356,1242
2781.9166835430747,1231
2783.6809498452394,1246
2785.444866080754,1205
2787.2084325515225,1175
2788.971649559527,1258
2790.73451740683,1220
2792.4970363955713,1253
2794.2592068279705,1235
2796.0210290063264,1220
2797.7825032330147,1257
2799.543629810493,1224
2801.304409041296,1262
2803.0648412280366,1198
2804.8249266734088,1217
2806.5846656801846,1225
2808.344058551212,1234
2810.1031055894246,1215
2811.8618070978273,1240
2813.6201633795085,1222
2815.378174737636,1191
2817.1358414754536,1221
2818.893163896285,1235
2820.6501423035334,1195
2822.4067770006814,1255
2824.1630682912883,1260
2825.9190164789957,1224
2827.6746218675207,1246
2829.429884760661,1253
2831.184805462294,1225
2832.9393842763743,1280
2834.693621506936,1262
2836.4475174580916,1241
2838.201072434034,1244
2839.954286739034,1227
2841.707160677441,1217
2843.459694553685,1226
2845.2118886722724,1223
2846.96374333779,1240
2848.7152588549034,1212
2850.4664355283567,1272
2852.217273662973,1228
2853.9677735636546,1267
2855.7179355353833,1225
2857.4677598832186,1290
2859.217246912299,1251
2860.9663969278427,1264
2862.715210235146,1210
2864.4636871395846,1226
2866.211827946614,1282
2867.9596329617652,1233
2869.7071024906536,1241
2871.4542368389684,1169
2873.20103631248,1272
2874.947501217038,1216
2876.6936318585695,1231
2878.4394285430812,1222
2880.1848915766604,1232
2881.9300212654707,1188
2883.6748179157553,1247
2885.4192818338374,1254
2887.1634133261173,1236
2888.907212699077,1257
2890.6506802592744,1210
2892.393816313348,1257
2894.1366211680142,1258
2895.8790951300693,1242
2897.621238506388,1246
2899.363051603925,1213
2901.1045347297118,1245
2902.8456881908596,1212
2904.58651229456,1221
2906.327007348081,1258
2908.067173658772,1225
2909.8070115340597,1226
2911.5465212814497,1170
2913.285703208527,1213
2915.0245576229563,1196
2916.7630848324807,1186
2918.5012851449196,1210
2920.2391588681758,1199
2921.976706310227,1267
2923.7139277791334,1235
2925.4508235830313,1234
2927.187394030137,1235
2928.923639428745,1224
2930.6595600872306,1222
2932.395156314046,1175
2934.1304284177218,1248
2935.8653767068713,1245
2937.6000014901815,1238
2939.3343030764227,1249
2941.068281774442,1216
2942.8019378931644,1230
2944.5352717415976,1234
2946.2682836288236,1207
2948.0009738640065,1224
2949.7333427563885,1201
2951.465390615289,1150
2953.1971177501086,1217
2954.9285244703265,1233
2956.6596110855,1248
2958.3903779052657,1222
2960.1208252393385,1230
2961.8509533975125,1206
2963.5807626896617,1222
2965.3102534257378,1229
2967.0394259157715,1264
2968.768280469873,1203
2970.496817398232,1197
2972.2250370111146,1207
2973.952939618869,1235
2975.6805255319196,1223
2977.4077950607707,1213
2979.134748516006,1202
2980.861386208289,1268
2982.587708448359,1214
2984.313715547037,1198
2986.039407815222,1195
2987.764785563891,1218
2989.489849104102,1200
2991.2145987469908,1243
2992.9390348037705,1209
2994.6631575857346,1214
2996.3869674042576,1250
2998.1104645707887,1285
2999.83364939686,1159
3001.5565221940783,1215
3003.2790832741334,1205
3005.0013329487924,1165
3006.7232715298996,1252
3008.4448993293804,1224
3010.166216659239,1188
3011.887223831558,1234
3013.607921158498,1153
3015.3283089522993,1225
3017.0483875252826,1234
3018.7681571898443,1190
3020.4876182584626,1187
3022.2067710436927,1184
3023.9256158581707,1166
3025.644153014609,1184
3027.362382825801,1234
3029.0803056046193,1187
3030.797921664012,1186
3032.5152313170106,1278
3034.2322348767225,1180
3035.9489326563353,1175
3037.665324969115,1206
3039.3814121284063,1264
3041.097194447633,1190
3042.812672240299,1213
3044.5278458199855,1209
3046.2427155003525,1310
3047.9572815951406,1246
3049.671544418167,1242
3051.38550428333,1214
3053.0991615046073,1230
3054.812516396051,1279
3056.5255692717974,1190
3058.2383204460575,1213
3059.9507702331257,1195
3061.662918947372,1234
3063.3747669032446,1244
3065.0863144152736,1236
3066.7975617980674,1248
3068.508509366309,1223
3070.219157434767,1226
3071.9295063182844,1232
3073.639556331785,1262
3075.3493077902704,1226
3077.058761008821,1243
3078.7679163025964,1279
3080.476773986837,1222
3082.1853343768594,1293
3083.89359778806,1197
3085.6015645359153,1175
3087.3092349359786,1248
3089.016609303884,1146
3090.7236879553434,1188
3092.4304712061476,1227
3094.136959372166,1201
3095.843152769349,1252
3097.5490517137237,1232
3099.2546565213966,1199
3100.959967508554,1209
3102.66498499146,1210
3104.3697092864577,1225
3106.0741407099695,1149
3107.778279578498,1216
3109.482126208622,1236
3111.1856809170004,1226
3112.8889440203716,1204
3114.5919158355528,1189
3116.294596679439,1175
3117.996986869006,1219
3119.6990867213062,1245
3121.4008965534726,1227
3123.102416682717,1227
3124.803647426329,1255
3126.5045891016784,1254
3128.205242026213,1218
3129.90560651746,1248
3131.605682893025,1239
3133.3054714705922,1205
3135.0049725679282,1221
3136.7041865028714,1278
3138.4031135933465,1235
3140.101754157353,1205
3141.800108512971,1276
3143.498176978357,1225
3145.1959598717494,1199
3146.8934575114636,1261
3148.5906702158954,1266
3150.2875983035183,1223
3151.9842420928853,1243
3153.680601902627,1201
3155.376678051456,1199
3157.07247085816,1218
3158.767980641609,1223
3160.463207720748,1193
3162.158152414606,1241
3163.8528150422862,1262
3165.5471959229726,1161
3167.2412953759303,1231
3168.9351137204976,1198
3170.628651276098,1178
3172.3219083622307,1237
3174.014885298474,1218
3175.707582404485,1256
3177.4000000000005,1230
3179.092138404835,1188
3180.7839979388846,1178
3182.47557892212,1247
3184.166881674594,1233
3185.8579065164386,1182
3187.5486537678626,1255
3189.2391237491547,1211
3190.9293167806827,1185
3192.6192331828934,1244
3194.3088732763117,1232
3195.998237381542,1252
3197.687325819268,1247
3199.376138910251,1245
3201.064676975334,1138
3202.7529403354347,1209
3204.4409293115523,1221
3206.1286442247647,1247
3207.816085396229,1226
3209.5032531471825,1194
3211.190147798936,1179
3212.8767696728846,1179
3214.5631190905015,1224
3216.2491963733373,1172
3217.9350018430214,1164
3219.6205358212637,1166
3221.305798629851,1168
3222.990790590651,1150
3224.6755120256103,1199
3226.359963256751,1180
3228.0441446061795,1171
3229.7280563960758,1177
3231.411698948703,1189
3233.0950725863995,1200
3234.778177631587,1220
3236.461014406761,1210
3238.1435832345005,1187
3239.8258844374595,1176
3241.507918338374,1188
3243.1896852600576,1204
3244.8711855254023,1214
3246.552419457381,1258
3248.233387379042,1198
3249.914089613516,1165
3251.59452648401,1192
3253.274698313813,1224
3254.95460542629,1205
3256.6342481448855,1223
3258.313626793125,1148
3259.9927416946084,1190
3261.6715931730196,1200
3263.3501815521176,1168
3265.0285071557437,1170
3266.706570307815,1198
3268.3843713323286,1187
3270.0619105533615,1180
3271.739188295068,1187
3273.4162048816834,1191
3275.0929606375184,1167
3276.769455886966,1183
3278.445690954498,1167
3280.1216661646613,1163
3281.797381842087,1217
3283.4728383114807,1183
3285.1480358976296,1234
3286.8229749253996,1194
3288.4976557197333,1218
3290.172078605655,1197
3291.846243908266,1194
3293.5201519527463,1158
3295.193803064357,1153
3296.8671975684374,1123
3298.5403357904024,1177
3300.21321805575,1195
3301.8858446900567,1128
3303.558216018975,1199
3305.23033236824,1236
3306.9021940636603,1161
3308.57380143113,1227
3310.2451547966184,1129
3311.916254486174,1206
3313.5871008259246,1165
3315.2576941420766,1182
3316.9280347609147,1210
3318.5981230088046,1143
3320.2679592121895,1188
3321.9375436975924,1234
3323.606876791612,1201
3325.27595882093,1187
3326.944790112305,1152
3328.6133709925753,1225
3330.2817017886573,1158
3331.949782827547,1192
3333.617614436319,1185
3335.2851969421245,1240
3336.952530672199,1170
3338.619615953853,1210
3340.286453114475,1142
3341.9530424815357,1159
3343.619384382583,1239
3345.2854791452437,1217
3346.951327097224,1218
3348.6169285663073,1239
3350.2822838803577,1172
3351.947393367319,1159
3353.61225735521,1179
3355.2768761721345,1176
3356.9412501462693,1214
3358.605379605873,1207
3360.2692648792827,1165
3361.9329062949146,1188
3363.596304181263,1180
