CollectionTime,9/20/2024 11:48:20 AM
ExposureUsed,3
CalibratedSpectrum
-962.7078968117929,456
-959.9714848408522,484
-957.2358232597828,501
-954.5009119013725,487
-951.7667505983302,517
-949.0333391832855,533
-946.3006774887896,547
-943.5687653473143,533
-940.837602591253,548
-938.1071890529199,491
-935.3775245645503,511
-932.6486089583007,487
-929.9204420662485,506
-927.1930237203925,502
-924.4663537526524,519
-921.7404319948689,538
-919.0152582788041,556
-916.2908324361409,572
-913.5671542984834,523
-910.8442236973568,473
-908.1220404642074,512
-905.4006044304027,457
-902.679915427231,495
-899.959973285902,472
-897.2407778375464,484
-894.5223289132158,501
-891.8046263438832,481
-889.0876699604426,511
-886.3714595937089,513
-883.6559950744183,503
-880.9412762332282,456
-878.2273029007168,468
-875.5140749073835,488
-872.8015920836489,474
-870.0898542598545,480
-867.3788612662631,502
-864.6686129330585,522
-861.9591090903457,517
-859.2503495681506,480
-856.5423341964203,464
-853.8350628050229,481
-851.1285352237478,529
-848.4227512823054,518
-845.7177108103272,519
-843.0134136373656,512
-840.3098595928943,478
-837.6070485063082,501
-834.9049802069229,513
-832.2036545239757,533
-829.5030712866244,495
-826.8032303239481,518
-824.1041314649472,510
-821.4057745385428,503
-818.7081593735775,491
-816.0112857988148,502
-813.3151536429393,501
-810.6197627345566,511
-807.9251129021936,499
-805.2312039742981,540
-802.5380357792392,512
-799.8456081453069,531
-797.1539209007124,511
-794.462973873588,515
-791.772766891987,501
-789.083299783884,502
-786.3945723771743,484
-783.7065844996748,498
-781.0193359791231,498
-778.3328266431781,516
-775.6470563194197,514
-772.9620248353489,533
-770.2777320183878,529
-767.5941776958798,544
-764.9113616950891,542
-762.2292838432011,509
-759.5479439673222,510
-756.8673418944801,516
-754.1874774516235,509
-751.5083504656222,505
-748.8299607632671,536
-746.15230817127,536
-743.475392516264,532
-740.7992136248035,535
-738.1237713233636,531
-735.4490654383407,508
-732.7750957960521,536
-730.1018622227365,563
-727.4293645445534,516
-724.7576025875837,527
-722.0865761778291,543
-719.4162851412126,548
-716.7467293035781,560
-714.0779084906909,559
-711.409822528237,534
-708.7424712418238,546
-706.0758544569796,553
-703.4099719991541,557
-700.7448236937178,564
-698.0804093659622,536
-695.4167288411002,544
-692.7537819442656,540
-690.0915685005134,561
-687.4300883348199,526
-684.7693412720819,556
-682.1093271371178,546
-679.4500457546669,525
-676.7914969493897,510
-674.1336805458676,578
-671.4765963686034,555
-668.8202442420206,576
-666.1646239904642,576
-663.5097354382001,569
-660.8555784094151,562
-658.2021527282176,543
-655.5494582186366,550
-652.8974947046223,532
-650.2462620100463,576
-647.5957599587009,566
-644.9459883742998,612
-642.2969470804776,592
-639.6486359007902,588
-637.0010546587141,633
-634.3542031776476,638
-631.7080812809096,624
-629.0626887917401,589
-626.4180255333008,576
-623.7740913286734,611
-621.1308860008619,651
-618.4884093727904,632
-615.8466612673046,606
-613.2056415071715,605
-610.5653499150785,589
-607.9257863136347,628
-605.28695052537,660
-602.6488423727357,621
-600.0114616781036,585
-597.3748082637674,617
-594.7388819519412,646
-592.1036825647604,616
-589.4692099242818,593
-586.8354638524829,617
-584.2024441712624,661
-581.5701507024403,683
-578.9385832677575,674
-576.3077416888759,652
-573.6776257873787,651
-571.0482353847704,658
-568.4195703024757,632
-565.7916303618415,673
-563.164415384135,632
-560.5379251905453,673
-557.9121596021815,703
-555.2871184400748,652
-552.6628015251767,657
-550.0392086783606,697
-547.4163397204204,687
-544.794194472071,745
-542.1727727539491,750
-539.5520743866118,732
-536.9320991905377,767
-534.3128469861261,748
-531.6943175936979,751
-529.0765108334947,795
-526.4594265256793,872
-523.8430644903358,1098
-521.2274245474689,1151
-518.612506517005,1309
-515.9983102187913,1519
-513.3848354725959,1716
-510.77208209810846,1907
-508.16004991493924,1988
-505.5487387426199,1950
-502.9381484006032,1804
-500.3282787082628,1604
-497.71912948489364,1330
-495.1107005497117,1075
-492.5029917218539,968
-489.8960028203786,876
-487.28973366426493,788
-484.68418407241325,740
-482.07935386364494,740
-479.47524285670266,750
-476.87185087025,780
-474.2691777228715,808
-471.66722323307334,776
-469.0659872192821,782
-466.4654694998459,820
-463.86566989303384,751
-461.26658821703614,782
-458.66822428996414,800
-456.07057792985,798
-453.4736489546475,812
-450.877437182231,790
-448.28194243039627,752
-445.68716451686,767
-443.09310325926003,774
-440.49975847515555,772
-437.9071299820263,774
-435.31521759727354,770
-432.72402113821954,768
-430.13354042210767,822
-427.5437752661022,838
-424.95472548728867,796
-422.36639090267386,842
-419.7787713291855,914
-417.1918665836721,853
-414.60567648290385,851
-412.0202008435715,852
-409.4354394822874,882
-406.8513922155845,867
-404.26805885991723,839
-401.685439231661,872
-399.103533147112,870
-396.522340422488,888
-393.9418608739278,857
-391.3620943174908,867
-388.7830405691583,882
-386.2046994448317,818
-383.6270707603344,748
-381.05015433141045,732
-378.473949973725,779
-375.8984575028645,745
-373.32367673433623,704
-370.74960748356875,693
-368.1762495659117,709
-365.60360279663576,634
-363.03166699093265,606
-360.4604419639154,598
-357.8899275306178,560
-355.32012350599507,602
-352.7510297049233,571
-350.1826459421999,572
-347.61497203254316,564
-345.04800779059235,556
-342.4817530309082,574
-339.91620756797226,572
-337.35137121618743,550
-334.7872437898774,580
-332.22382510328725,603
-329.66111497058273,557
-327.09911320585127,580
-324.53781962310075,652
-321.9772340362607,554
-319.4173562591816,566
-316.8581861056348,548
-314.2997233893127,582
-311.7419679238294,559
-309.1849195227194,573
-306.62857799943856,669
-304.0729431673641,596
-301.51801483979375,602
-298.963792829947,559
-296.41027695096386,541
-293.85746701590574,620
-291.3053628377552,696
-288.7539642294155,685
-286.2032710037115,636
-283.65328297338897,658
-281.1039999511146,672
-278.5554217494762,679
-276.007548180983,733
-273.4603790580651,732
-270.9139141930734,748
-268.3681533982807,674
-265.8230964858798,746
-263.27874326798565,861
-260.7350935566336,858
-258.1921471637804,912
-255.6499039013039,892
-253.10836358100266,901
-250.56752601459698,861
-248.02739101372765,784
-245.48795838995704,830
-242.94922795476816,879
-240.41119951956557,862
-237.8738728956746,899
-235.33724789434166,834
-232.80132432673452,781
-230.2661020039418,755
-227.73158073697357,831
-225.19776033676033,895
-222.66464061415422,998
-220.1322213799284,915
-217.60050244477725,930
-215.06948361931552,1018
-212.53916471408013,1026
-210.00954553952818,1069
-207.48062590603843,947
-204.9524056239104,928
-202.4248845033651,948
-199.8980623545441,1044
-197.37193898751036,1090
-194.84651421224817,1041
-192.32178783866232,1048
-189.79775967657952,952
-187.27442953574644,1137
-184.7517972258321,1238
-182.2298625564256,1028
-179.7086253370378,917
-177.18808537710026,999
-174.66824248596583,1127
-172.14909647290835,1203
-169.6306471471229,1277
-167.11289431772548,1069
-164.59583779375328,1164
-162.07947738416453,1351
-159.5638128978386,1540
-157.04884414357605,1621
-154.53457093009854,1753
-152.02099306604828,1637
-149.50811035998936,1372
-146.99592262040665,1548
-144.48442965570587,1622
-141.97363127421409,1764
-139.46352728417958,1760
-136.95411749377126,2005
-134.44540171107985,1680
-131.93737974411636,1462
-129.43005140081357,1432
-126.92341648902493,1701
-124.41747481652521,1976
-121.91222619101006,2295
-119.40767042009657,2817
-116.90380731132257,3703
-114.40063667214702,4088
-111.8981583099503,5169
-109.3963720320337,7352
-106.89527764561933,10384
-104.39487495785067,10711
-101.89516377579241,12028
-99.39614390642998,18567
-96.89781515667039,28693
-94.40017733334128,34713
-91.90323024319173,30254
-89.40697369289148,23693
-86.91140748903172,16674
-84.41653143812482,10844
-81.92234534660395,12355
-79.42884902082358,15531
-76.93604226705907,15822
-74.4439248915071,13879
-71.95249670028534,12626
-69.46175749943245,10671
-66.97170709490854,9976
-64.48234529259423,9404
-61.99367189829195,10160
-59.50568671772464,11335
-57.01838955653636,14308
-54.53178022029283,16661
-52.045858514480074,20136
-49.560624244506016,22830
-47.07607721569923,23318
-44.59221723330904,20760
-42.10904410250669,19039
-39.62655762838392,16403
-37.14475761595372,15149
-34.66364387015028,16800
-32.18321619582866,23009
-29.70347439776515,26437
-27.224418280657005,23720
-24.74604764912317,29473
-22.26836230770266,45760
-19.7913620608565,65036
-17.315046712966478,65036
-14.83941606833514,65036
-12.36446993118659,65036
-9.89020810566592,65036
-7.416630395839093,65036
-4.94373660569363,65036
-2.471526539137585,65036
-6.821210263296962E-13,65036
2.47084320796705,65036
4.941003281093458,65036
7.410480415786196,65036
9.879274808531363,65036
12.347386655893956,65036
14.814816154518212,65036
17.28156350112681,65036
19.74762889252179,65036
22.21301252558385,65036
24.67771459727237,24709
27.141735304626195,7112
29.605074844762612,6309
32.06773341487792,6378
34.52971121224755,5032
36.99100843422559,4513
39.45162527824516,3941
41.91156194181792,3784
44.370818622535126,4149
46.82939551806646,4112
49.287292826160524,5165
51.74451074464503,5810
54.201049471426245,4719
56.65690920448981,3096
59.112090141899785,2400
61.56659248179983,3049
64.02041642241159,3556
66.4735621620365,3665
68.92602989905402,3761
71.37781983192338,3653
73.82893215918205,3357
76.27936707944684,2752
78.72912479141326,2437
81.17820549385567,2074
83.62660938562783,2135
86.07433666566146,2227
88.5213875329681,2016
90.96776218663751,2224
93.41346082583925,2517
95.85848364982041,2544
98.30283085790859,2299
100.7465026495089,1789
103.18949922410604,1735
105.63182078126385,1685
108.07346752062438,1833
110.51443964190923,1810
112.95473734491827,1522
115.39436082953114,1479
117.83331029570547,1442
120.27158594347827,1468
122.7091879729652,1633
125.1461165843615,1762
127.58237197794062,1723
130.01795435405518,1626
132.4528639131364,1617
134.88710085569494,1484
137.32066538231982,1582
139.75355769367923,1623
142.1857779905207,1652
144.61732647366978,1386
147.04820334403132,1171
149.47840880258934,1218
151.90794305040674,1238
154.33680628862487,1406
156.76499871846443,1594
159.19252054122433,1638
161.61937195828352,1545
164.04555317109896,1539
166.47106438120693,1632
168.89590579022217,1850
171.320077599839,1898
173.7435800118302,1941
176.16641322804742,2056
178.58857745042144,2082
181.01007288096173,2061
183.43089972175687,2065
185.85105817497413,2081
188.27054844285988,2094
190.6893707277394,2085
193.10752523201643,2143
195.5250121581745,2081
197.9418317087751,2187
200.3579840864594,2165
202.7734694939469,2374
205.18828813403627,2324
207.6024402096051,2312
210.01592592360964,2341
212.42874547908548,2412
214.84089907914665,2131
217.2523869269868,2188
219.66320922587727,2256
222.0733661791695,2299
224.48285799029293,2295
226.8916848627572,2301
229.29984700014882,2451
231.7073446061355,2468
234.11417788446204,2359
236.520347038953,2333
238.92585227351185,2412
241.33069379212054,2389
243.73487179884035,2448
246.1383864978112,2409
248.541238093252,2421
250.9434267894609,2378
253.34495279081432,2318
255.74581630176783,2343
258.1460175268563,2281
260.54555667069314,2351
262.9444339379703,2297
265.3426495334594,2316
267.7402036620107,2378
270.1370965285529,2311
272.53332833809407,2386
274.9288992957214,2217
277.32380960660055,2161
279.718059475976,2196
282.1116491091717,2239
284.5045787115897,2351
286.89684848871195,2324
289.2884586460981,2316
291.67940938938807,2284
294.0697009242996,2368
296.4593334566299,2346
298.84830719225477,2371
301.23662233712923,2418
303.6242790972866,2278
306.01127767884,2202
308.39761828798066,2272
310.78330113097934,2221
313.16832641418534,2249
315.5526943440269,2160
317.9364051270112,2189
320.3194589697242,2193
322.70185607883093,2139
325.0835966610754,2131
327.4646809232805,2095
329.8451090723478,2011
332.2248813152577,2053
334.6039978590701,2033
336.9824589109231,1959
339.36026467803447,2059
341.7374153677,2052
344.113911187295,1953
346.48975234427337,2036
348.8649390461686,1957
351.2394715005918,2043
353.61334991523415,1948
355.9865744978655,2006
358.35914545633375,1983
360.73106299856715,2029
363.10232733257146,1918
365.47293866643247,1895
367.84289720831396,1903
370.2122031664593,1770
372.5808567491905,1948
374.9488581649083,1936
377.31620762209275,1931
379.6829053293021,1870
382.0489514951745,1831
384.4143463284262,1868
386.7790900378528,1787
389.14318283232853,1872
391.50662492080653,1833
393.86941651231916,1844
396.23155781597745,1842
398.5930490409713,1855
400.9538903965696,1834
403.3140820921202,1852
405.6736243370498,1826
408.03251734086336,1780
410.3907613131465,1768
412.74835646356166,1763
415.10530300185144,1799
417.4616011378372,1796
419.81725108141893,1667
422.1722530425758,1778
424.5266072313656,1796
426.880313857925,1818
429.2333731324701,1793
431.58578526529516,1752
433.9375504667738,1740
436.2886689473588,1772
438.63914091758113,1731
440.9889665880513,1713
443.33814616945835,1738
445.68667987257015,1774
448.03456790823395,1753
450.3818104873759,1682
452.72840782100013,1757
455.07436012019105,1668
457.41966759611057,1753
459.7643304600007,1701
462.10834892318155,1643
464.4517231970525,1689
466.79445349309174,1683
469.1365400228566,1730
471.4779829979826,1683
473.81878263018564,1727
476.15893913125876,1710
478.4984527130747,1729
480.8373235875855,1796
483.17555196682144,1805
485.5131380628919,1875
487.8500820879857,1845
490.1863842543697,1940
492.52204477439034,1992
494.8570638604725,2109
497.1914417251204,2255
499.52517858091653,2540
501.85827464052306,2930
504.19073011668036,3784
506.5225452222086,4394
508.85372017000566,4962
511.18425517304956,5149
513.514150444396,5618
515.8434061971808,6532
518.1720226446176,6964
520.4999999999999,6654
522.8273384766991,5991
525.1540382881666,5378
527.480099647932,4769
529.8055227696037,3687
532.1303078668694,2817
534.454455153496,2249
536.777964843328,2047
539.1008371502907,1909
541.4230722883866,1941
543.744670471698,1896
546.0656319143858,1904
548.3859568306899,1709
550.7056454349294,1743
553.0246979415016,1709
555.3431145648834,1737
557.6608955196306,1692
559.978041020377,1680
562.2945512818363,1708
564.6104265188006,1700
566.9256669461412,1726
569.2402727788082,1707
571.5542442318302,1733
573.8675815203156,1690
576.1802848594508,1821
578.4923544645015,1825
580.8037905508126,1773
583.114593333807,1814
585.4247630289875,1742
587.7342998519354,1811
590.0432040183106,1751
592.3514757438526,1795
594.6591152443794,1801
596.9661227357875,1786
599.2724984340531,1734
601.578242555231,1738
603.8833553154542,1692
606.1878369309362,1659
608.4916876179676,1656
610.7949075929192,1671
613.0974970722403,1682
615.3994562724587,1736
617.7007854101818,1698
620.0014847020951,1714
622.3015543649641,1745
624.6009946156324,1683
626.8998056710224,1733
629.1979877481361,1784
631.4955410640538,1758
633.7924658359349,1727
636.0887622810175,1773
638.3844306166192,1746
640.6794710601358,1737
642.9738838290426,1708
645.2676691408932,1771
647.5608272133207,1728
649.853358264037,1728
652.1452625108324,1726
654.4365401715764,1720
656.7271914642178,1720
659.0172166067838,1717
661.3066158173809,1765
663.5953893141935,1756
665.8835373154867,1786
668.1710600396028,1747
670.4579577049639,1760
672.7442305300709,1691
675.0298787335033,1765
677.3149025339197,1723
679.599302150058,1752
681.8830778007342,1720
684.1662297048437,1697
686.4487580813608,1690
688.7306631493387,1758
691.0119451279091,1780
693.2926042362834,1721
695.5726406937516,1772
697.8520547196814,1696
700.1308465335215,1675
702.4090163547982,1631
704.6865644031171,1700
706.9634908981619,1741
709.2397960596965,1747
711.5154801075631,1766
713.7905432616823,1686
716.0649857420548,1765
718.3388077687592,1710
720.612009561953,1693
722.8845913418733,1724
725.1565533288352,1745
727.427895743234,1638
729.6986188055427,1701
731.9687227363137,1730
734.238207756178,1719
736.5070740858458,1681
738.7753219461066,1675
741.0429515578281,1713
743.3099631419569,1716
745.5763569195191,1746
747.8421331116193,1679
750.1072919394409,1713
752.3718336242467,1807
754.6357583873777,1745
756.8990664502545,1732
759.1617580343765,1731
761.423833361321,1749
763.6852926527457,1819
765.9461361303862,1756
768.206364016058,1689
770.4659765316536,1731
772.7249738991469,1811
774.9833563405886,1794
777.2411240781092,1841
779.4982773339183,1848
781.7548163303044,1783
784.010741289634,1815
786.2660524343538,1843
788.5207499869881,1760
790.7748341701416,1836
793.0283052064964,1834
795.2811633188143,1841
797.5334087299362,1816
799.7850416627813,1769
802.0360623403484,1815
804.2864709857143,1764
806.5362678220353,1844
808.7854530725468,1819
811.0340269605625,1760
813.2819897094754,1729
815.5293415427581,1762
817.77608268396,1761
820.0222133567116,1814
822.2677337847211,1828
824.5126441917765,1781
826.7569448017433,1819
829.0006358385675,1759
831.2437175262731,1773
833.4861900889629,1841
835.7280537508192,1787
837.9693087361026,1772
840.2099552691533,1822
842.4499935743896,1816
844.689423876309,1862
846.9282463994886,1879
849.1664613685833,1821
851.4040690083276,1738
853.6410695435349,1892
855.877463199097,1827
858.1132501999847,1838
860.3484307712487,1800
862.5830051380175,1887
864.8169735254988,1838
867.0503361589791,1752
869.2830932638243,1734
871.5152450654786,1854
873.7467917894654,1832
875.9777336613873,1816
878.2080709069252,1843
880.4378037518389,1806
882.666932421968,1828
884.8954571432301,1819
887.1233781416219,1818
889.3506956432192,1842
891.5774098741766,1776
893.803521060728,1779
896.0290294291852,1761
898.2539352059397,1810
900.4782386174619,1852
902.7019398903011,1731
904.925039251085,1759
907.147536926521,1812
909.3694331433943,1817
911.59072812857,1782
913.8114221089921,1828
916.0315153116827,1783
918.2510079637437,1848
920.4699002923547,1832
922.6881925247761,1918
924.905884888345,1856
927.1229776104793,1858
929.3394709186747,1873
931.555365040506,1798
933.7706602036275,1840
935.9853566357709,1874
938.1994545647489,1828
940.4129542184515,1907
942.6258558248488,1958
944.8381596119883,1893
947.0498658079974,1861
949.2609746410825,1878
951.4714863395287,1858
953.6814011316998,1849
955.8907192460387,1856
958.0994409110671,1862
960.3075663553858,1786
962.5150958076741,1881
964.7220294966913,1839
966.928367651274,1891
969.1341105003388,1886
971.3392582728806,1841
973.5438111979742,1801
975.747769504772,1691
977.9511334225061,1752
980.153903180487,1747
982.3560790081052,1773
984.5576611348289,1734
986.7586497902058,1730
988.9590452038618,1667
991.158847605503,1621
993.3580572249133,1619
995.5566742919558,1619
997.7546990365728,1599
999.952131688785,1591
1002.1489724786926,1469
1004.3452216364743,1451
1006.5408793923874,1509
1008.7359459767691,1531
1010.9304216200343,1476
1013.1243065526781,1461
1015.3176010052733,1456
1017.510305208472,1458
1019.7024193930064,1437
1021.8939437896848,1465
1024.0848786293977,1466
1026.2752241431122,1394
1028.4649805618747,1400
1030.6541481168115,1405
1032.842727039127,1358
1035.0307175601051,1431
1037.2181199111074,1362
1039.4049343235752,1383
1041.591161029029,1401
1043.7768002590683,1393
1045.9618522453698,1409
1048.1463172196918,1384
1050.3301954138697,1385
1052.513487059818,1400
1054.69619238953,1369
1056.8783116350783,1325
1059.0598450286152,1380
1061.2407928023704,1398
1063.4211551886528,1376
1065.6009324198508,1380
1067.780124728432,1318
1069.9587323469414,1344
1072.1367555080046,1352
1074.314194444325,1306
1076.4910493886855,1301
1078.667320573947,1338
1080.843008233051,1312
1083.0181125990161,1324
1085.1926339049414,1323
1087.3665723840027,1290
1089.5399282694575,1301
1091.7127017946405,1314
1093.8848931929647,1313
1096.0565026979243,1303
1098.2275305430899,1352
1100.3979769621128,1314
1102.567842188722,1293
1104.737126456726,1304
1106.9058300000124,1270
1109.0739530525475,1255
1111.2414958483764,1292
1113.4084586216231,1306
1115.5748416064907,1258
1117.7406450372605,1298
1119.9058691482942,1296
1122.0705141740304,1335
1124.2345803489884,1253
1126.3980679077658,1281
1128.5609770850388,1308
1130.7233081155623,1327
1132.8850612341707,1289
1135.0462366757774,1312
1137.2068346753745,1194
1139.3668554680326,1266
1141.526299288901,1267
1143.68516637321,1203
1145.8434569562655,1251
1148.001171273455,1302
1150.158309560244,1261
1152.3148720521767,1297
1154.470858984876,1296
1156.626270594044,1270
1158.7811071154629,1271
1160.9353687849912,1259
1163.089055838569,1221
1165.242168512213,1244
1167.3947070420209,1241
1169.5466716641677,1274
1171.6980626149075,1203
1173.8488801305748,1262
1175.9991244475814,1257
1178.1487958024186,1242
1180.2978944316555,1262
1182.4464205719428,1202
1184.5943744600072,1246
1186.7417563326567,1202
1188.8885664267755,1210
1191.0348049793297,1250
1193.1804722273619,1192
1195.325568407995,1256
1197.4700937584303,1219
1199.614048515948,1269
1201.7574329179074,1256
1203.900247201746,1186
1206.042491604982,1268
1208.1841663652099,1226
1210.3252717201053,1207
1212.465807907422,1224
1214.6057751649923,1224
1216.7451737307279,1221
1218.8840038426192,1238
1221.0222657387353,1241
1223.1599596572241,1216
1225.2970858363137,1219
1227.4336445143094,1176
1229.5696359295966,1243
1231.705060320639,1202
1233.8399179259786,1268
1235.9742089842384,1275
1238.107933734118,1298
1240.2410924143974,1224
1242.373685263935,1226
1244.5057125216676,1295
1246.6371744266116,1216
1248.7680712178621,1245
1250.898403134593,1308
1253.028170416058,1237
1255.1573733015875,1219
1257.2860120305932,1208
1259.4140868425648,1268
1261.54159797707,1214
1263.6685456737569,1237
1265.7949301723515,1307
1267.9207517126597,1243
1270.046010534565,1215
1272.1707068780306,1255
1274.2948409830983,1234
1276.4184130898889,1198
1278.541423438603,1243
1280.6638722695184,1259
1282.785759822993,1207
1284.9070863394636,1281
1287.0278520594447,1265
1289.1480572235314,1295
1291.2677020723963,1264
1293.3867868467923,1264
1295.5053117875495,1279
1297.623277135579,1256
1299.740683131868,1245
1301.8575300174857,1283
1303.973818033578,1283
1306.0895474213703,1262
1308.2047184221678,1315
1310.3193312773528,1187
1312.4333862283888,1271
1314.5468835168163,1234
1316.659823384255,1234
1318.7722060724045,1235
1320.8840318230418,1264
1322.9953008780249,1262
1325.1060134792888,1301
1327.2161698688478,1231
1329.3257702887959,1220
1331.4348149813054,1276
1333.5433041886276,1232
1335.6512381530933,1272
1337.7586171171101,1261
1339.8654413231675,1227
1341.9717110138317,1263
1344.0774264317488,1263
1346.1825878196432,1213
1348.2871954203192,1250
1350.3912494766587,1317
1352.4947502316231,1271
1354.5976979282532,1274
1356.7000928096686,1281
1358.8019351190665,1258
1360.9032250997243,1273
1363.0039629949988,1303
1365.1041490483235,1268
1367.2037835032133,1339
1369.3028666032606,1253
1371.401398592137,1316
1373.4993797135926,1248
1375.5968102114575,1269
1377.6936903296396,1280
1379.7900203121262,1289
1381.8858004029835,1297
1383.9810308463561,1274
1386.075711886469,1282
1388.1698437676241,1257
1390.2634267342032,1321
1392.356461030667,1330
1394.4489469015557,1283
1396.5408845914872,1238
1398.6322743451592,1274
1400.7231164073469,1297
1402.813411022907,1269
1404.903158436773,1340
1406.9923588939578,1317
1409.0810126395531,1284
1411.1691199187303,1271
1413.2566809767386,1290
1415.343696058907,1258
1417.4301654106425,1298
1419.5160892774315,1302
1421.6014679048399,1293
1423.6863015385125,1302
1425.7705904241707,1323
1427.8543348076178,1291
1429.9375349347342,1330
1432.0201910514802,1330
1434.102303403894,1268
1436.1838722380944,1336
1438.2648978002767,1331
1440.3453803367174,1292
1442.4253200937692,1368
1444.5047173178677,1374
1446.5835722555234,1287
1448.6618851533285,1333
1450.739656257952,1289
1452.8168858161434,1296
1454.8935740747306,1243
1456.96972128062,1326
1459.045327680797,1306
1461.120393522327,1320
1463.1949190523528,1275
1465.2689045180973,1348
1467.3423501668608,1364
1469.415256246024,1313
1471.4876230030463,1303
1473.559450685465,1298
1475.6307395408976,1308
1477.7014898170391,1323
1479.771701761665,1325
1481.8413756226287,1287
1483.9105116478618,1325
1485.9791100853772,1393
1488.0471711832643,1321
1490.1146951896926,1294
1492.1816823529098,1316
1494.2481329212433,1279
1496.3140471430984,1265
1498.3794252669609,1315
1500.4442675413939,1274
1502.5085742150404,1314
1504.572345536622,1324
1506.6355817549388,1377
1508.6982831188702,1274
1510.7604498773744,1303
1512.8220822794883,1328
1514.8831805743293,1323
1516.9437450110909,1269
1519.003775839048,1288
1521.0632733075522,1332
1523.1222376660367,1262
1525.1806691640113,1295
1527.2385680510652,1323
1529.2959345768668,1274
1531.3527689911643,1301
1533.4090715437833,1231
1535.4648424846291,1306
1537.5200820636855,1269
1539.5747905310159,1345
1541.6289681367616,1297
1543.6826151311434,1380
1545.7357317644614,1366
1547.7883182870937,1340
1549.8403749494987,1316
1551.8919020022113,1364
1553.9428996958477,1302
1555.9933682811015,1352
1558.0433080087469,1288
1560.0927191296346,1314
1562.1416018946961,1271
1564.1899565549415,1273
1566.2377833614592,1279
1568.2850825654164,1343
1570.3318544180606,1287
1572.3780991707158,1241
1574.423817074788,1297
1576.4690083817595,1316
1578.5136733431923,1249
1580.5578122107272,1280
1582.601425236085,1283
1584.6445126710646,1236
1586.6870747675434,1244
1588.7291117774776,1304
1590.7706239529034,1294
1592.8116115459347,1217
1594.8520748087658,1279
1596.8920139936686,1369
1598.9314293529933,1317
1600.9703211391711,1303
1603.008689604711,1304
1605.0465350022005,1349
1607.0838575843068,1317
1609.1206576037753,1278
1611.1569353134305,1316
1613.1926909661765,1294
1615.2279248149953,1210
1617.2626371129481,1241
1619.2968281131757,1298
1621.3304980688963,1313
1623.3636472334088,1245
1625.39627586009,1289
1627.428384202396,1303
1629.459972513861,1286
1631.4910410480993,1310
1633.5215900588028,1244
1635.551619799744,1287
1637.5811305247717,1293
1639.6101224878166,1278
1641.6385959428862,1290
1643.6665511440683,1271
1645.693988345528,1225
1647.7209078015112,1270
1649.7473097663405,1247
1651.7731944944203,1284
1653.7985622402307,1168
1655.823413258333,1239
1657.847747803366,1231
1659.8715661300494,1283
1661.8948684931793,1260
1663.9176551476316,1268
1665.9399263483624,1183
1667.9616823504057,1310
1669.982923408873,1233
1672.0036497789574,1234
1674.0238617159293,1250
1676.043559475138,1237
1678.0627433120121,1312
1680.081413482059,1209
1682.0995702408654,1305
1684.117213844096,1299
1686.134344547495,1275
1688.1509626068864,1263
1690.1670682781705,1294
1692.182661817329,1226
1694.1977434804217,1279
1696.2123135235875,1256
1698.226372203043,1228
1700.2399197750851,1266
1702.2529564960905,1242
1704.2654826225112,1271
1706.277498410882,1296
1708.2890041178139,1281
1710.2999999999988,1301
1712.3104863142066,1304
1714.3204633172854,1273
1716.329931266163,1313
1718.3388904178469,1256
1720.3473410294214,1207
1722.3552833580516,1274
1724.3627176609807,1261
1726.3696441955308,1329
1728.3760632191033,1321
1730.3819749891782,1254
1732.3873797633146,1251
1734.3922777991502,1294
1736.3966693544012,1263
1738.4005546868639,1253
1740.4039340544127,1277
1742.406807715001,1177
1744.4091759266616,1313
1746.4110389475054,1295
1748.4123970357223,1309
1750.413250449582,1284
1752.4135994474318,1241
1754.4134442876993,1315
1756.4127852288902,1246
1758.4116225295893,1276
1760.4099564484595,1255
1762.407787244244,1299
1764.405115175764,1325
1766.4019405019203,1330
1768.3982634816916,1240
1770.3940843741357,1274
1772.3894034383907,1290
1774.3842209336717,1308
1776.378537119274,1276
1778.372352254571,1316
1780.3656665990156,1283
1782.3584804121397,1307
1784.3507939535534,1234
1786.3426074829463,1256
1788.3339212600863,1313
1790.3247355448211,1274
1792.3150505970766,1334
1794.3048666768573,1284
1796.2941840442477,1302
1798.2830029594106,1288
1800.2713236825884,1240
1802.2591464741004,1284
1804.2464715943465,1301
1806.2332993038058,1283
1808.2196298630352,1263
1810.2054635326708,1286
1812.190800573428,1255
1814.175641246101,1321
1816.1599858115628,1290
1818.1438345307652,1258
1820.127187664738,1322
1822.1100454745924,1319
1824.092408221516,1284
1826.0742761667766,1316
1828.055649571721,1290
1830.0365286977735,1274
1832.0169138064398,1306
1833.9968051593014,1315
1835.9762030180214,1305
1837.9551076443408,1342
1839.9335193000788,1271
1841.9114382471344,1293
1843.888864747485,1316
1845.8657990631878,1313
1847.842241456378,1328
1849.8181921892697,1330
1851.7936515241558,1251
1853.7686197234098,1254
1855.7430970494815,1322
1857.7170837649014,1289
1859.6905801322787,1285
1861.6635864143004,1289
1863.6361028737338,1288
1865.608129773424,1276
1867.5796673762961,1287
1869.5507159453537,1270
1871.521275743678,1316
1873.4913470344313,1289
1875.4609300808534,1363
1877.4300251462632,1352
1879.3986324940588,1272
1881.366752387717,1350
1883.3343850907936,1281
1885.3015308669228,1309
1887.268189979819,1352
1889.2343626932739,1300
1891.2000492711595,1315
1893.1652499774254,1344
1895.1299650761011,1240
1897.0941948312952,1356
1899.0579395071945,1286
1901.0211993680641,1287
1902.98397467825,1273
1904.9462657021745,1333
1906.9080727043415,1299
1908.869395949332,1318
1910.8302357018065,1300
1912.790592226504,1312
1914.7504657882428,1277
1916.7098566519212,1327
1918.6687650825133,1286
1920.6271913450764,1333
1922.5851357047422,1311
1924.5425984267245,1330
1926.499579776314,1237
1928.4560800188833,1315
1930.4120994198802,1297
1932.367638244833,1344
1934.32269675935,1299
1936.2772752291175,1280
1938.231373919899,1310
1940.1849930975404,1258
1942.1381330279637,1296
1944.0907939771696,1266
1946.0429762112412,1273
1947.9946799963363,1291
1949.9459055986945,1300
1951.896653284633,1256
1953.8469233205478,1249
1955.7967159729142,1253
1957.7460315082863,1269
1959.6948701932974,1258
1961.6432322946594,1343
1963.5911180791632,1326
1965.5385278136787,1284
1967.4854617651545,1270
1969.4319202006182,1297
1971.377903387176,1304
1973.3234115920136,1327
1975.268445082395,1312
1977.2130041256642,1325
1979.1570889892423,1297
1981.1006999406304,1301
1983.04383724741,1282
1984.986501177238,1324
1986.928691997853,1317
1988.8704099770712,1276
1990.811655382789,1311
1992.7524284829801,1317
1994.692729545698,1277
1996.6325588390755,1229
1998.5719166313224,1237
2000.5108031907307,1264
2002.4492187856677,1251
2004.387163684583,1340
2006.3246381560011,1287
2008.2616424685298,1279
2010.1981768908527,1252
2012.1342416917332,1267
2014.069837140014,1264
2016.0049635046162,1282
2017.9396210545406,1335
2019.8738100588666,1264
2021.8075307867502,1319
2023.740783507431,1302
2025.6735684902228,1293
2027.6058860045214,1312
2029.5377363198004,1281
2031.4691197056118,1250
2033.4000364315875,1281
2035.3304867674374,1314
2037.260470982952,1296
2039.189989347998,1301
2041.1190421325232,1236
2043.047629606554,1236
2044.9757520401945,1303
2046.9034097036288,1294
2048.8306028671195,1284
2050.7573318010086,1292
2052.683596775716,1313
2054.609398061742,1303
2056.5347359296647,1267
2058.4596106501403,1253
2060.384022493906,1271
2062.3079717317764,1293
2064.231458634646,1217
2066.1544834734873,1326
2068.077046519352,1299
2069.99914804337,1256
2071.9207883167524,1261
2073.8419676107865,1306
2075.7626861968406,1256
2077.6829443463607,1305
2079.6027423308715,1250
2081.522080421977,1252
2083.440958891362,1277
2085.359378010786,1271
2087.2773380520907,1223
2089.194839287196,1269
2091.111881988101,1267
2093.0284664268825,1312
2094.9445928756973,1287
2096.86026160678,1260
2098.775472892446,1259
2100.690227005088,1285
2102.604524217178,1298
2104.5183648012676,1313
2106.431749029985,1332
2108.34467717604,1274
2110.2571495122206,1285
2112.169166311393,1246
2114.080727846503,1267
2115.9918343905747,1301
2117.902486216711,1263
2119.8126835980956,1331
2121.722426807987,1285
2123.6317161197285,1293
2125.5405518067364,1253
2127.448934142509,1325
2129.356863400624,1315
2131.264339854737,1296
2133.1713637785815,1320
2135.077935445972,1340
2136.9840551308002,1337
2138.889723107037,1327
2140.7949396487334,1337
2142.699705030018,1309
2144.6040195250994,1324
2146.507883408264,1363
2148.4112969538774,1330
2150.3142604363848,1325
2152.2167741303097,1338
2154.1188383102535,1311
2156.0204532508997,1322
2157.9216192270064,1321
2159.822336513414,1351
2161.7226053850413,1330
2163.622426116884,1339
2165.5217989840185,1350
2167.4207242616,1361
2169.319202224862,1349
2171.2172331491165,1397
2173.1148173097563,1371
2175.0119549822507,1394
2176.90864644215,1372
2178.8048919650823,1289
2180.7006918267534,1344
2182.596046302952,1367
2184.4909556695407,1421
2186.3854202024645,1333
2188.279440177746,1373
2190.173015871487,1408
2192.066147559868,1400
2193.958835519149,1342
2195.851080025667,1441
2197.7428813558417,1344
2199.6342397861667,1387
2201.5251555932186,1346
2203.415629053651,1365
2205.3056604441986,1316
2207.19525004167,1341
2209.084398122958,1356
2210.9731049650327,1377
2212.861370844941,1373
2214.749196039812,1397
2216.636580826851,1344
2218.523525483344,1365
2220.410030286655,1354
2222.296095514226,1359
2224.1817214435805,1400
2226.066908352319,1369
2227.951656518121,1347
2229.835966218746,1279
2231.71983773203,1388
2233.6032713358913,1360
2235.486267308324,1348
2237.3688259274036,1431
2239.2509474712824,1376
2241.132632218193,1312
2243.013880446447,1399
2244.8946924344323,1403
2246.7750684606203,1280
2248.6550088035574,1327
2250.534513741871,1307
2252.413583554265,1384
2254.292218519526,1318
2256.170418916517,1346
2258.0481850241786,1374
2259.925517121534,1387
2261.8024154876825,1343
2263.678880401803,1285
2265.5549121431536,1342
2267.430510991071,1273
2269.305677224971,1341
2271.180411124348,1310
2273.0547129687766,1261
2274.9285830379076,1292
2276.8020216114737,1340
2278.6750289692845,1301
2280.5476053912294,1350
2282.4197511572766,1328
2284.2914665474727,1337
2286.162751841943,1373
2288.0336073208937,1416
2289.904033264608,1396
2291.774029953448,1399
2293.6435976678554,1373
2295.5127366883517,1236
2297.381447295534,1264
2299.2497297700825,1264
2301.1175843927526,1271
2302.9850114443825,1189
2304.852011205885,1219
2306.7185839582553,1202
2308.5847299825664,1143
2310.4504495599676,1216
2312.3157429716925,1229
2314.1806104990483,1138
2316.0450524234247,1196
2317.9090690262888,1175
2319.772660589186,1204
2321.635827393742,1161
2323.498569721661,1120
2325.3608878547248,1125
2327.2227820747967,1190
2329.0842526638157,1104
2330.945299903803,1144
2332.805924076857,1144
2334.6661254651535,1152
2336.525904350951,1122
2338.3852610165827,1093
2340.244195744464,1122
2342.102708817088,1189
2343.9608005170253,1162
2345.8184711269287,1202
2347.675720929526,1115
2349.532550207628,1119
2351.38895924412,1134
2353.24494832197,1151
2355.100517724223,1148
2356.955667734004,1136
2358.810398634514,1178
2360.664710709037,1198
2362.5186042409337,1150
2364.3720795136437,1094
2366.225136810686,1161
2368.0777764156583,1175
2369.929998612237,1153
2371.7818036841777,1172
2373.633191915315,1179
2375.484163589562,1155
2377.3347189909114,1110
2379.184858403434,1163
2381.03458211128,1160
2382.8838903986775,1109
2384.732783549936,1147
2386.5812618494406,1174
2388.4293255816588,1156
2390.2769750311327,1123
2392.1242104824883,1154
2393.971032220427,1156
2395.8174405297295,1146
2397.6634356952563,1174
2399.509018001947,1129
2401.3541877348193,1119
2403.1989451789705,1148
2405.043290619576,1177
2406.8872243418905,1108
2408.730746631247,1152
2410.5738577730594,1156
2412.4165580528183,1157
2414.258847756095,1174
2416.100727168537,1147
2417.9421965758734,1127
2419.783256263912,1166
2421.623906518538,1139
2423.4641476257157,1151
2425.303979871491,1176
2427.143403541984,1141
2428.9824189233977,1181
2430.821026302012,1153
2432.6592259641866,1175
2434.497018196361,1183
2436.33440328505,1130
2438.171381516851,1159
2440.00795317844,1188
2441.844118556569,1186
2443.6798779380724,1161
2445.5152316098606,1100
2447.3501798589255,1114
2449.1847229723357,1112
2451.0188612372403,1149
2452.8525949408663,1117
2454.6859243705203,1106
2456.518849813587,1128
2458.3513715575314,1162
2460.183489889895,1172
2462.015205098301,1178
2463.8465174704493,1192
2465.67742729412,1160
2467.5079348571717,1171
2469.338040447542,1126
2471.1677443532476,1201
2472.9970468623833,1196
2474.825948263123,1157
2476.6544488437207,1159
2478.482548892508,1117
2480.310248697896,1136
2482.137548548374,1114
2483.9644487325118,1128
2485.790949538956,1134
2487.617051256433,1126
2489.44275417375,1155
2491.26805857979,1133
2493.0929647635157,1164
2494.917473013971,1172
2496.741583620276,1184
2498.5652968716304,1094
2500.3886130573137,1159
2502.2115324666834,1130
2504.0340553891765,1150
2505.856182114308,1137
2507.6779129316733,1134
2509.499248130945,1144
2511.3201880018764,1176
2513.140732834298,1131
2514.9608829181198,1157
2516.780638543331,1152
2518.6,1159
2520.418967578273,1145
2522.237541568376,1127
2524.0557222606144,1138
2525.8735099453706,1108
2527.6909049131086,1138
2529.507907454368,1114
2531.32451785977,1138
2533.140736420014,1112
2534.9565634258774,1168
2536.771999168218,1127
2538.5870439379714,1099
2540.4016980261526,1135
2542.2159617238544,1146
2544.02983532225,1126
2545.8433191125914,1184
2547.656413386209,1157
2549.4691184345115,1163
2551.2814345489874,1146
2553.093362021204,1114
2554.904901142808,1159
2556.716052205523,1113
2558.526815501153,1160
2560.3371913215824,1102
2562.147179958771,1107
2563.956781704761,1143
2565.7659968516705,1110
2567.5748256916986,1187
2569.3832685171224,1151
2571.1913256202984,1128
2572.9989972936614,1117
2574.806283829725,1184
2576.613185521084,1124
2578.4197026604074,1151
2580.2258355404483,1142
2582.031584454035,1104
2583.836949694077,1157
2585.6419315535613,1118
2587.4465303255533,1163
2589.2507463032002,1163
2591.0545797797245,1143
2592.8580310484303,1154
2594.6611004026995,1138
2596.463788135992,1175
2598.266094541849,1109
2600.0680199138874,1142
2601.869564545807,1163
2603.670728731383,1100
2605.4715127644704,1146
2607.2719169390048,1134
2609.071941548998,1159
2610.8715868885433,1112
2612.670853251811,1093
2614.469740933052,1093
2616.268250226594,1196
2618.0663814268455,1173
2619.864134828292,1160
2621.6615107255006,1186
2623.458509413115,1179
2625.2551311858597,1109
2627.0513763385347,1143
2628.8472451660223,1165
2630.6427379632833,1134
2632.4378550253564,1142
2634.232596647359,1118
2636.026963124488,1135
2637.8209547520187,1171
2639.6145718253065,1151
2641.407814639785,1154
2643.200683490966,1145
2644.9931786744414,1163
2646.7853004858807,1118
2648.577049221034,1132
2650.3684251757277,1124
2652.1594286458712,1163
2653.9500599274484,1152
2655.740319316525,1144
2657.5302071092437,1128
2659.3197236018286,1177
2661.10886909058,1117
2662.8976438718782,1145
2664.686048242183,1195
2666.4740824980327,1126
2668.2617469360443,1159
2670.0490418529134,1135
2671.8359675454153,1149
2673.622524310403,1080
2675.408712444811,1155
2677.1945322456495,1158
2678.979984010009,1126
2680.76506803506,1110
2682.5497846180497,1094
2684.334134056306,1107
2686.1181166472343,1147
2687.9017326883213,1122
2689.6849824771293,1151
2691.4678663113013,1177
2693.2503844885596,1114
2695.032537306705,1153
2696.8143250636167,1117
2698.5957480572542,1149
2700.3768065856534,1133
2702.1575009469316,1103
2703.937831439283,1148
2705.717798360982,1144
2707.4974020103837,1145
2709.276642685917,1204
2711.055520686095,1134
2712.834036309506,1121
2714.612189854819,1209
2716.389981620782,1133
2718.1674119062204,1168
2719.944481010041,1112
2721.721189231226,1131
2723.4975368688415,1146
2725.273524222027,1158
2727.0491515900053,1130
2728.824419272075,1156
2730.5993275676146,1177
2732.3738767760838,1171
2734.148067197016,1187
2735.921899130031,1186
2737.6953728748194,1159
2739.468488731156,1126
2741.2412469988926,1134
2743.0136479779617,1101
2744.785691968372,1143
2746.5573792702116,1114
2748.3287101836504,1190
2750.099685008934,1164
2751.870304046388,1100
2753.640567596418,1160
2755.4104759595057,1133
2757.1800294362156,1159
2758.949228327187,1066
2760.7180729331412,1159
2762.486563554877,1112
2764.254700493272,1128
2766.022484049284,1111
2767.789914523947,1138
2769.5569922183786,1164
2771.3237174337705,1112
2773.090090471394,1119
2774.8561116326036,1148
2776.6217812188274,1144
2778.3870995315756,1133
2780.1520668724356,1119
2781.9166835430747,1155
2783.6809498452394,1139
2785.444866080754,1137
2787.2084325515225,1165
2788.971649559527,1149
2790.73451740683,1151
2792.4970363955713,1188
2794.2592068279705,1153
2796.0210290063264,1183
2797.7825032330147,1097
2799.543629810493,1143
2801.304409041296,1133
2803.0648412280366,1145
2804.8249266734088,1201
2806.5846656801846,1201
2808.344058551212,1108
2810.1031055894246,1154
2811.8618070978273,1161
2813.6201633795085,1139
2815.378174737636,1127
2817.1358414754536,1133
2818.893163896285,1132
2820.6501423035334,1115
2822.4067770006814,1141
2824.1630682912883,1124
2825.9190164789957,1128
2827.6746218675207,1161
2829.429884760661,1182
2831.184805462294,1140
2832.9393842763743,1127
2834.693621506936,1131
2836.4475174580916,1185
2838.201072434034,1183
2839.954286739034,1214
2841.707160677441,1171
2843.459694553685,1134
2845.2118886722724,1181
2846.96374333779,1101
2848.7152588549034,1163
2850.4664355283567,1152
2852.217273662973,1129
2853.9677735636546,1137
2855.7179355353833,1155
2857.4677598832186,1145
2859.217246912299,1134
2860.9663969278427,1125
2862.715210235146,1100
2864.4636871395846,1140
2866.211827946614,1110
2867.9596329617652,1155
2869.7071024906536,1190
2871.4542368389684,1229
2873.20103631248,1156
2874.947501217038,1122
2876.6936318585695,1116
2878.4394285430812,1131
2880.1848915766604,1160
2881.9300212654707,1172
2883.6748179157553,1121
2885.4192818338374,1137
2887.1634133261173,1116
2888.907212699077,1128
2890.6506802592744,1152
2892.393816313348,1172
2894.1366211680142,1171
2895.8790951300693,1191
2897.621238506388,1156
2899.363051603925,1147
2901.1045347297118,1175
2902.8456881908596,1154
2904.58651229456,1124
2906.327007348081,1137
2908.067173658772,1149
2909.8070115340597,1154
2911.5465212814497,1126
2913.285703208527,1175
2915.0245576229563,1156
2916.7630848324807,1176
2918.5012851449196,1150
2920.2391588681758,1142
2921.976706310227,1122
2923.7139277791334,1126
2925.4508235830313,1178
2927.187394030137,1160
2928.923639428745,1160
2930.6595600872306,1168
2932.395156314046,1102
2934.1304284177218,1105
2935.8653767068713,1168
2937.6000014901815,1163
2939.3343030764227,1132
2941.068281774442,1157
2942.8019378931644,1152
2944.5352717415976,1207
2946.2682836288236,1108
2948.0009738640065,1150
2949.7333427563885,1144
2951.465390615289,1157
2953.1971177501086,1141
2954.9285244703265,1176
2956.6596110855,1170
2958.3903779052657,1156
2960.1208252393385,1156
2961.8509533975125,1128
2963.5807626896617,1108
2965.3102534257378,1183
2967.0394259157715,1124
2968.768280469873,1137
2970.496817398232,1124
2972.2250370111146,1180
2973.952939618869,1171
2975.6805255319196,1166
2977.4077950607707,1182
2979.134748516006,1140
2980.861386208289,1179
2982.587708448359,1204
2984.313715547037,1191
2986.039407815222,1139
2987.764785563891,1157
2989.489849104102,1164
2991.2145987469908,1135
2992.9390348037705,1210
2994.6631575857346,1118
2996.3869674042576,1182
2998.1104645707887,1109
2999.83364939686,1113
3001.5565221940783,1132
3003.2790832741334,1145
3005.0013329487924,1140
3006.7232715298996,1146
3008.4448993293804,1146
3010.166216659239,1161
3011.887223831558,1155
3013.607921158498,1189
3015.3283089522993,1107
3017.0483875252826,1165
3018.7681571898443,1111
3020.4876182584626,1164
3022.2067710436927,1129
3023.9256158581707,1126
3025.644153014609,1186
3027.362382825801,1131
3029.0803056046193,1127
3030.797921664012,1131
3032.5152313170106,1137
3034.2322348767225,1156
3035.9489326563353,1137
3037.665324969115,1169
3039.3814121284063,1155
3041.097194447633,1176
3042.812672240299,1239
3044.5278458199855,1138
3046.2427155003525,1167
3047.9572815951406,1138
3049.671544418167,1140
3051.38550428333,1112
3053.0991615046073,1094
3054.812516396051,1173
3056.5255692717974,1103
3058.2383204460575,1137
3059.9507702331257,1132
3061.662918947372,1138
3063.3747669032446,1098
3065.0863144152736,1233
3066.7975617980674,1124
3068.508509366309,1157
3070.219157434767,1113
3071.9295063182844,1127
3073.639556331785,1103
3075.3493077902704,1123
3077.058761008821,1105
3078.7679163025964,1175
3080.476773986837,1168
3082.1853343768594,1163
3083.89359778806,1140
3085.6015645359153,1110
3087.3092349359786,1145
3089.016609303884,1158
3090.7236879553434,1106
3092.4304712061476,1097
3094.136959372166,1137
3095.843152769349,1165
3097.5490517137237,1179
3099.2546565213966,1141
3100.959967508554,1136
3102.66498499146,1125
3104.3697092864577,1169
3106.0741407099695,1139
3107.778279578498,1165
3109.482126208622,1079
3111.1856809170004,1149
3112.8889440203716,1133
3114.5919158355528,1121
3116.294596679439,1149
3117.996986869006,1134
3119.6990867213062,1145
3121.4008965534726,1167
3123.102416682717,1115
3124.803647426329,1186
3126.5045891016784,1172
3128.205242026213,1131
3129.90560651746,1146
3131.605682893025,1104
3133.3054714705922,1124
3135.0049725679282,1096
3136.7041865028714,1071
3138.4031135933465,1136
3140.101754157353,1135
3141.800108512971,1155
3143.498176978357,1134
3145.1959598717494,1099
3146.8934575114636,1090
3148.5906702158954,1136
3150.2875983035183,1080
3151.9842420928853,1126
3153.680601902627,1137
3155.376678051456,1095
3157.07247085816,1155
3158.767980641609,1142
3160.463207720748,1124
3162.158152414606,1169
3163.8528150422862,1137
3165.5471959229726,1161
3167.2412953759303,1123
3168.9351137204976,1120
3170.628651276098,1117
3172.3219083622307,1152
3174.014885298474,1127
3175.707582404485,1079
3177.4000000000005,1121
3179.092138404835,1114
3180.7839979388846,1118
3182.47557892212,1131
3184.166881674594,1148
3185.8579065164386,1107
3187.5486537678626,1153
3189.2391237491547,1135
3190.9293167806827,1128
3192.6192331828934,1110
3194.3088732763117,1140
3195.998237381542,1149
3197.687325819268,1123
3199.376138910251,1115
3201.064676975334,1111
3202.7529403354347,1087
3204.4409293115523,1090
3206.1286442247647,1120
3207.816085396229,1107
3209.5032531471825,1138
3211.190147798936,1141
3212.8767696728846,1059
3214.5631190905015,1072
3216.2491963733373,1078
3217.9350018430214,1085
3219.6205358212637,1148
3221.305798629851,1038
3222.990790590651,1127
3224.6755120256103,1078
3226.359963256751,1116
3228.0441446061795,1103
3229.7280563960758,1128
3231.411698948703,1119
3233.0950725863995,1111
3234.778177631587,1191
3236.461014406761,1143
3238.1435832345005,1111
3239.8258844374595,1135
3241.507918338374,1151
3243.1896852600576,1108
3244.8711855254023,1081
3246.552419457381,1138
3248.233387379042,1118
3249.914089613516,1148
3251.59452648401,1156
3253.274698313813,1082
3254.95460542629,1086
3256.6342481448855,1084
3258.313626793125,1126
3259.9927416946084,1089
3261.6715931730196,1073
3263.3501815521176,1082
3265.0285071557437,1083
3266.706570307815,1085
3268.3843713323286,1073
3270.0619105533615,1127
3271.739188295068,1116
3273.4162048816834,1088
3275.0929606375184,1117
3276.769455886966,1128
3278.445690954498,1184
3280.1216661646613,1117
3281.797381842087,1141
3283.4728383114807,1136
3285.1480358976296,1147
3286.8229749253996,1154
3288.4976557197333,1186
3290.172078605655,1110
3291.846243908266,1131
3293.5201519527463,1095
3295.193803064357,1113
3296.8671975684374,1100
3298.5403357904024,1089
3300.21321805575,1115
3301.8858446900567,1114
3303.558216018975,1079
3305.23033236824,1126
3306.9021940636603,1091
3308.57380143113,1133
3310.2451547966184,1084
3311.916254486174,1146
3313.5871008259246,1123
3315.2576941420766,1123
3316.9280347609147,1107
3318.5981230088046,1130
3320.2679592121895,1093
3321.9375436975924,1106
3323.606876791612,1160
3325.27595882093,1098
3326.944790112305,1118
3328.6133709925753,1137
3330.2817017886573,1117
3331.949782827547,1121
3333.617614436319,1153
3335.2851969421245,1149
3336.952530672199,1166
3338.619615953853,1117
3340.286453114475,1073
3341.9530424815357,1125
3343.619384382583,1161
3345.2854791452437,1133
3346.951327097224,1136
3348.6169285663073,1145
3350.2822838803577,1109
3351.947393367319,1094
3353.61225735521,1130
3355.2768761721345,1111
3356.9412501462693,1133
3358.605379605873,1144
3360.2692648792827,1124
3361.9329062949146,1145
3363.596304181263,1089
