CollectionTime,9/20/2024 11:48:03 AM
ExposureUsed,3
CalibratedSpectrum
-962.7078968117929,483
-959.9714848408522,518
-957.2358232597828,521
-954.5009119013725,528
-951.7667505983302,528
-949.0333391832855,576
-946.3006774887896,551
-943.5687653473143,500
-940.837602591253,522
-938.1071890529199,553
-935.3775245645503,529
-932.6486089583007,513
-929.9204420662485,506
-927.1930237203925,514
-924.4663537526524,510
-921.7404319948689,552
-919.0152582788041,595
-916.2908324361409,629
-913.5671542984834,562
-910.8442236973568,523
-908.1220404642074,503
-905.4006044304027,512
-902.679915427231,513
-899.959973285902,472
-897.2407778375464,477
-894.5223289132158,499
-891.8046263438832,502
-889.0876699604426,514
-886.3714595937089,511
-883.6559950744183,527
-880.9412762332282,467
-878.2273029007168,499
-875.5140749073835,511
-872.8015920836489,498
-870.0898542598545,466
-867.3788612662631,481
-864.6686129330585,510
-861.9591090903457,497
-859.2503495681506,508
-856.5423341964203,466
-853.8350628050229,483
-851.1285352237478,471
-848.4227512823054,509
-845.7177108103272,499
-843.0134136373656,505
-840.3098595928943,516
-837.6070485063082,534
-834.9049802069229,544
-832.2036545239757,496
-829.5030712866244,545
-826.8032303239481,522
-824.1041314649472,525
-821.4057745385428,506
-818.7081593735775,479
-816.0112857988148,526
-813.3151536429393,547
-810.6197627345566,542
-807.9251129021936,518
-805.2312039742981,503
-802.5380357792392,493
-799.8456081453069,501
-797.1539209007124,504
-794.462973873588,550
-791.772766891987,543
-789.083299783884,528
-786.3945723771743,495
-783.7065844996748,470
-781.0193359791231,508
-778.3328266431781,508
-775.6470563194197,542
-772.9620248353489,530
-770.2777320183878,516
-767.5941776958798,551
-764.9113616950891,519
-762.2292838432011,487
-759.5479439673222,535
-756.8673418944801,514
-754.1874774516235,522
-751.5083504656222,550
-748.8299607632671,538
-746.15230817127,537
-743.475392516264,537
-740.7992136248035,530
-738.1237713233636,524
-735.4490654383407,540
-732.7750957960521,520
-730.1018622227365,560
-727.4293645445534,521
-724.7576025875837,564
-722.0865761778291,554
-719.4162851412126,548
-716.7467293035781,579
-714.0779084906909,568
-711.409822528237,550
-708.7424712418238,562
-706.0758544569796,558
-703.4099719991541,525
-700.7448236937178,573
-698.0804093659622,562
-695.4167288411002,562
-692.7537819442656,556
-690.0915685005134,548
-687.4300883348199,548
-684.7693412720819,566
-682.1093271371178,586
-679.4500457546669,564
-676.7914969493897,551
-674.1336805458676,573
-671.4765963686034,570
-668.8202442420206,613
-666.1646239904642,596
-663.5097354382001,559
-660.8555784094151,567
-658.2021527282176,540
-655.5494582186366,557
-652.8974947046223,581
-650.2462620100463,595
-647.5957599587009,570
-644.9459883742998,614
-642.2969470804776,578
-639.6486359007902,576
-637.0010546587141,604
-634.3542031776476,671
-631.7080812809096,652
-629.0626887917401,623
-626.4180255333008,568
-623.7740913286734,676
-621.1308860008619,652
-618.4884093727904,637
-615.8466612673046,618
-613.2056415071715,622
-610.5653499150785,636
-607.9257863136347,640
-605.28695052537,704
-602.6488423727357,632
-600.0114616781036,631
-597.3748082637674,615
-594.7388819519412,666
-592.1036825647604,707
-589.4692099242818,674
-586.8354638524829,624
-584.2024441712624,630
-581.5701507024403,661
-578.9385832677575,683
-576.3077416888759,675
-573.6776257873787,630
-571.0482353847704,678
-568.4195703024757,674
-565.7916303618415,683
-563.164415384135,666
-560.5379251905453,681
-557.9121596021815,666
-555.2871184400748,680
-552.6628015251767,638
-550.0392086783606,682
-547.4163397204204,732
-544.794194472071,712
-542.1727727539491,773
-539.5520743866118,739
-536.9320991905377,738
-534.3128469861261,762
-531.6943175936979,770
-529.0765108334947,828
-526.4594265256793,930
-523.8430644903358,1119
-521.2274245474689,1272
-518.612506517005,1364
-515.9983102187913,1523
-513.3848354725959,1778
-510.77208209810846,1925
-508.16004991493924,2117
-505.5487387426199,2112
-502.9381484006032,1926
-500.3282787082628,1822
-497.71912948489364,1507
-495.1107005497117,1238
-492.5029917218539,1044
-489.8960028203786,937
-487.28973366426493,895
-484.68418407241325,846
-482.07935386364494,823
-479.47524285670266,829
-476.87185087025,896
-474.2691777228715,923
-471.66722323307334,858
-469.0659872192821,831
-466.4654694998459,889
-463.86566989303384,796
-461.26658821703614,802
-458.66822428996414,843
-456.07057792985,884
-453.4736489546475,933
-450.877437182231,809
-448.28194243039627,788
-445.68716451686,815
-443.09310325926003,790
-440.49975847515555,752
-437.9071299820263,815
-435.31521759727354,813
-432.72402113821954,798
-430.13354042210767,846
-427.5437752661022,819
-424.95472548728867,829
-422.36639090267386,864
-419.7787713291855,942
-417.1918665836721,863
-414.60567648290385,817
-412.0202008435715,846
-409.4354394822874,888
-406.8513922155845,869
-404.26805885991723,894
-401.685439231661,888
-399.103533147112,1002
-396.522340422488,937
-393.9418608739278,949
-391.3620943174908,877
-388.7830405691583,890
-386.2046994448317,833
-383.6270707603344,775
-381.05015433141045,801
-378.473949973725,761
-375.8984575028645,803
-373.32367673433623,726
-370.74960748356875,699
-368.1762495659117,734
-365.60360279663576,708
-363.03166699093265,605
-360.4604419639154,593
-357.8899275306178,598
-355.32012350599507,653
-352.7510297049233,592
-350.1826459421999,617
-347.61497203254316,599
-345.04800779059235,593
-342.4817530309082,556
-339.91620756797226,567
-337.35137121618743,632
-334.7872437898774,609
-332.22382510328725,604
-329.66111497058273,522
-327.09911320585127,584
-324.53781962310075,591
-321.9772340362607,568
-319.4173562591816,549
-316.8581861056348,569
-314.2997233893127,538
-311.7419679238294,554
-309.1849195227194,592
-306.62857799943856,620
-304.0729431673641,630
-301.51801483979375,546
-298.963792829947,533
-296.41027695096386,590
-293.85746701590574,602
-291.3053628377552,637
-288.7539642294155,643
-286.2032710037115,668
-283.65328297338897,629
-281.1039999511146,699
-278.5554217494762,718
-276.007548180983,677
-273.4603790580651,680
-270.9139141930734,689
-268.3681533982807,643
-265.8230964858798,733
-263.27874326798565,809
-260.7350935566336,867
-258.1921471637804,793
-255.6499039013039,834
-253.10836358100266,951
-250.56752601459698,822
-248.02739101372765,798
-245.48795838995704,855
-242.94922795476816,953
-240.41119951956557,859
-237.8738728956746,846
-235.33724789434166,869
-232.80132432673452,804
-230.2661020039418,831
-227.73158073697357,904
-225.19776033676033,969
-222.66464061415422,1113
-220.1322213799284,999
-217.60050244477725,975
-215.06948361931552,929
-212.53916471408013,976
-210.00954553952818,1001
-207.48062590603843,981
-204.9524056239104,987
-202.4248845033651,1019
-199.8980623545441,1022
-197.37193898751036,1064
-194.84651421224817,1101
-192.32178783866232,1010
-189.79775967657952,908
-187.27442953574644,1033
-184.7517972258321,1047
-182.2298625564256,999
-179.7086253370378,932
-177.18808537710026,979
-174.66824248596583,1126
-172.14909647290835,1212
-169.6306471471229,1218
-167.11289431772548,1078
-164.59583779375328,1015
-162.07947738416453,1091
-159.5638128978386,1220
-157.04884414357605,1429
-154.53457093009854,1525
-152.02099306604828,1321
-149.50811035998936,1221
-146.99592262040665,1310
-144.48442965570587,1577
-141.97363127421409,1693
-139.46352728417958,1780
-136.95411749377126,1882
-134.44540171107985,1658
-131.93737974411636,1459
-129.43005140081357,1484
-126.92341648902493,1793
-124.41747481652521,2095
-121.91222619101006,2348
-119.40767042009657,2914
-116.90380731132257,3733
-114.40063667214702,4301
-111.8981583099503,5757
-109.3963720320337,8262
-106.89527764561933,11146
-104.39487495785067,11985
-101.89516377579241,13175
-99.39614390642998,19829
-96.89781515667039,30769
-94.40017733334128,37501
-91.90323024319173,33296
-89.40697369289148,26132
-86.91140748903172,17975
-84.41653143812482,11811
-81.92234534660395,13291
-79.42884902082358,16197
-76.93604226705907,16602
-74.4439248915071,14026
-71.95249670028534,12731
-69.46175749943245,11139
-66.97170709490854,10306
-64.48234529259423,9885
-61.99367189829195,10118
-59.50568671772464,11805
-57.01838955653636,13612
-54.53178022029283,14784
-52.045858514480074,16495
-49.560624244506016,18453
-47.07607721569923,21090
-44.59221723330904,19440
-42.10904410250669,15401
-39.62655762838392,13661
-37.14475761595372,14506
-34.66364387015028,14942
-32.18321619582866,20889
-29.70347439776515,25921
-27.224418280657005,24622
-24.74604764912317,30687
-22.26836230770266,48303
-19.7913620608565,65036
-17.315046712966478,65036
-14.83941606833514,65036
-12.36446993118659,65036
-9.89020810566592,65036
-7.416630395839093,65036
-4.94373660569363,65036
-2.471526539137585,65036
-6.821210263296962E-13,65036
2.47084320796705,65036
4.941003281093458,65036
7.410480415786196,65036
9.879274808531363,65036
12.347386655893956,65036
14.814816154518212,65036
17.28156350112681,65036
19.74762889252179,65036
22.21301252558385,65036
24.67771459727237,25601
27.141735304626195,8024
29.605074844762612,6944
32.06773341487792,6076
34.52971121224755,4817
36.99100843422559,4906
39.45162527824516,4876
41.91156194181792,4039
44.370818622535126,3801
46.82939551806646,4277
49.287292826160524,6082
51.74451074464503,6626
54.201049471426245,4704
56.65690920448981,2986
59.112090141899785,2569
61.56659248179983,3077
64.02041642241159,3640
66.4735621620365,3643
68.92602989905402,3819
71.37781983192338,3890
73.82893215918205,3333
76.27936707944684,2801
78.72912479141326,2299
81.17820549385567,1919
83.62660938562783,1877
86.07433666566146,2047
88.5213875329681,1953
90.96776218663751,2172
93.41346082583925,2549
95.85848364982041,2668
98.30283085790859,2226
100.7465026495089,1639
103.18949922410604,1588
105.63182078126385,1649
108.07346752062438,1942
110.51443964190923,1833
112.95473734491827,1593
115.39436082953114,1870
117.83331029570547,1755
120.27158594347827,1557
122.7091879729652,1483
125.1461165843615,1511
127.58237197794062,1476
130.01795435405518,1568
132.4528639131364,1785
134.88710085569494,1615
137.32066538231982,1610
139.75355769367923,1660
142.1857779905207,1551
144.61732647366978,1328
147.04820334403132,1207
149.47840880258934,1361
151.90794305040674,1332
154.33680628862487,1468
156.76499871846443,1649
159.19252054122433,1721
161.61937195828352,1594
164.04555317109896,1624
166.47106438120693,1790
168.89590579022217,1965
171.320077599839,2032
173.7435800118302,2052
176.16641322804742,2263
178.58857745042144,2247
181.01007288096173,2276
183.43089972175687,2263
185.85105817497413,2348
188.27054844285988,2263
190.6893707277394,2217
193.10752523201643,2294
195.5250121581745,2339
197.9418317087751,2535
200.3579840864594,2413
202.7734694939469,2489
205.18828813403627,2605
207.6024402096051,2563
210.01592592360964,2526
212.42874547908548,2534
214.84089907914665,2471
217.2523869269868,2456
219.66320922587727,2474
222.0733661791695,2358
224.48285799029293,2331
226.8916848627572,2479
229.29984700014882,2522
231.7073446061355,2601
234.11417788446204,2554
236.520347038953,2452
238.92585227351185,2527
241.33069379212054,2545
243.73487179884035,2596
246.1383864978112,2506
248.541238093252,2588
250.9434267894609,2565
253.34495279081432,2489
255.74581630176783,2396
258.1460175268563,2460
260.54555667069314,2431
262.9444339379703,2442
265.3426495334594,2494
267.7402036620107,2458
270.1370965285529,2585
272.53332833809407,2461
274.9288992957214,2337
277.32380960660055,2353
279.718059475976,2356
282.1116491091717,2367
284.5045787115897,2478
286.89684848871195,2392
289.2884586460981,2381
291.67940938938807,2513
294.0697009242996,2575
296.4593334566299,2499
298.84830719225477,2456
301.23662233712923,2517
303.6242790972866,2497
306.01127767884,2424
308.39761828798066,2411
310.78330113097934,2394
313.16832641418534,2342
315.5526943440269,2318
317.9364051270112,2273
320.3194589697242,2220
322.70185607883093,2309
325.0835966610754,2199
327.4646809232805,2098
329.8451090723478,2196
332.2248813152577,2206
334.6039978590701,2311
336.9824589109231,2204
339.36026467803447,2154
341.7374153677,2153
344.113911187295,2117
346.48975234427337,2113
348.8649390461686,2154
351.2394715005918,2185
353.61334991523415,2098
355.9865744978655,2047
358.35914545633375,2148
360.73106299856715,2186
363.10232733257146,2084
365.47293866643247,2017
367.84289720831396,2048
370.2122031664593,2063
372.5808567491905,1954
374.9488581649083,1980
377.31620762209275,1983
379.6829053293021,1977
382.0489514951745,1971
384.4143463284262,1879
386.7790900378528,1936
389.14318283232853,1942
391.50662492080653,2008
393.86941651231916,1886
396.23155781597745,1967
398.5930490409713,2001
400.9538903965696,1971
403.3140820921202,1981
405.6736243370498,1927
408.03251734086336,1921
410.3907613131465,1880
412.74835646356166,1942
415.10530300185144,1876
417.4616011378372,1851
419.81725108141893,1944
422.1722530425758,1848
424.5266072313656,1882
426.880313857925,1837
429.2333731324701,1822
431.58578526529516,1901
433.9375504667738,1934
436.2886689473588,1879
438.63914091758113,1871
440.9889665880513,1838
443.33814616945835,1802
445.68667987257015,1853
448.03456790823395,1850
450.3818104873759,1801
452.72840782100013,1715
455.07436012019105,1794
457.41966759611057,1826
459.7643304600007,1862
462.10834892318155,1843
464.4517231970525,1758
466.79445349309174,1809
469.1365400228566,1861
471.4779829979826,1876
473.81878263018564,1785
476.15893913125876,1752
478.4984527130747,1873
480.8373235875855,1949
483.17555196682144,1879
485.5131380628919,2004
487.8500820879857,2086
490.1863842543697,2061
492.52204477439034,2148
494.8570638604725,2325
497.1914417251204,2504
499.52517858091653,2859
501.85827464052306,3434
504.19073011668036,4084
506.5225452222086,4755
508.85372017000566,5255
511.18425517304956,5337
513.514150444396,5841
515.8434061971808,6644
518.1720226446176,7157
520.4999999999999,6952
522.8273384766991,6354
525.1540382881666,5793
527.480099647932,5018
529.8055227696037,4005
532.1303078668694,2898
534.454455153496,2410
536.777964843328,2141
539.1008371502907,2008
541.4230722883866,1992
543.744670471698,1990
546.0656319143858,2044
548.3859568306899,1970
550.7056454349294,1874
553.0246979415016,1824
555.3431145648834,1866
557.6608955196306,1848
559.978041020377,1941
562.2945512818363,1886
564.6104265188006,1994
566.9256669461412,1930
569.2402727788082,1922
571.5542442318302,1900
573.8675815203156,1941
576.1802848594508,1980
578.4923544645015,2079
580.8037905508126,2047
583.114593333807,1968
585.4247630289875,1988
587.7342998519354,1941
590.0432040183106,1992
592.3514757438526,1965
594.6591152443794,1945
596.9661227357875,1888
599.2724984340531,1925
601.578242555231,1922
603.8833553154542,1892
606.1878369309362,1811
608.4916876179676,1822
610.7949075929192,1874
613.0974970722403,1839
615.3994562724587,1867
617.7007854101818,1926
620.0014847020951,1992
622.3015543649641,1998
624.6009946156324,1936
626.8998056710224,1970
629.1979877481361,1907
631.4955410640538,1905
633.7924658359349,1895
636.0887622810175,1864
638.3844306166192,1869
640.6794710601358,1881
642.9738838290426,1922
645.2676691408932,1909
647.5608272133207,1960
649.853358264037,1926
652.1452625108324,2000
654.4365401715764,1850
656.7271914642178,1939
659.0172166067838,1941
661.3066158173809,1938
663.5953893141935,1865
665.8835373154867,1855
668.1710600396028,1840
670.4579577049639,1892
672.7442305300709,1876
675.0298787335033,1960
677.3149025339197,2001
679.599302150058,1840
681.8830778007342,1883
684.1662297048437,1903
686.4487580813608,1890
688.7306631493387,1869
691.0119451279091,1847
693.2926042362834,1900
695.5726406937516,1878
697.8520547196814,1914
700.1308465335215,1913
702.4090163547982,1871
704.6865644031171,1865
706.9634908981619,1871
709.2397960596965,1864
711.5154801075631,1892
713.7905432616823,1943
716.0649857420548,1876
718.3388077687592,1894
720.612009561953,1905
722.8845913418733,1893
725.1565533288352,1857
727.427895743234,1888
729.6986188055427,1857
731.9687227363137,1823
734.238207756178,1817
736.5070740858458,1924
738.7753219461066,1952
741.0429515578281,1867
743.3099631419569,1885
745.5763569195191,1867
747.8421331116193,1833
750.1072919394409,1840
752.3718336242467,1904
754.6357583873777,1844
756.8990664502545,1837
759.1617580343765,1812
761.423833361321,1808
763.6852926527457,1956
765.9461361303862,1952
768.206364016058,1919
770.4659765316536,1850
772.7249738991469,1876
774.9833563405886,1920
777.2411240781092,1930
779.4982773339183,1924
781.7548163303044,1901
784.010741289634,1885
786.2660524343538,1889
788.5207499869881,1895
790.7748341701416,1889
793.0283052064964,1965
795.2811633188143,1975
797.5334087299362,1931
799.7850416627813,1971
802.0360623403484,1843
804.2864709857143,1978
806.5362678220353,2032
808.7854530725468,1909
811.0340269605625,1941
813.2819897094754,1976
815.5293415427581,1924
817.77608268396,1901
820.0222133567116,1921
822.2677337847211,1842
824.5126441917765,1931
826.7569448017433,1976
829.0006358385675,1974
831.2437175262731,1888
833.4861900889629,1922
835.7280537508192,1930
837.9693087361026,1919
840.2099552691533,1919
842.4499935743896,1946
844.689423876309,1904
846.9282463994886,1933
849.1664613685833,1952
851.4040690083276,1937
853.6410695435349,1892
855.877463199097,1837
858.1132501999847,1907
860.3484307712487,1921
862.5830051380175,1940
864.8169735254988,1959
867.0503361589791,1974
869.2830932638243,1956
871.5152450654786,1937
873.7467917894654,1944
875.9777336613873,1980
878.2080709069252,1990
880.4378037518389,1924
882.666932421968,1924
884.8954571432301,1956
887.1233781416219,1897
889.3506956432192,1900
891.5774098741766,1966
893.803521060728,1991
896.0290294291852,1926
898.2539352059397,1934
900.4782386174619,1892
902.7019398903011,1890
904.925039251085,1949
907.147536926521,1940
909.3694331433943,2012
911.59072812857,1941
913.8114221089921,1971
916.0315153116827,1936
918.2510079637437,1988
920.4699002923547,1968
922.6881925247761,1971
924.905884888345,2012
927.1229776104793,1945
929.3394709186747,1913
931.555365040506,1942
933.7706602036275,1912
935.9853566357709,1912
938.1994545647489,1995
940.4129542184515,1989
942.6258558248488,1963
944.8381596119883,1994
947.0498658079974,2036
949.2609746410825,1930
951.4714863395287,1991
953.6814011316998,1996
955.8907192460387,1999
958.0994409110671,1922
960.3075663553858,1947
962.5150958076741,1942
964.7220294966913,1922
966.928367651274,1903
969.1341105003388,1871
971.3392582728806,1876
973.5438111979742,1857
975.747769504772,1852
977.9511334225061,1892
980.153903180487,1803
982.3560790081052,1823
984.5576611348289,1830
986.7586497902058,1812
988.9590452038618,1791
991.158847605503,1708
993.3580572249133,1685
995.5566742919558,1668
997.7546990365728,1609
999.952131688785,1630
1002.1489724786926,1563
1004.3452216364743,1604
1006.5408793923874,1608
1008.7359459767691,1566
1010.9304216200343,1570
1013.1243065526781,1556
1015.3176010052733,1544
1017.510305208472,1540
1019.7024193930064,1512
1021.8939437896848,1565
1024.0848786293977,1493
1026.2752241431122,1509
1028.4649805618747,1531
1030.6541481168115,1536
1032.842727039127,1539
1035.0307175601051,1467
1037.2181199111074,1493
1039.4049343235752,1426
1041.591161029029,1445
1043.7768002590683,1453
1045.9618522453698,1430
1048.1463172196918,1419
1050.3301954138697,1479
1052.513487059818,1502
1054.69619238953,1422
1056.8783116350783,1453
1059.0598450286152,1410
1061.2407928023704,1391
1063.4211551886528,1454
1065.6009324198508,1465
1067.780124728432,1370
1069.9587323469414,1438
1072.1367555080046,1484
1074.314194444325,1424
1076.4910493886855,1408
1078.667320573947,1416
1080.843008233051,1396
1083.0181125990161,1386
1085.1926339049414,1432
1087.3665723840027,1432
1089.5399282694575,1364
1091.7127017946405,1344
1093.8848931929647,1314
1096.0565026979243,1377
1098.2275305430899,1406
1100.3979769621128,1319
1102.567842188722,1365
1104.737126456726,1316
1106.9058300000124,1312
1109.0739530525475,1342
1111.2414958483764,1405
1113.4084586216231,1369
1115.5748416064907,1386
1117.7406450372605,1364
1119.9058691482942,1360
1122.0705141740304,1380
1124.2345803489884,1394
1126.3980679077658,1367
1128.5609770850388,1372
1130.7233081155623,1375
1132.8850612341707,1378
1135.0462366757774,1319
1137.2068346753745,1378
1139.3668554680326,1356
1141.526299288901,1392
1143.68516637321,1327
1145.8434569562655,1286
1148.001171273455,1299
1150.158309560244,1356
1152.3148720521767,1340
1154.470858984876,1374
1156.626270594044,1335
1158.7811071154629,1363
1160.9353687849912,1349
1163.089055838569,1340
1165.242168512213,1350
1167.3947070420209,1328
1169.5466716641677,1341
1171.6980626149075,1370
1173.8488801305748,1328
1175.9991244475814,1342
1178.1487958024186,1368
1180.2978944316555,1365
1182.4464205719428,1318
1184.5943744600072,1341
1186.7417563326567,1317
1188.8885664267755,1328
1191.0348049793297,1349
1193.1804722273619,1325
1195.325568407995,1289
1197.4700937584303,1293
1199.614048515948,1286
1201.7574329179074,1306
1203.900247201746,1284
1206.042491604982,1319
1208.1841663652099,1296
1210.3252717201053,1259
1212.465807907422,1341
1214.6057751649923,1304
1216.7451737307279,1352
1218.8840038426192,1332
1221.0222657387353,1315
1223.1599596572241,1291
1225.2970858363137,1340
1227.4336445143094,1272
1229.5696359295966,1348
1231.705060320639,1324
1233.8399179259786,1285
1235.9742089842384,1332
1238.107933734118,1316
1240.2410924143974,1363
1242.373685263935,1325
1244.5057125216676,1360
1246.6371744266116,1316
1248.7680712178621,1355
1250.898403134593,1332
1253.028170416058,1358
1255.1573733015875,1365
1257.2860120305932,1332
1259.4140868425648,1334
1261.54159797707,1383
1263.6685456737569,1312
1265.7949301723515,1336
1267.9207517126597,1297
1270.046010534565,1342
1272.1707068780306,1344
1274.2948409830983,1301
1276.4184130898889,1285
1278.541423438603,1364
1280.6638722695184,1351
1282.785759822993,1329
1284.9070863394636,1341
1287.0278520594447,1292
1289.1480572235314,1298
1291.2677020723963,1317
1293.3867868467923,1250
1295.5053117875495,1301
1297.623277135579,1317
1299.740683131868,1276
1301.8575300174857,1249
1303.973818033578,1356
1306.0895474213703,1321
1308.2047184221678,1293
1310.3193312773528,1333
1312.4333862283888,1335
1314.5468835168163,1364
1316.659823384255,1310
1318.7722060724045,1331
1320.8840318230418,1352
1322.9953008780249,1351
1325.1060134792888,1342
1327.2161698688478,1325
1329.3257702887959,1304
1331.4348149813054,1369
1333.5433041886276,1380
1335.6512381530933,1309
1337.7586171171101,1358
1339.8654413231675,1349
1341.9717110138317,1388
1344.0774264317488,1288
1346.1825878196432,1379
1348.2871954203192,1377
1350.3912494766587,1357
1352.4947502316231,1359
1354.5976979282532,1325
1356.7000928096686,1318
1358.8019351190665,1317
1360.9032250997243,1229
1363.0039629949988,1363
1365.1041490483235,1292
1367.2037835032133,1345
1369.3028666032606,1305
1371.401398592137,1335
1373.4993797135926,1347
1375.5968102114575,1364
1377.6936903296396,1344
1379.7900203121262,1345
1381.8858004029835,1376
1383.9810308463561,1370
1386.075711886469,1350
1388.1698437676241,1304
1390.2634267342032,1366
1392.356461030667,1378
1394.4489469015557,1419
1396.5408845914872,1356
1398.6322743451592,1331
1400.7231164073469,1369
1402.813411022907,1416
1404.903158436773,1380
1406.9923588939578,1394
1409.0810126395531,1423
1411.1691199187303,1393
1413.2566809767386,1421
1415.343696058907,1382
1417.4301654106425,1394
1419.5160892774315,1366
1421.6014679048399,1391
1423.6863015385125,1356
1425.7705904241707,1410
1427.8543348076178,1403
1429.9375349347342,1422
1432.0201910514802,1382
1434.102303403894,1343
1436.1838722380944,1332
1438.2648978002767,1359
1440.3453803367174,1413
1442.4253200937692,1393
1444.5047173178677,1430
1446.5835722555234,1381
1448.6618851533285,1412
1450.739656257952,1449
1452.8168858161434,1360
1454.8935740747306,1364
1456.96972128062,1359
1459.045327680797,1344
1461.120393522327,1324
1463.1949190523528,1331
1465.2689045180973,1416
1467.3423501668608,1377
1469.415256246024,1401
1471.4876230030463,1363
1473.559450685465,1378
1475.6307395408976,1364
1477.7014898170391,1339
1479.771701761665,1384
1481.8413756226287,1349
1483.9105116478618,1409
1485.9791100853772,1413
1488.0471711832643,1417
1490.1146951896926,1312
1492.1816823529098,1357
1494.2481329212433,1360
1496.3140471430984,1344
1498.3794252669609,1358
1500.4442675413939,1394
1502.5085742150404,1357
1504.572345536622,1396
1506.6355817549388,1372
1508.6982831188702,1352
1510.7604498773744,1364
1512.8220822794883,1373
1514.8831805743293,1362
1516.9437450110909,1370
1519.003775839048,1391
1521.0632733075522,1368
1523.1222376660367,1395
1525.1806691640113,1352
1527.2385680510652,1410
1529.2959345768668,1381
1531.3527689911643,1335
1533.4090715437833,1371
1535.4648424846291,1431
1537.5200820636855,1374
1539.5747905310159,1397
1541.6289681367616,1346
1543.6826151311434,1324
1545.7357317644614,1348
1547.7883182870937,1451
1549.8403749494987,1354
1551.8919020022113,1403
1553.9428996958477,1400
1555.9933682811015,1367
1558.0433080087469,1403
1560.0927191296346,1352
1562.1416018946961,1351
1564.1899565549415,1381
1566.2377833614592,1367
1568.2850825654164,1369
1570.3318544180606,1389
1572.3780991707158,1356
1574.423817074788,1380
1576.4690083817595,1387
1578.5136733431923,1395
1580.5578122107272,1412
1582.601425236085,1368
1584.6445126710646,1377
1586.6870747675434,1343
1588.7291117774776,1398
1590.7706239529034,1388
1592.8116115459347,1338
1594.8520748087658,1324
1596.8920139936686,1395
1598.9314293529933,1389
1600.9703211391711,1375
1603.008689604711,1337
1605.0465350022005,1317
1607.0838575843068,1374
1609.1206576037753,1354
1611.1569353134305,1322
1613.1926909661765,1366
1615.2279248149953,1322
1617.2626371129481,1368
1619.2968281131757,1377
1621.3304980688963,1324
1623.3636472334088,1344
1625.39627586009,1408
1627.428384202396,1372
1629.459972513861,1342
1631.4910410480993,1371
1633.5215900588028,1373
1635.551619799744,1333
1637.5811305247717,1350
1639.6101224878166,1339
1641.6385959428862,1321
1643.6665511440683,1391
1645.693988345528,1389
1647.7209078015112,1395
1649.7473097663405,1393
1651.7731944944203,1389
1653.7985622402307,1349
1655.823413258333,1351
1657.847747803366,1387
1659.8715661300494,1328
1661.8948684931793,1323
1663.9176551476316,1334
1665.9399263483624,1323
1667.9616823504057,1325
1669.982923408873,1348
1672.0036497789574,1317
1674.0238617159293,1346
1676.043559475138,1357
1678.0627433120121,1362
1680.081413482059,1351
1682.0995702408654,1344
1684.117213844096,1331
1686.134344547495,1313
1688.1509626068864,1299
1690.1670682781705,1351
1692.182661817329,1353
1694.1977434804217,1357
1696.2123135235875,1356
1698.226372203043,1306
1700.2399197750851,1323
1702.2529564960905,1393
1704.2654826225112,1375
1706.277498410882,1371
1708.2890041178139,1328
1710.2999999999988,1335
1712.3104863142066,1387
1714.3204633172854,1353
1716.329931266163,1290
1718.3388904178469,1328
1720.3473410294214,1360
1722.3552833580516,1296
1724.3627176609807,1322
1726.3696441955308,1346
1728.3760632191033,1370
1730.3819749891782,1416
1732.3873797633146,1361
1734.3922777991502,1326
1736.3966693544012,1302
1738.4005546868639,1372
1740.4039340544127,1377
1742.406807715001,1358
1744.4091759266616,1402
1746.4110389475054,1382
1748.4123970357223,1373
1750.413250449582,1432
1752.4135994474318,1370
1754.4134442876993,1389
1756.4127852288902,1434
1758.4116225295893,1325
1760.4099564484595,1369
1762.407787244244,1385
1764.405115175764,1368
1766.4019405019203,1382
1768.3982634816916,1363
1770.3940843741357,1337
1772.3894034383907,1357
1774.3842209336717,1353
1776.378537119274,1347
1778.372352254571,1375
1780.3656665990156,1348
1782.3584804121397,1383
1784.3507939535534,1373
1786.3426074829463,1364
1788.3339212600863,1405
1790.3247355448211,1348
1792.3150505970766,1407
1794.3048666768573,1349
1796.2941840442477,1360
1798.2830029594106,1374
1800.2713236825884,1358
1802.2591464741004,1374
1804.2464715943465,1311
1806.2332993038058,1352
1808.2196298630352,1306
1810.2054635326708,1392
1812.190800573428,1447
1814.175641246101,1451
1816.1599858115628,1368
1818.1438345307652,1428
1820.127187664738,1368
1822.1100454745924,1392
1824.092408221516,1330
1826.0742761667766,1323
1828.055649571721,1371
1830.0365286977735,1395
1832.0169138064398,1425
1833.9968051593014,1354
1835.9762030180214,1370
1837.9551076443408,1411
1839.9335193000788,1413
1841.9114382471344,1316
1843.888864747485,1398
1845.8657990631878,1340
1847.842241456378,1334
1849.8181921892697,1348
1851.7936515241558,1421
1853.7686197234098,1386
1855.7430970494815,1421
1857.7170837649014,1327
1859.6905801322787,1338
1861.6635864143004,1340
1863.6361028737338,1353
1865.608129773424,1379
1867.5796673762961,1376
1869.5507159453537,1409
1871.521275743678,1418
1873.4913470344313,1357
1875.4609300808534,1439
1877.4300251462632,1384
1879.3986324940588,1367
1881.366752387717,1401
1883.3343850907936,1412
1885.3015308669228,1401
1887.268189979819,1395
1889.2343626932739,1369
1891.2000492711595,1397
1893.1652499774254,1357
1895.1299650761011,1444
1897.0941948312952,1413
1899.0579395071945,1357
1901.0211993680641,1411
1902.98397467825,1412
1904.9462657021745,1448
1906.9080727043415,1375
1908.869395949332,1356
1910.8302357018065,1341
1912.790592226504,1395
1914.7504657882428,1377
1916.7098566519212,1409
1918.6687650825133,1335
1920.6271913450764,1396
1922.5851357047422,1398
1924.5425984267245,1416
1926.499579776314,1341
1928.4560800188833,1360
1930.4120994198802,1411
1932.367638244833,1390
1934.32269675935,1401
1936.2772752291175,1393
1938.231373919899,1383
1940.1849930975404,1295
1942.1381330279637,1344
1944.0907939771696,1366
1946.0429762112412,1355
1947.9946799963363,1398
1949.9459055986945,1363
1951.896653284633,1415
1953.8469233205478,1407
1955.7967159729142,1346
1957.7460315082863,1389
1959.6948701932974,1361
1961.6432322946594,1400
1963.5911180791632,1376
1965.5385278136787,1432
1967.4854617651545,1364
1969.4319202006182,1331
1971.377903387176,1334
1973.3234115920136,1333
1975.268445082395,1380
1977.2130041256642,1375
1979.1570889892423,1368
1981.1006999406304,1386
1983.04383724741,1314
1984.986501177238,1342
1986.928691997853,1405
1988.8704099770712,1336
1990.811655382789,1352
1992.7524284829801,1373
1994.692729545698,1374
1996.6325588390755,1364
1998.5719166313224,1394
2000.5108031907307,1309
2002.4492187856677,1316
2004.387163684583,1387
2006.3246381560011,1414
2008.2616424685298,1351
2010.1981768908527,1348
2012.1342416917332,1332
2014.069837140014,1369
2016.0049635046162,1381
2017.9396210545406,1328
2019.8738100588666,1305
2021.8075307867502,1373
2023.740783507431,1404
2025.6735684902228,1424
2027.6058860045214,1344
2029.5377363198004,1391
2031.4691197056118,1336
2033.4000364315875,1287
2035.3304867674374,1336
2037.260470982952,1321
2039.189989347998,1347
2041.1190421325232,1358
2043.047629606554,1341
2044.9757520401945,1352
2046.9034097036288,1372
2048.8306028671195,1330
2050.7573318010086,1333
2052.683596775716,1354
2054.609398061742,1340
2056.5347359296647,1286
2058.4596106501403,1329
2060.384022493906,1368
2062.3079717317764,1359
2064.231458634646,1367
2066.1544834734873,1337
2068.077046519352,1393
2069.99914804337,1359
2071.9207883167524,1355
2073.8419676107865,1332
2075.7626861968406,1312
2077.6829443463607,1341
2079.6027423308715,1311
2081.522080421977,1323
2083.440958891362,1350
2085.359378010786,1317
2087.2773380520907,1350
2089.194839287196,1374
2091.111881988101,1360
2093.0284664268825,1378
2094.9445928756973,1341
2096.86026160678,1306
2098.775472892446,1324
2100.690227005088,1316
2102.604524217178,1327
2104.5183648012676,1320
2106.431749029985,1353
2108.34467717604,1403
2110.2571495122206,1359
2112.169166311393,1350
2114.080727846503,1301
2115.9918343905747,1313
2117.902486216711,1304
2119.8126835980956,1389
2121.722426807987,1417
2123.6317161197285,1359
2125.5405518067364,1361
2127.448934142509,1391
2129.356863400624,1394
2131.264339854737,1434
2133.1713637785815,1392
2135.077935445972,1351
2136.9840551308002,1361
2138.889723107037,1400
2140.7949396487334,1347
2142.699705030018,1418
2144.6040195250994,1384
2146.507883408264,1344
2148.4112969538774,1448
2150.3142604363848,1342
2152.2167741303097,1432
2154.1188383102535,1427
2156.0204532508997,1414
2157.9216192270064,1384
2159.822336513414,1428
2161.7226053850413,1389
2163.622426116884,1400
2165.5217989840185,1415
2167.4207242616,1478
2169.319202224862,1438
2171.2172331491165,1440
2173.1148173097563,1340
2175.0119549822507,1427
2176.90864644215,1449
2178.8048919650823,1500
2180.7006918267534,1471
2182.596046302952,1427
2184.4909556695407,1560
2186.3854202024645,1458
2188.279440177746,1466
2190.173015871487,1446
2192.066147559868,1479
2193.958835519149,1424
2195.851080025667,1455
2197.7428813558417,1466
2199.6342397861667,1457
2201.5251555932186,1442
2203.415629053651,1456
2205.3056604441986,1497
2207.19525004167,1488
2209.084398122958,1474
2210.9731049650327,1434
2212.861370844941,1470
2214.749196039812,1467
2216.636580826851,1493
2218.523525483344,1469
2220.410030286655,1421
2222.296095514226,1437
2224.1817214435805,1491
2226.066908352319,1502
2227.951656518121,1468
2229.835966218746,1447
2231.71983773203,1454
2233.6032713358913,1436
2235.486267308324,1445
2237.3688259274036,1434
2239.2509474712824,1394
2241.132632218193,1400
2243.013880446447,1486
2244.8946924344323,1445
2246.7750684606203,1326
2248.6550088035574,1434
2250.534513741871,1489
2252.413583554265,1523
2254.292218519526,1489
2256.170418916517,1451
2258.0481850241786,1432
2259.925517121534,1420
2261.8024154876825,1474
2263.678880401803,1449
2265.5549121431536,1368
2267.430510991071,1388
2269.305677224971,1447
2271.180411124348,1410
2273.0547129687766,1443
2274.9285830379076,1411
2276.8020216114737,1414
2278.6750289692845,1379
2280.5476053912294,1446
2282.4197511572766,1423
2284.2914665474727,1526
2286.162751841943,1473
2288.0336073208937,1471
2289.904033264608,1444
2291.774029953448,1476
2293.6435976678554,1454
2295.5127366883517,1370
2297.381447295534,1392
2299.2497297700825,1333
2301.1175843927526,1320
2302.9850114443825,1267
2304.852011205885,1256
2306.7185839582553,1234
2308.5847299825664,1246
2310.4504495599676,1249
2312.3157429716925,1214
2314.1806104990483,1235
2316.0450524234247,1275
2317.9090690262888,1223
2319.772660589186,1207
2321.635827393742,1199
2323.498569721661,1237
2325.3608878547248,1196
2327.2227820747967,1153
2329.0842526638157,1204
2330.945299903803,1207
2332.805924076857,1214
2334.6661254651535,1254
2336.525904350951,1192
2338.3852610165827,1223
2340.244195744464,1220
2342.102708817088,1180
2343.9608005170253,1206
2345.8184711269287,1171
2347.675720929526,1210
2349.532550207628,1211
2351.38895924412,1184
2353.24494832197,1229
2355.100517724223,1211
2356.955667734004,1223
2358.810398634514,1227
2360.664710709037,1265
2362.5186042409337,1208
2364.3720795136437,1234
2366.225136810686,1228
2368.0777764156583,1221
2369.929998612237,1264
2371.7818036841777,1250
2373.633191915315,1185
2375.484163589562,1216
2377.3347189909114,1239
2379.184858403434,1188
2381.03458211128,1198
2382.8838903986775,1205
2384.732783549936,1205
2386.5812618494406,1223
2388.4293255816588,1191
2390.2769750311327,1197
2392.1242104824883,1188
2393.971032220427,1224
2395.8174405297295,1227
2397.6634356952563,1203
2399.509018001947,1219
2401.3541877348193,1196
2403.1989451789705,1147
2405.043290619576,1163
2406.8872243418905,1211
2408.730746631247,1172
2410.5738577730594,1220
2412.4165580528183,1199
2414.258847756095,1208
2416.100727168537,1179
2417.9421965758734,1240
2419.783256263912,1245
2421.623906518538,1241
2423.4641476257157,1223
2425.303979871491,1211
2427.143403541984,1233
2428.9824189233977,1279
2430.821026302012,1183
2432.6592259641866,1233
2434.497018196361,1237
2436.33440328505,1220
2438.171381516851,1235
2440.00795317844,1248
2441.844118556569,1222
2443.6798779380724,1216
2445.5152316098606,1173
2447.3501798589255,1206
2449.1847229723357,1232
2451.0188612372403,1155
2452.8525949408663,1246
2454.6859243705203,1235
2456.518849813587,1165
2458.3513715575314,1238
2460.183489889895,1253
2462.015205098301,1237
2463.8465174704493,1204
2465.67742729412,1201
2467.5079348571717,1259
2469.338040447542,1172
2471.1677443532476,1182
2472.9970468623833,1225
2474.825948263123,1188
2476.6544488437207,1187
2478.482548892508,1152
2480.310248697896,1189
2482.137548548374,1215
2483.9644487325118,1173
2485.790949538956,1209
2487.617051256433,1207
2489.44275417375,1195
2491.26805857979,1185
2493.0929647635157,1245
2494.917473013971,1181
2496.741583620276,1208
2498.5652968716304,1205
2500.3886130573137,1179
2502.2115324666834,1166
2504.0340553891765,1250
2505.856182114308,1259
2507.6779129316733,1180
2509.499248130945,1174
2511.3201880018764,1186
2513.140732834298,1274
2514.9608829181198,1245
2516.780638543331,1216
2518.6,1204
2520.418967578273,1232
2522.237541568376,1240
2524.0557222606144,1248
2525.8735099453706,1235
2527.6909049131086,1188
2529.507907454368,1192
2531.32451785977,1222
2533.140736420014,1211
2534.9565634258774,1221
2536.771999168218,1205
2538.5870439379714,1216
2540.4016980261526,1173
2542.2159617238544,1228
2544.02983532225,1162
2545.8433191125914,1244
2547.656413386209,1160
2549.4691184345115,1166
2551.2814345489874,1217
2553.093362021204,1204
2554.904901142808,1211
2556.716052205523,1324
2558.526815501153,1216
2560.3371913215824,1214
2562.147179958771,1178
2563.956781704761,1181
2565.7659968516705,1168
2567.5748256916986,1243
2569.3832685171224,1160
2571.1913256202984,1214
2572.9989972936614,1233
2574.806283829725,1160
2576.613185521084,1194
2578.4197026604074,1187
2580.2258355404483,1207
2582.031584454035,1160
2583.836949694077,1208
2585.6419315535613,1144
2587.4465303255533,1225
2589.2507463032002,1198
2591.0545797797245,1212
2592.8580310484303,1173
2594.6611004026995,1218
2596.463788135992,1206
2598.266094541849,1191
2600.0680199138874,1216
2601.869564545807,1153
2603.670728731383,1193
2605.4715127644704,1238
2607.2719169390048,1165
2609.071941548998,1210
2610.8715868885433,1168
2612.670853251811,1241
2614.469740933052,1173
2616.268250226594,1189
2618.0663814268455,1249
2619.864134828292,1233
2621.6615107255006,1188
2623.458509413115,1238
2625.2551311858597,1237
2627.0513763385347,1155
2628.8472451660223,1174
2630.6427379632833,1227
2632.4378550253564,1180
2634.232596647359,1164
2636.026963124488,1179
2637.8209547520187,1217
2639.6145718253065,1186
2641.407814639785,1280
2643.200683490966,1261
2644.9931786744414,1185
2646.7853004858807,1256
2648.577049221034,1219
2650.3684251757277,1253
2652.1594286458712,1270
2653.9500599274484,1172
2655.740319316525,1184
2657.5302071092437,1224
2659.3197236018286,1210
2661.10886909058,1144
2662.8976438718782,1223
2664.686048242183,1224
2666.4740824980327,1157
2668.2617469360443,1257
2670.0490418529134,1190
2671.8359675454153,1229
2673.622524310403,1231
2675.408712444811,1176
2677.1945322456495,1195
2678.979984010009,1178
2680.76506803506,1181
2682.5497846180497,1213
2684.334134056306,1177
2686.1181166472343,1192
2687.9017326883213,1231
2689.6849824771293,1215
2691.4678663113013,1195
2693.2503844885596,1213
2695.032537306705,1138
2696.8143250636167,1225
2698.5957480572542,1194
2700.3768065856534,1236
2702.1575009469316,1172
2703.937831439283,1215
2705.717798360982,1219
2707.4974020103837,1264
2709.276642685917,1182
2711.055520686095,1193
2712.834036309506,1197
2714.612189854819,1172
2716.389981620782,1255
2718.1674119062204,1170
2719.944481010041,1216
2721.721189231226,1210
2723.4975368688415,1211
2725.273524222027,1240
2727.0491515900053,1226
2728.824419272075,1238
2730.5993275676146,1176
2732.3738767760838,1188
2734.148067197016,1208
2735.921899130031,1146
2737.6953728748194,1229
2739.468488731156,1192
2741.2412469988926,1215
2743.0136479779617,1173
2744.785691968372,1243
2746.5573792702116,1279
2748.3287101836504,1182
2750.099685008934,1207
2751.870304046388,1226
2753.640567596418,1159
2755.4104759595057,1228
2757.1800294362156,1192
2758.949228327187,1182
2760.7180729331412,1189
2762.486563554877,1172
2764.254700493272,1138
2766.022484049284,1246
2767.789914523947,1233
2769.5569922183786,1213
2771.3237174337705,1247
2773.090090471394,1255
2774.8561116326036,1249
2776.6217812188274,1231
2778.3870995315756,1149
2780.1520668724356,1209
2781.9166835430747,1206
2783.6809498452394,1207
2785.444866080754,1215
2787.2084325515225,1219
2788.971649559527,1161
2790.73451740683,1225
2792.4970363955713,1247
2794.2592068279705,1236
2796.0210290063264,1204
2797.7825032330147,1225
2799.543629810493,1167
2801.304409041296,1189
2803.0648412280366,1216
2804.8249266734088,1195
2806.5846656801846,1221
2808.344058551212,1243
2810.1031055894246,1245
2811.8618070978273,1263
2813.6201633795085,1216
2815.378174737636,1212
2817.1358414754536,1193
2818.893163896285,1239
2820.6501423035334,1253
2822.4067770006814,1135
2824.1630682912883,1201
2825.9190164789957,1190
2827.6746218675207,1191
2829.429884760661,1172
2831.184805462294,1284
2832.9393842763743,1214
2834.693621506936,1211
2836.4475174580916,1243
2838.201072434034,1225
2839.954286739034,1191
2841.707160677441,1226
2843.459694553685,1221
2845.2118886722724,1242
2846.96374333779,1183
2848.7152588549034,1176
2850.4664355283567,1230
2852.217273662973,1265
2853.9677735636546,1241
2855.7179355353833,1245
2857.4677598832186,1204
2859.217246912299,1225
2860.9663969278427,1257
2862.715210235146,1226
2864.4636871395846,1178
2866.211827946614,1186
2867.9596329617652,1198
2869.7071024906536,1211
2871.4542368389684,1173
2873.20103631248,1181
2874.947501217038,1135
2876.6936318585695,1179
2878.4394285430812,1176
2880.1848915766604,1223
2881.9300212654707,1291
2883.6748179157553,1247
2885.4192818338374,1225
2887.1634133261173,1236
2888.907212699077,1240
2890.6506802592744,1237
2892.393816313348,1213
2894.1366211680142,1271
2895.8790951300693,1196
2897.621238506388,1261
2899.363051603925,1153
2901.1045347297118,1171
2902.8456881908596,1254
2904.58651229456,1218
2906.327007348081,1218
2908.067173658772,1164
2909.8070115340597,1198
2911.5465212814497,1215
2913.285703208527,1177
2915.0245576229563,1213
2916.7630848324807,1263
2918.5012851449196,1209
2920.2391588681758,1202
2921.976706310227,1205
2923.7139277791334,1244
2925.4508235830313,1238
2927.187394030137,1289
2928.923639428745,1176
2930.6595600872306,1239
2932.395156314046,1223
2934.1304284177218,1266
2935.8653767068713,1329
2937.6000014901815,1216
2939.3343030764227,1235
2941.068281774442,1224
2942.8019378931644,1249
2944.5352717415976,1230
2946.2682836288236,1237
2948.0009738640065,1237
2949.7333427563885,1272
2951.465390615289,1281
2953.1971177501086,1208
2954.9285244703265,1189
2956.6596110855,1230
2958.3903779052657,1240
2960.1208252393385,1236
2961.8509533975125,1189
2963.5807626896617,1214
2965.3102534257378,1188
2967.0394259157715,1265
2968.768280469873,1237
2970.496817398232,1223
2972.2250370111146,1235
2973.952939618869,1222
2975.6805255319196,1219
2977.4077950607707,1236
2979.134748516006,1198
2980.861386208289,1216
2982.587708448359,1194
2984.313715547037,1199
2986.039407815222,1217
2987.764785563891,1207
2989.489849104102,1183
2991.2145987469908,1205
2992.9390348037705,1232
2994.6631575857346,1187
2996.3869674042576,1185
2998.1104645707887,1196
2999.83364939686,1232
3001.5565221940783,1183
3003.2790832741334,1194
3005.0013329487924,1175
3006.7232715298996,1204
3008.4448993293804,1168
3010.166216659239,1204
3011.887223831558,1241
3013.607921158498,1196
3015.3283089522993,1241
3017.0483875252826,1207
3018.7681571898443,1210
3020.4876182584626,1250
3022.2067710436927,1189
3023.9256158581707,1224
3025.644153014609,1229
3027.362382825801,1232
3029.0803056046193,1217
3030.797921664012,1195
3032.5152313170106,1216
3034.2322348767225,1182
3035.9489326563353,1243
3037.665324969115,1244
3039.3814121284063,1176
3041.097194447633,1236
3042.812672240299,1248
3044.5278458199855,1217
3046.2427155003525,1232
3047.9572815951406,1171
3049.671544418167,1187
3051.38550428333,1182
3053.0991615046073,1216
3054.812516396051,1267
3056.5255692717974,1186
3058.2383204460575,1191
3059.9507702331257,1218
3061.662918947372,1207
3063.3747669032446,1156
3065.0863144152736,1206
3066.7975617980674,1176
3068.508509366309,1195
3070.219157434767,1219
3071.9295063182844,1190
3073.639556331785,1215
3075.3493077902704,1232
3077.058761008821,1241
3078.7679163025964,1217
3080.476773986837,1234
3082.1853343768594,1196
3083.89359778806,1175
3085.6015645359153,1155
3087.3092349359786,1155
3089.016609303884,1237
3090.7236879553434,1210
3092.4304712061476,1189
3094.136959372166,1212
3095.843152769349,1144
3097.5490517137237,1194
3099.2546565213966,1188
3100.959967508554,1213
3102.66498499146,1170
3104.3697092864577,1222
3106.0741407099695,1195
3107.778279578498,1211
3109.482126208622,1208
3111.1856809170004,1240
3112.8889440203716,1164
3114.5919158355528,1175
3116.294596679439,1175
3117.996986869006,1178
3119.6990867213062,1173
3121.4008965534726,1180
3123.102416682717,1245
3124.803647426329,1180
3126.5045891016784,1205
3128.205242026213,1188
3129.90560651746,1259
3131.605682893025,1225
3133.3054714705922,1219
3135.0049725679282,1205
3136.7041865028714,1173
3138.4031135933465,1156
3140.101754157353,1172
3141.800108512971,1163
3143.498176978357,1218
3145.1959598717494,1168
3146.8934575114636,1225
3148.5906702158954,1187
3150.2875983035183,1200
3151.9842420928853,1203
3153.680601902627,1193
3155.376678051456,1163
3157.07247085816,1168
3158.767980641609,1264
3160.463207720748,1207
3162.158152414606,1196
3163.8528150422862,1190
3165.5471959229726,1205
3167.2412953759303,1193
3168.9351137204976,1215
3170.628651276098,1191
3172.3219083622307,1198
3174.014885298474,1186
3175.707582404485,1272
3177.4000000000005,1225
3179.092138404835,1224
3180.7839979388846,1147
3182.47557892212,1208
3184.166881674594,1231
3185.8579065164386,1211
3187.5486537678626,1223
3189.2391237491547,1221
3190.9293167806827,1186
3192.6192331828934,1185
3194.3088732763117,1204
3195.998237381542,1191
3197.687325819268,1186
3199.376138910251,1140
3201.064676975334,1181
3202.7529403354347,1186
3204.4409293115523,1219
3206.1286442247647,1179
3207.816085396229,1201
3209.5032531471825,1147
3211.190147798936,1185
3212.8767696728846,1216
3214.5631190905015,1201
3216.2491963733373,1174
3217.9350018430214,1170
3219.6205358212637,1173
3221.305798629851,1176
3222.990790590651,1152
3224.6755120256103,1183
3226.359963256751,1161
3228.0441446061795,1144
3229.7280563960758,1152
3231.411698948703,1143
3233.0950725863995,1183
3234.778177631587,1212
3236.461014406761,1185
3238.1435832345005,1173
3239.8258844374595,1182
3241.507918338374,1163
3243.1896852600576,1151
3244.8711855254023,1159
3246.552419457381,1187
3248.233387379042,1189
3249.914089613516,1199
3251.59452648401,1136
3253.274698313813,1169
3254.95460542629,1189
3256.6342481448855,1147
3258.313626793125,1187
3259.9927416946084,1214
3261.6715931730196,1184
3263.3501815521176,1129
3265.0285071557437,1115
3266.706570307815,1165
3268.3843713323286,1151
3270.0619105533615,1193
3271.739188295068,1199
3273.4162048816834,1206
3275.0929606375184,1232
3276.769455886966,1216
3278.445690954498,1212
3280.1216661646613,1225
3281.797381842087,1184
3283.4728383114807,1214
3285.1480358976296,1161
3286.8229749253996,1172
3288.4976557197333,1237
3290.172078605655,1148
3291.846243908266,1145
3293.5201519527463,1157
3295.193803064357,1225
3296.8671975684374,1138
3298.5403357904024,1200
3300.21321805575,1184
3301.8858446900567,1116
3303.558216018975,1230
3305.23033236824,1183
3306.9021940636603,1195
3308.57380143113,1176
3310.2451547966184,1185
3311.916254486174,1155
3313.5871008259246,1173
3315.2576941420766,1194
3316.9280347609147,1195
3318.5981230088046,1181
3320.2679592121895,1170
3321.9375436975924,1158
3323.606876791612,1193
3325.27595882093,1206
3326.944790112305,1183
3328.6133709925753,1154
3330.2817017886573,1188
3331.949782827547,1212
3333.617614436319,1191
3335.2851969421245,1144
3336.952530672199,1200
3338.619615953853,1176
3340.286453114475,1221
3341.9530424815357,1153
3343.619384382583,1217
3345.2854791452437,1145
3346.951327097224,1179
3348.6169285663073,1183
3350.2822838803577,1178
3351.947393367319,1205
3353.61225735521,1236
3355.2768761721345,1181
3356.9412501462693,1182
3358.605379605873,1193
3360.2692648792827,1155
3361.9329062949146,1170
3363.596304181263,1149
