CollectionTime,9/20/2024 11:48:13 AM
ExposureUsed,3
CalibratedSpectrum
-962.7078968117929,474
-959.9714848408522,485
-957.2358232597828,522
-954.5009119013725,515
-951.7667505983302,533
-949.0333391832855,541
-946.3006774887896,530
-943.5687653473143,530
-940.837602591253,538
-938.1071890529199,535
-935.3775245645503,524
-932.6486089583007,515
-929.9204420662485,493
-927.1930237203925,507
-924.4663537526524,500
-921.7404319948689,551
-919.0152582788041,561
-916.2908324361409,588
-913.5671542984834,524
-910.8442236973568,491
-908.1220404642074,492
-905.4006044304027,491
-902.679915427231,487
-899.959973285902,489
-897.2407778375464,472
-894.5223289132158,497
-891.8046263438832,472
-889.0876699604426,481
-886.3714595937089,541
-883.6559950744183,514
-880.9412762332282,501
-878.2273029007168,482
-875.5140749073835,483
-872.8015920836489,493
-870.0898542598545,474
-867.3788612662631,504
-864.6686129330585,504
-861.9591090903457,486
-859.2503495681506,494
-856.5423341964203,510
-853.8350628050229,500
-851.1285352237478,471
-848.4227512823054,502
-845.7177108103272,527
-843.0134136373656,531
-840.3098595928943,480
-837.6070485063082,499
-834.9049802069229,505
-832.2036545239757,525
-829.5030712866244,549
-826.8032303239481,545
-824.1041314649472,525
-821.4057745385428,509
-818.7081593735775,499
-816.0112857988148,510
-813.3151536429393,516
-810.6197627345566,529
-807.9251129021936,497
-805.2312039742981,505
-802.5380357792392,502
-799.8456081453069,522
-797.1539209007124,516
-794.462973873588,512
-791.772766891987,490
-789.083299783884,507
-786.3945723771743,500
-783.7065844996748,476
-781.0193359791231,480
-778.3328266431781,480
-775.6470563194197,524
-772.9620248353489,511
-770.2777320183878,542
-767.5941776958798,571
-764.9113616950891,535
-762.2292838432011,543
-759.5479439673222,496
-756.8673418944801,512
-754.1874774516235,515
-751.5083504656222,526
-748.8299607632671,531
-746.15230817127,522
-743.475392516264,536
-740.7992136248035,544
-738.1237713233636,511
-735.4490654383407,514
-732.7750957960521,496
-730.1018622227365,540
-727.4293645445534,575
-724.7576025875837,567
-722.0865761778291,549
-719.4162851412126,545
-716.7467293035781,575
-714.0779084906909,567
-711.409822528237,544
-708.7424712418238,560
-706.0758544569796,572
-703.4099719991541,557
-700.7448236937178,521
-698.0804093659622,526
-695.4167288411002,543
-692.7537819442656,553
-690.0915685005134,534
-687.4300883348199,562
-684.7693412720819,562
-682.1093271371178,558
-679.4500457546669,557
-676.7914969493897,538
-674.1336805458676,564
-671.4765963686034,552
-668.8202442420206,599
-666.1646239904642,604
-663.5097354382001,572
-660.8555784094151,547
-658.2021527282176,534
-655.5494582186366,569
-652.8974947046223,553
-650.2462620100463,575
-647.5957599587009,571
-644.9459883742998,613
-642.2969470804776,599
-639.6486359007902,585
-637.0010546587141,614
-634.3542031776476,682
-631.7080812809096,629
-629.0626887917401,584
-626.4180255333008,587
-623.7740913286734,647
-621.1308860008619,630
-618.4884093727904,625
-615.8466612673046,623
-613.2056415071715,621
-610.5653499150785,606
-607.9257863136347,683
-605.28695052537,661
-602.6488423727357,596
-600.0114616781036,624
-597.3748082637674,608
-594.7388819519412,652
-592.1036825647604,627
-589.4692099242818,625
-586.8354638524829,590
-584.2024441712624,643
-581.5701507024403,686
-578.9385832677575,700
-576.3077416888759,618
-573.6776257873787,629
-571.0482353847704,633
-568.4195703024757,641
-565.7916303618415,637
-563.164415384135,688
-560.5379251905453,708
-557.9121596021815,699
-555.2871184400748,661
-552.6628015251767,654
-550.0392086783606,649
-547.4163397204204,678
-544.794194472071,688
-542.1727727539491,760
-539.5520743866118,752
-536.9320991905377,753
-534.3128469861261,794
-531.6943175936979,746
-529.0765108334947,776
-526.4594265256793,903
-523.8430644903358,1055
-521.2274245474689,1161
-518.612506517005,1327
-515.9983102187913,1468
-513.3848354725959,1768
-510.77208209810846,2066
-508.16004991493924,1957
-505.5487387426199,1951
-502.9381484006032,1884
-500.3282787082628,1669
-497.71912948489364,1361
-495.1107005497117,1131
-492.5029917218539,996
-489.8960028203786,819
-487.28973366426493,809
-484.68418407241325,779
-482.07935386364494,767
-479.47524285670266,782
-476.87185087025,826
-474.2691777228715,849
-471.66722323307334,818
-469.0659872192821,757
-466.4654694998459,831
-463.86566989303384,774
-461.26658821703614,745
-458.66822428996414,804
-456.07057792985,829
-453.4736489546475,868
-450.877437182231,803
-448.28194243039627,765
-445.68716451686,784
-443.09310325926003,764
-440.49975847515555,752
-437.9071299820263,753
-435.31521759727354,780
-432.72402113821954,804
-430.13354042210767,892
-427.5437752661022,809
-424.95472548728867,798
-422.36639090267386,832
-419.7787713291855,940
-417.1918665836721,880
-414.60567648290385,861
-412.0202008435715,875
-409.4354394822874,914
-406.8513922155845,812
-404.26805885991723,862
-401.685439231661,907
-399.103533147112,917
-396.522340422488,883
-393.9418608739278,879
-391.3620943174908,824
-388.7830405691583,856
-386.2046994448317,820
-383.6270707603344,755
-381.05015433141045,744
-378.473949973725,783
-375.8984575028645,804
-373.32367673433623,722
-370.74960748356875,674
-368.1762495659117,685
-365.60360279663576,628
-363.03166699093265,590
-360.4604419639154,582
-357.8899275306178,586
-355.32012350599507,570
-352.7510297049233,544
-350.1826459421999,566
-347.61497203254316,596
-345.04800779059235,571
-342.4817530309082,565
-339.91620756797226,591
-337.35137121618743,559
-334.7872437898774,625
-332.22382510328725,573
-329.66111497058273,548
-327.09911320585127,581
-324.53781962310075,600
-321.9772340362607,585
-319.4173562591816,547
-316.8581861056348,536
-314.2997233893127,533
-311.7419679238294,535
-309.1849195227194,597
-306.62857799943856,669
-304.0729431673641,608
-301.51801483979375,580
-298.963792829947,585
-296.41027695096386,558
-293.85746701590574,614
-291.3053628377552,726
-288.7539642294155,690
-286.2032710037115,671
-283.65328297338897,699
-281.1039999511146,724
-278.5554217494762,659
-276.007548180983,626
-273.4603790580651,684
-270.9139141930734,651
-268.3681533982807,668
-265.8230964858798,748
-263.27874326798565,888
-260.7350935566336,860
-258.1921471637804,888
-255.6499039013039,866
-253.10836358100266,919
-250.56752601459698,819
-248.02739101372765,797
-245.48795838995704,782
-242.94922795476816,840
-240.41119951956557,864
-237.8738728956746,922
-235.33724789434166,802
-232.80132432673452,810
-230.2661020039418,765
-227.73158073697357,843
-225.19776033676033,917
-222.66464061415422,987
-220.1322213799284,988
-217.60050244477725,908
-215.06948361931552,884
-212.53916471408013,948
-210.00954553952818,963
-207.48062590603843,884
-204.9524056239104,896
-202.4248845033651,920
-199.8980623545441,1048
-197.37193898751036,1096
-194.84651421224817,1144
-192.32178783866232,1049
-189.79775967657952,939
-187.27442953574644,1119
-184.7517972258321,1152
-182.2298625564256,1009
-179.7086253370378,896
-177.18808537710026,953
-174.66824248596583,1056
-172.14909647290835,1157
-169.6306471471229,1252
-167.11289431772548,1093
-164.59583779375328,1033
-162.07947738416453,1186
-159.5638128978386,1471
-157.04884414357605,1584
-154.53457093009854,1651
-152.02099306604828,1453
-149.50811035998936,1316
-146.99592262040665,1522
-144.48442965570587,1557
-141.97363127421409,1684
-139.46352728417958,1819
-136.95411749377126,1943
-134.44540171107985,1716
-131.93737974411636,1509
-129.43005140081357,1467
-126.92341648902493,1788
-124.41747481652521,1947
-121.91222619101006,2372
-119.40767042009657,3067
-116.90380731132257,3627
-114.40063667214702,3880
-111.8981583099503,5375
-109.3963720320337,7488
-106.89527764561933,10069
-104.39487495785067,10545
-101.89516377579241,12092
-99.39614390642998,18588
-96.89781515667039,28496
-94.40017733334128,34128
-91.90323024319173,29684
-89.40697369289148,22794
-86.91140748903172,15950
-84.41653143812482,10919
-81.92234534660395,12611
-79.42884902082358,15651
-76.93604226705907,16029
-74.4439248915071,13731
-71.95249670028534,12136
-69.46175749943245,10139
-66.97170709490854,9060
-64.48234529259423,8097
-61.99367189829195,8935
-59.50568671772464,9924
-57.01838955653636,13395
-54.53178022029283,15693
-52.045858514480074,19154
-49.560624244506016,22417
-47.07607721569923,24971
-44.59221723330904,24841
-42.10904410250669,22886
-39.62655762838392,18030
-37.14475761595372,17686
-34.66364387015028,18451
-32.18321619582866,24157
-29.70347439776515,28329
-27.224418280657005,24483
-24.74604764912317,29877
-22.26836230770266,45723
-19.7913620608565,65036
-17.315046712966478,65036
-14.83941606833514,65036
-12.36446993118659,65036
-9.89020810566592,65036
-7.416630395839093,65036
-4.94373660569363,65036
-2.471526539137585,65036
-6.821210263296962E-13,65036
2.47084320796705,65036
4.941003281093458,65036
7.410480415786196,65036
9.879274808531363,65036
12.347386655893956,65036
14.814816154518212,65036
17.28156350112681,65036
19.74762889252179,65036
22.21301252558385,65036
24.67771459727237,24426
27.141735304626195,7253
29.605074844762612,6556
32.06773341487792,6190
34.52971121224755,5261
36.99100843422559,4683
39.45162527824516,4307
41.91156194181792,3850
44.370818622535126,4316
46.82939551806646,4493
49.287292826160524,6090
51.74451074464503,5767
54.201049471426245,4369
56.65690920448981,3314
59.112090141899785,2762
61.56659248179983,3402
64.02041642241159,3608
66.4735621620365,3572
68.92602989905402,3813
71.37781983192338,3889
73.82893215918205,3344
76.27936707944684,2878
78.72912479141326,2360
81.17820549385567,2046
83.62660938562783,2048
86.07433666566146,2160
88.5213875329681,2010
90.96776218663751,2273
93.41346082583925,2541
95.85848364982041,2700
98.30283085790859,2157
100.7465026495089,1780
103.18949922410604,1742
105.63182078126385,1855
108.07346752062438,1992
110.51443964190923,1847
112.95473734491827,1515
115.39436082953114,1563
117.83331029570547,1557
120.27158594347827,1539
122.7091879729652,1759
125.1461165843615,1856
127.58237197794062,1852
130.01795435405518,1912
132.4528639131364,1950
134.88710085569494,1681
137.32066538231982,1645
139.75355769367923,1732
142.1857779905207,1650
144.61732647366978,1364
147.04820334403132,1202
149.47840880258934,1197
151.90794305040674,1330
154.33680628862487,1382
156.76499871846443,1681
159.19252054122433,1732
161.61937195828352,1566
164.04555317109896,1520
166.47106438120693,1668
168.89590579022217,1867
171.320077599839,2016
173.7435800118302,2148
176.16641322804742,2231
178.58857745042144,2247
181.01007288096173,2239
183.43089972175687,2228
185.85105817497413,2142
188.27054844285988,2161
190.6893707277394,2112
193.10752523201643,2138
195.5250121581745,2200
197.9418317087751,2325
200.3579840864594,2334
202.7734694939469,2441
205.18828813403627,2432
207.6024402096051,2436
210.01592592360964,2320
212.42874547908548,2435
214.84089907914665,2352
217.2523869269868,2279
219.66320922587727,2275
222.0733661791695,2288
224.48285799029293,2365
226.8916848627572,2385
229.29984700014882,2518
231.7073446061355,2408
234.11417788446204,2390
236.520347038953,2356
238.92585227351185,2351
241.33069379212054,2418
243.73487179884035,2441
246.1383864978112,2444
248.541238093252,2450
250.9434267894609,2461
253.34495279081432,2247
255.74581630176783,2382
258.1460175268563,2349
260.54555667069314,2211
262.9444339379703,2240
265.3426495334594,2377
267.7402036620107,2427
270.1370965285529,2452
272.53332833809407,2361
274.9288992957214,2231
277.32380960660055,2225
279.718059475976,2278
282.1116491091717,2244
284.5045787115897,2372
286.89684848871195,2366
289.2884586460981,2393
291.67940938938807,2331
294.0697009242996,2404
296.4593334566299,2432
298.84830719225477,2316
301.23662233712923,2322
303.6242790972866,2271
306.01127767884,2245
308.39761828798066,2316
310.78330113097934,2245
313.16832641418534,2213
315.5526943440269,2169
317.9364051270112,2205
320.3194589697242,2226
322.70185607883093,2189
325.0835966610754,2077
327.4646809232805,2027
329.8451090723478,1997
332.2248813152577,2050
334.6039978590701,2093
336.9824589109231,2079
339.36026467803447,2071
341.7374153677,2034
344.113911187295,1982
346.48975234427337,2066
348.8649390461686,2080
351.2394715005918,2009
353.61334991523415,1964
355.9865744978655,2014
358.35914545633375,2031
360.73106299856715,2008
363.10232733257146,1895
365.47293866643247,1928
367.84289720831396,1896
370.2122031664593,1888
372.5808567491905,1940
374.9488581649083,1886
377.31620762209275,1896
379.6829053293021,1912
382.0489514951745,1895
384.4143463284262,1865
386.7790900378528,1821
389.14318283232853,1831
391.50662492080653,1897
393.86941651231916,1864
396.23155781597745,1828
398.5930490409713,1890
400.9538903965696,1862
403.3140820921202,1892
405.6736243370498,1796
408.03251734086336,1700
410.3907613131465,1704
412.74835646356166,1759
415.10530300185144,1808
417.4616011378372,1813
419.81725108141893,1713
422.1722530425758,1755
424.5266072313656,1823
426.880313857925,1773
429.2333731324701,1767
431.58578526529516,1828
433.9375504667738,1826
436.2886689473588,1727
438.63914091758113,1732
440.9889665880513,1806
443.33814616945835,1727
445.68667987257015,1773
448.03456790823395,1713
450.3818104873759,1667
452.72840782100013,1677
455.07436012019105,1647
457.41966759611057,1769
459.7643304600007,1694
462.10834892318155,1704
464.4517231970525,1698
466.79445349309174,1764
469.1365400228566,1665
471.4779829979826,1744
473.81878263018564,1736
476.15893913125876,1722
478.4984527130747,1766
480.8373235875855,1842
483.17555196682144,1841
485.5131380628919,1844
487.8500820879857,1843
490.1863842543697,1894
492.52204477439034,2034
494.8570638604725,2130
497.1914417251204,2275
499.52517858091653,2628
501.85827464052306,3052
504.19073011668036,3684
506.5225452222086,4553
508.85372017000566,5069
511.18425517304956,5234
513.514150444396,5559
515.8434061971808,6521
518.1720226446176,6978
520.4999999999999,6565
522.8273384766991,5983
525.1540382881666,5511
527.480099647932,4664
529.8055227696037,3712
532.1303078668694,2743
534.454455153496,2253
536.777964843328,2110
539.1008371502907,2000
541.4230722883866,1946
543.744670471698,1888
546.0656319143858,1929
548.3859568306899,1850
550.7056454349294,1764
553.0246979415016,1801
555.3431145648834,1790
557.6608955196306,1763
559.978041020377,1749
562.2945512818363,1736
564.6104265188006,1796
566.9256669461412,1799
569.2402727788082,1798
571.5542442318302,1811
573.8675815203156,1899
576.1802848594508,1780
578.4923544645015,1909
580.8037905508126,1860
583.114593333807,1840
585.4247630289875,1869
587.7342998519354,1878
590.0432040183106,1825
592.3514757438526,1857
594.6591152443794,1857
596.9661227357875,1856
599.2724984340531,1818
601.578242555231,1752
603.8833553154542,1767
606.1878369309362,1742
608.4916876179676,1761
610.7949075929192,1716
613.0974970722403,1749
615.3994562724587,1748
617.7007854101818,1790
620.0014847020951,1839
622.3015543649641,1783
624.6009946156324,1720
626.8998056710224,1778
629.1979877481361,1771
631.4955410640538,1838
633.7924658359349,1798
636.0887622810175,1813
638.3844306166192,1740
640.6794710601358,1787
642.9738838290426,1719
645.2676691408932,1824
647.5608272133207,1710
649.853358264037,1808
652.1452625108324,1786
654.4365401715764,1799
656.7271914642178,1793
659.0172166067838,1813
661.3066158173809,1762
663.5953893141935,1809
665.8835373154867,1786
668.1710600396028,1813
670.4579577049639,1811
672.7442305300709,1725
675.0298787335033,1853
677.3149025339197,1805
679.599302150058,1764
681.8830778007342,1783
684.1662297048437,1785
686.4487580813608,1760
688.7306631493387,1751
691.0119451279091,1738
693.2926042362834,1687
695.5726406937516,1842
697.8520547196814,1804
700.1308465335215,1736
702.4090163547982,1715
704.6865644031171,1759
706.9634908981619,1748
709.2397960596965,1729
711.5154801075631,1732
713.7905432616823,1833
716.0649857420548,1760
718.3388077687592,1787
720.612009561953,1810
722.8845913418733,1717
725.1565533288352,1849
727.427895743234,1743
729.6986188055427,1710
731.9687227363137,1736
734.238207756178,1740
736.5070740858458,1831
738.7753219461066,1730
741.0429515578281,1736
743.3099631419569,1792
745.5763569195191,1798
747.8421331116193,1740
750.1072919394409,1736
752.3718336242467,1827
754.6357583873777,1748
756.8990664502545,1743
759.1617580343765,1698
761.423833361321,1760
763.6852926527457,1783
765.9461361303862,1758
768.206364016058,1724
770.4659765316536,1839
772.7249738991469,1835
774.9833563405886,1736
777.2411240781092,1778
779.4982773339183,1736
781.7548163303044,1771
784.010741289634,1777
786.2660524343538,1850
788.5207499869881,1719
790.7748341701416,1810
793.0283052064964,1886
795.2811633188143,1828
797.5334087299362,1864
799.7850416627813,1806
802.0360623403484,1769
804.2864709857143,1864
806.5362678220353,1916
808.7854530725468,1869
811.0340269605625,1782
813.2819897094754,1833
815.5293415427581,1831
817.77608268396,1739
820.0222133567116,1785
822.2677337847211,1795
824.5126441917765,1776
826.7569448017433,1773
829.0006358385675,1819
831.2437175262731,1822
833.4861900889629,1742
835.7280537508192,1817
837.9693087361026,1850
840.2099552691533,1797
842.4499935743896,1813
844.689423876309,1870
846.9282463994886,1849
849.1664613685833,1819
851.4040690083276,1817
853.6410695435349,1859
855.877463199097,1745
858.1132501999847,1789
860.3484307712487,1887
862.5830051380175,1901
864.8169735254988,1822
867.0503361589791,1922
869.2830932638243,1842
871.5152450654786,1850
873.7467917894654,1870
875.9777336613873,1840
878.2080709069252,1801
880.4378037518389,1825
882.666932421968,1837
884.8954571432301,1882
887.1233781416219,1882
889.3506956432192,1852
891.5774098741766,1886
893.803521060728,1860
896.0290294291852,1853
898.2539352059397,1854
900.4782386174619,1776
902.7019398903011,1790
904.925039251085,1898
907.147536926521,1858
909.3694331433943,1839
911.59072812857,1799
913.8114221089921,1841
916.0315153116827,1885
918.2510079637437,1870
920.4699002923547,1964
922.6881925247761,1873
924.905884888345,1834
927.1229776104793,1859
929.3394709186747,1929
931.555365040506,1865
933.7706602036275,1823
935.9853566357709,1836
938.1994545647489,1924
940.4129542184515,1878
942.6258558248488,1890
944.8381596119883,1906
947.0498658079974,1884
949.2609746410825,1890
951.4714863395287,1850
953.6814011316998,1852
955.8907192460387,1863
958.0994409110671,1902
960.3075663553858,1831
962.5150958076741,1864
964.7220294966913,1847
966.928367651274,1814
969.1341105003388,1774
971.3392582728806,1797
973.5438111979742,1822
975.747769504772,1791
977.9511334225061,1735
980.153903180487,1739
982.3560790081052,1764
984.5576611348289,1738
986.7586497902058,1697
988.9590452038618,1734
991.158847605503,1696
993.3580572249133,1640
995.5566742919558,1594
997.7546990365728,1524
999.952131688785,1559
1002.1489724786926,1494
1004.3452216364743,1519
1006.5408793923874,1451
1008.7359459767691,1439
1010.9304216200343,1476
1013.1243065526781,1390
1015.3176010052733,1543
1017.510305208472,1497
1019.7024193930064,1505
1021.8939437896848,1462
1024.0848786293977,1502
1026.2752241431122,1483
1028.4649805618747,1461
1030.6541481168115,1475
1032.842727039127,1428
1035.0307175601051,1452
1037.2181199111074,1432
1039.4049343235752,1400
1041.591161029029,1342
1043.7768002590683,1384
1045.9618522453698,1387
1048.1463172196918,1385
1050.3301954138697,1407
1052.513487059818,1352
1054.69619238953,1343
1056.8783116350783,1386
1059.0598450286152,1376
1061.2407928023704,1430
1063.4211551886528,1390
1065.6009324198508,1423
1067.780124728432,1316
1069.9587323469414,1314
1072.1367555080046,1341
1074.314194444325,1388
1076.4910493886855,1364
1078.667320573947,1368
1080.843008233051,1402
1083.0181125990161,1352
1085.1926339049414,1352
1087.3665723840027,1357
1089.5399282694575,1317
1091.7127017946405,1320
1093.8848931929647,1391
1096.0565026979243,1314
1098.2275305430899,1348
1100.3979769621128,1379
1102.567842188722,1292
1104.737126456726,1273
1106.9058300000124,1288
1109.0739530525475,1227
1111.2414958483764,1286
1113.4084586216231,1285
1115.5748416064907,1322
1117.7406450372605,1264
1119.9058691482942,1260
1122.0705141740304,1261
1124.2345803489884,1238
1126.3980679077658,1282
1128.5609770850388,1303
1130.7233081155623,1278
1132.8850612341707,1295
1135.0462366757774,1246
1137.2068346753745,1290
1139.3668554680326,1300
1141.526299288901,1278
1143.68516637321,1324
1145.8434569562655,1270
1148.001171273455,1268
1150.158309560244,1288
1152.3148720521767,1285
1154.470858984876,1244
1156.626270594044,1272
1158.7811071154629,1249
1160.9353687849912,1319
1163.089055838569,1236
1165.242168512213,1297
1167.3947070420209,1267
1169.5466716641677,1245
1171.6980626149075,1245
1173.8488801305748,1220
1175.9991244475814,1278
1178.1487958024186,1274
1180.2978944316555,1201
1182.4464205719428,1258
1184.5943744600072,1262
1186.7417563326567,1199
1188.8885664267755,1259
1191.0348049793297,1250
1193.1804722273619,1272
1195.325568407995,1213
1197.4700937584303,1197
1199.614048515948,1309
1201.7574329179074,1240
1203.900247201746,1214
1206.042491604982,1252
1208.1841663652099,1291
1210.3252717201053,1223
1212.465807907422,1307
1214.6057751649923,1301
1216.7451737307279,1265
1218.8840038426192,1273
1221.0222657387353,1291
1223.1599596572241,1237
1225.2970858363137,1275
1227.4336445143094,1226
1229.5696359295966,1196
1231.705060320639,1255
1233.8399179259786,1219
1235.9742089842384,1306
1238.107933734118,1260
1240.2410924143974,1299
1242.373685263935,1268
1244.5057125216676,1258
1246.6371744266116,1293
1248.7680712178621,1302
1250.898403134593,1272
1253.028170416058,1211
1255.1573733015875,1200
1257.2860120305932,1286
1259.4140868425648,1256
1261.54159797707,1241
1263.6685456737569,1205
1265.7949301723515,1245
1267.9207517126597,1261
1270.046010534565,1241
1272.1707068780306,1284
1274.2948409830983,1344
1276.4184130898889,1220
1278.541423438603,1269
1280.6638722695184,1247
1282.785759822993,1275
1284.9070863394636,1231
1287.0278520594447,1250
1289.1480572235314,1235
1291.2677020723963,1230
1293.3867868467923,1279
1295.5053117875495,1202
1297.623277135579,1241
1299.740683131868,1257
1301.8575300174857,1293
1303.973818033578,1275
1306.0895474213703,1281
1308.2047184221678,1286
1310.3193312773528,1296
1312.4333862283888,1257
1314.5468835168163,1242
1316.659823384255,1250
1318.7722060724045,1226
1320.8840318230418,1302
1322.9953008780249,1281
1325.1060134792888,1260
1327.2161698688478,1237
1329.3257702887959,1250
1331.4348149813054,1292
1333.5433041886276,1304
1335.6512381530933,1276
1337.7586171171101,1272
1339.8654413231675,1247
1341.9717110138317,1238
1344.0774264317488,1238
1346.1825878196432,1251
1348.2871954203192,1296
1350.3912494766587,1298
1352.4947502316231,1322
1354.5976979282532,1293
1356.7000928096686,1267
1358.8019351190665,1300
1360.9032250997243,1308
1363.0039629949988,1362
1365.1041490483235,1299
1367.2037835032133,1295
1369.3028666032606,1314
1371.401398592137,1269
1373.4993797135926,1288
1375.5968102114575,1300
1377.6936903296396,1239
1379.7900203121262,1240
1381.8858004029835,1347
1383.9810308463561,1287
1386.075711886469,1340
1388.1698437676241,1304
1390.2634267342032,1247
1392.356461030667,1320
1394.4489469015557,1365
1396.5408845914872,1296
1398.6322743451592,1309
1400.7231164073469,1285
1402.813411022907,1279
1404.903158436773,1315
1406.9923588939578,1261
1409.0810126395531,1332
1411.1691199187303,1357
1413.2566809767386,1353
1415.343696058907,1307
1417.4301654106425,1359
1419.5160892774315,1357
1421.6014679048399,1333
1423.6863015385125,1288
1425.7705904241707,1267
1427.8543348076178,1303
1429.9375349347342,1302
1432.0201910514802,1338
1434.102303403894,1281
1436.1838722380944,1287
1438.2648978002767,1331
1440.3453803367174,1287
1442.4253200937692,1308
1444.5047173178677,1305
1446.5835722555234,1262
1448.6618851533285,1344
1450.739656257952,1301
1452.8168858161434,1375
1454.8935740747306,1344
1456.96972128062,1324
1459.045327680797,1324
1461.120393522327,1342
1463.1949190523528,1258
1465.2689045180973,1326
1467.3423501668608,1338
1469.415256246024,1349
1471.4876230030463,1323
1473.559450685465,1296
1475.6307395408976,1341
1477.7014898170391,1342
1479.771701761665,1305
1481.8413756226287,1342
1483.9105116478618,1332
1485.9791100853772,1364
1488.0471711832643,1304
1490.1146951896926,1301
1492.1816823529098,1290
1494.2481329212433,1316
1496.3140471430984,1300
1498.3794252669609,1300
1500.4442675413939,1272
1502.5085742150404,1302
1504.572345536622,1320
1506.6355817549388,1316
1508.6982831188702,1341
1510.7604498773744,1353
1512.8220822794883,1340
1514.8831805743293,1312
1516.9437450110909,1306
1519.003775839048,1329
1521.0632733075522,1258
1523.1222376660367,1261
1525.1806691640113,1357
1527.2385680510652,1269
1529.2959345768668,1286
1531.3527689911643,1308
1533.4090715437833,1278
1535.4648424846291,1320
1537.5200820636855,1290
1539.5747905310159,1337
1541.6289681367616,1283
1543.6826151311434,1368
1545.7357317644614,1330
1547.7883182870937,1331
1549.8403749494987,1381
1551.8919020022113,1333
1553.9428996958477,1375
1555.9933682811015,1322
1558.0433080087469,1273
1560.0927191296346,1284
1562.1416018946961,1334
1564.1899565549415,1314
1566.2377833614592,1362
1568.2850825654164,1309
1570.3318544180606,1281
1572.3780991707158,1308
1574.423817074788,1325
1576.4690083817595,1295
1578.5136733431923,1318
1580.5578122107272,1277
1582.601425236085,1284
1584.6445126710646,1274
1586.6870747675434,1296
1588.7291117774776,1325
1590.7706239529034,1348
1592.8116115459347,1296
1594.8520748087658,1271
1596.8920139936686,1282
1598.9314293529933,1284
1600.9703211391711,1281
1603.008689604711,1291
1605.0465350022005,1277
1607.0838575843068,1302
1609.1206576037753,1299
1611.1569353134305,1317
1613.1926909661765,1278
1615.2279248149953,1293
1617.2626371129481,1315
1619.2968281131757,1284
1621.3304980688963,1304
1623.3636472334088,1246
1625.39627586009,1315
1627.428384202396,1270
1629.459972513861,1298
1631.4910410480993,1262
1633.5215900588028,1276
1635.551619799744,1282
1637.5811305247717,1316
1639.6101224878166,1318
1641.6385959428862,1286
1643.6665511440683,1237
1645.693988345528,1224
1647.7209078015112,1302
1649.7473097663405,1245
1651.7731944944203,1274
1653.7985622402307,1216
1655.823413258333,1277
1657.847747803366,1266
1659.8715661300494,1218
1661.8948684931793,1252
1663.9176551476316,1231
1665.9399263483624,1300
1667.9616823504057,1340
1669.982923408873,1239
1672.0036497789574,1261
1674.0238617159293,1241
1676.043559475138,1173
1678.0627433120121,1257
1680.081413482059,1288
1682.0995702408654,1262
1684.117213844096,1179
1686.134344547495,1308
1688.1509626068864,1285
1690.1670682781705,1254
1692.182661817329,1232
1694.1977434804217,1275
1696.2123135235875,1322
1698.226372203043,1264
1700.2399197750851,1235
1702.2529564960905,1242
1704.2654826225112,1258
1706.277498410882,1305
1708.2890041178139,1256
1710.2999999999988,1285
1712.3104863142066,1309
1714.3204633172854,1270
1716.329931266163,1296
1718.3388904178469,1256
1720.3473410294214,1275
1722.3552833580516,1272
1724.3627176609807,1292
1726.3696441955308,1261
1728.3760632191033,1248
1730.3819749891782,1255
1732.3873797633146,1269
1734.3922777991502,1239
1736.3966693544012,1292
1738.4005546868639,1305
1740.4039340544127,1295
1742.406807715001,1294
1744.4091759266616,1294
1746.4110389475054,1245
1748.4123970357223,1250
1750.413250449582,1292
1752.4135994474318,1275
1754.4134442876993,1282
1756.4127852288902,1261
1758.4116225295893,1260
1760.4099564484595,1248
1762.407787244244,1302
1764.405115175764,1291
1766.4019405019203,1287
1768.3982634816916,1250
1770.3940843741357,1302
1772.3894034383907,1279
1774.3842209336717,1324
1776.378537119274,1252
1778.372352254571,1303
1780.3656665990156,1299
1782.3584804121397,1303
1784.3507939535534,1323
1786.3426074829463,1302
1788.3339212600863,1308
1790.3247355448211,1285
1792.3150505970766,1295
1794.3048666768573,1295
1796.2941840442477,1333
1798.2830029594106,1308
1800.2713236825884,1292
1802.2591464741004,1241
1804.2464715943465,1290
1806.2332993038058,1349
1808.2196298630352,1340
1810.2054635326708,1368
1812.190800573428,1284
1814.175641246101,1298
1816.1599858115628,1365
1818.1438345307652,1286
1820.127187664738,1331
1822.1100454745924,1321
1824.092408221516,1316
1826.0742761667766,1357
1828.055649571721,1288
1830.0365286977735,1282
1832.0169138064398,1351
1833.9968051593014,1328
1835.9762030180214,1314
1837.9551076443408,1306
1839.9335193000788,1263
1841.9114382471344,1299
1843.888864747485,1326
1845.8657990631878,1324
1847.842241456378,1294
1849.8181921892697,1329
1851.7936515241558,1307
1853.7686197234098,1304
1855.7430970494815,1287
1857.7170837649014,1283
1859.6905801322787,1280
1861.6635864143004,1317
1863.6361028737338,1293
1865.608129773424,1312
1867.5796673762961,1273
1869.5507159453537,1304
1871.521275743678,1394
1873.4913470344313,1345
1875.4609300808534,1338
1877.4300251462632,1330
1879.3986324940588,1338
1881.366752387717,1352
1883.3343850907936,1351
1885.3015308669228,1318
1887.268189979819,1301
1889.2343626932739,1320
1891.2000492711595,1354
1893.1652499774254,1343
1895.1299650761011,1296
1897.0941948312952,1312
1899.0579395071945,1326
1901.0211993680641,1389
1902.98397467825,1352
1904.9462657021745,1245
1906.9080727043415,1315
1908.869395949332,1334
1910.8302357018065,1326
1912.790592226504,1324
1914.7504657882428,1277
1916.7098566519212,1375
1918.6687650825133,1296
1920.6271913450764,1278
1922.5851357047422,1310
1924.5425984267245,1342
1926.499579776314,1307
1928.4560800188833,1292
1930.4120994198802,1363
1932.367638244833,1374
1934.32269675935,1323
1936.2772752291175,1330
1938.231373919899,1313
1940.1849930975404,1304
1942.1381330279637,1253
1944.0907939771696,1302
1946.0429762112412,1286
1947.9946799963363,1335
1949.9459055986945,1316
1951.896653284633,1336
1953.8469233205478,1248
1955.7967159729142,1252
1957.7460315082863,1273
1959.6948701932974,1297
1961.6432322946594,1284
1963.5911180791632,1259
1965.5385278136787,1273
1967.4854617651545,1333
1969.4319202006182,1353
1971.377903387176,1323
1973.3234115920136,1302
1975.268445082395,1370
1977.2130041256642,1354
1979.1570889892423,1328
1981.1006999406304,1295
1983.04383724741,1304
1984.986501177238,1324
1986.928691997853,1316
1988.8704099770712,1255
1990.811655382789,1257
1992.7524284829801,1250
1994.692729545698,1234
1996.6325588390755,1320
1998.5719166313224,1315
2000.5108031907307,1311
2002.4492187856677,1304
2004.387163684583,1273
2006.3246381560011,1321
2008.2616424685298,1302
2010.1981768908527,1293
2012.1342416917332,1297
2014.069837140014,1311
2016.0049635046162,1353
2017.9396210545406,1295
2019.8738100588666,1262
2021.8075307867502,1291
2023.740783507431,1324
2025.6735684902228,1307
2027.6058860045214,1264
2029.5377363198004,1243
2031.4691197056118,1324
2033.4000364315875,1306
2035.3304867674374,1305
2037.260470982952,1301
2039.189989347998,1338
2041.1190421325232,1294
2043.047629606554,1326
2044.9757520401945,1322
2046.9034097036288,1255
2048.8306028671195,1232
2050.7573318010086,1291
2052.683596775716,1304
2054.609398061742,1274
2056.5347359296647,1311
2058.4596106501403,1249
2060.384022493906,1312
2062.3079717317764,1245
2064.231458634646,1313
2066.1544834734873,1272
2068.077046519352,1230
2069.99914804337,1287
2071.9207883167524,1310
2073.8419676107865,1217
2075.7626861968406,1236
2077.6829443463607,1301
2079.6027423308715,1322
2081.522080421977,1256
2083.440958891362,1237
2085.359378010786,1269
2087.2773380520907,1313
2089.194839287196,1287
2091.111881988101,1321
2093.0284664268825,1261
2094.9445928756973,1268
2096.86026160678,1255
2098.775472892446,1314
2100.690227005088,1239
2102.604524217178,1261
2104.5183648012676,1249
2106.431749029985,1262
2108.34467717604,1291
2110.2571495122206,1344
2112.169166311393,1267
2114.080727846503,1275
2115.9918343905747,1287
2117.902486216711,1328
2119.8126835980956,1316
2121.722426807987,1267
2123.6317161197285,1306
2125.5405518067364,1293
2127.448934142509,1276
2129.356863400624,1320
2131.264339854737,1360
2133.1713637785815,1329
2135.077935445972,1304
2136.9840551308002,1309
2138.889723107037,1330
2140.7949396487334,1291
2142.699705030018,1294
2144.6040195250994,1332
2146.507883408264,1360
2148.4112969538774,1347
2150.3142604363848,1292
2152.2167741303097,1365
2154.1188383102535,1397
2156.0204532508997,1302
2157.9216192270064,1335
2159.822336513414,1312
2161.7226053850413,1393
2163.622426116884,1362
2165.5217989840185,1309
2167.4207242616,1326
2169.319202224862,1455
2171.2172331491165,1373
2173.1148173097563,1371
2175.0119549822507,1330
2176.90864644215,1336
2178.8048919650823,1413
2180.7006918267534,1332
2182.596046302952,1362
2184.4909556695407,1332
2186.3854202024645,1340
2188.279440177746,1357
2190.173015871487,1372
2192.066147559868,1396
2193.958835519149,1289
2195.851080025667,1310
2197.7428813558417,1338
2199.6342397861667,1315
2201.5251555932186,1324
2203.415629053651,1318
2205.3056604441986,1353
2207.19525004167,1330
2209.084398122958,1380
2210.9731049650327,1376
2212.861370844941,1405
2214.749196039812,1339
2216.636580826851,1363
2218.523525483344,1317
2220.410030286655,1412
2222.296095514226,1401
2224.1817214435805,1439
2226.066908352319,1396
2227.951656518121,1364
2229.835966218746,1359
2231.71983773203,1340
2233.6032713358913,1397
2235.486267308324,1354
2237.3688259274036,1399
2239.2509474712824,1364
2241.132632218193,1370
2243.013880446447,1334
2244.8946924344323,1403
2246.7750684606203,1368
2248.6550088035574,1375
2250.534513741871,1404
2252.413583554265,1372
2254.292218519526,1331
2256.170418916517,1393
2258.0481850241786,1325
2259.925517121534,1314
2261.8024154876825,1364
2263.678880401803,1349
2265.5549121431536,1361
2267.430510991071,1344
2269.305677224971,1427
2271.180411124348,1349
2273.0547129687766,1346
2274.9285830379076,1304
2276.8020216114737,1245
2278.6750289692845,1297
2280.5476053912294,1360
2282.4197511572766,1416
2284.2914665474727,1370
2286.162751841943,1354
2288.0336073208937,1412
2289.904033264608,1414
2291.774029953448,1393
2293.6435976678554,1383
2295.5127366883517,1412
2297.381447295534,1347
2299.2497297700825,1229
2301.1175843927526,1273
2302.9850114443825,1232
2304.852011205885,1218
2306.7185839582553,1224
2308.5847299825664,1192
2310.4504495599676,1148
2312.3157429716925,1154
2314.1806104990483,1173
2316.0450524234247,1156
2317.9090690262888,1163
2319.772660589186,1168
2321.635827393742,1169
2323.498569721661,1138
2325.3608878547248,1182
2327.2227820747967,1147
2329.0842526638157,1141
2330.945299903803,1130
2332.805924076857,1152
2334.6661254651535,1175
2336.525904350951,1180
2338.3852610165827,1164
2340.244195744464,1183
2342.102708817088,1140
2343.9608005170253,1168
2345.8184711269287,1168
2347.675720929526,1123
2349.532550207628,1164
2351.38895924412,1136
2353.24494832197,1111
2355.100517724223,1079
2356.955667734004,1144
2358.810398634514,1109
2360.664710709037,1170
2362.5186042409337,1203
2364.3720795136437,1169
2366.225136810686,1189
2368.0777764156583,1104
2369.929998612237,1184
2371.7818036841777,1185
2373.633191915315,1194
2375.484163589562,1130
2377.3347189909114,1123
2379.184858403434,1185
2381.03458211128,1182
2382.8838903986775,1135
2384.732783549936,1184
2386.5812618494406,1173
2388.4293255816588,1134
2390.2769750311327,1157
2392.1242104824883,1195
2393.971032220427,1183
2395.8174405297295,1141
2397.6634356952563,1137
2399.509018001947,1164
2401.3541877348193,1144
2403.1989451789705,1161
2405.043290619576,1105
2406.8872243418905,1159
2408.730746631247,1153
2410.5738577730594,1121
2412.4165580528183,1142
2414.258847756095,1136
2416.100727168537,1141
2417.9421965758734,1160
2419.783256263912,1165
2421.623906518538,1127
2423.4641476257157,1161
2425.303979871491,1168
2427.143403541984,1143
2428.9824189233977,1193
2430.821026302012,1176
2432.6592259641866,1154
2434.497018196361,1122
2436.33440328505,1192
2438.171381516851,1200
2440.00795317844,1140
2441.844118556569,1174
2443.6798779380724,1149
2445.5152316098606,1156
2447.3501798589255,1143
2449.1847229723357,1166
2451.0188612372403,1144
2452.8525949408663,1182
2454.6859243705203,1186
2456.518849813587,1142
2458.3513715575314,1137
2460.183489889895,1179
2462.015205098301,1176
2463.8465174704493,1193
2465.67742729412,1145
2467.5079348571717,1124
2469.338040447542,1153
2471.1677443532476,1167
2472.9970468623833,1176
2474.825948263123,1152
2476.6544488437207,1145
2478.482548892508,1144
2480.310248697896,1220
2482.137548548374,1144
2483.9644487325118,1187
2485.790949538956,1149
2487.617051256433,1114
2489.44275417375,1136
2491.26805857979,1198
2493.0929647635157,1175
2494.917473013971,1117
2496.741583620276,1129
2498.5652968716304,1196
2500.3886130573137,1186
2502.2115324666834,1194
2504.0340553891765,1167
2505.856182114308,1179
2507.6779129316733,1141
2509.499248130945,1142
2511.3201880018764,1176
2513.140732834298,1140
2514.9608829181198,1136
2516.780638543331,1209
2518.6,1132
2520.418967578273,1150
2522.237541568376,1186
2524.0557222606144,1150
2525.8735099453706,1148
2527.6909049131086,1140
2529.507907454368,1137
2531.32451785977,1206
2533.140736420014,1185
2534.9565634258774,1184
2536.771999168218,1189
2538.5870439379714,1152
2540.4016980261526,1138
2542.2159617238544,1139
2544.02983532225,1192
2545.8433191125914,1146
2547.656413386209,1197
2549.4691184345115,1101
2551.2814345489874,1122
2553.093362021204,1113
2554.904901142808,1115
2556.716052205523,1146
2558.526815501153,1139
2560.3371913215824,1128
2562.147179958771,1179
2563.956781704761,1124
2565.7659968516705,1143
2567.5748256916986,1096
2569.3832685171224,1077
2571.1913256202984,1177
2572.9989972936614,1142
2574.806283829725,1141
2576.613185521084,1141
2578.4197026604074,1118
2580.2258355404483,1116
2582.031584454035,1178
2583.836949694077,1163
2585.6419315535613,1119
2587.4465303255533,1094
2589.2507463032002,1104
2591.0545797797245,1123
2592.8580310484303,1156
2594.6611004026995,1149
2596.463788135992,1144
2598.266094541849,1164
2600.0680199138874,1202
2601.869564545807,1186
2603.670728731383,1157
2605.4715127644704,1156
2607.2719169390048,1145
2609.071941548998,1132
2610.8715868885433,1132
2612.670853251811,1190
2614.469740933052,1163
2616.268250226594,1133
2618.0663814268455,1184
2619.864134828292,1152
2621.6615107255006,1174
2623.458509413115,1126
2625.2551311858597,1152
2627.0513763385347,1131
2628.8472451660223,1117
2630.6427379632833,1105
2632.4378550253564,1085
2634.232596647359,1107
2636.026963124488,1134
2637.8209547520187,1115
2639.6145718253065,1153
2641.407814639785,1102
2643.200683490966,1119
2644.9931786744414,1153
2646.7853004858807,1126
2648.577049221034,1156
2650.3684251757277,1161
2652.1594286458712,1135
2653.9500599274484,1148
2655.740319316525,1142
2657.5302071092437,1160
2659.3197236018286,1164
2661.10886909058,1117
2662.8976438718782,1164
2664.686048242183,1218
2666.4740824980327,1165
2668.2617469360443,1142
2670.0490418529134,1183
2671.8359675454153,1164
2673.622524310403,1158
2675.408712444811,1190
2677.1945322456495,1191
2678.979984010009,1177
2680.76506803506,1163
2682.5497846180497,1151
2684.334134056306,1132
2686.1181166472343,1134
2687.9017326883213,1137
2689.6849824771293,1116
2691.4678663113013,1167
2693.2503844885596,1216
2695.032537306705,1174
2696.8143250636167,1146
2698.5957480572542,1142
2700.3768065856534,1094
2702.1575009469316,1146
2703.937831439283,1131
2705.717798360982,1188
2707.4974020103837,1138
2709.276642685917,1128
2711.055520686095,1188
2712.834036309506,1154
2714.612189854819,1169
2716.389981620782,1116
2718.1674119062204,1127
2719.944481010041,1071
2721.721189231226,1159
2723.4975368688415,1159
2725.273524222027,1156
2727.0491515900053,1170
2728.824419272075,1118
2730.5993275676146,1138
2732.3738767760838,1141
2734.148067197016,1113
2735.921899130031,1084
2737.6953728748194,1151
2739.468488731156,1168
2741.2412469988926,1124
2743.0136479779617,1128
2744.785691968372,1149
2746.5573792702116,1114
2748.3287101836504,1098
2750.099685008934,1194
2751.870304046388,1137
2753.640567596418,1153
2755.4104759595057,1080
2757.1800294362156,1196
2758.949228327187,1142
2760.7180729331412,1159
2762.486563554877,1185
2764.254700493272,1135
2766.022484049284,1133
2767.789914523947,1117
2769.5569922183786,1176
2771.3237174337705,1151
2773.090090471394,1160
2774.8561116326036,1143
2776.6217812188274,1149
2778.3870995315756,1129
2780.1520668724356,1155
2781.9166835430747,1207
2783.6809498452394,1121
2785.444866080754,1151
2787.2084325515225,1140
2788.971649559527,1172
2790.73451740683,1163
2792.4970363955713,1150
2794.2592068279705,1166
2796.0210290063264,1111
2797.7825032330147,1125
2799.543629810493,1184
2801.304409041296,1145
2803.0648412280366,1207
2804.8249266734088,1168
2806.5846656801846,1140
2808.344058551212,1168
2810.1031055894246,1155
2811.8618070978273,1153
2813.6201633795085,1180
2815.378174737636,1171
2817.1358414754536,1167
2818.893163896285,1188
2820.6501423035334,1121
2822.4067770006814,1109
2824.1630682912883,1120
2825.9190164789957,1136
2827.6746218675207,1140
2829.429884760661,1168
2831.184805462294,1139
2832.9393842763743,1149
2834.693621506936,1202
2836.4475174580916,1162
2838.201072434034,1133
2839.954286739034,1168
2841.707160677441,1185
2843.459694553685,1151
2845.2118886722724,1155
2846.96374333779,1143
2848.7152588549034,1101
2850.4664355283567,1148
2852.217273662973,1165
2853.9677735636546,1174
2855.7179355353833,1169
2857.4677598832186,1167
2859.217246912299,1130
2860.9663969278427,1148
2862.715210235146,1202
2864.4636871395846,1145
2866.211827946614,1180
2867.9596329617652,1154
2869.7071024906536,1163
2871.4542368389684,1154
2873.20103631248,1208
2874.947501217038,1167
2876.6936318585695,1182
2878.4394285430812,1156
2880.1848915766604,1138
2881.9300212654707,1192
2883.6748179157553,1091
2885.4192818338374,1156
2887.1634133261173,1152
2888.907212699077,1164
2890.6506802592744,1151
2892.393816313348,1107
2894.1366211680142,1144
2895.8790951300693,1138
2897.621238506388,1163
2899.363051603925,1214
2901.1045347297118,1174
2902.8456881908596,1201
2904.58651229456,1149
2906.327007348081,1174
2908.067173658772,1109
2909.8070115340597,1150
2911.5465212814497,1153
2913.285703208527,1095
2915.0245576229563,1067
2916.7630848324807,1146
2918.5012851449196,1151
2920.2391588681758,1173
2921.976706310227,1121
2923.7139277791334,1154
2925.4508235830313,1165
2927.187394030137,1133
2928.923639428745,1185
2930.6595600872306,1133
2932.395156314046,1173
2934.1304284177218,1226
2935.8653767068713,1154
2937.6000014901815,1199
2939.3343030764227,1191
2941.068281774442,1189
2942.8019378931644,1149
2944.5352717415976,1167
2946.2682836288236,1149
2948.0009738640065,1138
2949.7333427563885,1113
2951.465390615289,1192
2953.1971177501086,1189
2954.9285244703265,1167
2956.6596110855,1147
2958.3903779052657,1182
2960.1208252393385,1156
2961.8509533975125,1162
2963.5807626896617,1199
2965.3102534257378,1148
2967.0394259157715,1111
2968.768280469873,1139
2970.496817398232,1136
2972.2250370111146,1128
2973.952939618869,1164
2975.6805255319196,1175
2977.4077950607707,1138
2979.134748516006,1146
2980.861386208289,1123
2982.587708448359,1144
2984.313715547037,1134
2986.039407815222,1151
2987.764785563891,1177
2989.489849104102,1179
2991.2145987469908,1158
2992.9390348037705,1160
2994.6631575857346,1082
2996.3869674042576,1215
2998.1104645707887,1095
2999.83364939686,1126
3001.5565221940783,1115
3003.2790832741334,1074
3005.0013329487924,1114
3006.7232715298996,1137
3008.4448993293804,1125
3010.166216659239,1131
3011.887223831558,1170
3013.607921158498,1135
3015.3283089522993,1151
3017.0483875252826,1154
3018.7681571898443,1153
3020.4876182584626,1172
3022.2067710436927,1089
3023.9256158581707,1124
3025.644153014609,1157
3027.362382825801,1131
3029.0803056046193,1187
3030.797921664012,1136
3032.5152313170106,1156
3034.2322348767225,1107
3035.9489326563353,1130
3037.665324969115,1174
3039.3814121284063,1176
3041.097194447633,1140
3042.812672240299,1167
3044.5278458199855,1163
3046.2427155003525,1149
3047.9572815951406,1166
3049.671544418167,1165
3051.38550428333,1143
3053.0991615046073,1097
3054.812516396051,1180
3056.5255692717974,1100
3058.2383204460575,1123
3059.9507702331257,1130
3061.662918947372,1198
3063.3747669032446,1149
3065.0863144152736,1139
3066.7975617980674,1106
3068.508509366309,1187
3070.219157434767,1120
3071.9295063182844,1147
3073.639556331785,1148
3075.3493077902704,1168
3077.058761008821,1152
3078.7679163025964,1170
3080.476773986837,1163
3082.1853343768594,1149
3083.89359778806,1119
3085.6015645359153,1084
3087.3092349359786,1191
3089.016609303884,1124
3090.7236879553434,1120
3092.4304712061476,1149
3094.136959372166,1164
3095.843152769349,1169
3097.5490517137237,1129
3099.2546565213966,1150
3100.959967508554,1095
3102.66498499146,1113
3104.3697092864577,1186
3106.0741407099695,1151
3107.778279578498,1116
3109.482126208622,1092
3111.1856809170004,1144
3112.8889440203716,1099
3114.5919158355528,1176
3116.294596679439,1077
3117.996986869006,1075
3119.6990867213062,1179
3121.4008965534726,1148
3123.102416682717,1197
3124.803647426329,1183
3126.5045891016784,1146
3128.205242026213,1130
3129.90560651746,1170
3131.605682893025,1158
3133.3054714705922,1177
3135.0049725679282,1169
3136.7041865028714,1149
3138.4031135933465,1091
3140.101754157353,1119
3141.800108512971,1106
3143.498176978357,1119
3145.1959598717494,1107
3146.8934575114636,1080
3148.5906702158954,1102
3150.2875983035183,1182
3151.9842420928853,1178
3153.680601902627,1143
3155.376678051456,1100
3157.07247085816,1105
3158.767980641609,1140
3160.463207720748,1077
3162.158152414606,1118
3163.8528150422862,1123
3165.5471959229726,1168
3167.2412953759303,1136
3168.9351137204976,1151
3170.628651276098,1151
3172.3219083622307,1133
3174.014885298474,1140
3175.707582404485,1126
3177.4000000000005,1102
3179.092138404835,1125
3180.7839979388846,1106
3182.47557892212,1184
3184.166881674594,1156
3185.8579065164386,1135
3187.5486537678626,1103
3189.2391237491547,1117
3190.9293167806827,1114
3192.6192331828934,1143
3194.3088732763117,1122
3195.998237381542,1113
3197.687325819268,1136
3199.376138910251,1110
3201.064676975334,1089
3202.7529403354347,1095
3204.4409293115523,1095
3206.1286442247647,1144
3207.816085396229,1148
3209.5032531471825,1117
3211.190147798936,1096
3212.8767696728846,1083
3214.5631190905015,1098
3216.2491963733373,1140
3217.9350018430214,1086
3219.6205358212637,1096
3221.305798629851,1128
3222.990790590651,1150
3224.6755120256103,1121
3226.359963256751,1114
3228.0441446061795,1077
3229.7280563960758,1079
3231.411698948703,1098
3233.0950725863995,1120
3234.778177631587,1097
3236.461014406761,1095
3238.1435832345005,1110
3239.8258844374595,1192
3241.507918338374,1152
3243.1896852600576,1165
3244.8711855254023,1158
3246.552419457381,1084
3248.233387379042,1139
3249.914089613516,1121
3251.59452648401,1162
3253.274698313813,1148
3254.95460542629,1116
3256.6342481448855,1091
3258.313626793125,1070
3259.9927416946084,1109
3261.6715931730196,1115
3263.3501815521176,1083
3265.0285071557437,1141
3266.706570307815,1143
3268.3843713323286,1104
3270.0619105533615,1135
3271.739188295068,1168
3273.4162048816834,1172
3275.0929606375184,1146
3276.769455886966,1143
3278.445690954498,1146
3280.1216661646613,1161
3281.797381842087,1128
3283.4728383114807,1130
3285.1480358976296,1116
3286.8229749253996,1131
3288.4976557197333,1132
3290.172078605655,1104
3291.846243908266,1102
3293.5201519527463,1160
3295.193803064357,1100
3296.8671975684374,1149
3298.5403357904024,1084
3300.21321805575,1141
3301.8858446900567,1157
3303.558216018975,1081
3305.23033236824,1097
3306.9021940636603,1115
3308.57380143113,1135
3310.2451547966184,1079
3311.916254486174,1126
3313.5871008259246,1126
3315.2576941420766,1110
3316.9280347609147,1164
3318.5981230088046,1149
3320.2679592121895,1088
3321.9375436975924,1117
3323.606876791612,1033
3325.27595882093,1109
3326.944790112305,1138
3328.6133709925753,1092
3330.2817017886573,1125
3331.949782827547,1139
3333.617614436319,1100
3335.2851969421245,1110
3336.952530672199,1105
3338.619615953853,1145
3340.286453114475,1127
3341.9530424815357,1070
3343.619384382583,1125
3345.2854791452437,1097
3346.951327097224,1094
3348.6169285663073,1153
3350.2822838803577,1135
3351.947393367319,1143
3353.61225735521,1088
3355.2768761721345,1094
3356.9412501462693,1105
3358.605379605873,1145
3360.2692648792827,1148
3361.9329062949146,1097
3363.596304181263,1104
