CollectionTime,9/19/2024 11:25:05 AM
ExposureUsed,3
CalibratedSpectrum
-962.7078968117929,630
-959.9714848408522,633
-957.2358232597828,645
-954.5009119013725,657
-951.7667505983302,688
-949.0333391832855,676
-946.3006774887896,693
-943.5687653473143,672
-940.837602591253,647
-938.1071890529199,660
-935.3775245645503,644
-932.6486089583007,656
-929.9204420662485,679
-927.1930237203925,635
-924.4663537526524,643
-921.7404319948689,663
-919.0152582788041,704
-916.2908324361409,676
-913.5671542984834,637
-910.8442236973568,639
-908.1220404642074,667
-905.4006044304027,691
-902.679915427231,661
-899.959973285902,635
-897.2407778375464,631
-894.5223289132158,640
-891.8046263438832,644
-889.0876699604426,637
-886.3714595937089,636
-883.6559950744183,612
-880.9412762332282,633
-878.2273029007168,606
-875.5140749073835,624
-872.8015920836489,598
-870.0898542598545,627
-867.3788612662631,636
-864.6686129330585,649
-861.9591090903457,657
-859.2503495681506,616
-856.5423341964203,615
-853.8350628050229,638
-851.1285352237478,637
-848.4227512823054,651
-845.7177108103272,627
-843.0134136373656,629
-840.3098595928943,653
-837.6070485063082,658
-834.9049802069229,676
-832.2036545239757,624
-829.5030712866244,649
-826.8032303239481,648
-824.1041314649472,617
-821.4057745385428,623
-818.7081593735775,632
-816.0112857988148,628
-813.3151536429393,629
-810.6197627345566,634
-807.9251129021936,621
-805.2312039742981,621
-802.5380357792392,650
-799.8456081453069,673
-797.1539209007124,662
-794.462973873588,637
-791.772766891987,652
-789.083299783884,652
-786.3945723771743,642
-783.7065844996748,668
-781.0193359791231,665
-778.3328266431781,657
-775.6470563194197,647
-772.9620248353489,649
-770.2777320183878,660
-767.5941776958798,673
-764.9113616950891,659
-762.2292838432011,666
-759.5479439673222,660
-756.8673418944801,663
-754.1874774516235,687
-751.5083504656222,655
-748.8299607632671,664
-746.15230817127,676
-743.475392516264,673
-740.7992136248035,664
-738.1237713233636,675
-735.4490654383407,692
-732.7750957960521,664
-730.1018622227365,691
-727.4293645445534,652
-724.7576025875837,684
-722.0865761778291,682
-719.4162851412126,728
-716.7467293035781,703
-714.0779084906909,711
-711.409822528237,677
-708.7424712418238,677
-706.0758544569796,696
-703.4099719991541,734
-700.7448236937178,733
-698.0804093659622,703
-695.4167288411002,711
-692.7537819442656,733
-690.0915685005134,730
-687.4300883348199,720
-684.7693412720819,727
-682.1093271371178,750
-679.4500457546669,664
-676.7914969493897,726
-674.1336805458676,737
-671.4765963686034,718
-668.8202442420206,757
-666.1646239904642,727
-663.5097354382001,710
-660.8555784094151,755
-658.2021527282176,740
-655.5494582186366,766
-652.8974947046223,763
-650.2462620100463,758
-647.5957599587009,748
-644.9459883742998,785
-642.2969470804776,814
-639.6486359007902,780
-637.0010546587141,800
-634.3542031776476,793
-631.7080812809096,769
-629.0626887917401,738
-626.4180255333008,750
-623.7740913286734,770
-621.1308860008619,792
-618.4884093727904,766
-615.8466612673046,733
-613.2056415071715,746
-610.5653499150785,721
-607.9257863136347,838
-605.28695052537,819
-602.6488423727357,774
-600.0114616781036,807
-597.3748082637674,788
-594.7388819519412,829
-592.1036825647604,811
-589.4692099242818,793
-586.8354638524829,781
-584.2024441712624,843
-581.5701507024403,776
-578.9385832677575,796
-576.3077416888759,774
-573.6776257873787,778
-571.0482353847704,770
-568.4195703024757,838
-565.7916303618415,789
-563.164415384135,755
-560.5379251905453,806
-557.9121596021815,786
-555.2871184400748,734
-552.6628015251767,811
-550.0392086783606,875
-547.4163397204204,856
-544.794194472071,879
-542.1727727539491,821
-539.5520743866118,853
-536.9320991905377,887
-534.3128469861261,895
-531.6943175936979,895
-529.0765108334947,931
-526.4594265256793,1025
-523.8430644903358,1171
-521.2274245474689,1364
-518.612506517005,1430
-515.9983102187913,1419
-513.3848354725959,1455
-510.77208209810846,1529
-508.16004991493924,1598
-505.5487387426199,1712
-502.9381484006032,1704
-500.3282787082628,1628
-497.71912948489364,1559
-495.1107005497117,1443
-492.5029917218539,1367
-489.8960028203786,1143
-487.28973366426493,1105
-484.68418407241325,1009
-482.07935386364494,1010
-479.47524285670266,978
-476.87185087025,1024
-474.2691777228715,974
-471.66722323307334,965
-469.0659872192821,1015
-466.4654694998459,992
-463.86566989303384,993
-461.26658821703614,937
-458.66822428996414,961
-456.07057792985,1030
-453.4736489546475,940
-450.877437182231,922
-448.28194243039627,934
-445.68716451686,943
-443.09310325926003,920
-440.49975847515555,898
-437.9071299820263,957
-435.31521759727354,913
-432.72402113821954,987
-430.13354042210767,1021
-427.5437752661022,936
-424.95472548728867,935
-422.36639090267386,998
-419.7787713291855,1048
-417.1918665836721,1020
-414.60567648290385,1018
-412.0202008435715,1006
-409.4354394822874,1020
-406.8513922155845,1045
-404.26805885991723,991
-401.685439231661,1083
-399.103533147112,1056
-396.522340422488,1012
-393.9418608739278,1066
-391.3620943174908,1002
-388.7830405691583,1044
-386.2046994448317,974
-383.6270707603344,939
-381.05015433141045,893
-378.473949973725,865
-375.8984575028645,817
-373.32367673433623,733
-370.74960748356875,723
-368.1762495659117,662
-365.60360279663576,612
-363.03166699093265,595
-360.4604419639154,559
-357.8899275306178,553
-355.32012350599507,554
-352.7510297049233,520
-350.1826459421999,512
-347.61497203254316,465
-345.04800779059235,489
-342.4817530309082,491
-339.91620756797226,553
-337.35137121618743,517
-334.7872437898774,498
-332.22382510328725,493
-329.66111497058273,522
-327.09911320585127,478
-324.53781962310075,503
-321.9772340362607,481
-319.4173562591816,457
-316.8581861056348,490
-314.2997233893127,511
-311.7419679238294,525
-309.1849195227194,500
-306.62857799943856,525
-304.0729431673641,530
-301.51801483979375,521
-298.963792829947,544
-296.41027695096386,550
-293.85746701590574,601
-291.3053628377552,605
-288.7539642294155,570
-286.2032710037115,567
-283.65328297338897,673
-281.1039999511146,662
-278.5554217494762,629
-276.007548180983,595
-273.4603790580651,583
-270.9139141930734,584
-268.3681533982807,562
-265.8230964858798,621
-263.27874326798565,654
-260.7350935566336,662
-258.1921471637804,707
-255.6499039013039,714
-253.10836358100266,681
-250.56752601459698,676
-248.02739101372765,749
-245.48795838995704,784
-242.94922795476816,768
-240.41119951956557,764
-237.8738728956746,728
-235.33724789434166,737
-232.80132432673452,737
-230.2661020039418,661
-227.73158073697357,747
-225.19776033676033,763
-222.66464061415422,813
-220.1322213799284,745
-217.60050244477725,723
-215.06948361931552,807
-212.53916471408013,1001
-210.00954553952818,911
-207.48062590603843,826
-204.9524056239104,777
-202.4248845033651,812
-199.8980623545441,846
-197.37193898751036,912
-194.84651421224817,1027
-192.32178783866232,893
-189.79775967657952,947
-187.27442953574644,1063
-184.7517972258321,1156
-182.2298625564256,916
-179.7086253370378,750
-177.18808537710026,866
-174.66824248596583,1027
-172.14909647290835,1007
-169.6306471471229,1017
-167.11289431772548,934
-164.59583779375328,955
-162.07947738416453,1011
-159.5638128978386,1291
-157.04884414357605,1412
-154.53457093009854,1466
-152.02099306604828,1235
-149.50811035998936,1082
-146.99592262040665,1245
-144.48442965570587,1428
-141.97363127421409,1538
-139.46352728417958,1766
-136.95411749377126,1693
-134.44540171107985,1411
-131.93737974411636,1098
-129.43005140081357,1211
-126.92341648902493,1471
-124.41747481652521,1940
-121.91222619101006,2614
-119.40767042009657,3001
-116.90380731132257,2808
-114.40063667214702,2927
-111.8981583099503,3392
-109.3963720320337,4509
-106.89527764561933,5728
-104.39487495785067,7664
-101.89516377579241,10963
-99.39614390642998,17224
-96.89781515667039,20676
-94.40017733334128,21557
-91.90323024319173,20435
-89.40697369289148,15374
-86.91140748903172,8279
-84.41653143812482,5752
-81.92234534660395,8317
-79.42884902082358,14507
-76.93604226705907,21491
-74.4439248915071,26816
-71.95249670028534,25627
-69.46175749943245,19388
-66.97170709490854,13069
-64.48234529259423,10710
-61.99367189829195,11049
-59.50568671772464,9646
-57.01838955653636,8404
-54.53178022029283,10073
-52.045858514480074,10141
-49.560624244506016,14013
-47.07607721569923,15492
-44.59221723330904,17880
-42.10904410250669,20533
-39.62655762838392,20521
-37.14475761595372,21895
-34.66364387015028,23028
-32.18321619582866,22731
-29.70347439776515,22907
-27.224418280657005,25694
-24.74604764912317,29936
-22.26836230770266,43403
-19.7913620608565,65034
-17.315046712966478,65034
-14.83941606833514,65034
-12.36446993118659,65034
-9.89020810566592,65034
-7.416630395839093,65034
-4.94373660569363,65034
-2.471526539137585,65034
-6.821210263296962E-13,65034
2.47084320796705,65034
4.941003281093458,65034
7.410480415786196,65034
9.879274808531363,65034
12.347386655893956,65034
14.814816154518212,65034
17.28156350112681,65034
19.74762889252179,65034
22.21301252558385,25526
24.67771459727237,6169
27.141735304626195,6332
29.605074844762612,6596
32.06773341487792,5624
34.52971121224755,6427
36.99100843422559,5424
39.45162527824516,3420
41.91156194181792,4446
44.370818622535126,4971
46.82939551806646,4118
49.287292826160524,6211
51.74451074464503,5028
54.201049471426245,2983
56.65690920448981,2707
59.112090141899785,2285
61.56659248179983,2370
64.02041642241159,2394
66.4735621620365,3074
68.92602989905402,3450
71.37781983192338,3658
73.82893215918205,2503
76.27936707944684,1933
78.72912479141326,1921
81.17820549385567,1976
83.62660938562783,2153
86.07433666566146,1944
88.5213875329681,1697
90.96776218663751,1595
93.41346082583925,2009
95.85848364982041,2331
98.30283085790859,1978
100.7465026495089,1651
103.18949922410604,1581
105.63182078126385,1282
108.07346752062438,1238
110.51443964190923,1202
112.95473734491827,1213
115.39436082953114,1296
117.83331029570547,1403
120.27158594347827,1524
122.7091879729652,1464
125.1461165843615,1287
127.58237197794062,1161
130.01795435405518,1310
132.4528639131364,1350
134.88710085569494,1293
137.32066538231982,1332
139.75355769367923,1528
142.1857779905207,1239
144.61732647366978,1089
147.04820334403132,1115
149.47840880258934,1133
151.90794305040674,1259
154.33680628862487,1337
156.76499871846443,1421
159.19252054122433,1586
161.61937195828352,1663
164.04555317109896,1931
166.47106438120693,2037
168.89590579022217,2181
171.320077599839,2310
173.7435800118302,2481
176.16641322804742,2510
178.58857745042144,2448
181.01007288096173,2501
183.43089972175687,2577
185.85105817497413,2646
188.27054844285988,2633
190.6893707277394,2606
193.10752523201643,2633
195.5250121581745,2677
197.9418317087751,2795
200.3579840864594,2812
202.7734694939469,2800
205.18828813403627,2898
207.6024402096051,2873
210.01592592360964,2821
212.42874547908548,2892
214.84089907914665,2875
217.2523869269868,2816
219.66320922587727,2825
222.0733661791695,2780
224.48285799029293,2838
226.8916848627572,2993
229.29984700014882,3046
231.7073446061355,2972
234.11417788446204,2856
236.520347038953,3102
238.92585227351185,3132
241.33069379212054,3323
243.73487179884035,3373
246.1383864978112,3294
248.541238093252,3352
250.9434267894609,3490
253.34495279081432,3470
255.74581630176783,3464
258.1460175268563,3398
260.54555667069314,3510
262.9444339379703,3443
265.3426495334594,3417
267.7402036620107,3348
270.1370965285529,3298
272.53332833809407,3081
274.9288992957214,2861
277.32380960660055,2800
279.718059475976,2807
282.1116491091717,2799
284.5045787115897,2717
286.89684848871195,2688
289.2884586460981,2691
291.67940938938807,2699
294.0697009242996,2764
296.4593334566299,2748
298.84830719225477,2672
301.23662233712923,2702
303.6242790972866,2596
306.01127767884,2592
308.39761828798066,2573
310.78330113097934,2516
313.16832641418534,2423
315.5526943440269,2442
317.9364051270112,2528
320.3194589697242,2408
322.70185607883093,2413
325.0835966610754,2362
327.4646809232805,2411
329.8451090723478,2441
332.2248813152577,2468
334.6039978590701,2287
336.9824589109231,2339
339.36026467803447,2305
341.7374153677,2179
344.113911187295,2243
346.48975234427337,2167
348.8649390461686,2192
351.2394715005918,2209
353.61334991523415,2237
355.9865744978655,2235
358.35914545633375,2317
360.73106299856715,2274
363.10232733257146,2216
365.47293866643247,2182
367.84289720831396,2195
370.2122031664593,2024
372.5808567491905,2102
374.9488581649083,2065
377.31620762209275,2180
379.6829053293021,2121
382.0489514951745,2083
384.4143463284262,2109
386.7790900378528,2061
389.14318283232853,2100
391.50662492080653,2074
393.86941651231916,2076
396.23155781597745,2098
398.5930490409713,2128
400.9538903965696,2150
403.3140820921202,2055
405.6736243370498,2038
408.03251734086336,2000
410.3907613131465,2036
412.74835646356166,2053
415.10530300185144,2070
417.4616011378372,2008
419.81725108141893,2016
422.1722530425758,2039
424.5266072313656,2060
426.880313857925,2031
429.2333731324701,2038
431.58578526529516,2078
433.9375504667738,2070
436.2886689473588,2054
438.63914091758113,2071
440.9889665880513,2019
443.33814616945835,1957
445.68667987257015,1962
448.03456790823395,2011
450.3818104873759,1949
452.72840782100013,2038
455.07436012019105,2045
457.41966759611057,1975
459.7643304600007,1976
462.10834892318155,1924
464.4517231970525,2007
466.79445349309174,1976
469.1365400228566,2005
471.4779829979826,1971
473.81878263018564,1979
476.15893913125876,1940
478.4984527130747,2016
480.8373235875855,2066
483.17555196682144,2081
485.5131380628919,2104
487.8500820879857,2220
490.1863842543697,2299
492.52204477439034,2363
494.8570638604725,2540
497.1914417251204,2884
499.52517858091653,3095
501.85827464052306,3410
504.19073011668036,3655
506.5225452222086,3750
508.85372017000566,3894
511.18425517304956,4009
513.514150444396,4527
515.8434061971808,5727
518.1720226446176,6617
520.4999999999999,6568
522.8273384766991,6288
525.1540382881666,5909
527.480099647932,5379
529.8055227696037,4189
532.1303078668694,3043
534.454455153496,2499
536.777964843328,2281
539.1008371502907,2095
541.4230722883866,2114
543.744670471698,2112
546.0656319143858,2085
548.3859568306899,2022
550.7056454349294,2061
553.0246979415016,2030
555.3431145648834,1889
557.6608955196306,2003
559.978041020377,2054
562.2945512818363,1971
564.6104265188006,2005
566.9256669461412,2035
569.2402727788082,1980
571.5542442318302,2020
573.8675815203156,2020
576.1802848594508,1986
578.4923544645015,2017
580.8037905508126,2074
583.114593333807,2095
585.4247630289875,2050
587.7342998519354,2027
590.0432040183106,1940
592.3514757438526,2042
594.6591152443794,2075
596.9661227357875,2037
599.2724984340531,2046
601.578242555231,2004
603.8833553154542,1979
606.1878369309362,1909
608.4916876179676,2024
610.7949075929192,1986
613.0974970722403,1982
615.3994562724587,1954
617.7007854101818,2030
620.0014847020951,1991
622.3015543649641,2005
624.6009946156324,2061
626.8998056710224,2046
629.1979877481361,1991
631.4955410640538,2008
633.7924658359349,2115
636.0887622810175,2021
638.3844306166192,1997
640.6794710601358,2098
642.9738838290426,2098
645.2676691408932,1992
647.5608272133207,2172
649.853358264037,2075
652.1452625108324,2161
654.4365401715764,2040
656.7271914642178,2121
659.0172166067838,2133
661.3066158173809,2105
663.5953893141935,2117
665.8835373154867,2127
668.1710600396028,2098
670.4579577049639,2136
672.7442305300709,2158
675.0298787335033,2109
677.3149025339197,2123
679.599302150058,2097
681.8830778007342,2040
684.1662297048437,2044
686.4487580813608,2103
688.7306631493387,2085
691.0119451279091,2060
693.2926042362834,2075
695.5726406937516,2073
697.8520547196814,2063
700.1308465335215,1948
702.4090163547982,2053
704.6865644031171,2023
706.9634908981619,2106
709.2397960596965,2070
711.5154801075631,2082
713.7905432616823,2089
716.0649857420548,2119
718.3388077687592,2038
720.612009561953,1975
722.8845913418733,1990
725.1565533288352,2031
727.427895743234,2039
729.6986188055427,2001
731.9687227363137,1958
734.238207756178,2013
736.5070740858458,2104
738.7753219461066,2090
741.0429515578281,2142
743.3099631419569,2052
745.5763569195191,2034
747.8421331116193,2094
750.1072919394409,1987
752.3718336242467,2027
754.6357583873777,2091
756.8990664502545,1974
759.1617580343765,2054
761.423833361321,2043
763.6852926527457,2067
765.9461361303862,2074
768.206364016058,2047
770.4659765316536,1980
772.7249738991469,2045
774.9833563405886,2064
777.2411240781092,1968
779.4982773339183,1998
781.7548163303044,2056
784.010741289634,2098
786.2660524343538,2115
788.5207499869881,2049
790.7748341701416,2115
793.0283052064964,2101
795.2811633188143,2112
797.5334087299362,2116
799.7850416627813,2071
802.0360623403484,2105
804.2864709857143,2094
806.5362678220353,2133
808.7854530725468,2094
811.0340269605625,2100
813.2819897094754,2047
815.5293415427581,2084
817.77608268396,2118
820.0222133567116,2044
822.2677337847211,2023
824.5126441917765,2051
826.7569448017433,2057
829.0006358385675,2053
831.2437175262731,2112
833.4861900889629,2106
835.7280537508192,2056
837.9693087361026,2119
840.2099552691533,2101
842.4499935743896,2096
844.689423876309,2165
846.9282463994886,2078
849.1664613685833,2107
851.4040690083276,2076
853.6410695435349,2174
855.877463199097,2139
858.1132501999847,2089
860.3484307712487,2176
862.5830051380175,2117
864.8169735254988,2078
867.0503361589791,2158
869.2830932638243,2175
871.5152450654786,2156
873.7467917894654,2128
875.9777336613873,2103
878.2080709069252,2153
880.4378037518389,2053
882.666932421968,2130
884.8954571432301,2105
887.1233781416219,2183
889.3506956432192,2109
891.5774098741766,2182
893.803521060728,2166
896.0290294291852,2142
898.2539352059397,2065
900.4782386174619,2140
902.7019398903011,2197
904.925039251085,2187
907.147536926521,2165
909.3694331433943,2149
911.59072812857,2144
913.8114221089921,2160
916.0315153116827,2138
918.2510079637437,2072
920.4699002923547,2139
922.6881925247761,2179
924.905884888345,2119
927.1229776104793,2126
929.3394709186747,2139
931.555365040506,2168
933.7706602036275,2098
935.9853566357709,2146
938.1994545647489,2167
940.4129542184515,2203
942.6258558248488,2242
944.8381596119883,2198
947.0498658079974,2187
949.2609746410825,2176
951.4714863395287,2170
953.6814011316998,2253
955.8907192460387,2148
958.0994409110671,2117
960.3075663553858,2222
962.5150958076741,2141
964.7220294966913,2215
966.928367651274,2149
969.1341105003388,2158
971.3392582728806,2132
973.5438111979742,2118
975.747769504772,2096
977.9511334225061,2123
980.153903180487,2036
982.3560790081052,2119
984.5576611348289,2030
986.7586497902058,2061
988.9590452038618,2027
991.158847605503,2045
993.3580572249133,1959
995.5566742919558,1916
997.7546990365728,1946
999.952131688785,1921
1002.1489724786926,1804
1004.3452216364743,1798
1006.5408793923874,1902
1008.7359459767691,1905
1010.9304216200343,1843
1013.1243065526781,1763
1015.3176010052733,1824
1017.510305208472,1796
1019.7024193930064,1838
1021.8939437896848,1759
1024.0848786293977,1763
1026.2752241431122,1790
1028.4649805618747,1826
1030.6541481168115,1796
1032.842727039127,1767
1035.0307175601051,1750
1037.2181199111074,1775
1039.4049343235752,1765
1041.591161029029,1760
1043.7768002590683,1733
1045.9618522453698,1814
1048.1463172196918,1758
1050.3301954138697,1727
1052.513487059818,1717
1054.69619238953,1770
1056.8783116350783,1739
1059.0598450286152,1714
1061.2407928023704,1687
1063.4211551886528,1716
1065.6009324198508,1707
1067.780124728432,1709
1069.9587323469414,1719
1072.1367555080046,1779
1074.314194444325,1725
1076.4910493886855,1648
1078.667320573947,1658
1080.843008233051,1634
1083.0181125990161,1670
1085.1926339049414,1642
1087.3665723840027,1722
1089.5399282694575,1587
1091.7127017946405,1638
1093.8848931929647,1707
1096.0565026979243,1641
1098.2275305430899,1610
1100.3979769621128,1689
1102.567842188722,1650
1104.737126456726,1578
1106.9058300000124,1637
1109.0739530525475,1564
1111.2414958483764,1598
1113.4084586216231,1563
1115.5748416064907,1589
1117.7406450372605,1603
1119.9058691482942,1682
1122.0705141740304,1649
1124.2345803489884,1631
1126.3980679077658,1589
1128.5609770850388,1545
1130.7233081155623,1621
1132.8850612341707,1586
1135.0462366757774,1627
1137.2068346753745,1631
1139.3668554680326,1583
1141.526299288901,1499
1143.68516637321,1609
1145.8434569562655,1542
1148.001171273455,1604
1150.158309560244,1616
1152.3148720521767,1603
1154.470858984876,1590
1156.626270594044,1672
1158.7811071154629,1583
1160.9353687849912,1581
1163.089055838569,1569
1165.242168512213,1591
1167.3947070420209,1570
1169.5466716641677,1640
1171.6980626149075,1531
1173.8488801305748,1610
1175.9991244475814,1560
1178.1487958024186,1532
1180.2978944316555,1587
1182.4464205719428,1533
1184.5943744600072,1588
1186.7417563326567,1586
1188.8885664267755,1498
1191.0348049793297,1534
1193.1804722273619,1497
1195.325568407995,1565
1197.4700937584303,1592
1199.614048515948,1616
1201.7574329179074,1628
1203.900247201746,1570
1206.042491604982,1605
1208.1841663652099,1559
1210.3252717201053,1618
1212.465807907422,1641
1214.6057751649923,1601
1216.7451737307279,1649
1218.8840038426192,1568
1221.0222657387353,1659
1223.1599596572241,1591
1225.2970858363137,1596
1227.4336445143094,1594
1229.5696359295966,1652
1231.705060320639,1639
1233.8399179259786,1586
1235.9742089842384,1649
1238.107933734118,1652
1240.2410924143974,1634
1242.373685263935,1658
1244.5057125216676,1625
1246.6371744266116,1619
1248.7680712178621,1703
1250.898403134593,1705
1253.028170416058,1662
1255.1573733015875,1623
1257.2860120305932,1598
1259.4140868425648,1656
1261.54159797707,1679
1263.6685456737569,1678
1265.7949301723515,1696
1267.9207517126597,1707
1270.046010534565,1686
1272.1707068780306,1695
1274.2948409830983,1697
1276.4184130898889,1745
1278.541423438603,1698
1280.6638722695184,1704
1282.785759822993,1752
1284.9070863394636,1763
1287.0278520594447,1691
1289.1480572235314,1733
1291.2677020723963,1736
1293.3867868467923,1758
1295.5053117875495,1744
1297.623277135579,1758
1299.740683131868,1774
1301.8575300174857,1833
1303.973818033578,1866
1306.0895474213703,1872
1308.2047184221678,1773
1310.3193312773528,1829
1312.4333862283888,1804
1314.5468835168163,1840
1316.659823384255,1829
1318.7722060724045,1872
1320.8840318230418,1872
1322.9953008780249,1839
1325.1060134792888,1879
1327.2161698688478,1862
1329.3257702887959,1853
1331.4348149813054,1794
1333.5433041886276,1830
1335.6512381530933,1796
1337.7586171171101,1806
1339.8654413231675,1803
1341.9717110138317,1843
1344.0774264317488,1849
1346.1825878196432,1867
1348.2871954203192,1866
1350.3912494766587,1816
1352.4947502316231,1803
1354.5976979282532,1845
1356.7000928096686,1830
1358.8019351190665,1792
1360.9032250997243,1814
1363.0039629949988,1795
1365.1041490483235,1790
1367.2037835032133,1830
1369.3028666032606,1841
1371.401398592137,1837
1373.4993797135926,1815
1375.5968102114575,1855
1377.6936903296396,1830
1379.7900203121262,1752
1381.8858004029835,1842
1383.9810308463561,1802
1386.075711886469,1858
1388.1698437676241,1813
1390.2634267342032,1839
1392.356461030667,1923
1394.4489469015557,1875
1396.5408845914872,1906
1398.6322743451592,1817
1400.7231164073469,1918
1402.813411022907,1884
1404.903158436773,1946
1406.9923588939578,1868
1409.0810126395531,1918
1411.1691199187303,1972
1413.2566809767386,1889
1415.343696058907,1920
1417.4301654106425,1946
1419.5160892774315,1919
1421.6014679048399,1949
1423.6863015385125,1975
1425.7705904241707,1992
1427.8543348076178,2067
1429.9375349347342,2038
1432.0201910514802,2041
1434.102303403894,2063
1436.1838722380944,2067
1438.2648978002767,2152
1440.3453803367174,2127
1442.4253200937692,2136
1444.5047173178677,2136
1446.5835722555234,2166
1448.6618851533285,2266
1450.739656257952,2233
1452.8168858161434,2244
1454.8935740747306,2326
1456.96972128062,2324
1459.045327680797,2349
1461.120393522327,2412
1463.1949190523528,2463
1465.2689045180973,2492
1467.3423501668608,2549
1469.415256246024,2609
1471.4876230030463,2606
1473.559450685465,2632
1475.6307395408976,2768
1477.7014898170391,2754
1479.771701761665,2817
1481.8413756226287,2905
1483.9105116478618,2862
1485.9791100853772,2918
1488.0471711832643,3004
1490.1146951896926,2892
1492.1816823529098,2971
1494.2481329212433,3039
1496.3140471430984,3160
1498.3794252669609,3079
1500.4442675413939,3080
1502.5085742150404,3221
1504.572345536622,3204
1506.6355817549388,3215
1508.6982831188702,3143
1510.7604498773744,3244
1512.8220822794883,3208
1514.8831805743293,3234
1516.9437450110909,3254
1519.003775839048,3350
1521.0632733075522,3405
1523.1222376660367,3466
1525.1806691640113,3375
1527.2385680510652,3417
1529.2959345768668,3418
1531.3527689911643,3448
1533.4090715437833,3523
1535.4648424846291,3545
1537.5200820636855,3702
1539.5747905310159,3532
1541.6289681367616,3768
1543.6826151311434,3747
1545.7357317644614,3771
1547.7883182870937,3943
1549.8403749494987,3825
1551.8919020022113,3888
1553.9428996958477,4012
1555.9933682811015,4089
1558.0433080087469,4043
1560.0927191296346,4158
1562.1416018946961,4346
1564.1899565549415,4313
1566.2377833614592,4358
1568.2850825654164,4285
1570.3318544180606,4185
1572.3780991707158,4185
1574.423817074788,3956
1576.4690083817595,3872
1578.5136733431923,3682
1580.5578122107272,3632
1582.601425236085,3429
1584.6445126710646,3150
1586.6870747675434,3260
1588.7291117774776,2980
1590.7706239529034,2901
1592.8116115459347,2891
1594.8520748087658,2694
1596.8920139936686,2572
1598.9314293529933,2492
1600.9703211391711,2442
1603.008689604711,2319
1605.0465350022005,2320
1607.0838575843068,2125
1609.1206576037753,2121
1611.1569353134305,2120
1613.1926909661765,2105
1615.2279248149953,2049
1617.2626371129481,2033
1619.2968281131757,1960
1621.3304980688963,1909
1623.3636472334088,1934
1625.39627586009,1952
1627.428384202396,1873
1629.459972513861,1812
1631.4910410480993,1841
1633.5215900588028,1866
1635.551619799744,1822
1637.5811305247717,1805
1639.6101224878166,1759
1641.6385959428862,1748
1643.6665511440683,1729
1645.693988345528,1702
1647.7209078015112,1758
1649.7473097663405,1722
1651.7731944944203,1737
1653.7985622402307,1823
1655.823413258333,1636
1657.847747803366,1694
1659.8715661300494,1742
1661.8948684931793,1678
1663.9176551476316,1706
1665.9399263483624,1728
1667.9616823504057,1726
1669.982923408873,1708
1672.0036497789574,1705
1674.0238617159293,1660
1676.043559475138,1706
1678.0627433120121,1696
1680.081413482059,1687
1682.0995702408654,1656
1684.117213844096,1732
1686.134344547495,1713
1688.1509626068864,1728
1690.1670682781705,1688
1692.182661817329,1733
1694.1977434804217,1720
1696.2123135235875,1734
1698.226372203043,1685
1700.2399197750851,1622
1702.2529564960905,1699
1704.2654826225112,1738
1706.277498410882,1622
1708.2890041178139,1686
1710.2999999999988,1608
1712.3104863142066,1654
1714.3204633172854,1611
1716.329931266163,1648
1718.3388904178469,1668
1720.3473410294214,1669
1722.3552833580516,1684
1724.3627176609807,1600
1726.3696441955308,1629
1728.3760632191033,1643
1730.3819749891782,1555
1732.3873797633146,1561
1734.3922777991502,1612
1736.3966693544012,1622
1738.4005546868639,1618
1740.4039340544127,1622
1742.406807715001,1591
1744.4091759266616,1685
1746.4110389475054,1631
1748.4123970357223,1648
1750.413250449582,1589
1752.4135994474318,1571
1754.4134442876993,1565
1756.4127852288902,1548
1758.4116225295893,1508
1760.4099564484595,1536
1762.407787244244,1599
1764.405115175764,1620
1766.4019405019203,1558
1768.3982634816916,1483
1770.3940843741357,1491
1772.3894034383907,1537
1774.3842209336717,1538
1776.378537119274,1531
1778.372352254571,1527
1780.3656665990156,1545
1782.3584804121397,1566
1784.3507939535534,1549
1786.3426074829463,1554
1788.3339212600863,1444
1790.3247355448211,1527
1792.3150505970766,1556
1794.3048666768573,1539
1796.2941840442477,1549
1798.2830029594106,1551
1800.2713236825884,1491
1802.2591464741004,1468
1804.2464715943465,1536
1806.2332993038058,1484
1808.2196298630352,1462
1810.2054635326708,1490
1812.190800573428,1554
1814.175641246101,1523
1816.1599858115628,1540
1818.1438345307652,1534
1820.127187664738,1503
1822.1100454745924,1521
1824.092408221516,1502
1826.0742761667766,1489
1828.055649571721,1516
1830.0365286977735,1554
1832.0169138064398,1507
1833.9968051593014,1552
1835.9762030180214,1543
1837.9551076443408,1510
1839.9335193000788,1525
1841.9114382471344,1442
1843.888864747485,1486
1845.8657990631878,1460
1847.842241456378,1552
1849.8181921892697,1486
1851.7936515241558,1477
1853.7686197234098,1468
1855.7430970494815,1511
1857.7170837649014,1505
1859.6905801322787,1474
1861.6635864143004,1517
1863.6361028737338,1480
1865.608129773424,1531
1867.5796673762961,1503
1869.5507159453537,1526
1871.521275743678,1503
1873.4913470344313,1542
1875.4609300808534,1503
1877.4300251462632,1495
1879.3986324940588,1535
1881.366752387717,1520
1883.3343850907936,1555
1885.3015308669228,1519
1887.268189979819,1513
1889.2343626932739,1551
1891.2000492711595,1518
1893.1652499774254,1484
1895.1299650761011,1517
1897.0941948312952,1547
1899.0579395071945,1553
1901.0211993680641,1554
1902.98397467825,1537
1904.9462657021745,1541
1906.9080727043415,1549
1908.869395949332,1609
1910.8302357018065,1543
1912.790592226504,1559
1914.7504657882428,1555
1916.7098566519212,1577
1918.6687650825133,1520
1920.6271913450764,1507
1922.5851357047422,1449
1924.5425984267245,1515
1926.499579776314,1570
1928.4560800188833,1563
1930.4120994198802,1483
1932.367638244833,1544
1934.32269675935,1576
1936.2772752291175,1519
1938.231373919899,1510
1940.1849930975404,1512
1942.1381330279637,1521
1944.0907939771696,1520
1946.0429762112412,1462
1947.9946799963363,1473
1949.9459055986945,1453
1951.896653284633,1461
1953.8469233205478,1462
1955.7967159729142,1489
1957.7460315082863,1427
1959.6948701932974,1569
1961.6432322946594,1496
1963.5911180791632,1454
1965.5385278136787,1413
1967.4854617651545,1445
1969.4319202006182,1468
1971.377903387176,1510
1973.3234115920136,1464
1975.268445082395,1471
1977.2130041256642,1502
1979.1570889892423,1465
1981.1006999406304,1471
1983.04383724741,1433
1984.986501177238,1454
1986.928691997853,1439
1988.8704099770712,1470
1990.811655382789,1466
1992.7524284829801,1447
1994.692729545698,1375
1996.6325588390755,1480
1998.5719166313224,1429
2000.5108031907307,1409
2002.4492187856677,1365
2004.387163684583,1435
2006.3246381560011,1491
2008.2616424685298,1462
2010.1981768908527,1419
2012.1342416917332,1442
2014.069837140014,1442
2016.0049635046162,1439
2017.9396210545406,1438
2019.8738100588666,1477
2021.8075307867502,1414
2023.740783507431,1394
2025.6735684902228,1394
2027.6058860045214,1373
2029.5377363198004,1483
2031.4691197056118,1427
2033.4000364315875,1374
2035.3304867674374,1398
2037.260470982952,1396
2039.189989347998,1411
2041.1190421325232,1390
2043.047629606554,1418
2044.9757520401945,1368
2046.9034097036288,1410
2048.8306028671195,1344
2050.7573318010086,1378
2052.683596775716,1369
2054.609398061742,1397
2056.5347359296647,1385
2058.4596106501403,1400
2060.384022493906,1415
2062.3079717317764,1394
2064.231458634646,1353
2066.1544834734873,1349
2068.077046519352,1379
2069.99914804337,1350
2071.9207883167524,1398
2073.8419676107865,1386
2075.7626861968406,1364
2077.6829443463607,1389
2079.6027423308715,1401
2081.522080421977,1377
2083.440958891362,1387
2085.359378010786,1417
2087.2773380520907,1365
2089.194839287196,1344
2091.111881988101,1389
2093.0284664268825,1374
2094.9445928756973,1395
2096.86026160678,1445
2098.775472892446,1429
2100.690227005088,1402
2102.604524217178,1400
2104.5183648012676,1373
2106.431749029985,1419
2108.34467717604,1390
2110.2571495122206,1404
2112.169166311393,1404
2114.080727846503,1357
2115.9918343905747,1362
2117.902486216711,1401
2119.8126835980956,1494
2121.722426807987,1358
2123.6317161197285,1425
2125.5405518067364,1350
2127.448934142509,1387
2129.356863400624,1442
2131.264339854737,1470
2133.1713637785815,1447
2135.077935445972,1435
2136.9840551308002,1461
2138.889723107037,1475
2140.7949396487334,1503
2142.699705030018,1442
2144.6040195250994,1447
2146.507883408264,1475
2148.4112969538774,1482
2150.3142604363848,1498
2152.2167741303097,1432
2154.1188383102535,1421
2156.0204532508997,1436
2157.9216192270064,1468
2159.822336513414,1485
2161.7226053850413,1451
2163.622426116884,1476
2165.5217989840185,1462
2167.4207242616,1424
2169.319202224862,1417
2171.2172331491165,1502
2173.1148173097563,1489
2175.0119549822507,1506
2176.90864644215,1430
2178.8048919650823,1458
2180.7006918267534,1473
2182.596046302952,1478
2184.4909556695407,1526
2186.3854202024645,1452
2188.279440177746,1523
2190.173015871487,1510
2192.066147559868,1475
2193.958835519149,1436
2195.851080025667,1477
2197.7428813558417,1475
2199.6342397861667,1490
2201.5251555932186,1533
2203.415629053651,1499
2205.3056604441986,1505
2207.19525004167,1538
2209.084398122958,1525
2210.9731049650327,1551
2212.861370844941,1536
2214.749196039812,1464
2216.636580826851,1495
2218.523525483344,1554
2220.410030286655,1508
2222.296095514226,1534
2224.1817214435805,1490
2226.066908352319,1568
2227.951656518121,1482
2229.835966218746,1480
2231.71983773203,1458
2233.6032713358913,1494
2235.486267308324,1491
2237.3688259274036,1503
2239.2509474712824,1488
2241.132632218193,1497
2243.013880446447,1465
2244.8946924344323,1479
2246.7750684606203,1467
2248.6550088035574,1473
2250.534513741871,1437
2252.413583554265,1448
2254.292218519526,1512
2256.170418916517,1516
2258.0481850241786,1455
2259.925517121534,1492
2261.8024154876825,1490
2263.678880401803,1461
2265.5549121431536,1456
2267.430510991071,1468
2269.305677224971,1446
2271.180411124348,1381
2273.0547129687766,1383
2274.9285830379076,1404
2276.8020216114737,1464
2278.6750289692845,1498
2280.5476053912294,1440
2282.4197511572766,1439
2284.2914665474727,1472
2286.162751841943,1521
2288.0336073208937,1497
2289.904033264608,1501
2291.774029953448,1460
2293.6435976678554,1445
2295.5127366883517,1512
2297.381447295534,1422
2299.2497297700825,1350
2301.1175843927526,1378
2302.9850114443825,1404
2304.852011205885,1343
2306.7185839582553,1313
2308.5847299825664,1289
2310.4504495599676,1322
2312.3157429716925,1359
2314.1806104990483,1357
2316.0450524234247,1330
2317.9090690262888,1293
2319.772660589186,1310
2321.635827393742,1318
2323.498569721661,1384
2325.3608878547248,1340
2327.2227820747967,1300
2329.0842526638157,1297
2330.945299903803,1340
2332.805924076857,1346
2334.6661254651535,1311
2336.525904350951,1298
2338.3852610165827,1285
2340.244195744464,1275
2342.102708817088,1308
2343.9608005170253,1353
2345.8184711269287,1287
2347.675720929526,1300
2349.532550207628,1319
2351.38895924412,1342
2353.24494832197,1324
2355.100517724223,1314
2356.955667734004,1337
2358.810398634514,1360
2360.664710709037,1356
2362.5186042409337,1290
2364.3720795136437,1306
2366.225136810686,1302
2368.0777764156583,1370
2369.929998612237,1358
2371.7818036841777,1379
2373.633191915315,1346
2375.484163589562,1362
2377.3347189909114,1334
2379.184858403434,1358
2381.03458211128,1332
2382.8838903986775,1301
2384.732783549936,1337
2386.5812618494406,1375
2388.4293255816588,1387
2390.2769750311327,1357
2392.1242104824883,1362
2393.971032220427,1368
2395.8174405297295,1360
2397.6634356952563,1332
2399.509018001947,1398
2401.3541877348193,1371
2403.1989451789705,1423
2405.043290619576,1326
2406.8872243418905,1360
2408.730746631247,1372
2410.5738577730594,1404
2412.4165580528183,1371
2414.258847756095,1379
2416.100727168537,1358
2417.9421965758734,1378
2419.783256263912,1328
2421.623906518538,1355
2423.4641476257157,1411
2425.303979871491,1313
2427.143403541984,1375
2428.9824189233977,1371
2430.821026302012,1376
2432.6592259641866,1405
2434.497018196361,1427
2436.33440328505,1371
2438.171381516851,1350
2440.00795317844,1381
2441.844118556569,1411
2443.6798779380724,1362
2445.5152316098606,1399
2447.3501798589255,1426
2449.1847229723357,1319
2451.0188612372403,1364
2452.8525949408663,1378
2454.6859243705203,1396
2456.518849813587,1371
2458.3513715575314,1387
2460.183489889895,1387
2462.015205098301,1358
2463.8465174704493,1414
2465.67742729412,1394
2467.5079348571717,1432
2469.338040447542,1352
2471.1677443532476,1339
2472.9970468623833,1376
2474.825948263123,1352
2476.6544488437207,1477
2478.482548892508,1418
2480.310248697896,1438
2482.137548548374,1398
2483.9644487325118,1420
2485.790949538956,1426
2487.617051256433,1437
2489.44275417375,1401
2491.26805857979,1378
2493.0929647635157,1390
2494.917473013971,1373
2496.741583620276,1453
2498.5652968716304,1404
2500.3886130573137,1439
2502.2115324666834,1440
2504.0340553891765,1465
2505.856182114308,1501
2507.6779129316733,1455
2509.499248130945,1414
2511.3201880018764,1458
2513.140732834298,1471
2514.9608829181198,1476
2516.780638543331,1466
2518.6,1519
2520.418967578273,1486
2522.237541568376,1389
2524.0557222606144,1487
2525.8735099453706,1414
2527.6909049131086,1490
2529.507907454368,1510
2531.32451785977,1468
2533.140736420014,1517
2534.9565634258774,1527
2536.771999168218,1552
2538.5870439379714,1522
2540.4016980261526,1557
2542.2159617238544,1532
2544.02983532225,1539
2545.8433191125914,1510
2547.656413386209,1573
2549.4691184345115,1617
2551.2814345489874,1554
2553.093362021204,1593
2554.904901142808,1617
2556.716052205523,1586
2558.526815501153,1690
2560.3371913215824,1727
2562.147179958771,1624
2563.956781704761,1712
2565.7659968516705,1665
2567.5748256916986,1650
2569.3832685171224,1733
2571.1913256202984,1700
2572.9989972936614,1700
2574.806283829725,1760
2576.613185521084,1742
2578.4197026604074,1760
2580.2258355404483,1750
2582.031584454035,1805
2583.836949694077,1793
2585.6419315535613,1751
2587.4465303255533,1812
2589.2507463032002,1760
2591.0545797797245,1772
2592.8580310484303,1816
2594.6611004026995,1847
2596.463788135992,1808
2598.266094541849,1817
2600.0680199138874,1756
2601.869564545807,1782
2603.670728731383,1826
2605.4715127644704,1790
2607.2719169390048,1756
2609.071941548998,1719
2610.8715868885433,1840
2612.670853251811,1832
2614.469740933052,1771
2616.268250226594,1805
2618.0663814268455,1846
2619.864134828292,1764
2621.6615107255006,1775
2623.458509413115,1757
2625.2551311858597,1739
2627.0513763385347,1708
2628.8472451660223,1721
2630.6427379632833,1702
2632.4378550253564,1710
2634.232596647359,1733
2636.026963124488,1664
2637.8209547520187,1606
2639.6145718253065,1586
2641.407814639785,1680
2643.200683490966,1686
2644.9931786744414,1666
2646.7853004858807,1665
2648.577049221034,1642
2650.3684251757277,1605
2652.1594286458712,1548
2653.9500599274484,1486
2655.740319316525,1613
2657.5302071092437,1501
2659.3197236018286,1557
2661.10886909058,1571
2662.8976438718782,1542
2664.686048242183,1455
2666.4740824980327,1477
2668.2617469360443,1476
2670.0490418529134,1460
2671.8359675454153,1481
2673.622524310403,1437
2675.408712444811,1432
2677.1945322456495,1381
2678.979984010009,1461
2680.76506803506,1439
2682.5497846180497,1443
2684.334134056306,1400
2686.1181166472343,1398
2687.9017326883213,1406
2689.6849824771293,1367
2691.4678663113013,1356
2693.2503844885596,1356
2695.032537306705,1374
2696.8143250636167,1366
2698.5957480572542,1377
2700.3768065856534,1379
2702.1575009469316,1365
2703.937831439283,1389
2705.717798360982,1322
2707.4974020103837,1325
2709.276642685917,1363
2711.055520686095,1350
2712.834036309506,1349
2714.612189854819,1364
2716.389981620782,1350
2718.1674119062204,1361
2719.944481010041,1333
2721.721189231226,1344
2723.4975368688415,1325
2725.273524222027,1314
2727.0491515900053,1308
2728.824419272075,1299
2730.5993275676146,1299
2732.3738767760838,1320
2734.148067197016,1358
2735.921899130031,1308
2737.6953728748194,1326
2739.468488731156,1267
2741.2412469988926,1302
2743.0136479779617,1332
2744.785691968372,1304
2746.5573792702116,1282
2748.3287101836504,1297
2750.099685008934,1353
2751.870304046388,1330
2753.640567596418,1296
2755.4104759595057,1320
2757.1800294362156,1304
2758.949228327187,1284
2760.7180729331412,1306
2762.486563554877,1299
2764.254700493272,1302
2766.022484049284,1242
2767.789914523947,1304
2769.5569922183786,1286
2771.3237174337705,1286
2773.090090471394,1261
2774.8561116326036,1274
2776.6217812188274,1305
2778.3870995315756,1244
2780.1520668724356,1284
2781.9166835430747,1252
2783.6809498452394,1253
2785.444866080754,1282
2787.2084325515225,1230
2788.971649559527,1224
2790.73451740683,1251
2792.4970363955713,1275
2794.2592068279705,1261
2796.0210290063264,1260
2797.7825032330147,1258
2799.543629810493,1262
2801.304409041296,1253
2803.0648412280366,1278
2804.8249266734088,1354
2806.5846656801846,1343
2808.344058551212,1349
2810.1031055894246,1250
2811.8618070978273,1305
2813.6201633795085,1270
2815.378174737636,1322
2817.1358414754536,1269
2818.893163896285,1278
2820.6501423035334,1205
2822.4067770006814,1253
2824.1630682912883,1232
2825.9190164789957,1278
2827.6746218675207,1245
2829.429884760661,1337
2831.184805462294,1300
2832.9393842763743,1297
2834.693621506936,1270
2836.4475174580916,1225
2838.201072434034,1306
2839.954286739034,1270
2841.707160677441,1278
2843.459694553685,1272
2845.2118886722724,1214
2846.96374333779,1326
2848.7152588549034,1299
2850.4664355283567,1311
2852.217273662973,1279
2853.9677735636546,1235
2855.7179355353833,1235
2857.4677598832186,1270
2859.217246912299,1218
2860.9663969278427,1251
2862.715210235146,1270
2864.4636871395846,1289
2866.211827946614,1310
2867.9596329617652,1261
2869.7071024906536,1210
2871.4542368389684,1279
2873.20103631248,1251
2874.947501217038,1233
2876.6936318585695,1247
2878.4394285430812,1283
2880.1848915766604,1291
2881.9300212654707,1238
2883.6748179157553,1267
2885.4192818338374,1190
2887.1634133261173,1246
2888.907212699077,1287
2890.6506802592744,1264
2892.393816313348,1249
2894.1366211680142,1300
2895.8790951300693,1256
2897.621238506388,1303
2899.363051603925,1204
2901.1045347297118,1251
2902.8456881908596,1284
2904.58651229456,1240
2906.327007348081,1250
2908.067173658772,1228
2909.8070115340597,1244
2911.5465212814497,1290
2913.285703208527,1268
2915.0245576229563,1310
2916.7630848324807,1257
2918.5012851449196,1254
2920.2391588681758,1245
2921.976706310227,1275
2923.7139277791334,1193
2925.4508235830313,1258
2927.187394030137,1253
2928.923639428745,1301
2930.6595600872306,1230
2932.395156314046,1243
2934.1304284177218,1242
2935.8653767068713,1218
2937.6000014901815,1232
2939.3343030764227,1243
2941.068281774442,1270
2942.8019378931644,1255
2944.5352717415976,1242
2946.2682836288236,1239
2948.0009738640065,1240
2949.7333427563885,1246
2951.465390615289,1223
2953.1971177501086,1235
2954.9285244703265,1226
2956.6596110855,1290
2958.3903779052657,1266
2960.1208252393385,1257
2961.8509533975125,1269
2963.5807626896617,1258
2965.3102534257378,1252
2967.0394259157715,1176
2968.768280469873,1140
2970.496817398232,1250
2972.2250370111146,1179
2973.952939618869,1238
2975.6805255319196,1213
2977.4077950607707,1237
2979.134748516006,1282
2980.861386208289,1266
2982.587708448359,1185
2984.313715547037,1263
2986.039407815222,1236
2987.764785563891,1288
2989.489849104102,1224
2991.2145987469908,1249
2992.9390348037705,1229
2994.6631575857346,1254
2996.3869674042576,1285
2998.1104645707887,1293
2999.83364939686,1240
3001.5565221940783,1200
3003.2790832741334,1216
3005.0013329487924,1228
3006.7232715298996,1231
3008.4448993293804,1229
3010.166216659239,1220
3011.887223831558,1180
3013.607921158498,1197
3015.3283089522993,1245
3017.0483875252826,1208
3018.7681571898443,1199
3020.4876182584626,1242
3022.2067710436927,1232
3023.9256158581707,1248
3025.644153014609,1239
3027.362382825801,1235
3029.0803056046193,1276
3030.797921664012,1171
3032.5152313170106,1277
3034.2322348767225,1272
3035.9489326563353,1233
3037.665324969115,1169
3039.3814121284063,1262
3041.097194447633,1214
3042.812672240299,1212
3044.5278458199855,1204
3046.2427155003525,1208
3047.9572815951406,1210
3049.671544418167,1253
3051.38550428333,1270
3053.0991615046073,1269
3054.812516396051,1207
3056.5255692717974,1230
3058.2383204460575,1207
3059.9507702331257,1191
3061.662918947372,1279
3063.3747669032446,1217
3065.0863144152736,1218
3066.7975617980674,1242
3068.508509366309,1220
3070.219157434767,1282
3071.9295063182844,1211
3073.639556331785,1218
3075.3493077902704,1222
3077.058761008821,1261
3078.7679163025964,1238
3080.476773986837,1254
3082.1853343768594,1252
3083.89359778806,1244
3085.6015645359153,1252
3087.3092349359786,1239
3089.016609303884,1211
3090.7236879553434,1268
3092.4304712061476,1292
3094.136959372166,1250
3095.843152769349,1231
3097.5490517137237,1250
3099.2546565213966,1230
3100.959967508554,1244
3102.66498499146,1261
3104.3697092864577,1239
3106.0741407099695,1244
3107.778279578498,1235
3109.482126208622,1250
3111.1856809170004,1265
3112.8889440203716,1244
3114.5919158355528,1230
3116.294596679439,1205
3117.996986869006,1241
3119.6990867213062,1263
3121.4008965534726,1271
3123.102416682717,1264
3124.803647426329,1259
3126.5045891016784,1250
3128.205242026213,1233
3129.90560651746,1230
3131.605682893025,1219
3133.3054714705922,1255
3135.0049725679282,1284
3136.7041865028714,1270
3138.4031135933465,1266
3140.101754157353,1290
3141.800108512971,1275
3143.498176978357,1276
3145.1959598717494,1214
3146.8934575114636,1211
3148.5906702158954,1183
3150.2875983035183,1251
3151.9842420928853,1248
3153.680601902627,1283
3155.376678051456,1230
3157.07247085816,1188
3158.767980641609,1242
3160.463207720748,1247
3162.158152414606,1224
3163.8528150422862,1228
3165.5471959229726,1199
3167.2412953759303,1260
3168.9351137204976,1161
3170.628651276098,1266
3172.3219083622307,1224
3174.014885298474,1235
3175.707582404485,1222
3177.4000000000005,1235
3179.092138404835,1226
3180.7839979388846,1230
3182.47557892212,1256
3184.166881674594,1218
3185.8579065164386,1214
3187.5486537678626,1252
3189.2391237491547,1231
3190.9293167806827,1272
3192.6192331828934,1228
3194.3088732763117,1209
3195.998237381542,1209
3197.687325819268,1230
3199.376138910251,1232
3201.064676975334,1249
3202.7529403354347,1184
3204.4409293115523,1180
3206.1286442247647,1196
3207.816085396229,1227
3209.5032531471825,1247
3211.190147798936,1208
3212.8767696728846,1219
3214.5631190905015,1244
3216.2491963733373,1194
3217.9350018430214,1194
3219.6205358212637,1168
3221.305798629851,1148
3222.990790590651,1197
3224.6755120256103,1205
3226.359963256751,1146
3228.0441446061795,1240
3229.7280563960758,1182
3231.411698948703,1238
3233.0950725863995,1227
3234.778177631587,1204
3236.461014406761,1211
3238.1435832345005,1172
3239.8258844374595,1205
3241.507918338374,1230
3243.1896852600576,1158
3244.8711855254023,1217
3246.552419457381,1215
3248.233387379042,1195
3249.914089613516,1187
3251.59452648401,1243
3253.274698313813,1239
3254.95460542629,1239
3256.6342481448855,1194
3258.313626793125,1183
3259.9927416946084,1147
3261.6715931730196,1196
3263.3501815521176,1195
3265.0285071557437,1189
3266.706570307815,1209
3268.3843713323286,1151
3270.0619105533615,1230
3271.739188295068,1214
3273.4162048816834,1144
3275.0929606375184,1127
3276.769455886966,1236
3278.445690954498,1204
3280.1216661646613,1198
3281.797381842087,1191
3283.4728383114807,1212
3285.1480358976296,1216
3286.8229749253996,1201
3288.4976557197333,1153
3290.172078605655,1172
3291.846243908266,1153
3293.5201519527463,1181
3295.193803064357,1195
3296.8671975684374,1188
3298.5403357904024,1189
3300.21321805575,1177
3301.8858446900567,1212
3303.558216018975,1200
3305.23033236824,1192
3306.9021940636603,1180
3308.57380143113,1193
3310.2451547966184,1212
3311.916254486174,1188
3313.5871008259246,1222
3315.2576941420766,1225
3316.9280347609147,1151
3318.5981230088046,1136
3320.2679592121895,1163
3321.9375436975924,1155
3323.606876791612,1152
3325.27595882093,1182
3326.944790112305,1195
3328.6133709925753,1199
3330.2817017886573,1204
3331.949782827547,1148
3333.617614436319,1204
3335.2851969421245,1164
3336.952530672199,1165
3338.619615953853,1199
3340.286453114475,1208
3341.9530424815357,1176
3343.619384382583,1213
3345.2854791452437,1182
3346.951327097224,1206
3348.6169285663073,1164
3350.2822838803577,1211
3351.947393367319,1223
3353.61225735521,1138
3355.2768761721345,1255
3356.9412501462693,1192
3358.605379605873,1150
3360.2692648792827,1160
3361.9329062949146,1201
3363.596304181263,1216
