CollectionTime,9/19/2024 11:28:20 AM
ExposureUsed,3
CalibratedSpectrum
-962.7078968117929,645
-959.9714848408522,690
-957.2358232597828,717
-954.5009119013725,741
-951.7667505983302,734
-949.0333391832855,711
-946.3006774887896,721
-943.5687653473143,710
-940.837602591253,737
-938.1071890529199,724
-935.3775245645503,772
-932.6486089583007,735
-929.9204420662485,692
-927.1930237203925,729
-924.4663537526524,728
-921.7404319948689,754
-919.0152582788041,756
-916.2908324361409,756
-913.5671542984834,709
-910.8442236973568,699
-908.1220404642074,703
-905.4006044304027,705
-902.679915427231,727
-899.959973285902,742
-897.2407778375464,706
-894.5223289132158,725
-891.8046263438832,709
-889.0876699604426,703
-886.3714595937089,710
-883.6559950744183,693
-880.9412762332282,699
-878.2273029007168,683
-875.5140749073835,667
-872.8015920836489,701
-870.0898542598545,685
-867.3788612662631,676
-864.6686129330585,704
-861.9591090903457,728
-859.2503495681506,706
-856.5423341964203,671
-853.8350628050229,713
-851.1285352237478,722
-848.4227512823054,711
-845.7177108103272,688
-843.0134136373656,683
-840.3098595928943,714
-837.6070485063082,712
-834.9049802069229,711
-832.2036545239757,726
-829.5030712866244,695
-826.8032303239481,696
-824.1041314649472,704
-821.4057745385428,701
-818.7081593735775,677
-816.0112857988148,690
-813.3151536429393,733
-810.6197627345566,702
-807.9251129021936,730
-805.2312039742981,677
-802.5380357792392,667
-799.8456081453069,680
-797.1539209007124,690
-794.462973873588,693
-791.772766891987,732
-789.083299783884,700
-786.3945723771743,752
-783.7065844996748,750
-781.0193359791231,750
-778.3328266431781,729
-775.6470563194197,726
-772.9620248353489,749
-770.2777320183878,741
-767.5941776958798,728
-764.9113616950891,756
-762.2292838432011,732
-759.5479439673222,733
-756.8673418944801,732
-754.1874774516235,702
-751.5083504656222,692
-748.8299607632671,713
-746.15230817127,754
-743.475392516264,732
-740.7992136248035,769
-738.1237713233636,727
-735.4490654383407,730
-732.7750957960521,754
-730.1018622227365,724
-727.4293645445534,727
-724.7576025875837,772
-722.0865761778291,773
-719.4162851412126,745
-716.7467293035781,765
-714.0779084906909,796
-711.409822528237,790
-708.7424712418238,760
-706.0758544569796,775
-703.4099719991541,800
-700.7448236937178,814
-698.0804093659622,805
-695.4167288411002,776
-692.7537819442656,785
-690.0915685005134,810
-687.4300883348199,846
-684.7693412720819,800
-682.1093271371178,845
-679.4500457546669,833
-676.7914969493897,821
-674.1336805458676,824
-671.4765963686034,803
-668.8202442420206,779
-666.1646239904642,815
-663.5097354382001,846
-660.8555784094151,825
-658.2021527282176,802
-655.5494582186366,847
-652.8974947046223,842
-650.2462620100463,806
-647.5957599587009,860
-644.9459883742998,857
-642.2969470804776,854
-639.6486359007902,885
-637.0010546587141,884
-634.3542031776476,882
-631.7080812809096,865
-629.0626887917401,871
-626.4180255333008,870
-623.7740913286734,873
-621.1308860008619,888
-618.4884093727904,835
-615.8466612673046,856
-613.2056415071715,859
-610.5653499150785,851
-607.9257863136347,857
-605.28695052537,880
-602.6488423727357,866
-600.0114616781036,880
-597.3748082637674,847
-594.7388819519412,899
-592.1036825647604,864
-589.4692099242818,843
-586.8354638524829,871
-584.2024441712624,851
-581.5701507024403,839
-578.9385832677575,903
-576.3077416888759,879
-573.6776257873787,868
-571.0482353847704,842
-568.4195703024757,890
-565.7916303618415,860
-563.164415384135,892
-560.5379251905453,882
-557.9121596021815,907
-555.2871184400748,863
-552.6628015251767,912
-550.0392086783606,896
-547.4163397204204,887
-544.794194472071,918
-542.1727727539491,918
-539.5520743866118,929
-536.9320991905377,951
-534.3128469861261,979
-531.6943175936979,952
-529.0765108334947,981
-526.4594265256793,1077
-523.8430644903358,1273
-521.2274245474689,1379
-518.612506517005,1417
-515.9983102187913,1460
-513.3848354725959,1479
-510.77208209810846,1438
-508.16004991493924,1489
-505.5487387426199,1506
-502.9381484006032,1595
-500.3282787082628,1568
-497.71912948489364,1524
-495.1107005497117,1410
-492.5029917218539,1351
-489.8960028203786,1222
-487.28973366426493,1156
-484.68418407241325,1102
-482.07935386364494,1119
-479.47524285670266,1098
-476.87185087025,1066
-474.2691777228715,1046
-471.66722323307334,1036
-469.0659872192821,1125
-466.4654694998459,1077
-463.86566989303384,1096
-461.26658821703614,1030
-458.66822428996414,1067
-456.07057792985,1053
-453.4736489546475,1077
-450.877437182231,1011
-448.28194243039627,1055
-445.68716451686,1040
-443.09310325926003,1019
-440.49975847515555,1005
-437.9071299820263,1003
-435.31521759727354,1045
-432.72402113821954,1052
-430.13354042210767,1016
-427.5437752661022,1060
-424.95472548728867,1087
-422.36639090267386,1148
-419.7787713291855,1180
-417.1918665836721,1101
-414.60567648290385,1046
-412.0202008435715,1100
-409.4354394822874,1115
-406.8513922155845,1164
-404.26805885991723,1122
-401.685439231661,1169
-399.103533147112,1174
-396.522340422488,1107
-393.9418608739278,1113
-391.3620943174908,1058
-388.7830405691583,1050
-386.2046994448317,1072
-383.6270707603344,1014
-381.05015433141045,966
-378.473949973725,910
-375.8984575028645,847
-373.32367673433623,781
-370.74960748356875,773
-368.1762495659117,701
-365.60360279663576,678
-363.03166699093265,591
-360.4604419639154,556
-357.8899275306178,518
-355.32012350599507,546
-352.7510297049233,499
-350.1826459421999,503
-347.61497203254316,472
-345.04800779059235,487
-342.4817530309082,474
-339.91620756797226,524
-337.35137121618743,540
-334.7872437898774,507
-332.22382510328725,468
-329.66111497058273,491
-327.09911320585127,534
-324.53781962310075,493
-321.9772340362607,471
-319.4173562591816,497
-316.8581861056348,490
-314.2997233893127,489
-311.7419679238294,498
-309.1849195227194,500
-306.62857799943856,541
-304.0729431673641,512
-301.51801483979375,494
-298.963792829947,506
-296.41027695096386,512
-293.85746701590574,527
-291.3053628377552,537
-288.7539642294155,570
-286.2032710037115,575
-283.65328297338897,601
-281.1039999511146,550
-278.5554217494762,589
-276.007548180983,567
-273.4603790580651,578
-270.9139141930734,596
-268.3681533982807,626
-265.8230964858798,606
-263.27874326798565,580
-260.7350935566336,638
-258.1921471637804,640
-255.6499039013039,623
-253.10836358100266,692
-250.56752601459698,692
-248.02739101372765,686
-245.48795838995704,736
-242.94922795476816,771
-240.41119951956557,723
-237.8738728956746,614
-235.33724789434166,694
-232.80132432673452,681
-230.2661020039418,645
-227.73158073697357,696
-225.19776033676033,739
-222.66464061415422,811
-220.1322213799284,780
-217.60050244477725,755
-215.06948361931552,778
-212.53916471408013,863
-210.00954553952818,840
-207.48062590603843,831
-204.9524056239104,780
-202.4248845033651,795
-199.8980623545441,771
-197.37193898751036,833
-194.84651421224817,872
-192.32178783866232,775
-189.79775967657952,820
-187.27442953574644,866
-184.7517972258321,935
-182.2298625564256,843
-179.7086253370378,757
-177.18808537710026,811
-174.66824248596583,903
-172.14909647290835,884
-169.6306471471229,883
-167.11289431772548,915
-164.59583779375328,893
-162.07947738416453,879
-159.5638128978386,1014
-157.04884414357605,1054
-154.53457093009854,1076
-152.02099306604828,1047
-149.50811035998936,1007
-146.99592262040665,1249
-144.48442965570587,1246
-141.97363127421409,1306
-139.46352728417958,1430
-136.95411749377126,1346
-134.44540171107985,1166
-131.93737974411636,1001
-129.43005140081357,1094
-126.92341648902493,1290
-124.41747481652521,1567
-121.91222619101006,1927
-119.40767042009657,1994
-116.90380731132257,1957
-114.40063667214702,2651
-111.8981583099503,3581
-109.3963720320337,4628
-106.89527764561933,7247
-104.39487495785067,9310
-101.89516377579241,11229
-99.39614390642998,12931
-96.89781515667039,15173
-94.40017733334128,19318
-91.90323024319173,23554
-89.40697369289148,19387
-86.91140748903172,13016
-84.41653143812482,11740
-81.92234534660395,12985
-79.42884902082358,14903
-76.93604226705907,15906
-74.4439248915071,13872
-71.95249670028534,10888
-69.46175749943245,10815
-66.97170709490854,11097
-64.48234529259423,12505
-61.99367189829195,11850
-59.50568671772464,9054
-57.01838955653636,8421
-54.53178022029283,9883
-52.045858514480074,9138
-49.560624244506016,10471
-47.07607721569923,12979
-44.59221723330904,14018
-42.10904410250669,14102
-39.62655762838392,15608
-37.14475761595372,17838
-34.66364387015028,18948
-32.18321619582866,17432
-29.70347439776515,17630
-27.224418280657005,19179
-24.74604764912317,21832
-22.26836230770266,33139
-19.7913620608565,65035
-17.315046712966478,65035
-14.83941606833514,65035
-12.36446993118659,65035
-9.89020810566592,65035
-7.416630395839093,65035
-4.94373660569363,65035
-2.471526539137585,65035
-6.821210263296962E-13,65035
2.47084320796705,65035
4.941003281093458,65035
7.410480415786196,65035
9.879274808531363,65035
12.347386655893956,65035
14.814816154518212,65035
17.28156350112681,65035
19.74762889252179,65035
22.21301252558385,25002
24.67771459727237,7548
27.141735304626195,6960
29.605074844762612,6456
32.06773341487792,6011
34.52971121224755,5635
36.99100843422559,4542
39.45162527824516,3212
41.91156194181792,3986
44.370818622535126,4473
46.82939551806646,3516
49.287292826160524,5142
51.74451074464503,5188
54.201049471426245,4094
56.65690920448981,3176
59.112090141899785,2135
61.56659248179983,2016
64.02041642241159,2395
66.4735621620365,2755
68.92602989905402,3511
71.37781983192338,3655
73.82893215918205,3130
76.27936707944684,2521
78.72912479141326,2440
81.17820549385567,1995
83.62660938562783,1874
86.07433666566146,1567
88.5213875329681,1401
90.96776218663751,1637
93.41346082583925,2079
95.85848364982041,2267
98.30283085790859,2032
100.7465026495089,1870
103.18949922410604,1704
105.63182078126385,1459
108.07346752062438,1386
110.51443964190923,1257
112.95473734491827,1191
115.39436082953114,1256
117.83331029570547,1362
120.27158594347827,1381
122.7091879729652,1294
125.1461165843615,1175
127.58237197794062,1007
130.01795435405518,1124
132.4528639131364,1174
134.88710085569494,1039
137.32066538231982,1172
139.75355769367923,1267
142.1857779905207,1193
144.61732647366978,1071
147.04820334403132,1055
149.47840880258934,1062
151.90794305040674,1160
154.33680628862487,1338
156.76499871846443,1427
159.19252054122433,1515
161.61937195828352,1581
164.04555317109896,1728
166.47106438120693,2020
168.89590579022217,2162
171.320077599839,2118
173.7435800118302,2299
176.16641322804742,2530
178.58857745042144,2591
181.01007288096173,2659
183.43089972175687,2601
185.85105817497413,2631
188.27054844285988,2729
190.6893707277394,2794
193.10752523201643,2748
195.5250121581745,2826
197.9418317087751,2983
200.3579840864594,2905
202.7734694939469,3079
205.18828813403627,3198
207.6024402096051,3186
210.01592592360964,3079
212.42874547908548,3046
214.84089907914665,2983
217.2523869269868,2929
219.66320922587727,2997
222.0733661791695,2983
224.48285799029293,2905
226.8916848627572,3052
229.29984700014882,3076
231.7073446061355,3094
234.11417788446204,3020
236.520347038953,3098
238.92585227351185,3259
241.33069379212054,3351
243.73487179884035,3333
246.1383864978112,3349
248.541238093252,3451
250.9434267894609,3374
253.34495279081432,3393
255.74581630176783,3372
258.1460175268563,3454
260.54555667069314,3448
262.9444339379703,3283
265.3426495334594,3255
267.7402036620107,3402
270.1370965285529,3201
272.53332833809407,3053
274.9288992957214,2862
277.32380960660055,2859
279.718059475976,2839
282.1116491091717,2830
284.5045787115897,2749
286.89684848871195,2726
289.2884586460981,2790
291.67940938938807,2878
294.0697009242996,2857
296.4593334566299,2801
298.84830719225477,2856
301.23662233712923,2766
303.6242790972866,2685
306.01127767884,2739
308.39761828798066,2718
310.78330113097934,2641
313.16832641418534,2589
315.5526943440269,2598
317.9364051270112,2582
320.3194589697242,2598
322.70185607883093,2550
325.0835966610754,2481
327.4646809232805,2423
329.8451090723478,2501
332.2248813152577,2486
334.6039978590701,2502
336.9824589109231,2437
339.36026467803447,2477
341.7374153677,2397
344.113911187295,2399
346.48975234427337,2406
348.8649390461686,2375
351.2394715005918,2411
353.61334991523415,2346
355.9865744978655,2355
358.35914545633375,2364
360.73106299856715,2277
363.10232733257146,2323
365.47293866643247,2278
367.84289720831396,2316
370.2122031664593,2254
372.5808567491905,2287
374.9488581649083,2283
377.31620762209275,2230
379.6829053293021,2247
382.0489514951745,2235
384.4143463284262,2256
386.7790900378528,2211
389.14318283232853,2287
391.50662492080653,2195
393.86941651231916,2230
396.23155781597745,2186
398.5930490409713,2248
400.9538903965696,2261
403.3140820921202,2117
405.6736243370498,2194
408.03251734086336,2198
410.3907613131465,2152
412.74835646356166,2069
415.10530300185144,2187
417.4616011378372,2232
419.81725108141893,2147
422.1722530425758,2193
424.5266072313656,2203
426.880313857925,2167
429.2333731324701,2208
431.58578526529516,2158
433.9375504667738,2154
436.2886689473588,2205
438.63914091758113,2179
440.9889665880513,2186
443.33814616945835,2067
445.68667987257015,2078
448.03456790823395,2100
450.3818104873759,2100
452.72840782100013,2150
455.07436012019105,2120
457.41966759611057,2208
459.7643304600007,2142
462.10834892318155,2159
464.4517231970525,2078
466.79445349309174,2110
469.1365400228566,2077
471.4779829979826,2147
473.81878263018564,2097
476.15893913125876,2140
478.4984527130747,2252
480.8373235875855,2183
483.17555196682144,2199
485.5131380628919,2251
487.8500820879857,2313
490.1863842543697,2384
492.52204477439034,2531
494.8570638604725,2656
497.1914417251204,2966
499.52517858091653,3113
501.85827464052306,3403
504.19073011668036,3422
506.5225452222086,3542
508.85372017000566,3521
511.18425517304956,3686
513.514150444396,4191
515.8434061971808,5391
518.1720226446176,6454
520.4999999999999,6517
522.8273384766991,6249
525.1540382881666,5870
527.480099647932,5174
529.8055227696037,4227
532.1303078668694,3138
534.454455153496,2620
536.777964843328,2299
539.1008371502907,2263
541.4230722883866,2246
543.744670471698,2258
546.0656319143858,2202
548.3859568306899,2124
550.7056454349294,2114
553.0246979415016,2176
555.3431145648834,2173
557.6608955196306,2131
559.978041020377,2111
562.2945512818363,2107
564.6104265188006,2214
566.9256669461412,2176
569.2402727788082,2156
571.5542442318302,2179
573.8675815203156,2199
576.1802848594508,2213
578.4923544645015,2248
580.8037905508126,2194
583.114593333807,2292
585.4247630289875,2159
587.7342998519354,2216
590.0432040183106,2235
592.3514757438526,2148
594.6591152443794,2251
596.9661227357875,2155
599.2724984340531,2137
601.578242555231,2095
603.8833553154542,2129
606.1878369309362,2178
608.4916876179676,2055
610.7949075929192,2156
613.0974970722403,2163
615.3994562724587,2222
617.7007854101818,2125
620.0014847020951,2176
622.3015543649641,2174
624.6009946156324,2167
626.8998056710224,2148
629.1979877481361,2134
631.4955410640538,2136
633.7924658359349,2258
636.0887622810175,2215
638.3844306166192,2199
640.6794710601358,2238
642.9738838290426,2217
645.2676691408932,2267
647.5608272133207,2284
649.853358264037,2276
652.1452625108324,2245
654.4365401715764,2249
656.7271914642178,2312
659.0172166067838,2303
661.3066158173809,2348
663.5953893141935,2375
665.8835373154867,2282
668.1710600396028,2282
670.4579577049639,2276
672.7442305300709,2255
675.0298787335033,2288
677.3149025339197,2304
679.599302150058,2277
681.8830778007342,2318
684.1662297048437,2268
686.4487580813608,2223
688.7306631493387,2273
691.0119451279091,2277
693.2926042362834,2290
695.5726406937516,2287
697.8520547196814,2267
700.1308465335215,2259
702.4090163547982,2254
704.6865644031171,2246
706.9634908981619,2281
709.2397960596965,2228
711.5154801075631,2249
713.7905432616823,2187
716.0649857420548,2213
718.3388077687592,2223
720.612009561953,2247
722.8845913418733,2253
725.1565533288352,2206
727.427895743234,2314
729.6986188055427,2184
731.9687227363137,2209
734.238207756178,2228
736.5070740858458,2187
738.7753219461066,2195
741.0429515578281,2208
743.3099631419569,2176
745.5763569195191,2232
747.8421331116193,2125
750.1072919394409,2247
752.3718336242467,2225
754.6357583873777,2231
756.8990664502545,2229
759.1617580343765,2218
761.423833361321,2259
763.6852926527457,2254
765.9461361303862,2246
768.206364016058,2284
770.4659765316536,2281
772.7249738991469,2268
774.9833563405886,2353
777.2411240781092,2350
779.4982773339183,2215
781.7548163303044,2218
784.010741289634,2229
786.2660524343538,2275
788.5207499869881,2290
790.7748341701416,2322
793.0283052064964,2341
795.2811633188143,2322
797.5334087299362,2277
799.7850416627813,2257
802.0360623403484,2301
804.2864709857143,2313
806.5362678220353,2258
808.7854530725468,2336
811.0340269605625,2365
813.2819897094754,2293
815.5293415427581,2361
817.77608268396,2277
820.0222133567116,2283
822.2677337847211,2240
824.5126441917765,2324
826.7569448017433,2315
829.0006358385675,2307
831.2437175262731,2228
833.4861900889629,2212
835.7280537508192,2282
837.9693087361026,2300
840.2099552691533,2349
842.4499935743896,2261
844.689423876309,2272
846.9282463994886,2346
849.1664613685833,2281
851.4040690083276,2286
853.6410695435349,2306
855.877463199097,2330
858.1132501999847,2360
860.3484307712487,2307
862.5830051380175,2317
864.8169735254988,2346
867.0503361589791,2335
869.2830932638243,2294
871.5152450654786,2317
873.7467917894654,2270
875.9777336613873,2254
878.2080709069252,2295
880.4378037518389,2282
882.666932421968,2407
884.8954571432301,2374
887.1233781416219,2300
889.3506956432192,2368
891.5774098741766,2425
893.803521060728,2286
896.0290294291852,2405
898.2539352059397,2403
900.4782386174619,2319
902.7019398903011,2383
904.925039251085,2335
907.147536926521,2325
909.3694331433943,2335
911.59072812857,2364
913.8114221089921,2415
916.0315153116827,2356
918.2510079637437,2364
920.4699002923547,2327
922.6881925247761,2268
924.905884888345,2380
927.1229776104793,2305
929.3394709186747,2352
931.555365040506,2363
933.7706602036275,2300
935.9853566357709,2301
938.1994545647489,2354
940.4129542184515,2424
942.6258558248488,2376
944.8381596119883,2427
947.0498658079974,2401
949.2609746410825,2469
951.4714863395287,2333
953.6814011316998,2403
955.8907192460387,2361
958.0994409110671,2399
960.3075663553858,2505
962.5150958076741,2346
964.7220294966913,2426
966.928367651274,2330
969.1341105003388,2384
971.3392582728806,2342
973.5438111979742,2328
975.747769504772,2248
977.9511334225061,2316
980.153903180487,2340
982.3560790081052,2357
984.5576611348289,2285
986.7586497902058,2256
988.9590452038618,2221
991.158847605503,2289
993.3580572249133,2226
995.5566742919558,2153
997.7546990365728,2118
999.952131688785,2173
1002.1489724786926,2076
1004.3452216364743,2043
1006.5408793923874,2066
1008.7359459767691,2029
1010.9304216200343,2080
1013.1243065526781,2036
1015.3176010052733,1997
1017.510305208472,2033
1019.7024193930064,2078
1021.8939437896848,2124
1024.0848786293977,1987
1026.2752241431122,2005
1028.4649805618747,1991
1030.6541481168115,2039
1032.842727039127,2047
1035.0307175601051,1984
1037.2181199111074,2007
1039.4049343235752,2067
1041.591161029029,2012
1043.7768002590683,2027
1045.9618522453698,1960
1048.1463172196918,1993
1050.3301954138697,1993
1052.513487059818,2072
1054.69619238953,2011
1056.8783116350783,1955
1059.0598450286152,2008
1061.2407928023704,2035
1063.4211551886528,1959
1065.6009324198508,2005
1067.780124728432,1933
1069.9587323469414,1942
1072.1367555080046,1959
1074.314194444325,1968
1076.4910493886855,1879
1078.667320573947,1955
1080.843008233051,1979
1083.0181125990161,1952
1085.1926339049414,1959
1087.3665723840027,1898
1089.5399282694575,1953
1091.7127017946405,1929
1093.8848931929647,1929
1096.0565026979243,1956
1098.2275305430899,1900
1100.3979769621128,1903
1102.567842188722,1938
1104.737126456726,1879
1106.9058300000124,1887
1109.0739530525475,1842
1111.2414958483764,1914
1113.4084586216231,1846
1115.5748416064907,1922
1117.7406450372605,1892
1119.9058691482942,1920
1122.0705141740304,1950
1124.2345803489884,1955
1126.3980679077658,1953
1128.5609770850388,1897
1130.7233081155623,1843
1132.8850612341707,1864
1135.0462366757774,1868
1137.2068346753745,1890
1139.3668554680326,1830
1141.526299288901,1868
1143.68516637321,1871
1145.8434569562655,1900
1148.001171273455,1866
1150.158309560244,1894
1152.3148720521767,1833
1154.470858984876,1800
1156.626270594044,1890
1158.7811071154629,1875
1160.9353687849912,1882
1163.089055838569,1818
1165.242168512213,1843
1167.3947070420209,1896
1169.5466716641677,1869
1171.6980626149075,1865
1173.8488801305748,1888
1175.9991244475814,1885
1178.1487958024186,1929
1180.2978944316555,1902
1182.4464205719428,1932
1184.5943744600072,1809
1186.7417563326567,1887
1188.8885664267755,1834
1191.0348049793297,1872
1193.1804722273619,1936
1195.325568407995,1895
1197.4700937584303,1841
1199.614048515948,1885
1201.7574329179074,1943
1203.900247201746,1933
1206.042491604982,1870
1208.1841663652099,1849
1210.3252717201053,1870
1212.465807907422,1827
1214.6057751649923,1973
1216.7451737307279,1856
1218.8840038426192,1879
1221.0222657387353,1899
1223.1599596572241,1944
1225.2970858363137,1957
1227.4336445143094,1884
1229.5696359295966,2004
1231.705060320639,1912
1233.8399179259786,1967
1235.9742089842384,1974
1238.107933734118,1956
1240.2410924143974,1932
1242.373685263935,1924
1244.5057125216676,1970
1246.6371744266116,2003
1248.7680712178621,2019
1250.898403134593,1971
1253.028170416058,1935
1255.1573733015875,1963
1257.2860120305932,1992
1259.4140868425648,1958
1261.54159797707,1958
1263.6685456737569,1951
1265.7949301723515,1980
1267.9207517126597,2002
1270.046010534565,1981
1272.1707068780306,2087
1274.2948409830983,1956
1276.4184130898889,2044
1278.541423438603,2061
1280.6638722695184,2038
1282.785759822993,2024
1284.9070863394636,2038
1287.0278520594447,2060
1289.1480572235314,2107
1291.2677020723963,2131
1293.3867868467923,2105
1295.5053117875495,2103
1297.623277135579,2126
1299.740683131868,2078
1301.8575300174857,2127
1303.973818033578,2125
1306.0895474213703,2099
1308.2047184221678,2152
1310.3193312773528,2221
1312.4333862283888,2261
1314.5468835168163,2218
1316.659823384255,2140
1318.7722060724045,2142
1320.8840318230418,2105
1322.9953008780249,2095
1325.1060134792888,2221
1327.2161698688478,2189
1329.3257702887959,2225
1331.4348149813054,2169
1333.5433041886276,2217
1335.6512381530933,2225
1337.7586171171101,2209
1339.8654413231675,2186
1341.9717110138317,2186
1344.0774264317488,2181
1346.1825878196432,2172
1348.2871954203192,2152
1350.3912494766587,2093
1352.4947502316231,2144
1354.5976979282532,2159
1356.7000928096686,2069
1358.8019351190665,2105
1360.9032250997243,2155
1363.0039629949988,2156
1365.1041490483235,2166
1367.2037835032133,2118
1369.3028666032606,2134
1371.401398592137,2118
1373.4993797135926,2219
1375.5968102114575,2165
1377.6936903296396,2156
1379.7900203121262,2165
1381.8858004029835,2190
1383.9810308463561,2143
1386.075711886469,2165
1388.1698437676241,2161
1390.2634267342032,2139
1392.356461030667,2168
1394.4489469015557,2206
1396.5408845914872,2250
1398.6322743451592,2217
1400.7231164073469,2246
1402.813411022907,2191
1404.903158436773,2188
1406.9923588939578,2199
1409.0810126395531,2232
1411.1691199187303,2268
1413.2566809767386,2191
1415.343696058907,2242
1417.4301654106425,2239
1419.5160892774315,2295
1421.6014679048399,2364
1423.6863015385125,2342
1425.7705904241707,2339
1427.8543348076178,2370
1429.9375349347342,2325
1432.0201910514802,2365
1434.102303403894,2395
1436.1838722380944,2415
1438.2648978002767,2384
1440.3453803367174,2461
1442.4253200937692,2515
1444.5047173178677,2504
1446.5835722555234,2615
1448.6618851533285,2599
1450.739656257952,2560
1452.8168858161434,2639
1454.8935740747306,2785
1456.96972128062,2754
1459.045327680797,2773
1461.120393522327,2837
1463.1949190523528,2855
1465.2689045180973,2807
1467.3423501668608,2989
1469.415256246024,2880
1471.4876230030463,3028
1473.559450685465,3025
1475.6307395408976,3042
1477.7014898170391,3062
1479.771701761665,3145
1481.8413756226287,3134
1483.9105116478618,3209
1485.9791100853772,3338
1488.0471711832643,3268
1490.1146951896926,3273
1492.1816823529098,3333
1494.2481329212433,3367
1496.3140471430984,3443
1498.3794252669609,3426
1500.4442675413939,3391
1502.5085742150404,3507
1504.572345536622,3554
1506.6355817549388,3623
1508.6982831188702,3625
1510.7604498773744,3743
1512.8220822794883,3599
1514.8831805743293,3641
1516.9437450110909,3677
1519.003775839048,3830
1521.0632733075522,3824
1523.1222376660367,3836
1525.1806691640113,3919
1527.2385680510652,3849
1529.2959345768668,3985
1531.3527689911643,4061
1533.4090715437833,3969
1535.4648424846291,4112
1537.5200820636855,4228
1539.5747905310159,4211
1541.6289681367616,4136
1543.6826151311434,4341
1545.7357317644614,4335
1547.7883182870937,4447
1549.8403749494987,4376
1551.8919020022113,4448
1553.9428996958477,4554
1555.9933682811015,4669
1558.0433080087469,4651
1560.0927191296346,4780
1562.1416018946961,4972
1564.1899565549415,4825
1566.2377833614592,4690
1568.2850825654164,4600
1570.3318544180606,4557
1572.3780991707158,4367
1574.423817074788,4151
1576.4690083817595,4014
1578.5136733431923,3948
1580.5578122107272,3823
1582.601425236085,3612
1584.6445126710646,3462
1586.6870747675434,3334
1588.7291117774776,3216
1590.7706239529034,3084
1592.8116115459347,3140
1594.8520748087658,2964
1596.8920139936686,2757
1598.9314293529933,2821
1600.9703211391711,2724
1603.008689604711,2702
1605.0465350022005,2583
1607.0838575843068,2550
1609.1206576037753,2494
1611.1569353134305,2485
1613.1926909661765,2409
1615.2279248149953,2383
1617.2626371129481,2346
1619.2968281131757,2392
1621.3304980688963,2309
1623.3636472334088,2302
1625.39627586009,2321
1627.428384202396,2270
1629.459972513861,2216
1631.4910410480993,2232
1633.5215900588028,2139
1635.551619799744,2132
1637.5811305247717,2116
1639.6101224878166,2198
1641.6385959428862,2204
1643.6665511440683,2092
1645.693988345528,2095
1647.7209078015112,2046
1649.7473097663405,2089
1651.7731944944203,2090
1653.7985622402307,2066
1655.823413258333,2042
1657.847747803366,2080
1659.8715661300494,2107
1661.8948684931793,2034
1663.9176551476316,2071
1665.9399263483624,2111
1667.9616823504057,2100
1669.982923408873,1991
1672.0036497789574,2058
1674.0238617159293,2008
1676.043559475138,2037
1678.0627433120121,2021
1680.081413482059,2032
1682.0995702408654,2081
1684.117213844096,2024
1686.134344547495,2113
1688.1509626068864,2088
1690.1670682781705,2015
1692.182661817329,2030
1694.1977434804217,2051
1696.2123135235875,1992
1698.226372203043,2012
1700.2399197750851,2034
1702.2529564960905,1981
1704.2654826225112,2057
1706.277498410882,2032
1708.2890041178139,2046
1710.2999999999988,2026
1712.3104863142066,2083
1714.3204633172854,2007
1716.329931266163,1985
1718.3388904178469,1941
1720.3473410294214,1963
1722.3552833580516,1996
1724.3627176609807,2048
1726.3696441955308,1933
1728.3760632191033,1972
1730.3819749891782,1944
1732.3873797633146,1963
1734.3922777991502,1980
1736.3966693544012,1981
1738.4005546868639,1993
1740.4039340544127,2002
1742.406807715001,1924
1744.4091759266616,1987
1746.4110389475054,1932
1748.4123970357223,1946
1750.413250449582,1906
1752.4135994474318,1933
1754.4134442876993,1896
1756.4127852288902,1915
1758.4116225295893,1932
1760.4099564484595,1922
1762.407787244244,1882
1764.405115175764,1903
1766.4019405019203,1871
1768.3982634816916,1889
1770.3940843741357,1847
1772.3894034383907,1876
1774.3842209336717,1922
1776.378537119274,1890
1778.372352254571,1834
1780.3656665990156,1770
1782.3584804121397,1852
1784.3507939535534,1815
1786.3426074829463,1862
1788.3339212600863,1926
1790.3247355448211,1843
1792.3150505970766,1844
1794.3048666768573,1901
1796.2941840442477,1849
1798.2830029594106,1817
1800.2713236825884,1912
1802.2591464741004,1887
1804.2464715943465,1855
1806.2332993038058,1903
1808.2196298630352,1820
1810.2054635326708,1883
1812.190800573428,1815
1814.175641246101,1900
1816.1599858115628,1801
1818.1438345307652,1857
1820.127187664738,1886
1822.1100454745924,1847
1824.092408221516,1858
1826.0742761667766,1824
1828.055649571721,1839
1830.0365286977735,1845
1832.0169138064398,1827
1833.9968051593014,1899
1835.9762030180214,1892
1837.9551076443408,1826
1839.9335193000788,1833
1841.9114382471344,1908
1843.888864747485,1832
1845.8657990631878,1811
1847.842241456378,1752
1849.8181921892697,1786
1851.7936515241558,1816
1853.7686197234098,1842
1855.7430970494815,1774
1857.7170837649014,1831
1859.6905801322787,1833
1861.6635864143004,1878
1863.6361028737338,1821
1865.608129773424,1832
1867.5796673762961,1922
1869.5507159453537,1896
1871.521275743678,1862
1873.4913470344313,1852
1875.4609300808534,1846
1877.4300251462632,1799
1879.3986324940588,1859
1881.366752387717,1930
1883.3343850907936,1950
1885.3015308669228,1994
1887.268189979819,1880
1889.2343626932739,1823
1891.2000492711595,1861
1893.1652499774254,1925
1895.1299650761011,1854
1897.0941948312952,1922
1899.0579395071945,1881
1901.0211993680641,1923
1902.98397467825,1945
1904.9462657021745,1914
1906.9080727043415,1931
1908.869395949332,1846
1910.8302357018065,1799
1912.790592226504,1832
1914.7504657882428,1968
1916.7098566519212,1891
1918.6687650825133,1827
1920.6271913450764,1880
1922.5851357047422,1934
1924.5425984267245,1902
1926.499579776314,1856
1928.4560800188833,1912
1930.4120994198802,1826
1932.367638244833,1897
1934.32269675935,1887
1936.2772752291175,1990
1938.231373919899,1945
1940.1849930975404,1830
1942.1381330279637,1883
1944.0907939771696,1889
1946.0429762112412,1842
1947.9946799963363,1837
1949.9459055986945,1913
1951.896653284633,1867
1953.8469233205478,1907
1955.7967159729142,1868
1957.7460315082863,1900
1959.6948701932974,1909
1961.6432322946594,1885
1963.5911180791632,1889
1965.5385278136787,1865
1967.4854617651545,1841
1969.4319202006182,1855
1971.377903387176,1833
1973.3234115920136,1810
1975.268445082395,1883
1977.2130041256642,1872
1979.1570889892423,1862
1981.1006999406304,1872
1983.04383724741,1846
1984.986501177238,1851
1986.928691997853,1826
1988.8704099770712,1884
1990.811655382789,1891
1992.7524284829801,1841
1994.692729545698,1849
1996.6325588390755,1844
1998.5719166313224,1887
2000.5108031907307,1832
2002.4492187856677,1809
2004.387163684583,1876
2006.3246381560011,1843
2008.2616424685298,1869
2010.1981768908527,1806
2012.1342416917332,1836
2014.069837140014,1911
2016.0049635046162,1810
2017.9396210545406,1817
2019.8738100588666,1847
2021.8075307867502,1844
2023.740783507431,1786
2025.6735684902228,1876
2027.6058860045214,1808
2029.5377363198004,1818
2031.4691197056118,1818
2033.4000364315875,1893
2035.3304867674374,1871
2037.260470982952,1787
2039.189989347998,1796
2041.1190421325232,1809
2043.047629606554,1792
2044.9757520401945,1796
2046.9034097036288,1863
2048.8306028671195,1799
2050.7573318010086,1807
2052.683596775716,1804
2054.609398061742,1804
2056.5347359296647,1847
2058.4596106501403,1803
2060.384022493906,1874
2062.3079717317764,1831
2064.231458634646,1814
2066.1544834734873,1812
2068.077046519352,1867
2069.99914804337,1833
2071.9207883167524,1843
2073.8419676107865,1816
2075.7626861968406,1816
2077.6829443463607,1829
2079.6027423308715,1879
2081.522080421977,1829
2083.440958891362,1767
2085.359378010786,1737
2087.2773380520907,1797
2089.194839287196,1825
2091.111881988101,1820
2093.0284664268825,1726
2094.9445928756973,1836
2096.86026160678,1806
2098.775472892446,1875
2100.690227005088,1859
2102.604524217178,1803
2104.5183648012676,1880
2106.431749029985,1865
2108.34467717604,1836
2110.2571495122206,1801
2112.169166311393,1776
2114.080727846503,1791
2115.9918343905747,1846
2117.902486216711,1836
2119.8126835980956,1826
2121.722426807987,1828
2123.6317161197285,1855
2125.5405518067364,1836
2127.448934142509,1789
2129.356863400624,1860
2131.264339854737,1833
2133.1713637785815,1864
2135.077935445972,1864
2136.9840551308002,1884
2138.889723107037,1838
2140.7949396487334,1886
2142.699705030018,1869
2144.6040195250994,1894
2146.507883408264,1918
2148.4112969538774,1847
2150.3142604363848,1897
2152.2167741303097,1893
2154.1188383102535,1885
2156.0204532508997,1850
2157.9216192270064,1884
2159.822336513414,1881
2161.7226053850413,1903
2163.622426116884,1893
2165.5217989840185,1946
2167.4207242616,1880
2169.319202224862,1833
2171.2172331491165,1909
2173.1148173097563,1908
2175.0119549822507,1891
2176.90864644215,1894
2178.8048919650823,1891
2180.7006918267534,1907
2182.596046302952,1914
2184.4909556695407,1886
2186.3854202024645,1908
2188.279440177746,1831
2190.173015871487,1931
2192.066147559868,1901
2193.958835519149,1930
2195.851080025667,1925
2197.7428813558417,1894
2199.6342397861667,1957
2201.5251555932186,1853
2203.415629053651,1860
2205.3056604441986,1928
2207.19525004167,1937
2209.084398122958,1896
2210.9731049650327,1925
2212.861370844941,2000
2214.749196039812,1901
2216.636580826851,1967
2218.523525483344,1996
2220.410030286655,2022
2222.296095514226,1946
2224.1817214435805,1918
2226.066908352319,1945
2227.951656518121,1930
2229.835966218746,1955
2231.71983773203,1896
2233.6032713358913,1940
2235.486267308324,1952
2237.3688259274036,1905
2239.2509474712824,1960
2241.132632218193,1961
2243.013880446447,1976
2244.8946924344323,1887
2246.7750684606203,1913
2248.6550088035574,1952
2250.534513741871,1861
2252.413583554265,1930
2254.292218519526,1894
2256.170418916517,1938
2258.0481850241786,1931
2259.925517121534,1937
2261.8024154876825,1910
2263.678880401803,1861
2265.5549121431536,1909
2267.430510991071,1905
2269.305677224971,1890
2271.180411124348,1955
2273.0547129687766,1901
2274.9285830379076,1889
2276.8020216114737,1950
2278.6750289692845,1872
2280.5476053912294,1919
2282.4197511572766,1936
2284.2914665474727,1940
2286.162751841943,1917
2288.0336073208937,1980
2289.904033264608,2029
2291.774029953448,2035
2293.6435976678554,1884
2295.5127366883517,1898
2297.381447295534,1852
2299.2497297700825,1886
2301.1175843927526,1873
2302.9850114443825,1836
2304.852011205885,1900
2306.7185839582553,1801
2308.5847299825664,1809
2310.4504495599676,1745
2312.3157429716925,1819
2314.1806104990483,1725
2316.0450524234247,1763
2317.9090690262888,1772
2319.772660589186,1733
2321.635827393742,1761
2323.498569721661,1855
2325.3608878547248,1804
2327.2227820747967,1801
2329.0842526638157,1771
2330.945299903803,1777
2332.805924076857,1775
2334.6661254651535,1766
2336.525904350951,1776
2338.3852610165827,1781
2340.244195744464,1747
2342.102708817088,1809
2343.9608005170253,1793
2345.8184711269287,1793
2347.675720929526,1789
2349.532550207628,1769
2351.38895924412,1836
2353.24494832197,1741
2355.100517724223,1723
2356.955667734004,1884
2358.810398634514,1812
2360.664710709037,1794
2362.5186042409337,1778
2364.3720795136437,1740
2366.225136810686,1791
2368.0777764156583,1815
2369.929998612237,1777
2371.7818036841777,1853
2373.633191915315,1840
2375.484163589562,1836
2377.3347189909114,1790
2379.184858403434,1829
2381.03458211128,1826
2382.8838903986775,1799
2384.732783549936,1826
2386.5812618494406,1820
2388.4293255816588,1897
2390.2769750311327,1851
2392.1242104824883,1824
2393.971032220427,1838
2395.8174405297295,1839
2397.6634356952563,1849
2399.509018001947,1774
2401.3541877348193,1831
2403.1989451789705,1814
2405.043290619576,1828
2406.8872243418905,1814
2408.730746631247,1804
2410.5738577730594,1786
2412.4165580528183,1828
2414.258847756095,1865
2416.100727168537,1838
2417.9421965758734,1770
2419.783256263912,1820
2421.623906518538,1829
2423.4641476257157,1883
2425.303979871491,1819
2427.143403541984,1823
2428.9824189233977,1847
2430.821026302012,1875
2432.6592259641866,1836
2434.497018196361,1881
2436.33440328505,1802
2438.171381516851,1815
2440.00795317844,1814
2441.844118556569,1851
2443.6798779380724,1847
2445.5152316098606,1822
2447.3501798589255,1874
2449.1847229723357,1869
2451.0188612372403,1907
2452.8525949408663,1884
2454.6859243705203,1883
2456.518849813587,1913
2458.3513715575314,1916
2460.183489889895,1876
2462.015205098301,1886
2463.8465174704493,1849
2465.67742729412,1865
2467.5079348571717,1840
2469.338040447542,1922
2471.1677443532476,1847
2472.9970468623833,1864
2474.825948263123,1931
2476.6544488437207,1918
2478.482548892508,1816
2480.310248697896,1915
2482.137548548374,1978
2483.9644487325118,1863
2485.790949538956,1941
2487.617051256433,1864
2489.44275417375,1832
2491.26805857979,1852
2493.0929647635157,1883
2494.917473013971,1928
2496.741583620276,1951
2498.5652968716304,1885
2500.3886130573137,1896
2502.2115324666834,1855
2504.0340553891765,1945
2505.856182114308,1928
2507.6779129316733,1927
2509.499248130945,1982
2511.3201880018764,1854
2513.140732834298,1930
2514.9608829181198,1957
2516.780638543331,1966
2518.6,1964
2520.418967578273,1958
2522.237541568376,2002
2524.0557222606144,1894
2525.8735099453706,1958
2527.6909049131086,2012
2529.507907454368,1960
2531.32451785977,1956
2533.140736420014,1996
2534.9565634258774,1947
2536.771999168218,2011
2538.5870439379714,2082
2540.4016980261526,2037
2542.2159617238544,2055
2544.02983532225,2128
2545.8433191125914,2133
2547.656413386209,2072
2549.4691184345115,2123
2551.2814345489874,2055
2553.093362021204,2078
2554.904901142808,2030
2556.716052205523,2109
2558.526815501153,2157
2560.3371913215824,2103
2562.147179958771,2127
2563.956781704761,2118
2565.7659968516705,2104
2567.5748256916986,2170
2569.3832685171224,2102
2571.1913256202984,2255
2572.9989972936614,2165
2574.806283829725,2155
2576.613185521084,2201
2578.4197026604074,2224
2580.2258355404483,2350
2582.031584454035,2169
2583.836949694077,2242
2585.6419315535613,2267
2587.4465303255533,2180
2589.2507463032002,2262
2591.0545797797245,2238
2592.8580310484303,2285
2594.6611004026995,2262
2596.463788135992,2234
2598.266094541849,2240
2600.0680199138874,2246
2601.869564545807,2307
2603.670728731383,2266
2605.4715127644704,2226
2607.2719169390048,2263
2609.071941548998,2326
2610.8715868885433,2303
2612.670853251811,2325
2614.469740933052,2196
2616.268250226594,2319
2618.0663814268455,2313
2619.864134828292,2303
2621.6615107255006,2202
2623.458509413115,2138
2625.2551311858597,2206
2627.0513763385347,2095
2628.8472451660223,2150
2630.6427379632833,2172
2632.4378550253564,2166
2634.232596647359,2162
2636.026963124488,2175
2637.8209547520187,2168
2639.6145718253065,2126
2641.407814639785,2144
2643.200683490966,2117
2644.9931786744414,2104
2646.7853004858807,2046
2648.577049221034,2097
2650.3684251757277,2026
2652.1594286458712,2057
2653.9500599274484,2065
2655.740319316525,2020
2657.5302071092437,2068
2659.3197236018286,2108
2661.10886909058,2068
2662.8976438718782,2005
2664.686048242183,2079
2666.4740824980327,2021
2668.2617469360443,1983
2670.0490418529134,1981
2671.8359675454153,1944
2673.622524310403,1936
2675.408712444811,1974
2677.1945322456495,1961
2678.979984010009,1873
2680.76506803506,1906
2682.5497846180497,1931
2684.334134056306,1908
2686.1181166472343,1883
2687.9017326883213,1894
2689.6849824771293,1914
2691.4678663113013,1917
2693.2503844885596,1895
2695.032537306705,1950
2696.8143250636167,1888
2698.5957480572542,1914
2700.3768065856534,1906
2702.1575009469316,1888
2703.937831439283,1893
2705.717798360982,1841
2707.4974020103837,1830
2709.276642685917,1854
2711.055520686095,1809
2712.834036309506,1830
2714.612189854819,1826
2716.389981620782,1861
2718.1674119062204,1834
2719.944481010041,1862
2721.721189231226,1797
2723.4975368688415,1842
2725.273524222027,1907
2727.0491515900053,1880
2728.824419272075,1758
2730.5993275676146,1775
2732.3738767760838,1852
2734.148067197016,1818
2735.921899130031,1728
2737.6953728748194,1815
2739.468488731156,1698
2741.2412469988926,1772
2743.0136479779617,1796
2744.785691968372,1858
2746.5573792702116,1813
2748.3287101836504,1836
2750.099685008934,1767
2751.870304046388,1803
2753.640567596418,1768
2755.4104759595057,1815
2757.1800294362156,1828
2758.949228327187,1830
2760.7180729331412,1780
2762.486563554877,1790
2764.254700493272,1764
2766.022484049284,1788
2767.789914523947,1858
2769.5569922183786,1819
2771.3237174337705,1776
2773.090090471394,1802
2774.8561116326036,1762
2776.6217812188274,1832
2778.3870995315756,1795
2780.1520668724356,1758
2781.9166835430747,1811
2783.6809498452394,1765
2785.444866080754,1849
2787.2084325515225,1793
2788.971649559527,1793
2790.73451740683,1790
2792.4970363955713,1775
2794.2592068279705,1697
2796.0210290063264,1805
2797.7825032330147,1759
2799.543629810493,1781
2801.304409041296,1818
2803.0648412280366,1796
2804.8249266734088,1813
2806.5846656801846,1767
2808.344058551212,1836
2810.1031055894246,1812
2811.8618070978273,1863
2813.6201633795085,1800
2815.378174737636,1782
2817.1358414754536,1784
2818.893163896285,1792
2820.6501423035334,1785
2822.4067770006814,1763
2824.1630682912883,1779
2825.9190164789957,1823
2827.6746218675207,1766
2829.429884760661,1781
2831.184805462294,1796
2832.9393842763743,1793
2834.693621506936,1813
2836.4475174580916,1790
2838.201072434034,1837
2839.954286739034,1882
2841.707160677441,1809
2843.459694553685,1818
2845.2118886722724,1838
2846.96374333779,1818
2848.7152588549034,1806
2850.4664355283567,1816
2852.217273662973,1813
2853.9677735636546,1839
2855.7179355353833,1791
2857.4677598832186,1744
2859.217246912299,1855
2860.9663969278427,1759
2862.715210235146,1807
2864.4636871395846,1789
2866.211827946614,1796
2867.9596329617652,1788
2869.7071024906536,1824
2871.4542368389684,1772
2873.20103631248,1767
2874.947501217038,1742
2876.6936318585695,1835
2878.4394285430812,1817
2880.1848915766604,1817
2881.9300212654707,1803
2883.6748179157553,1785
2885.4192818338374,1748
2887.1634133261173,1790
2888.907212699077,1777
2890.6506802592744,1775
2892.393816313348,1806
2894.1366211680142,1811
2895.8790951300693,1798
2897.621238506388,1804
2899.363051603925,1730
2901.1045347297118,1799
2902.8456881908596,1821
2904.58651229456,1774
2906.327007348081,1833
2908.067173658772,1764
2909.8070115340597,1767
2911.5465212814497,1731
2913.285703208527,1785
2915.0245576229563,1745
2916.7630848324807,1676
2918.5012851449196,1726
2920.2391588681758,1731
2921.976706310227,1725
2923.7139277791334,1727
2925.4508235830313,1799
2927.187394030137,1822
2928.923639428745,1796
2930.6595600872306,1827
2932.395156314046,1770
2934.1304284177218,1814
2935.8653767068713,1725
2937.6000014901815,1805
2939.3343030764227,1825
2941.068281774442,1879
2942.8019378931644,1814
2944.5352717415976,1751
2946.2682836288236,1776
2948.0009738640065,1813
2949.7333427563885,1804
2951.465390615289,1810
2953.1971177501086,1744
2954.9285244703265,1829
2956.6596110855,1815
2958.3903779052657,1788
2960.1208252393385,1783
2961.8509533975125,1789
2963.5807626896617,1831
2965.3102534257378,1763
2967.0394259157715,1755
2968.768280469873,1805
2970.496817398232,1819
2972.2250370111146,1820
2973.952939618869,1806
2975.6805255319196,1773
2977.4077950607707,1758
2979.134748516006,1819
2980.861386208289,1832
2982.587708448359,1764
2984.313715547037,1812
2986.039407815222,1769
2987.764785563891,1837
2989.489849104102,1782
2991.2145987469908,1780
2992.9390348037705,1871
2994.6631575857346,1705
2996.3869674042576,1773
2998.1104645707887,1758
2999.83364939686,1765
3001.5565221940783,1771
3003.2790832741334,1762
3005.0013329487924,1841
3006.7232715298996,1807
3008.4448993293804,1815
3010.166216659239,1842
3011.887223831558,1787
3013.607921158498,1812
3015.3283089522993,1795
3017.0483875252826,1778
3018.7681571898443,1818
3020.4876182584626,1775
3022.2067710436927,1804
3023.9256158581707,1719
3025.644153014609,1860
3027.362382825801,1729
3029.0803056046193,1738
3030.797921664012,1792
3032.5152313170106,1826
3034.2322348767225,1831
3035.9489326563353,1788
3037.665324969115,1768
3039.3814121284063,1805
3041.097194447633,1782
3042.812672240299,1843
3044.5278458199855,1811
3046.2427155003525,1889
3047.9572815951406,1836
3049.671544418167,1810
3051.38550428333,1826
3053.0991615046073,1811
3054.812516396051,1770
3056.5255692717974,1770
3058.2383204460575,1814
3059.9507702331257,1824
3061.662918947372,1802
3063.3747669032446,1840
3065.0863144152736,1785
3066.7975617980674,1768
3068.508509366309,1791
3070.219157434767,1792
3071.9295063182844,1748
3073.639556331785,1777
3075.3493077902704,1843
3077.058761008821,1808
3078.7679163025964,1797
3080.476773986837,1785
3082.1853343768594,1752
3083.89359778806,1792
3085.6015645359153,1790
3087.3092349359786,1758
3089.016609303884,1831
3090.7236879553434,1842
3092.4304712061476,1781
3094.136959372166,1804
3095.843152769349,1850
3097.5490517137237,1853
3099.2546565213966,1735
3100.959967508554,1817
3102.66498499146,1796
3104.3697092864577,1791
3106.0741407099695,1820
3107.778279578498,1776
3109.482126208622,1848
3111.1856809170004,1752
3112.8889440203716,1845
3114.5919158355528,1702
3116.294596679439,1852
3117.996986869006,1875
3119.6990867213062,1863
3121.4008965534726,1851
3123.102416682717,1811
3124.803647426329,1789
3126.5045891016784,1774
3128.205242026213,1845
3129.90560651746,1840
3131.605682893025,1795
3133.3054714705922,1864
3135.0049725679282,1798
3136.7041865028714,1776
3138.4031135933465,1826
3140.101754157353,1813
3141.800108512971,1847
3143.498176978357,1841
3145.1959598717494,1775
3146.8934575114636,1722
3148.5906702158954,1749
3150.2875983035183,1828
3151.9842420928853,1821
3153.680601902627,1715
3155.376678051456,1810
3157.07247085816,1817
3158.767980641609,1835
3160.463207720748,1788
3162.158152414606,1778
3163.8528150422862,1851
3165.5471959229726,1780
3167.2412953759303,1815
3168.9351137204976,1872
3170.628651276098,1782
3172.3219083622307,1778
3174.014885298474,1746
3175.707582404485,1877
3177.4000000000005,1847
3179.092138404835,1822
3180.7839979388846,1811
3182.47557892212,1813
3184.166881674594,1821
3185.8579065164386,1874
3187.5486537678626,1845
3189.2391237491547,1780
3190.9293167806827,1826
3192.6192331828934,1829
3194.3088732763117,1831
3195.998237381542,1879
3197.687325819268,1770
3199.376138910251,1846
3201.064676975334,1795
3202.7529403354347,1785
3204.4409293115523,1841
3206.1286442247647,1763
3207.816085396229,1783
3209.5032531471825,1763
3211.190147798936,1814
3212.8767696728846,1722
3214.5631190905015,1718
3216.2491963733373,1775
3217.9350018430214,1753
3219.6205358212637,1763
3221.305798629851,1768
3222.990790590651,1710
3224.6755120256103,1767
3226.359963256751,1790
3228.0441446061795,1724
3229.7280563960758,1761
3231.411698948703,1734
3233.0950725863995,1827
3234.778177631587,1787
3236.461014406761,1853
3238.1435832345005,1834
3239.8258844374595,1854
3241.507918338374,1810
3243.1896852600576,1766
3244.8711855254023,1784
3246.552419457381,1820
3248.233387379042,1809
3249.914089613516,1805
3251.59452648401,1777
3253.274698313813,1745
3254.95460542629,1744
3256.6342481448855,1727
3258.313626793125,1699
3259.9927416946084,1769
3261.6715931730196,1774
3263.3501815521176,1776
3265.0285071557437,1798
3266.706570307815,1783
3268.3843713323286,1731
3270.0619105533615,1872
3271.739188295068,1751
3273.4162048816834,1747
3275.0929606375184,1765
3276.769455886966,1757
3278.445690954498,1827
3280.1216661646613,1805
3281.797381842087,1840
3283.4728383114807,1804
3285.1480358976296,1836
3286.8229749253996,1842
3288.4976557197333,1764
3290.172078605655,1763
3291.846243908266,1764
3293.5201519527463,1800
3295.193803064357,1713
3296.8671975684374,1787
3298.5403357904024,1722
3300.21321805575,1763
3301.8858446900567,1801
3303.558216018975,1781
3305.23033236824,1807
3306.9021940636603,1817
3308.57380143113,1797
3310.2451547966184,1731
3311.916254486174,1760
3313.5871008259246,1742
3315.2576941420766,1770
3316.9280347609147,1792
3318.5981230088046,1794
3320.2679592121895,1724
3321.9375436975924,1727
3323.606876791612,1862
3325.27595882093,1806
3326.944790112305,1884
3328.6133709925753,1763
3330.2817017886573,1775
3331.949782827547,1738
3333.617614436319,1822
3335.2851969421245,1807
3336.952530672199,1804
3338.619615953853,1784
3340.286453114475,1787
3341.9530424815357,1789
3343.619384382583,1855
3345.2854791452437,1777
3346.951327097224,1777
3348.6169285663073,1735
3350.2822838803577,1805
3351.947393367319,1872
3353.61225735521,1816
3355.2768761721345,1758
3356.9412501462693,1773
3358.605379605873,1751
3360.2692648792827,1743
3361.9329062949146,1752
3363.596304181263,1760
