CollectionTime,9/19/2024 11:24:42 AM
ExposureUsed,3
CalibratedSpectrum
-962.7078968117929,648
-959.9714848408522,693
-957.2358232597828,742
-954.5009119013725,748
-951.7667505983302,774
-949.0333391832855,712
-946.3006774887896,717
-943.5687653473143,754
-940.837602591253,701
-938.1071890529199,766
-935.3775245645503,722
-932.6486089583007,651
-929.9204420662485,722
-927.1930237203925,690
-924.4663537526524,696
-921.7404319948689,763
-919.0152582788041,702
-916.2908324361409,770
-913.5671542984834,706
-910.8442236973568,690
-908.1220404642074,708
-905.4006044304027,687
-902.679915427231,699
-899.959973285902,685
-897.2407778375464,685
-894.5223289132158,704
-891.8046263438832,678
-889.0876699604426,697
-886.3714595937089,688
-883.6559950744183,675
-880.9412762332282,664
-878.2273029007168,703
-875.5140749073835,665
-872.8015920836489,704
-870.0898542598545,690
-867.3788612662631,672
-864.6686129330585,692
-861.9591090903457,661
-859.2503495681506,690
-856.5423341964203,662
-853.8350628050229,678
-851.1285352237478,662
-848.4227512823054,698
-845.7177108103272,674
-843.0134136373656,670
-840.3098595928943,693
-837.6070485063082,694
-834.9049802069229,717
-832.2036545239757,704
-829.5030712866244,689
-826.8032303239481,715
-824.1041314649472,659
-821.4057745385428,688
-818.7081593735775,677
-816.0112857988148,689
-813.3151536429393,661
-810.6197627345566,695
-807.9251129021936,696
-805.2312039742981,685
-802.5380357792392,702
-799.8456081453069,687
-797.1539209007124,749
-794.462973873588,719
-791.772766891987,722
-789.083299783884,738
-786.3945723771743,691
-783.7065844996748,698
-781.0193359791231,725
-778.3328266431781,717
-775.6470563194197,731
-772.9620248353489,722
-770.2777320183878,706
-767.5941776958798,723
-764.9113616950891,736
-762.2292838432011,711
-759.5479439673222,704
-756.8673418944801,697
-754.1874774516235,713
-751.5083504656222,711
-748.8299607632671,692
-746.15230817127,772
-743.475392516264,716
-740.7992136248035,748
-738.1237713233636,741
-735.4490654383407,691
-732.7750957960521,711
-730.1018622227365,740
-727.4293645445534,749
-724.7576025875837,742
-722.0865761778291,720
-719.4162851412126,792
-716.7467293035781,766
-714.0779084906909,796
-711.409822528237,784
-708.7424712418238,774
-706.0758544569796,780
-703.4099719991541,828
-700.7448236937178,805
-698.0804093659622,735
-695.4167288411002,783
-692.7537819442656,790
-690.0915685005134,800
-687.4300883348199,808
-684.7693412720819,834
-682.1093271371178,749
-679.4500457546669,755
-676.7914969493897,773
-674.1336805458676,776
-671.4765963686034,754
-668.8202442420206,772
-666.1646239904642,785
-663.5097354382001,823
-660.8555784094151,811
-658.2021527282176,795
-655.5494582186366,821
-652.8974947046223,823
-650.2462620100463,789
-647.5957599587009,820
-644.9459883742998,853
-642.2969470804776,828
-639.6486359007902,826
-637.0010546587141,868
-634.3542031776476,868
-631.7080812809096,847
-629.0626887917401,820
-626.4180255333008,794
-623.7740913286734,839
-621.1308860008619,819
-618.4884093727904,818
-615.8466612673046,807
-613.2056415071715,815
-610.5653499150785,844
-607.9257863136347,871
-605.28695052537,900
-602.6488423727357,814
-600.0114616781036,824
-597.3748082637674,861
-594.7388819519412,838
-592.1036825647604,902
-589.4692099242818,846
-586.8354638524829,833
-584.2024441712624,822
-581.5701507024403,857
-578.9385832677575,879
-576.3077416888759,850
-573.6776257873787,839
-571.0482353847704,834
-568.4195703024757,863
-565.7916303618415,822
-563.164415384135,856
-560.5379251905453,802
-557.9121596021815,881
-555.2871184400748,864
-552.6628015251767,866
-550.0392086783606,916
-547.4163397204204,910
-544.794194472071,910
-542.1727727539491,924
-539.5520743866118,920
-536.9320991905377,954
-534.3128469861261,956
-531.6943175936979,936
-529.0765108334947,958
-526.4594265256793,1107
-523.8430644903358,1261
-521.2274245474689,1407
-518.612506517005,1485
-515.9983102187913,1540
-513.3848354725959,1555
-510.77208209810846,1700
-508.16004991493924,1760
-505.5487387426199,1810
-502.9381484006032,1809
-500.3282787082628,1727
-497.71912948489364,1672
-495.1107005497117,1491
-492.5029917218539,1394
-489.8960028203786,1246
-487.28973366426493,1151
-484.68418407241325,1115
-482.07935386364494,1046
-479.47524285670266,1027
-476.87185087025,1085
-474.2691777228715,1117
-471.66722323307334,1062
-469.0659872192821,1044
-466.4654694998459,1113
-463.86566989303384,1026
-461.26658821703614,1067
-458.66822428996414,1071
-456.07057792985,1089
-453.4736489546475,1032
-450.877437182231,1032
-448.28194243039627,1016
-445.68716451686,1015
-443.09310325926003,1030
-440.49975847515555,1016
-437.9071299820263,1001
-435.31521759727354,1077
-432.72402113821954,1055
-430.13354042210767,981
-427.5437752661022,1046
-424.95472548728867,1106
-422.36639090267386,1112
-419.7787713291855,1124
-417.1918665836721,1111
-414.60567648290385,1066
-412.0202008435715,1148
-409.4354394822874,1089
-406.8513922155845,1114
-404.26805885991723,1128
-401.685439231661,1174
-399.103533147112,1132
-396.522340422488,1097
-393.9418608739278,1042
-391.3620943174908,1073
-388.7830405691583,1021
-386.2046994448317,989
-383.6270707603344,996
-381.05015433141045,874
-378.473949973725,892
-375.8984575028645,859
-373.32367673433623,777
-370.74960748356875,745
-368.1762495659117,694
-365.60360279663576,610
-363.03166699093265,596
-360.4604419639154,566
-357.8899275306178,569
-355.32012350599507,567
-352.7510297049233,551
-350.1826459421999,505
-347.61497203254316,507
-345.04800779059235,511
-342.4817530309082,545
-339.91620756797226,548
-337.35137121618743,559
-334.7872437898774,552
-332.22382510328725,502
-329.66111497058273,520
-327.09911320585127,520
-324.53781962310075,487
-321.9772340362607,479
-319.4173562591816,506
-316.8581861056348,509
-314.2997233893127,521
-311.7419679238294,488
-309.1849195227194,554
-306.62857799943856,574
-304.0729431673641,540
-301.51801483979375,562
-298.963792829947,541
-296.41027695096386,547
-293.85746701590574,502
-291.3053628377552,555
-288.7539642294155,611
-286.2032710037115,615
-283.65328297338897,634
-281.1039999511146,607
-278.5554217494762,594
-276.007548180983,582
-273.4603790580651,600
-270.9139141930734,570
-268.3681533982807,611
-265.8230964858798,652
-263.27874326798565,654
-260.7350935566336,657
-258.1921471637804,688
-255.6499039013039,771
-253.10836358100266,811
-250.56752601459698,747
-248.02739101372765,739
-245.48795838995704,789
-242.94922795476816,789
-240.41119951956557,787
-237.8738728956746,763
-235.33724789434166,804
-232.80132432673452,735
-230.2661020039418,701
-227.73158073697357,730
-225.19776033676033,825
-222.66464061415422,914
-220.1322213799284,820
-217.60050244477725,805
-215.06948361931552,840
-212.53916471408013,903
-210.00954553952818,931
-207.48062590603843,875
-204.9524056239104,769
-202.4248845033651,824
-199.8980623545441,817
-197.37193898751036,978
-194.84651421224817,1022
-192.32178783866232,856
-189.79775967657952,930
-187.27442953574644,1068
-184.7517972258321,1123
-182.2298625564256,923
-179.7086253370378,807
-177.18808537710026,852
-174.66824248596583,998
-172.14909647290835,1084
-169.6306471471229,1047
-167.11289431772548,929
-164.59583779375328,906
-162.07947738416453,1018
-159.5638128978386,1333
-157.04884414357605,1513
-154.53457093009854,1576
-152.02099306604828,1288
-149.50811035998936,1107
-146.99592262040665,1349
-144.48442965570587,1441
-141.97363127421409,1512
-139.46352728417958,1814
-136.95411749377126,1765
-134.44540171107985,1365
-131.93737974411636,1085
-129.43005140081357,1288
-126.92341648902493,1498
-124.41747481652521,1981
-121.91222619101006,2694
-119.40767042009657,2941
-116.90380731132257,2803
-114.40063667214702,3041
-111.8981583099503,3646
-109.3963720320337,4670
-106.89527764561933,6076
-104.39487495785067,7691
-101.89516377579241,11649
-99.39614390642998,18184
-96.89781515667039,21168
-94.40017733334128,21694
-91.90323024319173,20210
-89.40697369289148,15140
-86.91140748903172,7952
-84.41653143812482,5853
-81.92234534660395,8509
-79.42884902082358,13978
-76.93604226705907,19847
-74.4439248915071,24296
-71.95249670028534,23474
-69.46175749943245,17772
-66.97170709490854,12064
-64.48234529259423,9534
-61.99367189829195,9786
-59.50568671772464,9421
-57.01838955653636,9522
-54.53178022029283,12025
-52.045858514480074,12891
-49.560624244506016,13979
-47.07607721569923,15822
-44.59221723330904,17052
-42.10904410250669,18627
-39.62655762838392,19473
-37.14475761595372,18885
-34.66364387015028,20416
-32.18321619582866,19436
-29.70347439776515,19513
-27.224418280657005,23347
-24.74604764912317,28193
-22.26836230770266,43736
-19.7913620608565,65034
-17.315046712966478,65034
-14.83941606833514,65034
-12.36446993118659,65034
-9.89020810566592,65034
-7.416630395839093,65034
-4.94373660569363,65034
-2.471526539137585,65034
-6.821210263296962E-13,65034
2.47084320796705,65034
4.941003281093458,65034
7.410480415786196,65034
9.879274808531363,65034
12.347386655893956,65034
14.814816154518212,65034
17.28156350112681,65034
19.74762889252179,65034
22.21301252558385,25502
24.67771459727237,6740
27.141735304626195,6185
29.605074844762612,5930
32.06773341487792,5521
34.52971121224755,5446
36.99100843422559,5012
39.45162527824516,3718
41.91156194181792,4359
44.370818622535126,4918
46.82939551806646,4073
49.287292826160524,6108
51.74451074464503,5717
54.201049471426245,3755
56.65690920448981,2734
59.112090141899785,2275
61.56659248179983,2409
64.02041642241159,2846
66.4735621620365,3197
68.92602989905402,3589
71.37781983192338,3530
73.82893215918205,2369
76.27936707944684,1867
78.72912479141326,2089
81.17820549385567,2089
83.62660938562783,1990
86.07433666566146,1749
88.5213875329681,1537
90.96776218663751,1723
93.41346082583925,1914
95.85848364982041,2322
98.30283085790859,2060
100.7465026495089,1586
103.18949922410604,1398
105.63182078126385,1300
108.07346752062438,1452
110.51443964190923,1549
112.95473734491827,1362
115.39436082953114,1262
117.83331029570547,1185
120.27158594347827,1220
122.7091879729652,1425
125.1461165843615,1276
127.58237197794062,1189
130.01795435405518,1183
132.4528639131364,1311
134.88710085569494,1139
137.32066538231982,1203
139.75355769367923,1314
142.1857779905207,1115
144.61732647366978,1022
147.04820334403132,985
149.47840880258934,1204
151.90794305040674,1174
154.33680628862487,1315
156.76499871846443,1488
159.19252054122433,1637
161.61937195828352,1762
164.04555317109896,1851
166.47106438120693,1998
168.89590579022217,2075
171.320077599839,2304
173.7435800118302,2411
176.16641322804742,2621
178.58857745042144,2707
181.01007288096173,2695
183.43089972175687,2646
185.85105817497413,2759
188.27054844285988,2622
190.6893707277394,2678
193.10752523201643,2700
195.5250121581745,2830
197.9418317087751,2931
200.3579840864594,2834
202.7734694939469,2897
205.18828813403627,3063
207.6024402096051,3073
210.01592592360964,2977
212.42874547908548,3040
214.84089907914665,2959
217.2523869269868,3014
219.66320922587727,3006
222.0733661791695,2958
224.48285799029293,2997
226.8916848627572,3125
229.29984700014882,3010
231.7073446061355,3074
234.11417788446204,3220
236.520347038953,3173
238.92585227351185,3317
241.33069379212054,3399
243.73487179884035,3445
246.1383864978112,3362
248.541238093252,3483
250.9434267894609,3555
253.34495279081432,3384
255.74581630176783,3574
258.1460175268563,3658
260.54555667069314,3540
262.9444339379703,3432
265.3426495334594,3510
267.7402036620107,3527
270.1370965285529,3288
272.53332833809407,3064
274.9288992957214,2977
277.32380960660055,2917
279.718059475976,2928
282.1116491091717,2849
284.5045787115897,2839
286.89684848871195,2796
289.2884586460981,2922
291.67940938938807,2812
294.0697009242996,2939
296.4593334566299,2806
298.84830719225477,2876
301.23662233712923,2799
303.6242790972866,2723
306.01127767884,2674
308.39761828798066,2731
310.78330113097934,2659
313.16832641418534,2538
315.5526943440269,2576
317.9364051270112,2566
320.3194589697242,2651
322.70185607883093,2532
325.0835966610754,2447
327.4646809232805,2498
329.8451090723478,2527
332.2248813152577,2513
334.6039978590701,2421
336.9824589109231,2382
339.36026467803447,2330
341.7374153677,2331
344.113911187295,2331
346.48975234427337,2379
348.8649390461686,2347
351.2394715005918,2329
353.61334991523415,2309
355.9865744978655,2371
358.35914545633375,2357
360.73106299856715,2270
363.10232733257146,2281
365.47293866643247,2279
367.84289720831396,2276
370.2122031664593,2268
372.5808567491905,2236
374.9488581649083,2198
377.31620762209275,2173
379.6829053293021,2292
382.0489514951745,2144
384.4143463284262,2155
386.7790900378528,2121
389.14318283232853,2163
391.50662492080653,2146
393.86941651231916,2126
396.23155781597745,2187
398.5930490409713,2334
400.9538903965696,2162
403.3140820921202,2169
405.6736243370498,2137
408.03251734086336,2154
410.3907613131465,2115
412.74835646356166,2060
415.10530300185144,2115
417.4616011378372,2077
419.81725108141893,2095
422.1722530425758,2141
424.5266072313656,2126
426.880313857925,2143
429.2333731324701,2126
431.58578526529516,2124
433.9375504667738,2105
436.2886689473588,2083
438.63914091758113,2162
440.9889665880513,2076
443.33814616945835,2106
445.68667987257015,2140
448.03456790823395,2117
450.3818104873759,2032
452.72840782100013,2110
455.07436012019105,2060
457.41966759611057,2032
459.7643304600007,2047
462.10834892318155,2025
464.4517231970525,2105
466.79445349309174,2027
469.1365400228566,2033
471.4779829979826,2105
473.81878263018564,2085
476.15893913125876,2114
478.4984527130747,2147
480.8373235875855,2182
483.17555196682144,2182
485.5131380628919,2165
487.8500820879857,2316
490.1863842543697,2503
492.52204477439034,2558
494.8570638604725,2717
497.1914417251204,2997
499.52517858091653,3346
501.85827464052306,3635
504.19073011668036,3854
506.5225452222086,3962
508.85372017000566,4125
511.18425517304956,4075
513.514150444396,4762
515.8434061971808,5944
518.1720226446176,6791
520.4999999999999,7047
522.8273384766991,6500
525.1540382881666,6112
527.480099647932,5316
529.8055227696037,4297
532.1303078668694,3214
534.454455153496,2736
536.777964843328,2450
539.1008371502907,2343
541.4230722883866,2291
543.744670471698,2246
546.0656319143858,2248
548.3859568306899,2115
550.7056454349294,2195
553.0246979415016,2162
555.3431145648834,2101
557.6608955196306,2063
559.978041020377,2077
562.2945512818363,2161
564.6104265188006,2123
566.9256669461412,2049
569.2402727788082,2210
571.5542442318302,2227
573.8675815203156,2157
576.1802848594508,2147
578.4923544645015,2217
580.8037905508126,2295
583.114593333807,2204
585.4247630289875,2206
587.7342998519354,2132
590.0432040183106,2221
592.3514757438526,2161
594.6591152443794,2176
596.9661227357875,2231
599.2724984340531,2151
601.578242555231,2218
603.8833553154542,2142
606.1878369309362,2113
608.4916876179676,2166
610.7949075929192,2129
613.0974970722403,2127
615.3994562724587,2164
617.7007854101818,2225
620.0014847020951,2210
622.3015543649641,2210
624.6009946156324,2173
626.8998056710224,2091
629.1979877481361,2134
631.4955410640538,2144
633.7924658359349,2098
636.0887622810175,2100
638.3844306166192,2173
640.6794710601358,2146
642.9738838290426,2213
645.2676691408932,2226
647.5608272133207,2228
649.853358264037,2255
652.1452625108324,2244
654.4365401715764,2232
656.7271914642178,2235
659.0172166067838,2255
661.3066158173809,2250
663.5953893141935,2274
665.8835373154867,2246
668.1710600396028,2287
670.4579577049639,2262
672.7442305300709,2194
675.0298787335033,2207
677.3149025339197,2211
679.599302150058,2225
681.8830778007342,2219
684.1662297048437,2181
686.4487580813608,2274
688.7306631493387,2221
691.0119451279091,2119
693.2926042362834,2223
695.5726406937516,2225
697.8520547196814,2147
700.1308465335215,2150
702.4090163547982,2163
704.6865644031171,2190
706.9634908981619,2207
709.2397960596965,2273
711.5154801075631,2283
713.7905432616823,2163
716.0649857420548,2137
718.3388077687592,2140
720.612009561953,2121
722.8845913418733,2160
725.1565533288352,2150
727.427895743234,2087
729.6986188055427,2092
731.9687227363137,2109
734.238207756178,2169
736.5070740858458,2228
738.7753219461066,2143
741.0429515578281,2140
743.3099631419569,2170
745.5763569195191,2203
747.8421331116193,2081
750.1072919394409,2149
752.3718336242467,2098
754.6357583873777,2044
756.8990664502545,2183
759.1617580343765,2102
761.423833361321,2114
763.6852926527457,2183
765.9461361303862,2298
768.206364016058,2173
770.4659765316536,2096
772.7249738991469,2130
774.9833563405886,2171
777.2411240781092,2237
779.4982773339183,2132
781.7548163303044,2128
784.010741289634,2150
786.2660524343538,2223
788.5207499869881,2157
790.7748341701416,2217
793.0283052064964,2236
795.2811633188143,2256
797.5334087299362,2136
799.7850416627813,2158
802.0360623403484,2125
804.2864709857143,2157
806.5362678220353,2210
808.7854530725468,2201
811.0340269605625,2160
813.2819897094754,2229
815.5293415427581,2198
817.77608268396,2252
820.0222133567116,2180
822.2677337847211,2190
824.5126441917765,2176
826.7569448017433,2158
829.0006358385675,2152
831.2437175262731,2162
833.4861900889629,2091
835.7280537508192,2169
837.9693087361026,2201
840.2099552691533,2213
842.4499935743896,2269
844.689423876309,2151
846.9282463994886,2233
849.1664613685833,2242
851.4040690083276,2170
853.6410695435349,2234
855.877463199097,2291
858.1132501999847,2230
860.3484307712487,2239
862.5830051380175,2192
864.8169735254988,2214
867.0503361589791,2206
869.2830932638243,2223
871.5152450654786,2256
873.7467917894654,2332
875.9777336613873,2274
878.2080709069252,2235
880.4378037518389,2222
882.666932421968,2183
884.8954571432301,2342
887.1233781416219,2305
889.3506956432192,2224
891.5774098741766,2240
893.803521060728,2321
896.0290294291852,2305
898.2539352059397,2305
900.4782386174619,2346
902.7019398903011,2260
904.925039251085,2315
907.147536926521,2294
909.3694331433943,2299
911.59072812857,2303
913.8114221089921,2361
916.0315153116827,2282
918.2510079637437,2287
920.4699002923547,2311
922.6881925247761,2242
924.905884888345,2201
927.1229776104793,2260
929.3394709186747,2267
931.555365040506,2305
933.7706602036275,2282
935.9853566357709,2316
938.1994545647489,2395
940.4129542184515,2298
942.6258558248488,2414
944.8381596119883,2313
947.0498658079974,2444
949.2609746410825,2318
951.4714863395287,2408
953.6814011316998,2276
955.8907192460387,2356
958.0994409110671,2312
960.3075663553858,2435
962.5150958076741,2327
964.7220294966913,2346
966.928367651274,2297
969.1341105003388,2247
971.3392582728806,2246
973.5438111979742,2272
975.747769504772,2322
977.9511334225061,2266
980.153903180487,2153
982.3560790081052,2209
984.5576611348289,2159
986.7586497902058,2084
988.9590452038618,2200
991.158847605503,2078
993.3580572249133,2104
995.5566742919558,2091
997.7546990365728,2045
999.952131688785,2042
1002.1489724786926,1925
1004.3452216364743,1999
1006.5408793923874,1997
1008.7359459767691,2003
1010.9304216200343,1952
1013.1243065526781,1927
1015.3176010052733,1956
1017.510305208472,1870
1019.7024193930064,1851
1021.8939437896848,1842
1024.0848786293977,1886
1026.2752241431122,1956
1028.4649805618747,1886
1030.6541481168115,1821
1032.842727039127,1848
1035.0307175601051,1838
1037.2181199111074,1851
1039.4049343235752,1867
1041.591161029029,1854
1043.7768002590683,1867
1045.9618522453698,1861
1048.1463172196918,1794
1050.3301954138697,1799
1052.513487059818,1861
1054.69619238953,1802
1056.8783116350783,1892
1059.0598450286152,1845
1061.2407928023704,1925
1063.4211551886528,1841
1065.6009324198508,1823
1067.780124728432,1788
1069.9587323469414,1796
1072.1367555080046,1843
1074.314194444325,1766
1076.4910493886855,1763
1078.667320573947,1797
1080.843008233051,1714
1083.0181125990161,1798
1085.1926339049414,1792
1087.3665723840027,1848
1089.5399282694575,1775
1091.7127017946405,1833
1093.8848931929647,1817
1096.0565026979243,1765
1098.2275305430899,1754
1100.3979769621128,1746
1102.567842188722,1732
1104.737126456726,1770
1106.9058300000124,1709
1109.0739530525475,1776
1111.2414958483764,1699
1113.4084586216231,1717
1115.5748416064907,1756
1117.7406450372605,1716
1119.9058691482942,1707
1122.0705141740304,1765
1124.2345803489884,1677
1126.3980679077658,1715
1128.5609770850388,1782
1130.7233081155623,1772
1132.8850612341707,1719
1135.0462366757774,1731
1137.2068346753745,1746
1139.3668554680326,1696
1141.526299288901,1717
1143.68516637321,1744
1145.8434569562655,1681
1148.001171273455,1695
1150.158309560244,1670
1152.3148720521767,1700
1154.470858984876,1773
1156.626270594044,1682
1158.7811071154629,1727
1160.9353687849912,1675
1163.089055838569,1711
1165.242168512213,1722
1167.3947070420209,1684
1169.5466716641677,1694
1171.6980626149075,1741
1173.8488801305748,1717
1175.9991244475814,1701
1178.1487958024186,1704
1180.2978944316555,1662
1182.4464205719428,1686
1184.5943744600072,1752
1186.7417563326567,1664
1188.8885664267755,1691
1191.0348049793297,1664
1193.1804722273619,1659
1195.325568407995,1716
1197.4700937584303,1673
1199.614048515948,1695
1201.7574329179074,1656
1203.900247201746,1685
1206.042491604982,1652
1208.1841663652099,1655
1210.3252717201053,1715
1212.465807907422,1647
1214.6057751649923,1688
1216.7451737307279,1717
1218.8840038426192,1763
1221.0222657387353,1743
1223.1599596572241,1690
1225.2970858363137,1675
1227.4336445143094,1757
1229.5696359295966,1766
1231.705060320639,1776
1233.8399179259786,1734
1235.9742089842384,1730
1238.107933734118,1790
1240.2410924143974,1724
1242.373685263935,1743
1244.5057125216676,1733
1246.6371744266116,1707
1248.7680712178621,1757
1250.898403134593,1743
1253.028170416058,1824
1255.1573733015875,1755
1257.2860120305932,1774
1259.4140868425648,1769
1261.54159797707,1806
1263.6685456737569,1808
1265.7949301723515,1792
1267.9207517126597,1729
1270.046010534565,1800
1272.1707068780306,1858
1274.2948409830983,1752
1276.4184130898889,1845
1278.541423438603,1861
1280.6638722695184,1855
1282.785759822993,1792
1284.9070863394636,1788
1287.0278520594447,1876
1289.1480572235314,1870
1291.2677020723963,1899
1293.3867868467923,1894
1295.5053117875495,1885
1297.623277135579,1917
1299.740683131868,1940
1301.8575300174857,1907
1303.973818033578,1907
1306.0895474213703,2025
1308.2047184221678,1957
1310.3193312773528,1945
1312.4333862283888,1859
1314.5468835168163,1924
1316.659823384255,1895
1318.7722060724045,1963
1320.8840318230418,1997
1322.9953008780249,2018
1325.1060134792888,1966
1327.2161698688478,1955
1329.3257702887959,1991
1331.4348149813054,1947
1333.5433041886276,2046
1335.6512381530933,1962
1337.7586171171101,2039
1339.8654413231675,1958
1341.9717110138317,1898
1344.0774264317488,1998
1346.1825878196432,1990
1348.2871954203192,1943
1350.3912494766587,1904
1352.4947502316231,1958
1354.5976979282532,1929
1356.7000928096686,1892
1358.8019351190665,1959
1360.9032250997243,1889
1363.0039629949988,1910
1365.1041490483235,1923
1367.2037835032133,1802
1369.3028666032606,1863
1371.401398592137,1892
1373.4993797135926,1884
1375.5968102114575,1910
1377.6936903296396,1905
1379.7900203121262,1896
1381.8858004029835,1906
1383.9810308463561,1911
1386.075711886469,1936
1388.1698437676241,1902
1390.2634267342032,1915
1392.356461030667,1934
1394.4489469015557,1954
1396.5408845914872,1978
1398.6322743451592,1915
1400.7231164073469,1949
1402.813411022907,1974
1404.903158436773,1991
1406.9923588939578,2040
1409.0810126395531,2018
1411.1691199187303,2103
1413.2566809767386,2001
1415.343696058907,2039
1417.4301654106425,2091
1419.5160892774315,2083
1421.6014679048399,2068
1423.6863015385125,2075
1425.7705904241707,2166
1427.8543348076178,2055
1429.9375349347342,2099
1432.0201910514802,2188
1434.102303403894,2171
1436.1838722380944,2121
1438.2648978002767,2233
1440.3453803367174,2238
1442.4253200937692,2301
1444.5047173178677,2304
1446.5835722555234,2301
1448.6618851533285,2404
1450.739656257952,2356
1452.8168858161434,2407
1454.8935740747306,2475
1456.96972128062,2419
1459.045327680797,2543
1461.120393522327,2621
1463.1949190523528,2545
1465.2689045180973,2553
1467.3423501668608,2660
1469.415256246024,2639
1471.4876230030463,2739
1473.559450685465,2825
1475.6307395408976,2745
1477.7014898170391,2770
1479.771701761665,2841
1481.8413756226287,2883
1483.9105116478618,2966
1485.9791100853772,2939
1488.0471711832643,3057
1490.1146951896926,3011
1492.1816823529098,3077
1494.2481329212433,3164
1496.3140471430984,3124
1498.3794252669609,3132
1500.4442675413939,3252
1502.5085742150404,3225
1504.572345536622,3285
1506.6355817549388,3323
1508.6982831188702,3318
1510.7604498773744,3287
1512.8220822794883,3298
1514.8831805743293,3282
1516.9437450110909,3355
1519.003775839048,3395
1521.0632733075522,3375
1523.1222376660367,3466
1525.1806691640113,3549
1527.2385680510652,3402
1529.2959345768668,3513
1531.3527689911643,3588
1533.4090715437833,3554
1535.4648424846291,3599
1537.5200820636855,3794
1539.5747905310159,3798
1541.6289681367616,3644
1543.6826151311434,3709
1545.7357317644614,3812
1547.7883182870937,3896
1549.8403749494987,3869
1551.8919020022113,4048
1553.9428996958477,4121
1555.9933682811015,4201
1558.0433080087469,4169
1560.0927191296346,4303
1562.1416018946961,4386
1564.1899565549415,4361
1566.2377833614592,4355
1568.2850825654164,4360
1570.3318544180606,4242
1572.3780991707158,4145
1574.423817074788,4156
1576.4690083817595,3898
1578.5136733431923,3685
1580.5578122107272,3660
1582.601425236085,3537
1584.6445126710646,3324
1586.6870747675434,3251
1588.7291117774776,3083
1590.7706239529034,2977
1592.8116115459347,2829
1594.8520748087658,2736
1596.8920139936686,2606
1598.9314293529933,2604
1600.9703211391711,2519
1603.008689604711,2464
1605.0465350022005,2382
1607.0838575843068,2407
1609.1206576037753,2365
1611.1569353134305,2219
1613.1926909661765,2194
1615.2279248149953,2192
1617.2626371129481,2123
1619.2968281131757,2070
1621.3304980688963,2021
1623.3636472334088,2020
1625.39627586009,2029
1627.428384202396,1982
1629.459972513861,1983
1631.4910410480993,1942
1633.5215900588028,1943
1635.551619799744,1885
1637.5811305247717,1867
1639.6101224878166,1897
1641.6385959428862,1878
1643.6665511440683,1770
1645.693988345528,1765
1647.7209078015112,1805
1649.7473097663405,1825
1651.7731944944203,1827
1653.7985622402307,1820
1655.823413258333,1790
1657.847747803366,1791
1659.8715661300494,1807
1661.8948684931793,1773
1663.9176551476316,1821
1665.9399263483624,1814
1667.9616823504057,1784
1669.982923408873,1761
1672.0036497789574,1783
1674.0238617159293,1794
1676.043559475138,1796
1678.0627433120121,1766
1680.081413482059,1754
1682.0995702408654,1666
1684.117213844096,1781
1686.134344547495,1830
1688.1509626068864,1815
1690.1670682781705,1779
1692.182661817329,1798
1694.1977434804217,1792
1696.2123135235875,1742
1698.226372203043,1873
1700.2399197750851,1807
1702.2529564960905,1790
1704.2654826225112,1774
1706.277498410882,1805
1708.2890041178139,1699
1710.2999999999988,1707
1712.3104863142066,1737
1714.3204633172854,1671
1716.329931266163,1687
1718.3388904178469,1707
1720.3473410294214,1733
1722.3552833580516,1760
1724.3627176609807,1775
1726.3696441955308,1759
1728.3760632191033,1650
1730.3819749891782,1754
1732.3873797633146,1699
1734.3922777991502,1682
1736.3966693544012,1726
1738.4005546868639,1677
1740.4039340544127,1674
1742.406807715001,1688
1744.4091759266616,1692
1746.4110389475054,1697
1748.4123970357223,1697
1750.413250449582,1618
1752.4135994474318,1752
1754.4134442876993,1714
1756.4127852288902,1679
1758.4116225295893,1705
1760.4099564484595,1678
1762.407787244244,1623
1764.405115175764,1577
1766.4019405019203,1658
1768.3982634816916,1684
1770.3940843741357,1622
1772.3894034383907,1659
1774.3842209336717,1638
1776.378537119274,1594
1778.372352254571,1649
1780.3656665990156,1642
1782.3584804121397,1597
1784.3507939535534,1674
1786.3426074829463,1564
1788.3339212600863,1672
1790.3247355448211,1604
1792.3150505970766,1603
1794.3048666768573,1607
1796.2941840442477,1568
1798.2830029594106,1572
1800.2713236825884,1607
1802.2591464741004,1585
1804.2464715943465,1638
1806.2332993038058,1620
1808.2196298630352,1551
1810.2054635326708,1557
1812.190800573428,1620
1814.175641246101,1558
1816.1599858115628,1554
1818.1438345307652,1617
1820.127187664738,1647
1822.1100454745924,1621
1824.092408221516,1574
1826.0742761667766,1550
1828.055649571721,1496
1830.0365286977735,1531
1832.0169138064398,1616
1833.9968051593014,1551
1835.9762030180214,1571
1837.9551076443408,1538
1839.9335193000788,1593
1841.9114382471344,1576
1843.888864747485,1609
1845.8657990631878,1572
1847.842241456378,1564
1849.8181921892697,1600
1851.7936515241558,1632
1853.7686197234098,1600
1855.7430970494815,1603
1857.7170837649014,1588
1859.6905801322787,1551
1861.6635864143004,1564
1863.6361028737338,1543
1865.608129773424,1648
1867.5796673762961,1577
1869.5507159453537,1599
1871.521275743678,1569
1873.4913470344313,1568
1875.4609300808534,1600
1877.4300251462632,1670
1879.3986324940588,1657
1881.366752387717,1613
1883.3343850907936,1612
1885.3015308669228,1596
1887.268189979819,1701
1889.2343626932739,1666
1891.2000492711595,1649
1893.1652499774254,1638
1895.1299650761011,1658
1897.0941948312952,1606
1899.0579395071945,1646
1901.0211993680641,1667
1902.98397467825,1670
1904.9462657021745,1687
1906.9080727043415,1703
1908.869395949332,1634
1910.8302357018065,1677
1912.790592226504,1600
1914.7504657882428,1630
1916.7098566519212,1622
1918.6687650825133,1592
1920.6271913450764,1573
1922.5851357047422,1633
1924.5425984267245,1564
1926.499579776314,1668
1928.4560800188833,1627
1930.4120994198802,1625
1932.367638244833,1627
1934.32269675935,1696
1936.2772752291175,1645
1938.231373919899,1641
1940.1849930975404,1631
1942.1381330279637,1564
1944.0907939771696,1631
1946.0429762112412,1597
1947.9946799963363,1607
1949.9459055986945,1576
1951.896653284633,1536
1953.8469233205478,1582
1955.7967159729142,1566
1957.7460315082863,1563
1959.6948701932974,1572
1961.6432322946594,1592
1963.5911180791632,1606
1965.5385278136787,1550
1967.4854617651545,1585
1969.4319202006182,1631
1971.377903387176,1608
1973.3234115920136,1602
1975.268445082395,1548
1977.2130041256642,1627
1979.1570889892423,1622
1981.1006999406304,1551
1983.04383724741,1578
1984.986501177238,1618
1986.928691997853,1596
1988.8704099770712,1588
1990.811655382789,1571
1992.7524284829801,1616
1994.692729545698,1610
1996.6325588390755,1566
1998.5719166313224,1531
2000.5108031907307,1535
2002.4492187856677,1543
2004.387163684583,1552
2006.3246381560011,1557
2008.2616424685298,1489
2010.1981768908527,1527
2012.1342416917332,1575
2014.069837140014,1500
2016.0049635046162,1576
2017.9396210545406,1528
2019.8738100588666,1484
2021.8075307867502,1520
2023.740783507431,1538
2025.6735684902228,1525
2027.6058860045214,1540
2029.5377363198004,1484
2031.4691197056118,1525
2033.4000364315875,1524
2035.3304867674374,1488
2037.260470982952,1518
2039.189989347998,1543
2041.1190421325232,1555
2043.047629606554,1490
2044.9757520401945,1508
2046.9034097036288,1525
2048.8306028671195,1512
2050.7573318010086,1572
2052.683596775716,1496
2054.609398061742,1550
2056.5347359296647,1471
2058.4596106501403,1502
2060.384022493906,1536
2062.3079717317764,1548
2064.231458634646,1505
2066.1544834734873,1508
2068.077046519352,1430
2069.99914804337,1487
2071.9207883167524,1501
2073.8419676107865,1507
2075.7626861968406,1511
2077.6829443463607,1511
2079.6027423308715,1488
2081.522080421977,1459
2083.440958891362,1522
2085.359378010786,1466
2087.2773380520907,1478
2089.194839287196,1447
2091.111881988101,1511
2093.0284664268825,1497
2094.9445928756973,1499
2096.86026160678,1573
2098.775472892446,1545
2100.690227005088,1512
2102.604524217178,1450
2104.5183648012676,1499
2106.431749029985,1510
2108.34467717604,1531
2110.2571495122206,1499
2112.169166311393,1515
2114.080727846503,1470
2115.9918343905747,1498
2117.902486216711,1576
2119.8126835980956,1570
2121.722426807987,1502
2123.6317161197285,1527
2125.5405518067364,1606
2127.448934142509,1554
2129.356863400624,1497
2131.264339854737,1534
2133.1713637785815,1551
2135.077935445972,1570
2136.9840551308002,1577
2138.889723107037,1552
2140.7949396487334,1523
2142.699705030018,1545
2144.6040195250994,1534
2146.507883408264,1602
2148.4112969538774,1614
2150.3142604363848,1617
2152.2167741303097,1519
2154.1188383102535,1569
2156.0204532508997,1555
2157.9216192270064,1546
2159.822336513414,1545
2161.7226053850413,1555
2163.622426116884,1621
2165.5217989840185,1534
2167.4207242616,1548
2169.319202224862,1627
2171.2172331491165,1623
2173.1148173097563,1597
2175.0119549822507,1608
2176.90864644215,1556
2178.8048919650823,1594
2180.7006918267534,1568
2182.596046302952,1609
2184.4909556695407,1624
2186.3854202024645,1586
2188.279440177746,1575
2190.173015871487,1643
2192.066147559868,1596
2193.958835519149,1620
2195.851080025667,1605
2197.7428813558417,1603
2199.6342397861667,1612
2201.5251555932186,1596
2203.415629053651,1589
2205.3056604441986,1568
2207.19525004167,1559
2209.084398122958,1594
2210.9731049650327,1622
2212.861370844941,1681
2214.749196039812,1586
2216.636580826851,1584
2218.523525483344,1649
2220.410030286655,1638
2222.296095514226,1613
2224.1817214435805,1660
2226.066908352319,1582
2227.951656518121,1605
2229.835966218746,1585
2231.71983773203,1638
2233.6032713358913,1644
2235.486267308324,1558
2237.3688259274036,1567
2239.2509474712824,1583
2241.132632218193,1606
2243.013880446447,1634
2244.8946924344323,1654
2246.7750684606203,1590
2248.6550088035574,1604
2250.534513741871,1597
2252.413583554265,1618
2254.292218519526,1600
2256.170418916517,1621
2258.0481850241786,1599
2259.925517121534,1529
2261.8024154876825,1542
2263.678880401803,1551
2265.5549121431536,1637
2267.430510991071,1594
2269.305677224971,1611
2271.180411124348,1522
2273.0547129687766,1556
2274.9285830379076,1561
2276.8020216114737,1575
2278.6750289692845,1598
2280.5476053912294,1577
2282.4197511572766,1598
2284.2914665474727,1590
2286.162751841943,1677
2288.0336073208937,1615
2289.904033264608,1698
2291.774029953448,1627
2293.6435976678554,1612
2295.5127366883517,1556
2297.381447295534,1559
2299.2497297700825,1507
2301.1175843927526,1521
2302.9850114443825,1555
2304.852011205885,1412
2306.7185839582553,1456
2308.5847299825664,1452
2310.4504495599676,1404
2312.3157429716925,1442
2314.1806104990483,1451
2316.0450524234247,1397
2317.9090690262888,1381
2319.772660589186,1447
2321.635827393742,1431
2323.498569721661,1377
2325.3608878547248,1404
2327.2227820747967,1434
2329.0842526638157,1432
2330.945299903803,1438
2332.805924076857,1418
2334.6661254651535,1379
2336.525904350951,1410
2338.3852610165827,1404
2340.244195744464,1396
2342.102708817088,1438
2343.9608005170253,1369
2345.8184711269287,1370
2347.675720929526,1403
2349.532550207628,1383
2351.38895924412,1427
2353.24494832197,1351
2355.100517724223,1382
2356.955667734004,1404
2358.810398634514,1416
2360.664710709037,1427
2362.5186042409337,1428
2364.3720795136437,1450
2366.225136810686,1465
2368.0777764156583,1357
2369.929998612237,1403
2371.7818036841777,1331
2373.633191915315,1452
2375.484163589562,1433
2377.3347189909114,1413
2379.184858403434,1393
2381.03458211128,1390
2382.8838903986775,1389
2384.732783549936,1428
2386.5812618494406,1430
2388.4293255816588,1457
2390.2769750311327,1428
2392.1242104824883,1460
2393.971032220427,1429
2395.8174405297295,1401
2397.6634356952563,1449
2399.509018001947,1397
2401.3541877348193,1509
2403.1989451789705,1422
2405.043290619576,1475
2406.8872243418905,1471
2408.730746631247,1411
2410.5738577730594,1428
2412.4165580528183,1471
2414.258847756095,1507
2416.100727168537,1424
2417.9421965758734,1473
2419.783256263912,1452
2421.623906518538,1483
2423.4641476257157,1451
2425.303979871491,1430
2427.143403541984,1461
2428.9824189233977,1473
2430.821026302012,1483
2432.6592259641866,1520
2434.497018196361,1490
2436.33440328505,1462
2438.171381516851,1510
2440.00795317844,1469
2441.844118556569,1504
2443.6798779380724,1451
2445.5152316098606,1460
2447.3501798589255,1483
2449.1847229723357,1504
2451.0188612372403,1475
2452.8525949408663,1487
2454.6859243705203,1483
2456.518849813587,1401
2458.3513715575314,1457
2460.183489889895,1476
2462.015205098301,1511
2463.8465174704493,1469
2465.67742729412,1488
2467.5079348571717,1478
2469.338040447542,1496
2471.1677443532476,1467
2472.9970468623833,1469
2474.825948263123,1472
2476.6544488437207,1436
2478.482548892508,1447
2480.310248697896,1434
2482.137548548374,1488
2483.9644487325118,1422
2485.790949538956,1489
2487.617051256433,1518
2489.44275417375,1495
2491.26805857979,1463
2493.0929647635157,1445
2494.917473013971,1547
2496.741583620276,1480
2498.5652968716304,1500
2500.3886130573137,1518
2502.2115324666834,1495
2504.0340553891765,1546
2505.856182114308,1565
2507.6779129316733,1519
2509.499248130945,1554
2511.3201880018764,1563
2513.140732834298,1568
2514.9608829181198,1523
2516.780638543331,1519
2518.6,1549
2520.418967578273,1500
2522.237541568376,1531
2524.0557222606144,1532
2525.8735099453706,1548
2527.6909049131086,1547
2529.507907454368,1570
2531.32451785977,1548
2533.140736420014,1601
2534.9565634258774,1592
2536.771999168218,1631
2538.5870439379714,1589
2540.4016980261526,1552
2542.2159617238544,1610
2544.02983532225,1613
2545.8433191125914,1557
2547.656413386209,1673
2549.4691184345115,1685
2551.2814345489874,1588
2553.093362021204,1614
2554.904901142808,1636
2556.716052205523,1685
2558.526815501153,1736
2560.3371913215824,1709
2562.147179958771,1732
2563.956781704761,1758
2565.7659968516705,1771
2567.5748256916986,1809
2569.3832685171224,1748
2571.1913256202984,1760
2572.9989972936614,1820
2574.806283829725,1785
2576.613185521084,1774
2578.4197026604074,1778
2580.2258355404483,1806
2582.031584454035,1853
2583.836949694077,1855
2585.6419315535613,1875
2587.4465303255533,1802
2589.2507463032002,1863
2591.0545797797245,1901
2592.8580310484303,1848
2594.6611004026995,1878
2596.463788135992,1882
2598.266094541849,1836
2600.0680199138874,1862
2601.869564545807,1893
2603.670728731383,1830
2605.4715127644704,1820
2607.2719169390048,1881
2609.071941548998,1850
2610.8715868885433,1846
2612.670853251811,1845
2614.469740933052,1827
2616.268250226594,1867
2618.0663814268455,1852
2619.864134828292,1773
2621.6615107255006,1841
2623.458509413115,1877
2625.2551311858597,1798
2627.0513763385347,1792
2628.8472451660223,1789
2630.6427379632833,1753
2632.4378550253564,1788
2634.232596647359,1743
2636.026963124488,1731
2637.8209547520187,1701
2639.6145718253065,1740
2641.407814639785,1761
2643.200683490966,1715
2644.9931786744414,1652
2646.7853004858807,1726
2648.577049221034,1640
2650.3684251757277,1698
2652.1594286458712,1638
2653.9500599274484,1671
2655.740319316525,1622
2657.5302071092437,1635
2659.3197236018286,1563
2661.10886909058,1586
2662.8976438718782,1596
2664.686048242183,1648
2666.4740824980327,1573
2668.2617469360443,1555
2670.0490418529134,1547
2671.8359675454153,1528
2673.622524310403,1543
2675.408712444811,1536
2677.1945322456495,1558
2678.979984010009,1560
2680.76506803506,1580
2682.5497846180497,1531
2684.334134056306,1494
2686.1181166472343,1482
2687.9017326883213,1520
2689.6849824771293,1492
2691.4678663113013,1447
2693.2503844885596,1526
2695.032537306705,1470
2696.8143250636167,1473
2698.5957480572542,1447
2700.3768065856534,1463
2702.1575009469316,1366
2703.937831439283,1444
2705.717798360982,1378
2707.4974020103837,1391
2709.276642685917,1407
2711.055520686095,1447
2712.834036309506,1366
2714.612189854819,1397
2716.389981620782,1414
2718.1674119062204,1406
2719.944481010041,1411
2721.721189231226,1406
2723.4975368688415,1413
2725.273524222027,1447
2727.0491515900053,1425
2728.824419272075,1451
2730.5993275676146,1389
2732.3738767760838,1369
2734.148067197016,1423
2735.921899130031,1360
2737.6953728748194,1360
2739.468488731156,1379
2741.2412469988926,1357
2743.0136479779617,1411
2744.785691968372,1374
2746.5573792702116,1400
2748.3287101836504,1412
2750.099685008934,1372
2751.870304046388,1392
2753.640567596418,1378
2755.4104759595057,1331
2757.1800294362156,1378
2758.949228327187,1357
2760.7180729331412,1318
2762.486563554877,1358
2764.254700493272,1365
2766.022484049284,1294
2767.789914523947,1326
2769.5569922183786,1342
2771.3237174337705,1396
2773.090090471394,1365
2774.8561116326036,1332
2776.6217812188274,1381
2778.3870995315756,1310
2780.1520668724356,1368
2781.9166835430747,1384
2783.6809498452394,1350
2785.444866080754,1389
2787.2084325515225,1296
2788.971649559527,1359
2790.73451740683,1389
2792.4970363955713,1344
2794.2592068279705,1324
2796.0210290063264,1350
2797.7825032330147,1302
2799.543629810493,1354
2801.304409041296,1362
2803.0648412280366,1360
2804.8249266734088,1290
2806.5846656801846,1383
2808.344058551212,1368
2810.1031055894246,1360
2811.8618070978273,1338
2813.6201633795085,1391
2815.378174737636,1352
2817.1358414754536,1374
2818.893163896285,1363
2820.6501423035334,1285
2822.4067770006814,1357
2824.1630682912883,1339
2825.9190164789957,1303
2827.6746218675207,1290
2829.429884760661,1334
2831.184805462294,1382
2832.9393842763743,1395
2834.693621506936,1399
2836.4475174580916,1369
2838.201072434034,1327
2839.954286739034,1376
2841.707160677441,1356
2843.459694553685,1363
2845.2118886722724,1358
2846.96374333779,1374
2848.7152588549034,1323
2850.4664355283567,1407
2852.217273662973,1432
2853.9677735636546,1373
2855.7179355353833,1278
2857.4677598832186,1379
2859.217246912299,1326
2860.9663969278427,1368
2862.715210235146,1367
2864.4636871395846,1333
2866.211827946614,1348
2867.9596329617652,1359
2869.7071024906536,1313
2871.4542368389684,1283
2873.20103631248,1322
2874.947501217038,1346
2876.6936318585695,1277
2878.4394285430812,1382
2880.1848915766604,1387
2881.9300212654707,1332
2883.6748179157553,1315
2885.4192818338374,1312
2887.1634133261173,1353
2888.907212699077,1395
2890.6506802592744,1358
2892.393816313348,1323
2894.1366211680142,1376
2895.8790951300693,1308
2897.621238506388,1313
2899.363051603925,1347
2901.1045347297118,1357
2902.8456881908596,1374
2904.58651229456,1413
2906.327007348081,1339
2908.067173658772,1346
2909.8070115340597,1333
2911.5465212814497,1334
2913.285703208527,1299
2915.0245576229563,1239
2916.7630848324807,1303
2918.5012851449196,1313
2920.2391588681758,1277
2921.976706310227,1284
2923.7139277791334,1346
2925.4508235830313,1321
2927.187394030137,1336
2928.923639428745,1343
2930.6595600872306,1313
2932.395156314046,1399
2934.1304284177218,1381
2935.8653767068713,1282
2937.6000014901815,1306
2939.3343030764227,1327
2941.068281774442,1286
2942.8019378931644,1324
2944.5352717415976,1309
2946.2682836288236,1332
2948.0009738640065,1367
2949.7333427563885,1353
2951.465390615289,1336
2953.1971177501086,1335
2954.9285244703265,1361
2956.6596110855,1372
2958.3903779052657,1344
2960.1208252393385,1351
2961.8509533975125,1344
2963.5807626896617,1302
2965.3102534257378,1328
2967.0394259157715,1311
2968.768280469873,1342
2970.496817398232,1352
2972.2250370111146,1376
2973.952939618869,1298
2975.6805255319196,1314
2977.4077950607707,1334
2979.134748516006,1302
2980.861386208289,1327
2982.587708448359,1340
2984.313715547037,1318
2986.039407815222,1286
2987.764785563891,1311
2989.489849104102,1314
2991.2145987469908,1333
2992.9390348037705,1333
2994.6631575857346,1283
2996.3869674042576,1372
2998.1104645707887,1345
2999.83364939686,1326
3001.5565221940783,1320
3003.2790832741334,1262
3005.0013329487924,1339
3006.7232715298996,1288
3008.4448993293804,1280
3010.166216659239,1280
3011.887223831558,1370
3013.607921158498,1310
3015.3283089522993,1336
3017.0483875252826,1286
3018.7681571898443,1362
3020.4876182584626,1308
3022.2067710436927,1308
3023.9256158581707,1322
3025.644153014609,1351
3027.362382825801,1296
3029.0803056046193,1335
3030.797921664012,1252
3032.5152313170106,1367
3034.2322348767225,1328
3035.9489326563353,1272
3037.665324969115,1310
3039.3814121284063,1258
3041.097194447633,1328
3042.812672240299,1278
3044.5278458199855,1303
3046.2427155003525,1235
3047.9572815951406,1281
3049.671544418167,1299
3051.38550428333,1293
3053.0991615046073,1313
3054.812516396051,1274
3056.5255692717974,1395
3058.2383204460575,1282
3059.9507702331257,1338
3061.662918947372,1295
3063.3747669032446,1311
3065.0863144152736,1307
3066.7975617980674,1307
3068.508509366309,1293
3070.219157434767,1328
3071.9295063182844,1318
3073.639556331785,1356
3075.3493077902704,1360
3077.058761008821,1301
3078.7679163025964,1279
3080.476773986837,1373
3082.1853343768594,1410
3083.89359778806,1298
3085.6015645359153,1313
3087.3092349359786,1309
3089.016609303884,1318
3090.7236879553434,1340
3092.4304712061476,1352
3094.136959372166,1315
3095.843152769349,1311
3097.5490517137237,1324
3099.2546565213966,1262
3100.959967508554,1298
3102.66498499146,1318
3104.3697092864577,1381
3106.0741407099695,1299
3107.778279578498,1285
3109.482126208622,1365
3111.1856809170004,1299
3112.8889440203716,1304
3114.5919158355528,1316
3116.294596679439,1299
3117.996986869006,1346
3119.6990867213062,1321
3121.4008965534726,1297
3123.102416682717,1337
3124.803647426329,1326
3126.5045891016784,1319
3128.205242026213,1242
3129.90560651746,1308
3131.605682893025,1369
3133.3054714705922,1306
3135.0049725679282,1356
3136.7041865028714,1296
3138.4031135933465,1274
3140.101754157353,1346
3141.800108512971,1310
3143.498176978357,1302
3145.1959598717494,1297
3146.8934575114636,1319
3148.5906702158954,1286
3150.2875983035183,1339
3151.9842420928853,1337
3153.680601902627,1323
3155.376678051456,1284
3157.07247085816,1338
3158.767980641609,1287
3160.463207720748,1314
3162.158152414606,1317
3163.8528150422862,1292
3165.5471959229726,1262
3167.2412953759303,1313
3168.9351137204976,1310
3170.628651276098,1266
3172.3219083622307,1342
3174.014885298474,1335
3175.707582404485,1343
3177.4000000000005,1286
3179.092138404835,1341
3180.7839979388846,1304
3182.47557892212,1307
3184.166881674594,1305
3185.8579065164386,1345
3187.5486537678626,1282
3189.2391237491547,1253
3190.9293167806827,1317
3192.6192331828934,1261
3194.3088732763117,1271
3195.998237381542,1280
3197.687325819268,1284
3199.376138910251,1347
3201.064676975334,1272
3202.7529403354347,1274
3204.4409293115523,1254
3206.1286442247647,1260
3207.816085396229,1266
3209.5032531471825,1277
3211.190147798936,1273
3212.8767696728846,1261
3214.5631190905015,1311
3216.2491963733373,1233
3217.9350018430214,1293
3219.6205358212637,1254
3221.305798629851,1232
3222.990790590651,1270
3224.6755120256103,1248
3226.359963256751,1259
3228.0441446061795,1212
3229.7280563960758,1259
3231.411698948703,1257
3233.0950725863995,1247
3234.778177631587,1268
3236.461014406761,1276
3238.1435832345005,1313
3239.8258844374595,1291
3241.507918338374,1284
3243.1896852600576,1322
3244.8711855254023,1266
3246.552419457381,1272
3248.233387379042,1318
3249.914089613516,1271
3251.59452648401,1234
3253.274698313813,1231
3254.95460542629,1238
3256.6342481448855,1235
3258.313626793125,1262
3259.9927416946084,1222
3261.6715931730196,1245
3263.3501815521176,1236
3265.0285071557437,1253
3266.706570307815,1265
3268.3843713323286,1218
3270.0619105533615,1260
3271.739188295068,1302
3273.4162048816834,1253
3275.0929606375184,1296
3276.769455886966,1282
3278.445690954498,1321
3280.1216661646613,1238
3281.797381842087,1280
3283.4728383114807,1290
3285.1480358976296,1308
3286.8229749253996,1207
3288.4976557197333,1287
3290.172078605655,1257
3291.846243908266,1280
3293.5201519527463,1192
3295.193803064357,1284
3296.8671975684374,1240
3298.5403357904024,1158
3300.21321805575,1218
3301.8858446900567,1226
3303.558216018975,1236
3305.23033236824,1204
3306.9021940636603,1253
3308.57380143113,1313
3310.2451547966184,1263
3311.916254486174,1265
3313.5871008259246,1294
3315.2576941420766,1306
3316.9280347609147,1252
3318.5981230088046,1258
3320.2679592121895,1249
3321.9375436975924,1193
3323.606876791612,1286
3325.27595882093,1257
3326.944790112305,1220
3328.6133709925753,1231
3330.2817017886573,1283
3331.949782827547,1262
3333.617614436319,1265
3335.2851969421245,1238
3336.952530672199,1271
3338.619615953853,1264
3340.286453114475,1272
3341.9530424815357,1276
3343.619384382583,1235
3345.2854791452437,1268
3346.951327097224,1210
3348.6169285663073,1252
3350.2822838803577,1208
3351.947393367319,1275
3353.61225735521,1250
3355.2768761721345,1254
3356.9412501462693,1290
3358.605379605873,1278
3360.2692648792827,1234
3361.9329062949146,1272
3363.596304181263,1196
