CollectionTime,9/19/2024 11:25:32 AM
ExposureUsed,3
CalibratedSpectrum
-962.7078968117929,622
-959.9714848408522,661
-957.2358232597828,679
-954.5009119013725,611
-951.7667505983302,632
-949.0333391832855,692
-946.3006774887896,645
-943.5687653473143,651
-940.837602591253,640
-938.1071890529199,707
-935.3775245645503,657
-932.6486089583007,683
-929.9204420662485,652
-927.1930237203925,691
-924.4663537526524,688
-921.7404319948689,677
-919.0152582788041,705
-916.2908324361409,689
-913.5671542984834,661
-910.8442236973568,674
-908.1220404642074,686
-905.4006044304027,658
-902.679915427231,679
-899.959973285902,648
-897.2407778375464,633
-894.5223289132158,671
-891.8046263438832,648
-889.0876699604426,639
-886.3714595937089,643
-883.6559950744183,607
-880.9412762332282,655
-878.2273029007168,636
-875.5140749073835,627
-872.8015920836489,605
-870.0898542598545,613
-867.3788612662631,602
-864.6686129330585,606
-861.9591090903457,662
-859.2503495681506,628
-856.5423341964203,649
-853.8350628050229,656
-851.1285352237478,646
-848.4227512823054,653
-845.7177108103272,623
-843.0134136373656,641
-840.3098595928943,646
-837.6070485063082,621
-834.9049802069229,653
-832.2036545239757,636
-829.5030712866244,638
-826.8032303239481,593
-824.1041314649472,635
-821.4057745385428,634
-818.7081593735775,613
-816.0112857988148,630
-813.3151536429393,627
-810.6197627345566,637
-807.9251129021936,612
-805.2312039742981,651
-802.5380357792392,653
-799.8456081453069,645
-797.1539209007124,657
-794.462973873588,668
-791.772766891987,660
-789.083299783884,686
-786.3945723771743,642
-783.7065844996748,639
-781.0193359791231,640
-778.3328266431781,636
-775.6470563194197,648
-772.9620248353489,624
-770.2777320183878,649
-767.5941776958798,695
-764.9113616950891,630
-762.2292838432011,659
-759.5479439673222,630
-756.8673418944801,634
-754.1874774516235,661
-751.5083504656222,653
-748.8299607632671,699
-746.15230817127,699
-743.475392516264,720
-740.7992136248035,687
-738.1237713233636,662
-735.4490654383407,674
-732.7750957960521,672
-730.1018622227365,681
-727.4293645445534,705
-724.7576025875837,705
-722.0865761778291,689
-719.4162851412126,688
-716.7467293035781,720
-714.0779084906909,732
-711.409822528237,717
-708.7424712418238,713
-706.0758544569796,707
-703.4099719991541,774
-700.7448236937178,717
-698.0804093659622,696
-695.4167288411002,694
-692.7537819442656,728
-690.0915685005134,700
-687.4300883348199,712
-684.7693412720819,726
-682.1093271371178,706
-679.4500457546669,712
-676.7914969493897,741
-674.1336805458676,750
-671.4765963686034,710
-668.8202442420206,765
-666.1646239904642,722
-663.5097354382001,731
-660.8555784094151,702
-658.2021527282176,750
-655.5494582186366,746
-652.8974947046223,774
-650.2462620100463,766
-647.5957599587009,758
-644.9459883742998,748
-642.2969470804776,786
-639.6486359007902,792
-637.0010546587141,762
-634.3542031776476,820
-631.7080812809096,808
-629.0626887917401,763
-626.4180255333008,782
-623.7740913286734,825
-621.1308860008619,754
-618.4884093727904,760
-615.8466612673046,789
-613.2056415071715,775
-610.5653499150785,800
-607.9257863136347,810
-605.28695052537,837
-602.6488423727357,781
-600.0114616781036,817
-597.3748082637674,844
-594.7388819519412,851
-592.1036825647604,866
-589.4692099242818,818
-586.8354638524829,797
-584.2024441712624,833
-581.5701507024403,835
-578.9385832677575,817
-576.3077416888759,782
-573.6776257873787,790
-571.0482353847704,761
-568.4195703024757,785
-565.7916303618415,767
-563.164415384135,804
-560.5379251905453,827
-557.9121596021815,811
-555.2871184400748,795
-552.6628015251767,808
-550.0392086783606,825
-547.4163397204204,885
-544.794194472071,927
-542.1727727539491,871
-539.5520743866118,819
-536.9320991905377,881
-534.3128469861261,902
-531.6943175936979,901
-529.0765108334947,942
-526.4594265256793,1037
-523.8430644903358,1185
-521.2274245474689,1328
-518.612506517005,1394
-515.9983102187913,1414
-513.3848354725959,1473
-510.77208209810846,1484
-508.16004991493924,1566
-505.5487387426199,1637
-502.9381484006032,1722
-500.3282787082628,1626
-497.71912948489364,1618
-495.1107005497117,1599
-492.5029917218539,1391
-489.8960028203786,1290
-487.28973366426493,1120
-484.68418407241325,1107
-482.07935386364494,1028
-479.47524285670266,1002
-476.87185087025,989
-474.2691777228715,1062
-471.66722323307334,983
-469.0659872192821,1011
-466.4654694998459,1025
-463.86566989303384,1010
-461.26658821703614,1015
-458.66822428996414,1014
-456.07057792985,1024
-453.4736489546475,942
-450.877437182231,966
-448.28194243039627,957
-445.68716451686,942
-443.09310325926003,926
-440.49975847515555,986
-437.9071299820263,973
-435.31521759727354,1003
-432.72402113821954,1019
-430.13354042210767,1020
-427.5437752661022,1001
-424.95472548728867,1025
-422.36639090267386,1058
-419.7787713291855,1119
-417.1918665836721,1058
-414.60567648290385,1031
-412.0202008435715,1032
-409.4354394822874,1068
-406.8513922155845,998
-404.26805885991723,1119
-401.685439231661,1109
-399.103533147112,1075
-396.522340422488,1049
-393.9418608739278,1061
-391.3620943174908,1063
-388.7830405691583,1044
-386.2046994448317,971
-383.6270707603344,966
-381.05015433141045,945
-378.473949973725,894
-375.8984575028645,785
-373.32367673433623,771
-370.74960748356875,727
-368.1762495659117,683
-365.60360279663576,611
-363.03166699093265,607
-360.4604419639154,622
-357.8899275306178,561
-355.32012350599507,548
-352.7510297049233,545
-350.1826459421999,517
-347.61497203254316,518
-345.04800779059235,504
-342.4817530309082,522
-339.91620756797226,550
-337.35137121618743,566
-334.7872437898774,572
-332.22382510328725,513
-329.66111497058273,512
-327.09911320585127,503
-324.53781962310075,503
-321.9772340362607,465
-319.4173562591816,497
-316.8581861056348,505
-314.2997233893127,500
-311.7419679238294,506
-309.1849195227194,532
-306.62857799943856,560
-304.0729431673641,539
-301.51801483979375,524
-298.963792829947,505
-296.41027695096386,551
-293.85746701590574,561
-291.3053628377552,581
-288.7539642294155,610
-286.2032710037115,624
-283.65328297338897,615
-281.1039999511146,676
-278.5554217494762,621
-276.007548180983,598
-273.4603790580651,563
-270.9139141930734,624
-268.3681533982807,608
-265.8230964858798,641
-263.27874326798565,657
-260.7350935566336,698
-258.1921471637804,717
-255.6499039013039,780
-253.10836358100266,745
-250.56752601459698,713
-248.02739101372765,760
-245.48795838995704,786
-242.94922795476816,794
-240.41119951956557,753
-237.8738728956746,759
-235.33724789434166,775
-232.80132432673452,746
-230.2661020039418,681
-227.73158073697357,743
-225.19776033676033,816
-222.66464061415422,901
-220.1322213799284,817
-217.60050244477725,829
-215.06948361931552,827
-212.53916471408013,959
-210.00954553952818,1010
-207.48062590603843,908
-204.9524056239104,782
-202.4248845033651,818
-199.8980623545441,825
-197.37193898751036,951
-194.84651421224817,993
-192.32178783866232,865
-189.79775967657952,934
-187.27442953574644,1084
-184.7517972258321,1110
-182.2298625564256,949
-179.7086253370378,830
-177.18808537710026,881
-174.66824248596583,1066
-172.14909647290835,1101
-169.6306471471229,1007
-167.11289431772548,943
-164.59583779375328,935
-162.07947738416453,1003
-159.5638128978386,1308
-157.04884414357605,1422
-154.53457093009854,1453
-152.02099306604828,1122
-149.50811035998936,1092
-146.99592262040665,1414
-144.48442965570587,1521
-141.97363127421409,1541
-139.46352728417958,1797
-136.95411749377126,1753
-134.44540171107985,1391
-131.93737974411636,1061
-129.43005140081357,1197
-126.92341648902493,1457
-124.41747481652521,1950
-121.91222619101006,2649
-119.40767042009657,2986
-116.90380731132257,2648
-114.40063667214702,2913
-111.8981583099503,3569
-109.3963720320337,4761
-106.89527764561933,6514
-104.39487495785067,8739
-101.89516377579241,12955
-99.39614390642998,19134
-96.89781515667039,22316
-94.40017733334128,22643
-91.90323024319173,21934
-89.40697369289148,16975
-86.91140748903172,8747
-84.41653143812482,6293
-81.92234534660395,9769
-79.42884902082358,16828
-76.93604226705907,24504
-74.4439248915071,31119
-71.95249670028534,29992
-69.46175749943245,24128
-66.97170709490854,17210
-64.48234529259423,14140
-61.99367189829195,13845
-59.50568671772464,12558
-57.01838955653636,11495
-54.53178022029283,13784
-52.045858514480074,14075
-49.560624244506016,15600
-47.07607721569923,18465
-44.59221723330904,19461
-42.10904410250669,21097
-39.62655762838392,21673
-37.14475761595372,21334
-34.66364387015028,21542
-32.18321619582866,19907
-29.70347439776515,20136
-27.224418280657005,23782
-24.74604764912317,27871
-22.26836230770266,43290
-19.7913620608565,65034
-17.315046712966478,65034
-14.83941606833514,65034
-12.36446993118659,65034
-9.89020810566592,65034
-7.416630395839093,65034
-4.94373660569363,65034
-2.471526539137585,65034
-6.821210263296962E-13,65034
2.47084320796705,65034
4.941003281093458,65034
7.410480415786196,65034
9.879274808531363,65034
12.347386655893956,65034
14.814816154518212,65034
17.28156350112681,65034
19.74762889252179,65034
22.21301252558385,25905
24.67771459727237,6755
27.141735304626195,6451
29.605074844762612,7158
32.06773341487792,6564
34.52971121224755,6464
36.99100843422559,5754
39.45162527824516,3879
41.91156194181792,4304
44.370818622535126,4945
46.82939551806646,4236
49.287292826160524,6766
51.74451074464503,6495
54.201049471426245,3887
56.65690920448981,2650
59.112090141899785,2242
61.56659248179983,2405
64.02041642241159,2798
66.4735621620365,3175
68.92602989905402,3623
71.37781983192338,3853
73.82893215918205,2547
76.27936707944684,1874
78.72912479141326,2202
81.17820549385567,2055
83.62660938562783,2039
86.07433666566146,1760
88.5213875329681,1475
90.96776218663751,1673
93.41346082583925,2012
95.85848364982041,2576
98.30283085790859,2079
100.7465026495089,1610
103.18949922410604,1516
105.63182078126385,1267
108.07346752062438,1427
110.51443964190923,1326
112.95473734491827,1249
115.39436082953114,1290
117.83331029570547,1290
120.27158594347827,1257
122.7091879729652,1475
125.1461165843615,1395
127.58237197794062,1190
130.01795435405518,1235
132.4528639131364,1246
134.88710085569494,1093
137.32066538231982,1164
139.75355769367923,1386
142.1857779905207,1109
144.61732647366978,1005
147.04820334403132,1005
149.47840880258934,1077
151.90794305040674,1095
154.33680628862487,1307
156.76499871846443,1495
159.19252054122433,1541
161.61937195828352,1676
164.04555317109896,1861
166.47106438120693,2054
168.89590579022217,2082
171.320077599839,2325
173.7435800118302,2458
176.16641322804742,2546
178.58857745042144,2655
181.01007288096173,2624
183.43089972175687,2714
185.85105817497413,2687
188.27054844285988,2682
190.6893707277394,2655
193.10752523201643,2701
195.5250121581745,2763
197.9418317087751,2861
200.3579840864594,2862
202.7734694939469,2954
205.18828813403627,3124
207.6024402096051,2947
210.01592592360964,2971
212.42874547908548,3013
214.84089907914665,2897
217.2523869269868,2929
219.66320922587727,2902
222.0733661791695,2867
224.48285799029293,2968
226.8916848627572,3047
229.29984700014882,3024
231.7073446061355,2982
234.11417788446204,3093
236.520347038953,3168
238.92585227351185,3282
241.33069379212054,3290
243.73487179884035,3369
246.1383864978112,3423
248.541238093252,3450
250.9434267894609,3551
253.34495279081432,3423
255.74581630176783,3397
258.1460175268563,3512
260.54555667069314,3552
262.9444339379703,3411
265.3426495334594,3277
267.7402036620107,3278
270.1370965285529,3284
272.53332833809407,3072
274.9288992957214,2919
277.32380960660055,2896
279.718059475976,2877
282.1116491091717,2895
284.5045787115897,2791
286.89684848871195,2771
289.2884586460981,2856
291.67940938938807,2843
294.0697009242996,2928
296.4593334566299,2879
298.84830719225477,2793
301.23662233712923,2757
303.6242790972866,2730
306.01127767884,2640
308.39761828798066,2625
310.78330113097934,2617
313.16832641418534,2540
315.5526943440269,2505
317.9364051270112,2556
320.3194589697242,2542
322.70185607883093,2502
325.0835966610754,2459
327.4646809232805,2382
329.8451090723478,2419
332.2248813152577,2517
334.6039978590701,2467
336.9824589109231,2289
339.36026467803447,2313
341.7374153677,2331
344.113911187295,2243
346.48975234427337,2358
348.8649390461686,2287
351.2394715005918,2286
353.61334991523415,2348
355.9865744978655,2327
358.35914545633375,2364
360.73106299856715,2402
363.10232733257146,2254
365.47293866643247,2211
367.84289720831396,2233
370.2122031664593,2241
372.5808567491905,2139
374.9488581649083,2179
377.31620762209275,2198
379.6829053293021,2129
382.0489514951745,2164
384.4143463284262,2096
386.7790900378528,2144
389.14318283232853,2222
391.50662492080653,2170
393.86941651231916,2160
396.23155781597745,2119
398.5930490409713,2212
400.9538903965696,2098
403.3140820921202,2100
405.6736243370498,2149
408.03251734086336,2120
410.3907613131465,2054
412.74835646356166,2087
415.10530300185144,2112
417.4616011378372,2158
419.81725108141893,2142
422.1722530425758,2127
424.5266072313656,2078
426.880313857925,2066
429.2333731324701,2106
431.58578526529516,2143
433.9375504667738,2083
436.2886689473588,2059
438.63914091758113,2021
440.9889665880513,2057
443.33814616945835,1976
445.68667987257015,2011
448.03456790823395,1990
450.3818104873759,1986
452.72840782100013,2055
455.07436012019105,2115
457.41966759611057,2101
459.7643304600007,2062
462.10834892318155,1997
464.4517231970525,2048
466.79445349309174,2012
469.1365400228566,2170
471.4779829979826,2098
473.81878263018564,2053
476.15893913125876,1967
478.4984527130747,2090
480.8373235875855,2152
483.17555196682144,2112
485.5131380628919,2234
487.8500820879857,2314
490.1863842543697,2479
492.52204477439034,2512
494.8570638604725,2742
497.1914417251204,3061
499.52517858091653,3376
501.85827464052306,3442
504.19073011668036,3527
506.5225452222086,3582
508.85372017000566,3726
511.18425517304956,3877
513.514150444396,4397
515.8434061971808,5846
518.1720226446176,6705
520.4999999999999,6808
522.8273384766991,6454
525.1540382881666,6162
527.480099647932,5436
529.8055227696037,4241
532.1303078668694,3045
534.454455153496,2668
536.777964843328,2406
539.1008371502907,2209
541.4230722883866,2195
543.744670471698,2197
546.0656319143858,2056
548.3859568306899,2069
550.7056454349294,2100
553.0246979415016,2115
555.3431145648834,2085
557.6608955196306,2065
559.978041020377,2000
562.2945512818363,2053
564.6104265188006,2033
566.9256669461412,2082
569.2402727788082,2089
571.5542442318302,2068
573.8675815203156,2125
576.1802848594508,2120
578.4923544645015,2118
580.8037905508126,2127
583.114593333807,2139
585.4247630289875,2085
587.7342998519354,2091
590.0432040183106,2092
592.3514757438526,2114
594.6591152443794,2106
596.9661227357875,2151
599.2724984340531,2060
601.578242555231,2046
603.8833553154542,2032
606.1878369309362,2066
608.4916876179676,2053
610.7949075929192,2031
613.0974970722403,2069
615.3994562724587,1992
617.7007854101818,2068
620.0014847020951,1990
622.3015543649641,2177
624.6009946156324,2123
626.8998056710224,2107
629.1979877481361,2149
631.4955410640538,2040
633.7924658359349,2086
636.0887622810175,2162
638.3844306166192,2091
640.6794710601358,2122
642.9738838290426,2079
645.2676691408932,2124
647.5608272133207,2140
649.853358264037,2156
652.1452625108324,2194
654.4365401715764,2149
656.7271914642178,2136
659.0172166067838,2192
661.3066158173809,2106
663.5953893141935,2205
665.8835373154867,2184
668.1710600396028,2081
670.4579577049639,2095
672.7442305300709,2154
675.0298787335033,2140
677.3149025339197,2095
679.599302150058,2109
681.8830778007342,2097
684.1662297048437,2134
686.4487580813608,2176
688.7306631493387,2182
691.0119451279091,2161
693.2926042362834,2079
695.5726406937516,2145
697.8520547196814,2154
700.1308465335215,2117
702.4090163547982,2032
704.6865644031171,2089
706.9634908981619,2090
709.2397960596965,2156
711.5154801075631,2105
713.7905432616823,2061
716.0649857420548,2196
718.3388077687592,2056
720.612009561953,2170
722.8845913418733,1995
725.1565533288352,2129
727.427895743234,2158
729.6986188055427,2063
731.9687227363137,2153
734.238207756178,2065
736.5070740858458,2038
738.7753219461066,2036
741.0429515578281,2061
743.3099631419569,2097
745.5763569195191,2092
747.8421331116193,2109
750.1072919394409,2107
752.3718336242467,2026
754.6357583873777,2141
756.8990664502545,2108
759.1617580343765,2059
761.423833361321,2100
763.6852926527457,2109
765.9461361303862,2053
768.206364016058,2041
770.4659765316536,2130
772.7249738991469,2168
774.9833563405886,2122
777.2411240781092,2046
779.4982773339183,2063
781.7548163303044,2173
784.010741289634,2144
786.2660524343538,2216
788.5207499869881,2081
790.7748341701416,2163
793.0283052064964,2139
795.2811633188143,2143
797.5334087299362,2123
799.7850416627813,2114
802.0360623403484,2192
804.2864709857143,2121
806.5362678220353,2101
808.7854530725468,2130
811.0340269605625,2081
813.2819897094754,2148
815.5293415427581,2075
817.77608268396,2145
820.0222133567116,2145
822.2677337847211,2118
824.5126441917765,2177
826.7569448017433,2128
829.0006358385675,2185
831.2437175262731,2184
833.4861900889629,2172
835.7280537508192,2204
837.9693087361026,2078
840.2099552691533,2188
842.4499935743896,2159
844.689423876309,2141
846.9282463994886,2167
849.1664613685833,2199
851.4040690083276,2136
853.6410695435349,2196
855.877463199097,2103
858.1132501999847,2236
860.3484307712487,2201
862.5830051380175,2211
864.8169735254988,2198
867.0503361589791,2200
869.2830932638243,2127
871.5152450654786,2239
873.7467917894654,2093
875.9777336613873,2219
878.2080709069252,2246
880.4378037518389,2175
882.666932421968,2130
884.8954571432301,2231
887.1233781416219,2248
889.3506956432192,2205
891.5774098741766,2298
893.803521060728,2243
896.0290294291852,2245
898.2539352059397,2185
900.4782386174619,2192
902.7019398903011,2229
904.925039251085,2240
907.147536926521,2193
909.3694331433943,2191
911.59072812857,2167
913.8114221089921,2240
916.0315153116827,2210
918.2510079637437,2148
920.4699002923547,2222
922.6881925247761,2206
924.905884888345,2229
927.1229776104793,2158
929.3394709186747,2061
931.555365040506,2228
933.7706602036275,2208
935.9853566357709,2257
938.1994545647489,2239
940.4129542184515,2409
942.6258558248488,2263
944.8381596119883,2207
947.0498658079974,2245
949.2609746410825,2268
951.4714863395287,2229
953.6814011316998,2243
955.8907192460387,2220
958.0994409110671,2186
960.3075663553858,2256
962.5150958076741,2280
964.7220294966913,2257
966.928367651274,2172
969.1341105003388,2138
971.3392582728806,2163
973.5438111979742,2101
975.747769504772,2221
977.9511334225061,2087
980.153903180487,2169
982.3560790081052,2165
984.5576611348289,2134
986.7586497902058,2174
988.9590452038618,2087
991.158847605503,2027
993.3580572249133,2052
995.5566742919558,1953
997.7546990365728,1907
999.952131688785,1955
1002.1489724786926,1899
1004.3452216364743,1906
1006.5408793923874,1851
1008.7359459767691,1886
1010.9304216200343,1911
1013.1243065526781,1890
1015.3176010052733,1850
1017.510305208472,1822
1019.7024193930064,1791
1021.8939437896848,1816
1024.0848786293977,1848
1026.2752241431122,1823
1028.4649805618747,1920
1030.6541481168115,1767
1032.842727039127,1805
1035.0307175601051,1812
1037.2181199111074,1713
1039.4049343235752,1841
1041.591161029029,1802
1043.7768002590683,1796
1045.9618522453698,1830
1048.1463172196918,1839
1050.3301954138697,1838
1052.513487059818,1770
1054.69619238953,1764
1056.8783116350783,1760
1059.0598450286152,1782
1061.2407928023704,1723
1063.4211551886528,1704
1065.6009324198508,1708
1067.780124728432,1810
1069.9587323469414,1709
1072.1367555080046,1706
1074.314194444325,1734
1076.4910493886855,1773
1078.667320573947,1707
1080.843008233051,1666
1083.0181125990161,1736
1085.1926339049414,1672
1087.3665723840027,1686
1089.5399282694575,1705
1091.7127017946405,1720
1093.8848931929647,1652
1096.0565026979243,1698
1098.2275305430899,1685
1100.3979769621128,1705
1102.567842188722,1625
1104.737126456726,1613
1106.9058300000124,1648
1109.0739530525475,1662
1111.2414958483764,1691
1113.4084586216231,1658
1115.5748416064907,1649
1117.7406450372605,1606
1119.9058691482942,1714
1122.0705141740304,1663
1124.2345803489884,1587
1126.3980679077658,1655
1128.5609770850388,1621
1130.7233081155623,1669
1132.8850612341707,1658
1135.0462366757774,1633
1137.2068346753745,1650
1139.3668554680326,1648
1141.526299288901,1744
1143.68516637321,1652
1145.8434569562655,1680
1148.001171273455,1627
1150.158309560244,1657
1152.3148720521767,1669
1154.470858984876,1658
1156.626270594044,1628
1158.7811071154629,1663
1160.9353687849912,1630
1163.089055838569,1619
1165.242168512213,1654
1167.3947070420209,1594
1169.5466716641677,1659
1171.6980626149075,1630
1173.8488801305748,1617
1175.9991244475814,1668
1178.1487958024186,1614
1180.2978944316555,1624
1182.4464205719428,1617
1184.5943744600072,1607
1186.7417563326567,1601
1188.8885664267755,1544
1191.0348049793297,1646
1193.1804722273619,1597
1195.325568407995,1590
1197.4700937584303,1602
1199.614048515948,1607
1201.7574329179074,1570
1203.900247201746,1557
1206.042491604982,1626
1208.1841663652099,1561
1210.3252717201053,1609
1212.465807907422,1643
1214.6057751649923,1641
1216.7451737307279,1636
1218.8840038426192,1627
1221.0222657387353,1607
1223.1599596572241,1656
1225.2970858363137,1635
1227.4336445143094,1697
1229.5696359295966,1628
1231.705060320639,1651
1233.8399179259786,1662
1235.9742089842384,1610
1238.107933734118,1687
1240.2410924143974,1669
1242.373685263935,1638
1244.5057125216676,1675
1246.6371744266116,1613
1248.7680712178621,1624
1250.898403134593,1710
1253.028170416058,1744
1255.1573733015875,1713
1257.2860120305932,1747
1259.4140868425648,1662
1261.54159797707,1699
1263.6685456737569,1722
1265.7949301723515,1693
1267.9207517126597,1720
1270.046010534565,1746
1272.1707068780306,1797
1274.2948409830983,1753
1276.4184130898889,1797
1278.541423438603,1739
1280.6638722695184,1728
1282.785759822993,1738
1284.9070863394636,1760
1287.0278520594447,1731
1289.1480572235314,1711
1291.2677020723963,1738
1293.3867868467923,1713
1295.5053117875495,1811
1297.623277135579,1796
1299.740683131868,1794
1301.8575300174857,1788
1303.973818033578,1820
1306.0895474213703,1885
1308.2047184221678,1867
1310.3193312773528,1909
1312.4333862283888,1870
1314.5468835168163,1842
1316.659823384255,1858
1318.7722060724045,1855
1320.8840318230418,1928
1322.9953008780249,1847
1325.1060134792888,1914
1327.2161698688478,1898
1329.3257702887959,1888
1331.4348149813054,1875
1333.5433041886276,1909
1335.6512381530933,1862
1337.7586171171101,1879
1339.8654413231675,1862
1341.9717110138317,1882
1344.0774264317488,1893
1346.1825878196432,1927
1348.2871954203192,1859
1350.3912494766587,1865
1352.4947502316231,1856
1354.5976979282532,1879
1356.7000928096686,1787
1358.8019351190665,1813
1360.9032250997243,1867
1363.0039629949988,1818
1365.1041490483235,1846
1367.2037835032133,1831
1369.3028666032606,1899
1371.401398592137,1889
1373.4993797135926,1865
1375.5968102114575,1847
1377.6936903296396,1834
1379.7900203121262,1814
1381.8858004029835,1830
1383.9810308463561,1827
1386.075711886469,1822
1388.1698437676241,1875
1390.2634267342032,1923
1392.356461030667,1905
1394.4489469015557,1835
1396.5408845914872,1855
1398.6322743451592,1856
1400.7231164073469,1931
1402.813411022907,1875
1404.903158436773,1899
1406.9923588939578,1900
1409.0810126395531,1982
1411.1691199187303,2013
1413.2566809767386,1952
1415.343696058907,1990
1417.4301654106425,2021
1419.5160892774315,2022
1421.6014679048399,1997
1423.6863015385125,1995
1425.7705904241707,1957
1427.8543348076178,1971
1429.9375349347342,2033
1432.0201910514802,2029
1434.102303403894,2169
1436.1838722380944,2153
1438.2648978002767,2120
1440.3453803367174,2145
1442.4253200937692,2149
1444.5047173178677,2207
1446.5835722555234,2220
1448.6618851533285,2309
1450.739656257952,2262
1452.8168858161434,2328
1454.8935740747306,2408
1456.96972128062,2433
1459.045327680797,2431
1461.120393522327,2470
1463.1949190523528,2594
1465.2689045180973,2588
1467.3423501668608,2665
1469.415256246024,2653
1471.4876230030463,2630
1473.559450685465,2696
1475.6307395408976,2731
1477.7014898170391,2883
1479.771701761665,2848
1481.8413756226287,2849
1483.9105116478618,2974
1485.9791100853772,2940
1488.0471711832643,3051
1490.1146951896926,3080
1492.1816823529098,3125
1494.2481329212433,3109
1496.3140471430984,3120
1498.3794252669609,3222
1500.4442675413939,3230
1502.5085742150404,3229
1504.572345536622,3276
1506.6355817549388,3386
1508.6982831188702,3364
1510.7604498773744,3337
1512.8220822794883,3362
1514.8831805743293,3347
1516.9437450110909,3438
1519.003775839048,3431
1521.0632733075522,3383
1523.1222376660367,3407
1525.1806691640113,3429
1527.2385680510652,3536
1529.2959345768668,3662
1531.3527689911643,3696
1533.4090715437833,3643
1535.4648424846291,3744
1537.5200820636855,3709
1539.5747905310159,3740
1541.6289681367616,3797
1543.6826151311434,3898
1545.7357317644614,3871
1547.7883182870937,3924
1549.8403749494987,4062
1551.8919020022113,4290
1553.9428996958477,4176
1555.9933682811015,4326
1558.0433080087469,4348
1560.0927191296346,4389
1562.1416018946961,4333
1564.1899565549415,4293
1566.2377833614592,4313
1568.2850825654164,4174
1570.3318544180606,4125
1572.3780991707158,4029
1574.423817074788,3942
1576.4690083817595,3740
1578.5136733431923,3574
1580.5578122107272,3461
1582.601425236085,3335
1584.6445126710646,3226
1586.6870747675434,3032
1588.7291117774776,2880
1590.7706239529034,2810
1592.8116115459347,2680
1594.8520748087658,2654
1596.8920139936686,2481
1598.9314293529933,2442
1600.9703211391711,2274
1603.008689604711,2337
1605.0465350022005,2338
1607.0838575843068,2187
1609.1206576037753,2233
1611.1569353134305,2131
1613.1926909661765,2122
1615.2279248149953,1952
1617.2626371129481,2011
1619.2968281131757,2077
1621.3304980688963,2040
1623.3636472334088,1914
1625.39627586009,1934
1627.428384202396,1904
1629.459972513861,1912
1631.4910410480993,1827
1633.5215900588028,1815
1635.551619799744,1767
1637.5811305247717,1787
1639.6101224878166,1794
1641.6385959428862,1751
1643.6665511440683,1752
1645.693988345528,1811
1647.7209078015112,1751
1649.7473097663405,1775
1651.7731944944203,1761
1653.7985622402307,1738
1655.823413258333,1763
1657.847747803366,1746
1659.8715661300494,1729
1661.8948684931793,1740
1663.9176551476316,1738
1665.9399263483624,1759
1667.9616823504057,1698
1669.982923408873,1756
1672.0036497789574,1663
1674.0238617159293,1729
1676.043559475138,1730
1678.0627433120121,1737
1680.081413482059,1689
1682.0995702408654,1666
1684.117213844096,1712
1686.134344547495,1718
1688.1509626068864,1647
1690.1670682781705,1701
1692.182661817329,1653
1694.1977434804217,1713
1696.2123135235875,1759
1698.226372203043,1694
1700.2399197750851,1699
1702.2529564960905,1687
1704.2654826225112,1685
1706.277498410882,1720
1708.2890041178139,1626
1710.2999999999988,1715
1712.3104863142066,1650
1714.3204633172854,1673
1716.329931266163,1668
1718.3388904178469,1595
1720.3473410294214,1682
1722.3552833580516,1643
1724.3627176609807,1687
1726.3696441955308,1662
1728.3760632191033,1631
1730.3819749891782,1597
1732.3873797633146,1628
1734.3922777991502,1634
1736.3966693544012,1625
1738.4005546868639,1575
1740.4039340544127,1586
1742.406807715001,1582
1744.4091759266616,1571
1746.4110389475054,1585
1748.4123970357223,1644
1750.413250449582,1533
1752.4135994474318,1646
1754.4134442876993,1588
1756.4127852288902,1625
1758.4116225295893,1544
1760.4099564484595,1575
1762.407787244244,1581
1764.405115175764,1549
1766.4019405019203,1603
1768.3982634816916,1602
1770.3940843741357,1602
1772.3894034383907,1574
1774.3842209336717,1580
1776.378537119274,1502
1778.372352254571,1521
1780.3656665990156,1561
1782.3584804121397,1587
1784.3507939535534,1548
1786.3426074829463,1550
1788.3339212600863,1535
1790.3247355448211,1576
1792.3150505970766,1534
1794.3048666768573,1555
1796.2941840442477,1605
1798.2830029594106,1525
1800.2713236825884,1523
1802.2591464741004,1480
1804.2464715943465,1534
1806.2332993038058,1528
1808.2196298630352,1490
1810.2054635326708,1533
1812.190800573428,1492
1814.175641246101,1545
1816.1599858115628,1502
1818.1438345307652,1532
1820.127187664738,1527
1822.1100454745924,1571
1824.092408221516,1493
1826.0742761667766,1466
1828.055649571721,1509
1830.0365286977735,1491
1832.0169138064398,1517
1833.9968051593014,1523
1835.9762030180214,1511
1837.9551076443408,1539
1839.9335193000788,1558
1841.9114382471344,1451
1843.888864747485,1534
1845.8657990631878,1477
1847.842241456378,1478
1849.8181921892697,1521
1851.7936515241558,1528
1853.7686197234098,1520
1855.7430970494815,1480
1857.7170837649014,1510
1859.6905801322787,1581
1861.6635864143004,1493
1863.6361028737338,1490
1865.608129773424,1513
1867.5796673762961,1503
1869.5507159453537,1544
1871.521275743678,1489
1873.4913470344313,1538
1875.4609300808534,1539
1877.4300251462632,1563
1879.3986324940588,1536
1881.366752387717,1592
1883.3343850907936,1590
1885.3015308669228,1553
1887.268189979819,1531
1889.2343626932739,1510
1891.2000492711595,1547
1893.1652499774254,1530
1895.1299650761011,1571
1897.0941948312952,1540
1899.0579395071945,1561
1901.0211993680641,1565
1902.98397467825,1538
1904.9462657021745,1561
1906.9080727043415,1543
1908.869395949332,1523
1910.8302357018065,1535
1912.790592226504,1524
1914.7504657882428,1507
1916.7098566519212,1500
1918.6687650825133,1484
1920.6271913450764,1514
1922.5851357047422,1565
1924.5425984267245,1543
1926.499579776314,1539
1928.4560800188833,1504
1930.4120994198802,1540
1932.367638244833,1513
1934.32269675935,1549
1936.2772752291175,1570
1938.231373919899,1542
1940.1849930975404,1523
1942.1381330279637,1552
1944.0907939771696,1561
1946.0429762112412,1503
1947.9946799963363,1579
1949.9459055986945,1535
1951.896653284633,1527
1953.8469233205478,1518
1955.7967159729142,1463
1957.7460315082863,1560
1959.6948701932974,1522
1961.6432322946594,1395
1963.5911180791632,1437
1965.5385278136787,1469
1967.4854617651545,1462
1969.4319202006182,1459
1971.377903387176,1489
1973.3234115920136,1550
1975.268445082395,1462
1977.2130041256642,1462
1979.1570889892423,1469
1981.1006999406304,1435
1983.04383724741,1486
1984.986501177238,1460
1986.928691997853,1503
1988.8704099770712,1439
1990.811655382789,1502
1992.7524284829801,1468
1994.692729545698,1415
1996.6325588390755,1477
1998.5719166313224,1449
2000.5108031907307,1450
2002.4492187856677,1482
2004.387163684583,1482
2006.3246381560011,1478
2008.2616424685298,1397
2010.1981768908527,1459
2012.1342416917332,1475
2014.069837140014,1518
2016.0049635046162,1402
2017.9396210545406,1403
2019.8738100588666,1460
2021.8075307867502,1479
2023.740783507431,1524
2025.6735684902228,1485
2027.6058860045214,1465
2029.5377363198004,1518
2031.4691197056118,1463
2033.4000364315875,1446
2035.3304867674374,1396
2037.260470982952,1436
2039.189989347998,1431
2041.1190421325232,1428
2043.047629606554,1480
2044.9757520401945,1505
2046.9034097036288,1459
2048.8306028671195,1438
2050.7573318010086,1412
2052.683596775716,1410
2054.609398061742,1409
2056.5347359296647,1400
2058.4596106501403,1444
2060.384022493906,1425
2062.3079717317764,1425
2064.231458634646,1408
2066.1544834734873,1389
2068.077046519352,1412
2069.99914804337,1435
2071.9207883167524,1440
2073.8419676107865,1452
2075.7626861968406,1406
2077.6829443463607,1419
2079.6027423308715,1431
2081.522080421977,1392
2083.440958891362,1404
2085.359378010786,1419
2087.2773380520907,1406
2089.194839287196,1411
2091.111881988101,1445
2093.0284664268825,1411
2094.9445928756973,1400
2096.86026160678,1391
2098.775472892446,1431
2100.690227005088,1471
2102.604524217178,1498
2104.5183648012676,1485
2106.431749029985,1455
2108.34467717604,1399
2110.2571495122206,1391
2112.169166311393,1405
2114.080727846503,1436
2115.9918343905747,1440
2117.902486216711,1452
2119.8126835980956,1503
2121.722426807987,1439
2123.6317161197285,1422
2125.5405518067364,1417
2127.448934142509,1451
2129.356863400624,1492
2131.264339854737,1425
2133.1713637785815,1408
2135.077935445972,1408
2136.9840551308002,1410
2138.889723107037,1459
2140.7949396487334,1470
2142.699705030018,1503
2144.6040195250994,1471
2146.507883408264,1467
2148.4112969538774,1456
2150.3142604363848,1486
2152.2167741303097,1438
2154.1188383102535,1428
2156.0204532508997,1477
2157.9216192270064,1456
2159.822336513414,1477
2161.7226053850413,1530
2163.622426116884,1419
2165.5217989840185,1458
2167.4207242616,1464
2169.319202224862,1475
2171.2172331491165,1524
2173.1148173097563,1451
2175.0119549822507,1486
2176.90864644215,1501
2178.8048919650823,1510
2180.7006918267534,1543
2182.596046302952,1523
2184.4909556695407,1504
2186.3854202024645,1475
2188.279440177746,1482
2190.173015871487,1507
2192.066147559868,1469
2193.958835519149,1557
2195.851080025667,1431
2197.7428813558417,1495
2199.6342397861667,1476
2201.5251555932186,1491
2203.415629053651,1501
2205.3056604441986,1494
2207.19525004167,1550
2209.084398122958,1556
2210.9731049650327,1543
2212.861370844941,1516
2214.749196039812,1558
2216.636580826851,1556
2218.523525483344,1562
2220.410030286655,1568
2222.296095514226,1524
2224.1817214435805,1546
2226.066908352319,1508
2227.951656518121,1473
2229.835966218746,1507
2231.71983773203,1482
2233.6032713358913,1551
2235.486267308324,1522
2237.3688259274036,1513
2239.2509474712824,1541
2241.132632218193,1477
2243.013880446447,1511
2244.8946924344323,1553
2246.7750684606203,1524
2248.6550088035574,1510
2250.534513741871,1525
2252.413583554265,1469
2254.292218519526,1510
2256.170418916517,1462
2258.0481850241786,1490
2259.925517121534,1419
2261.8024154876825,1511
2263.678880401803,1486
2265.5549121431536,1514
2267.430510991071,1520
2269.305677224971,1495
2271.180411124348,1445
2273.0547129687766,1467
2274.9285830379076,1464
2276.8020216114737,1533
2278.6750289692845,1556
2280.5476053912294,1454
2282.4197511572766,1560
2284.2914665474727,1525
2286.162751841943,1505
2288.0336073208937,1577
2289.904033264608,1533
2291.774029953448,1569
2293.6435976678554,1570
2295.5127366883517,1504
2297.381447295534,1417
2299.2497297700825,1488
2301.1175843927526,1404
2302.9850114443825,1342
2304.852011205885,1394
2306.7185839582553,1346
2308.5847299825664,1369
2310.4504495599676,1356
2312.3157429716925,1279
2314.1806104990483,1380
2316.0450524234247,1399
2317.9090690262888,1390
2319.772660589186,1328
2321.635827393742,1358
2323.498569721661,1274
2325.3608878547248,1396
2327.2227820747967,1323
2329.0842526638157,1326
2330.945299903803,1299
2332.805924076857,1375
2334.6661254651535,1329
2336.525904350951,1358
2338.3852610165827,1326
2340.244195744464,1332
2342.102708817088,1331
2343.9608005170253,1364
2345.8184711269287,1308
2347.675720929526,1283
2349.532550207628,1352
2351.38895924412,1325
2353.24494832197,1328
2355.100517724223,1385
2356.955667734004,1357
2358.810398634514,1367
2360.664710709037,1349
2362.5186042409337,1300
2364.3720795136437,1359
2366.225136810686,1346
2368.0777764156583,1344
2369.929998612237,1355
2371.7818036841777,1341
2373.633191915315,1324
2375.484163589562,1344
2377.3347189909114,1309
2379.184858403434,1339
2381.03458211128,1339
2382.8838903986775,1349
2384.732783549936,1319
2386.5812618494406,1353
2388.4293255816588,1404
2390.2769750311327,1324
2392.1242104824883,1360
2393.971032220427,1404
2395.8174405297295,1338
2397.6634356952563,1380
2399.509018001947,1398
2401.3541877348193,1349
2403.1989451789705,1323
2405.043290619576,1379
2406.8872243418905,1387
2408.730746631247,1396
2410.5738577730594,1339
2412.4165580528183,1399
2414.258847756095,1334
2416.100727168537,1348
2417.9421965758734,1319
2419.783256263912,1331
2421.623906518538,1355
2423.4641476257157,1357
2425.303979871491,1331
2427.143403541984,1382
2428.9824189233977,1422
2430.821026302012,1417
2432.6592259641866,1397
2434.497018196361,1338
2436.33440328505,1402
2438.171381516851,1417
2440.00795317844,1436
2441.844118556569,1447
2443.6798779380724,1429
2445.5152316098606,1425
2447.3501798589255,1348
2449.1847229723357,1361
2451.0188612372403,1384
2452.8525949408663,1403
2454.6859243705203,1377
2456.518849813587,1410
2458.3513715575314,1402
2460.183489889895,1337
2462.015205098301,1399
2463.8465174704493,1357
2465.67742729412,1365
2467.5079348571717,1404
2469.338040447542,1451
2471.1677443532476,1417
2472.9970468623833,1423
2474.825948263123,1374
2476.6544488437207,1337
2478.482548892508,1407
2480.310248697896,1435
2482.137548548374,1400
2483.9644487325118,1390
2485.790949538956,1379
2487.617051256433,1433
2489.44275417375,1425
2491.26805857979,1411
2493.0929647635157,1384
2494.917473013971,1434
2496.741583620276,1461
2498.5652968716304,1472
2500.3886130573137,1440
2502.2115324666834,1464
2504.0340553891765,1461
2505.856182114308,1447
2507.6779129316733,1433
2509.499248130945,1498
2511.3201880018764,1484
2513.140732834298,1476
2514.9608829181198,1396
2516.780638543331,1475
2518.6,1405
2520.418967578273,1473
2522.237541568376,1467
2524.0557222606144,1471
2525.8735099453706,1556
2527.6909049131086,1512
2529.507907454368,1507
2531.32451785977,1533
2533.140736420014,1527
2534.9565634258774,1466
2536.771999168218,1547
2538.5870439379714,1547
2540.4016980261526,1529
2542.2159617238544,1553
2544.02983532225,1576
2545.8433191125914,1602
2547.656413386209,1635
2549.4691184345115,1650
2551.2814345489874,1663
2553.093362021204,1623
2554.904901142808,1645
2556.716052205523,1692
2558.526815501153,1654
2560.3371913215824,1734
2562.147179958771,1690
2563.956781704761,1693
2565.7659968516705,1710
2567.5748256916986,1717
2569.3832685171224,1703
2571.1913256202984,1655
2572.9989972936614,1674
2574.806283829725,1749
2576.613185521084,1716
2578.4197026604074,1708
2580.2258355404483,1709
2582.031584454035,1775
2583.836949694077,1712
2585.6419315535613,1781
2587.4465303255533,1806
2589.2507463032002,1799
2591.0545797797245,1786
2592.8580310484303,1710
2594.6611004026995,1815
2596.463788135992,1802
2598.266094541849,1825
2600.0680199138874,1774
2601.869564545807,1693
2603.670728731383,1779
2605.4715127644704,1841
2607.2719169390048,1800
2609.071941548998,1759
2610.8715868885433,1819
2612.670853251811,1807
2614.469740933052,1748
2616.268250226594,1811
2618.0663814268455,1747
2619.864134828292,1765
2621.6615107255006,1767
2623.458509413115,1745
2625.2551311858597,1793
2627.0513763385347,1721
2628.8472451660223,1654
2630.6427379632833,1739
2632.4378550253564,1678
2634.232596647359,1652
2636.026963124488,1690
2637.8209547520187,1633
2639.6145718253065,1655
2641.407814639785,1650
2643.200683490966,1621
2644.9931786744414,1667
2646.7853004858807,1643
2648.577049221034,1653
2650.3684251757277,1625
2652.1594286458712,1595
2653.9500599274484,1559
2655.740319316525,1534
2657.5302071092437,1547
2659.3197236018286,1508
2661.10886909058,1591
2662.8976438718782,1496
2664.686048242183,1498
2666.4740824980327,1506
2668.2617469360443,1532
2670.0490418529134,1472
2671.8359675454153,1465
2673.622524310403,1466
2675.408712444811,1479
2677.1945322456495,1437
2678.979984010009,1471
2680.76506803506,1469
2682.5497846180497,1469
2684.334134056306,1473
2686.1181166472343,1464
2687.9017326883213,1425
2689.6849824771293,1415
2691.4678663113013,1445
2693.2503844885596,1402
2695.032537306705,1393
2696.8143250636167,1357
2698.5957480572542,1406
2700.3768065856534,1385
2702.1575009469316,1420
2703.937831439283,1354
2705.717798360982,1438
2707.4974020103837,1365
2709.276642685917,1351
2711.055520686095,1340
2712.834036309506,1322
2714.612189854819,1333
2716.389981620782,1344
2718.1674119062204,1333
2719.944481010041,1387
2721.721189231226,1321
2723.4975368688415,1374
2725.273524222027,1337
2727.0491515900053,1327
2728.824419272075,1387
2730.5993275676146,1275
2732.3738767760838,1325
2734.148067197016,1319
2735.921899130031,1327
2737.6953728748194,1288
2739.468488731156,1321
2741.2412469988926,1318
2743.0136479779617,1344
2744.785691968372,1300
2746.5573792702116,1301
2748.3287101836504,1311
2750.099685008934,1348
2751.870304046388,1346
2753.640567596418,1312
2755.4104759595057,1322
2757.1800294362156,1271
2758.949228327187,1229
2760.7180729331412,1282
2762.486563554877,1334
2764.254700493272,1278
2766.022484049284,1350
2767.789914523947,1281
2769.5569922183786,1255
2771.3237174337705,1319
2773.090090471394,1281
2774.8561116326036,1289
2776.6217812188274,1281
2778.3870995315756,1242
2780.1520668724356,1270
2781.9166835430747,1306
2783.6809498452394,1307
2785.444866080754,1308
2787.2084325515225,1268
2788.971649559527,1238
2790.73451740683,1236
2792.4970363955713,1267
2794.2592068279705,1283
2796.0210290063264,1271
2797.7825032330147,1340
2799.543629810493,1304
2801.304409041296,1333
2803.0648412280366,1264
2804.8249266734088,1273
2806.5846656801846,1343
2808.344058551212,1353
2810.1031055894246,1317
2811.8618070978273,1331
2813.6201633795085,1309
2815.378174737636,1239
2817.1358414754536,1314
2818.893163896285,1291
2820.6501423035334,1289
2822.4067770006814,1235
2824.1630682912883,1329
2825.9190164789957,1329
2827.6746218675207,1309
2829.429884760661,1294
2831.184805462294,1282
2832.9393842763743,1330
2834.693621506936,1291
2836.4475174580916,1300
2838.201072434034,1270
2839.954286739034,1272
2841.707160677441,1261
2843.459694553685,1240
2845.2118886722724,1276
2846.96374333779,1267
2848.7152588549034,1301
2850.4664355283567,1285
2852.217273662973,1315
2853.9677735636546,1291
2855.7179355353833,1317
2857.4677598832186,1311
2859.217246912299,1238
2860.9663969278427,1302
2862.715210235146,1289
2864.4636871395846,1265
2866.211827946614,1253
2867.9596329617652,1281
2869.7071024906536,1302
2871.4542368389684,1278
2873.20103631248,1269
2874.947501217038,1295
2876.6936318585695,1255
2878.4394285430812,1281
2880.1848915766604,1241
2881.9300212654707,1266
2883.6748179157553,1291
2885.4192818338374,1290
2887.1634133261173,1245
2888.907212699077,1290
2890.6506802592744,1298
2892.393816313348,1277
2894.1366211680142,1289
2895.8790951300693,1278
2897.621238506388,1286
2899.363051603925,1322
2901.1045347297118,1346
2902.8456881908596,1291
2904.58651229456,1286
2906.327007348081,1294
2908.067173658772,1273
2909.8070115340597,1251
2911.5465212814497,1268
2913.285703208527,1270
2915.0245576229563,1282
2916.7630848324807,1308
2918.5012851449196,1208
2920.2391588681758,1278
2921.976706310227,1224
2923.7139277791334,1261
2925.4508235830313,1298
2927.187394030137,1249
2928.923639428745,1290
2930.6595600872306,1283
2932.395156314046,1330
2934.1304284177218,1318
2935.8653767068713,1289
2937.6000014901815,1267
2939.3343030764227,1338
2941.068281774442,1309
2942.8019378931644,1292
2944.5352717415976,1333
2946.2682836288236,1279
2948.0009738640065,1338
2949.7333427563885,1331
2951.465390615289,1314
2953.1971177501086,1297
2954.9285244703265,1298
2956.6596110855,1278
2958.3903779052657,1286
2960.1208252393385,1313
2961.8509533975125,1235
2963.5807626896617,1204
2965.3102534257378,1210
2967.0394259157715,1254
2968.768280469873,1275
2970.496817398232,1273
2972.2250370111146,1254
2973.952939618869,1260
2975.6805255319196,1230
2977.4077950607707,1310
2979.134748516006,1262
2980.861386208289,1234
2982.587708448359,1297
2984.313715547037,1272
2986.039407815222,1285
2987.764785563891,1334
2989.489849104102,1303
2991.2145987469908,1271
2992.9390348037705,1271
2994.6631575857346,1281
2996.3869674042576,1270
2998.1104645707887,1278
2999.83364939686,1289
3001.5565221940783,1287
3003.2790832741334,1279
3005.0013329487924,1250
3006.7232715298996,1272
3008.4448993293804,1318
3010.166216659239,1259
3011.887223831558,1253
3013.607921158498,1298
3015.3283089522993,1253
3017.0483875252826,1235
3018.7681571898443,1226
3020.4876182584626,1276
3022.2067710436927,1259
3023.9256158581707,1297
3025.644153014609,1256
3027.362382825801,1233
3029.0803056046193,1214
3030.797921664012,1283
3032.5152313170106,1195
3034.2322348767225,1279
3035.9489326563353,1279
3037.665324969115,1299
3039.3814121284063,1247
3041.097194447633,1280
3042.812672240299,1223
3044.5278458199855,1287
3046.2427155003525,1259
3047.9572815951406,1335
3049.671544418167,1231
3051.38550428333,1310
3053.0991615046073,1199
3054.812516396051,1254
3056.5255692717974,1242
3058.2383204460575,1260
3059.9507702331257,1243
3061.662918947372,1234
3063.3747669032446,1266
3065.0863144152736,1274
3066.7975617980674,1268
3068.508509366309,1188
3070.219157434767,1277
3071.9295063182844,1271
3073.639556331785,1221
3075.3493077902704,1275
3077.058761008821,1220
3078.7679163025964,1326
3080.476773986837,1291
3082.1853343768594,1298
3083.89359778806,1273
3085.6015645359153,1288
3087.3092349359786,1282
3089.016609303884,1283
3090.7236879553434,1290
3092.4304712061476,1281
3094.136959372166,1265
3095.843152769349,1287
3097.5490517137237,1319
3099.2546565213966,1319
3100.959967508554,1274
3102.66498499146,1282
3104.3697092864577,1264
3106.0741407099695,1288
3107.778279578498,1280
3109.482126208622,1251
3111.1856809170004,1246
3112.8889440203716,1258
3114.5919158355528,1277
3116.294596679439,1293
3117.996986869006,1278
3119.6990867213062,1285
3121.4008965534726,1273
3123.102416682717,1310
3124.803647426329,1247
3126.5045891016784,1276
3128.205242026213,1263
3129.90560651746,1267
3131.605682893025,1244
3133.3054714705922,1229
3135.0049725679282,1280
3136.7041865028714,1263
3138.4031135933465,1262
3140.101754157353,1233
3141.800108512971,1248
3143.498176978357,1260
3145.1959598717494,1273
3146.8934575114636,1208
3148.5906702158954,1238
3150.2875983035183,1266
3151.9842420928853,1207
3153.680601902627,1258
3155.376678051456,1218
3157.07247085816,1248
3158.767980641609,1221
3160.463207720748,1262
3162.158152414606,1269
3163.8528150422862,1262
3165.5471959229726,1273
3167.2412953759303,1264
3168.9351137204976,1245
3170.628651276098,1246
3172.3219083622307,1271
3174.014885298474,1286
3175.707582404485,1247
3177.4000000000005,1262
3179.092138404835,1231
3180.7839979388846,1252
3182.47557892212,1311
3184.166881674594,1290
3185.8579065164386,1219
3187.5486537678626,1255
3189.2391237491547,1289
3190.9293167806827,1223
3192.6192331828934,1253
3194.3088732763117,1235
3195.998237381542,1243
3197.687325819268,1300
3199.376138910251,1239
3201.064676975334,1206
3202.7529403354347,1236
3204.4409293115523,1201
3206.1286442247647,1216
3207.816085396229,1270
3209.5032531471825,1265
3211.190147798936,1192
3212.8767696728846,1201
3214.5631190905015,1232
3216.2491963733373,1201
3217.9350018430214,1191
3219.6205358212637,1221
3221.305798629851,1187
3222.990790590651,1221
3224.6755120256103,1227
3226.359963256751,1122
3228.0441446061795,1183
3229.7280563960758,1172
3231.411698948703,1190
3233.0950725863995,1195
3234.778177631587,1228
3236.461014406761,1200
3238.1435832345005,1218
3239.8258844374595,1253
3241.507918338374,1281
3243.1896852600576,1252
3244.8711855254023,1239
3246.552419457381,1192
3248.233387379042,1235
3249.914089613516,1172
3251.59452648401,1270
3253.274698313813,1207
3254.95460542629,1200
3256.6342481448855,1234
3258.313626793125,1222
3259.9927416946084,1188
3261.6715931730196,1273
3263.3501815521176,1223
3265.0285071557437,1161
3266.706570307815,1188
3268.3843713323286,1245
3270.0619105533615,1235
3271.739188295068,1190
3273.4162048816834,1215
3275.0929606375184,1240
3276.769455886966,1242
3278.445690954498,1274
3280.1216661646613,1237
3281.797381842087,1266
3283.4728383114807,1197
3285.1480358976296,1230
3286.8229749253996,1257
3288.4976557197333,1234
3290.172078605655,1175
3291.846243908266,1216
3293.5201519527463,1194
3295.193803064357,1210
3296.8671975684374,1216
3298.5403357904024,1213
3300.21321805575,1258
3301.8858446900567,1218
3303.558216018975,1170
3305.23033236824,1202
3306.9021940636603,1237
3308.57380143113,1210
3310.2451547966184,1241
3311.916254486174,1187
3313.5871008259246,1184
3315.2576941420766,1208
3316.9280347609147,1229
3318.5981230088046,1171
3320.2679592121895,1136
3321.9375436975924,1185
3323.606876791612,1196
3325.27595882093,1203
3326.944790112305,1145
3328.6133709925753,1225
3330.2817017886573,1182
3331.949782827547,1161
3333.617614436319,1249
3335.2851969421245,1175
3336.952530672199,1238
3338.619615953853,1175
3340.286453114475,1199
3341.9530424815357,1198
3343.619384382583,1251
3345.2854791452437,1190
3346.951327097224,1174
3348.6169285663073,1189
3350.2822838803577,1207
3351.947393367319,1194
3353.61225735521,1251
3355.2768761721345,1232
3356.9412501462693,1201
3358.605379605873,1169
3360.2692648792827,1248
3361.9329062949146,1184
3363.596304181263,1219
