CollectionTime,9/19/2024 11:28:23 AM
ExposureUsed,3
CalibratedSpectrum
-962.7078968117929,697
-959.9714848408522,709
-957.2358232597828,725
-954.5009119013725,772
-951.7667505983302,775
-949.0333391832855,745
-946.3006774887896,785
-943.5687653473143,740
-940.837602591253,723
-938.1071890529199,774
-935.3775245645503,751
-932.6486089583007,750
-929.9204420662485,748
-927.1930237203925,697
-924.4663537526524,747
-921.7404319948689,760
-919.0152582788041,789
-916.2908324361409,757
-913.5671542984834,770
-910.8442236973568,754
-908.1220404642074,733
-905.4006044304027,761
-902.679915427231,731
-899.959973285902,741
-897.2407778375464,727
-894.5223289132158,735
-891.8046263438832,735
-889.0876699604426,735
-886.3714595937089,759
-883.6559950744183,723
-880.9412762332282,755
-878.2273029007168,696
-875.5140749073835,703
-872.8015920836489,722
-870.0898542598545,698
-867.3788612662631,731
-864.6686129330585,736
-861.9591090903457,748
-859.2503495681506,735
-856.5423341964203,723
-853.8350628050229,765
-851.1285352237478,734
-848.4227512823054,701
-845.7177108103272,691
-843.0134136373656,713
-840.3098595928943,721
-837.6070485063082,729
-834.9049802069229,753
-832.2036545239757,711
-829.5030712866244,750
-826.8032303239481,754
-824.1041314649472,704
-821.4057745385428,754
-818.7081593735775,704
-816.0112857988148,714
-813.3151536429393,700
-810.6197627345566,742
-807.9251129021936,751
-805.2312039742981,757
-802.5380357792392,738
-799.8456081453069,747
-797.1539209007124,743
-794.462973873588,746
-791.772766891987,782
-789.083299783884,742
-786.3945723771743,778
-783.7065844996748,744
-781.0193359791231,748
-778.3328266431781,736
-775.6470563194197,737
-772.9620248353489,728
-770.2777320183878,774
-767.5941776958798,783
-764.9113616950891,741
-762.2292838432011,751
-759.5479439673222,739
-756.8673418944801,763
-754.1874774516235,750
-751.5083504656222,734
-748.8299607632671,768
-746.15230817127,798
-743.475392516264,800
-740.7992136248035,712
-738.1237713233636,764
-735.4490654383407,770
-732.7750957960521,736
-730.1018622227365,760
-727.4293645445534,787
-724.7576025875837,765
-722.0865761778291,768
-719.4162851412126,786
-716.7467293035781,796
-714.0779084906909,855
-711.409822528237,801
-708.7424712418238,820
-706.0758544569796,832
-703.4099719991541,825
-700.7448236937178,819
-698.0804093659622,806
-695.4167288411002,821
-692.7537819442656,865
-690.0915685005134,820
-687.4300883348199,771
-684.7693412720819,849
-682.1093271371178,802
-679.4500457546669,800
-676.7914969493897,804
-674.1336805458676,846
-671.4765963686034,825
-668.8202442420206,812
-666.1646239904642,855
-663.5097354382001,811
-660.8555784094151,808
-658.2021527282176,834
-655.5494582186366,857
-652.8974947046223,838
-650.2462620100463,817
-647.5957599587009,838
-644.9459883742998,895
-642.2969470804776,858
-639.6486359007902,878
-637.0010546587141,870
-634.3542031776476,916
-631.7080812809096,892
-629.0626887917401,897
-626.4180255333008,883
-623.7740913286734,927
-621.1308860008619,911
-618.4884093727904,909
-615.8466612673046,914
-613.2056415071715,880
-610.5653499150785,871
-607.9257863136347,867
-605.28695052537,886
-602.6488423727357,892
-600.0114616781036,889
-597.3748082637674,893
-594.7388819519412,930
-592.1036825647604,922
-589.4692099242818,883
-586.8354638524829,893
-584.2024441712624,891
-581.5701507024403,879
-578.9385832677575,890
-576.3077416888759,946
-573.6776257873787,884
-571.0482353847704,890
-568.4195703024757,932
-565.7916303618415,933
-563.164415384135,919
-560.5379251905453,919
-557.9121596021815,930
-555.2871184400748,906
-552.6628015251767,918
-550.0392086783606,931
-547.4163397204204,926
-544.794194472071,928
-542.1727727539491,973
-539.5520743866118,989
-536.9320991905377,942
-534.3128469861261,961
-531.6943175936979,970
-529.0765108334947,1007
-526.4594265256793,1125
-523.8430644903358,1285
-521.2274245474689,1371
-518.612506517005,1417
-515.9983102187913,1487
-513.3848354725959,1486
-510.77208209810846,1518
-508.16004991493924,1490
-505.5487387426199,1602
-502.9381484006032,1664
-500.3282787082628,1652
-497.71912948489364,1551
-495.1107005497117,1431
-492.5029917218539,1389
-489.8960028203786,1313
-487.28973366426493,1186
-484.68418407241325,1165
-482.07935386364494,1077
-479.47524285670266,1084
-476.87185087025,1098
-474.2691777228715,1150
-471.66722323307334,1131
-469.0659872192821,1072
-466.4654694998459,1111
-463.86566989303384,1097
-461.26658821703614,1067
-458.66822428996414,1062
-456.07057792985,1091
-453.4736489546475,1071
-450.877437182231,1064
-448.28194243039627,1078
-445.68716451686,1083
-443.09310325926003,1082
-440.49975847515555,1047
-437.9071299820263,1066
-435.31521759727354,1063
-432.72402113821954,1079
-430.13354042210767,1149
-427.5437752661022,1111
-424.95472548728867,1104
-422.36639090267386,1095
-419.7787713291855,1131
-417.1918665836721,1122
-414.60567648290385,1153
-412.0202008435715,1105
-409.4354394822874,1168
-406.8513922155845,1144
-404.26805885991723,1191
-401.685439231661,1267
-399.103533147112,1180
-396.522340422488,1190
-393.9418608739278,1111
-391.3620943174908,1114
-388.7830405691583,1063
-386.2046994448317,1033
-383.6270707603344,1010
-381.05015433141045,976
-378.473949973725,874
-375.8984575028645,876
-373.32367673433623,837
-370.74960748356875,744
-368.1762495659117,730
-365.60360279663576,662
-363.03166699093265,616
-360.4604419639154,564
-357.8899275306178,508
-355.32012350599507,541
-352.7510297049233,518
-350.1826459421999,502
-347.61497203254316,494
-345.04800779059235,460
-342.4817530309082,471
-339.91620756797226,517
-337.35137121618743,545
-334.7872437898774,515
-332.22382510328725,481
-329.66111497058273,510
-327.09911320585127,498
-324.53781962310075,472
-321.9772340362607,445
-319.4173562591816,470
-316.8581861056348,497
-314.2997233893127,484
-311.7419679238294,488
-309.1849195227194,497
-306.62857799943856,576
-304.0729431673641,534
-301.51801483979375,522
-298.963792829947,514
-296.41027695096386,521
-293.85746701590574,544
-291.3053628377552,564
-288.7539642294155,518
-286.2032710037115,591
-283.65328297338897,592
-281.1039999511146,596
-278.5554217494762,601
-276.007548180983,571
-273.4603790580651,566
-270.9139141930734,582
-268.3681533982807,609
-265.8230964858798,591
-263.27874326798565,616
-260.7350935566336,617
-258.1921471637804,625
-255.6499039013039,620
-253.10836358100266,677
-250.56752601459698,666
-248.02739101372765,706
-245.48795838995704,756
-242.94922795476816,763
-240.41119951956557,677
-237.8738728956746,636
-235.33724789434166,663
-232.80132432673452,718
-230.2661020039418,646
-227.73158073697357,697
-225.19776033676033,753
-222.66464061415422,859
-220.1322213799284,786
-217.60050244477725,753
-215.06948361931552,781
-212.53916471408013,844
-210.00954553952818,827
-207.48062590603843,814
-204.9524056239104,791
-202.4248845033651,805
-199.8980623545441,787
-197.37193898751036,842
-194.84651421224817,889
-192.32178783866232,796
-189.79775967657952,839
-187.27442953574644,911
-184.7517972258321,957
-182.2298625564256,873
-179.7086253370378,805
-177.18808537710026,794
-174.66824248596583,919
-172.14909647290835,926
-169.6306471471229,858
-167.11289431772548,894
-164.59583779375328,914
-162.07947738416453,883
-159.5638128978386,1044
-157.04884414357605,1117
-154.53457093009854,1040
-152.02099306604828,975
-149.50811035998936,1080
-146.99592262040665,1189
-144.48442965570587,1297
-141.97363127421409,1304
-139.46352728417958,1471
-136.95411749377126,1337
-134.44540171107985,1157
-131.93737974411636,1017
-129.43005140081357,1110
-126.92341648902493,1333
-124.41747481652521,1626
-121.91222619101006,2003
-119.40767042009657,1964
-116.90380731132257,1900
-114.40063667214702,2514
-111.8981583099503,3433
-109.3963720320337,4686
-106.89527764561933,7253
-104.39487495785067,9659
-101.89516377579241,11828
-99.39614390642998,13306
-96.89781515667039,15776
-94.40017733334128,19866
-91.90323024319173,24399
-89.40697369289148,20275
-86.91140748903172,13814
-84.41653143812482,12362
-81.92234534660395,13507
-79.42884902082358,15750
-76.93604226705907,17145
-74.4439248915071,15217
-71.95249670028534,11895
-69.46175749943245,11639
-66.97170709490854,11904
-64.48234529259423,13108
-61.99367189829195,12300
-59.50568671772464,9540
-57.01838955653636,8910
-54.53178022029283,10242
-52.045858514480074,9328
-49.560624244506016,10860
-47.07607721569923,13711
-44.59221723330904,14348
-42.10904410250669,14441
-39.62655762838392,16002
-37.14475761595372,18305
-34.66364387015028,19048
-32.18321619582866,17279
-29.70347439776515,17496
-27.224418280657005,18783
-24.74604764912317,21563
-22.26836230770266,33718
-19.7913620608565,65035
-17.315046712966478,65035
-14.83941606833514,65035
-12.36446993118659,65035
-9.89020810566592,65035
-7.416630395839093,65035
-4.94373660569363,65035
-2.471526539137585,65035
-6.821210263296962E-13,65035
2.47084320796705,65035
4.941003281093458,65035
7.410480415786196,65035
9.879274808531363,65035
12.347386655893956,65035
14.814816154518212,65035
17.28156350112681,65035
19.74762889252179,65035
22.21301252558385,25196
24.67771459727237,7739
27.141735304626195,7179
29.605074844762612,6870
32.06773341487792,6393
34.52971121224755,5915
36.99100843422559,4622
39.45162527824516,3292
41.91156194181792,3986
44.370818622535126,4689
46.82939551806646,3727
49.287292826160524,5470
51.74451074464503,5537
54.201049471426245,4212
56.65690920448981,3305
59.112090141899785,2244
61.56659248179983,2000
64.02041642241159,2362
66.4735621620365,2910
68.92602989905402,3548
71.37781983192338,3811
73.82893215918205,3245
76.27936707944684,2656
78.72912479141326,2486
81.17820549385567,2085
83.62660938562783,1814
86.07433666566146,1568
88.5213875329681,1419
90.96776218663751,1690
93.41346082583925,1968
95.85848364982041,2320
98.30283085790859,2075
100.7465026495089,1871
103.18949922410604,1715
105.63182078126385,1486
108.07346752062438,1329
110.51443964190923,1320
112.95473734491827,1216
115.39436082953114,1260
117.83331029570547,1459
120.27158594347827,1403
122.7091879729652,1353
125.1461165843615,1123
127.58237197794062,1008
130.01795435405518,1148
132.4528639131364,1196
134.88710085569494,1096
137.32066538231982,1166
139.75355769367923,1374
142.1857779905207,1190
144.61732647366978,1049
147.04820334403132,1002
149.47840880258934,1039
151.90794305040674,1233
154.33680628862487,1273
156.76499871846443,1362
159.19252054122433,1499
161.61937195828352,1610
164.04555317109896,1748
166.47106438120693,2031
168.89590579022217,2139
171.320077599839,2265
173.7435800118302,2406
176.16641322804742,2502
178.58857745042144,2549
181.01007288096173,2597
183.43089972175687,2603
185.85105817497413,2795
188.27054844285988,2708
190.6893707277394,2779
193.10752523201643,2744
195.5250121581745,2867
197.9418317087751,2843
200.3579840864594,2920
202.7734694939469,3029
205.18828813403627,3215
207.6024402096051,3208
210.01592592360964,3075
212.42874547908548,3095
214.84089907914665,2990
217.2523869269868,3045
219.66320922587727,2974
222.0733661791695,2975
224.48285799029293,2950
226.8916848627572,3160
229.29984700014882,3168
231.7073446061355,3081
234.11417788446204,3094
236.520347038953,3200
238.92585227351185,3301
241.33069379212054,3439
243.73487179884035,3424
246.1383864978112,3429
248.541238093252,3470
250.9434267894609,3532
253.34495279081432,3439
255.74581630176783,3417
258.1460175268563,3459
260.54555667069314,3474
262.9444339379703,3458
265.3426495334594,3387
267.7402036620107,3386
270.1370965285529,3231
272.53332833809407,3029
274.9288992957214,2938
277.32380960660055,2941
279.718059475976,2923
282.1116491091717,2885
284.5045787115897,2856
286.89684848871195,2744
289.2884586460981,2786
291.67940938938807,2911
294.0697009242996,3000
296.4593334566299,2792
298.84830719225477,2991
301.23662233712923,2818
303.6242790972866,2810
306.01127767884,2663
308.39761828798066,2685
310.78330113097934,2682
313.16832641418534,2641
315.5526943440269,2634
317.9364051270112,2676
320.3194589697242,2698
322.70185607883093,2545
325.0835966610754,2587
327.4646809232805,2581
329.8451090723478,2536
332.2248813152577,2539
334.6039978590701,2518
336.9824589109231,2486
339.36026467803447,2509
341.7374153677,2404
344.113911187295,2423
346.48975234427337,2460
348.8649390461686,2398
351.2394715005918,2376
353.61334991523415,2329
355.9865744978655,2380
358.35914545633375,2408
360.73106299856715,2431
363.10232733257146,2339
365.47293866643247,2279
367.84289720831396,2410
370.2122031664593,2355
372.5808567491905,2339
374.9488581649083,2271
377.31620762209275,2265
379.6829053293021,2311
382.0489514951745,2232
384.4143463284262,2335
386.7790900378528,2277
389.14318283232853,2256
391.50662492080653,2287
393.86941651231916,2343
396.23155781597745,2284
398.5930490409713,2283
400.9538903965696,2287
403.3140820921202,2236
405.6736243370498,2239
408.03251734086336,2215
410.3907613131465,2178
412.74835646356166,2215
415.10530300185144,2233
417.4616011378372,2337
419.81725108141893,2213
422.1722530425758,2215
424.5266072313656,2284
426.880313857925,2256
429.2333731324701,2269
431.58578526529516,2268
433.9375504667738,2186
436.2886689473588,2195
438.63914091758113,2204
440.9889665880513,2140
443.33814616945835,2193
445.68667987257015,2183
448.03456790823395,2113
450.3818104873759,2181
452.72840782100013,2174
455.07436012019105,2230
457.41966759611057,2092
459.7643304600007,2161
462.10834892318155,2128
464.4517231970525,2183
466.79445349309174,2134
469.1365400228566,2081
471.4779829979826,2227
473.81878263018564,2215
476.15893913125876,2268
478.4984527130747,2255
480.8373235875855,2238
483.17555196682144,2286
485.5131380628919,2282
487.8500820879857,2287
490.1863842543697,2459
492.52204477439034,2538
494.8570638604725,2797
497.1914417251204,2987
499.52517858091653,3213
501.85827464052306,3441
504.19073011668036,3473
506.5225452222086,3499
508.85372017000566,3495
511.18425517304956,3692
513.514150444396,4215
515.8434061971808,5556
518.1720226446176,6499
520.4999999999999,6627
522.8273384766991,6242
525.1540382881666,6028
527.480099647932,5301
529.8055227696037,4290
532.1303078668694,3225
534.454455153496,2652
536.777964843328,2409
539.1008371502907,2328
541.4230722883866,2334
543.744670471698,2273
546.0656319143858,2149
548.3859568306899,2223
550.7056454349294,2205
553.0246979415016,2226
555.3431145648834,2271
557.6608955196306,2277
559.978041020377,2174
562.2945512818363,2206
564.6104265188006,2201
566.9256669461412,2213
569.2402727788082,2185
571.5542442318302,2288
573.8675815203156,2266
576.1802848594508,2310
578.4923544645015,2267
580.8037905508126,2359
583.114593333807,2241
585.4247630289875,2223
587.7342998519354,2148
590.0432040183106,2291
592.3514757438526,2256
594.6591152443794,2272
596.9661227357875,2291
599.2724984340531,2224
601.578242555231,2194
603.8833553154542,2170
606.1878369309362,2150
608.4916876179676,2200
610.7949075929192,2190
613.0974970722403,2239
615.3994562724587,2264
617.7007854101818,2348
620.0014847020951,2288
622.3015543649641,2267
624.6009946156324,2331
626.8998056710224,2223
629.1979877481361,2274
631.4955410640538,2263
633.7924658359349,2190
636.0887622810175,2252
638.3844306166192,2253
640.6794710601358,2279
642.9738838290426,2238
645.2676691408932,2253
647.5608272133207,2342
649.853358264037,2328
652.1452625108324,2376
654.4365401715764,2321
656.7271914642178,2309
659.0172166067838,2355
661.3066158173809,2410
663.5953893141935,2311
665.8835373154867,2416
668.1710600396028,2368
670.4579577049639,2330
672.7442305300709,2261
675.0298787335033,2290
677.3149025339197,2317
679.599302150058,2321
681.8830778007342,2297
684.1662297048437,2263
686.4487580813608,2284
688.7306631493387,2244
691.0119451279091,2303
693.2926042362834,2362
695.5726406937516,2285
697.8520547196814,2344
700.1308465335215,2326
702.4090163547982,2350
704.6865644031171,2319
706.9634908981619,2353
709.2397960596965,2277
711.5154801075631,2295
713.7905432616823,2299
716.0649857420548,2275
718.3388077687592,2332
720.612009561953,2323
722.8845913418733,2353
725.1565533288352,2222
727.427895743234,2236
729.6986188055427,2335
731.9687227363137,2264
734.238207756178,2330
736.5070740858458,2289
738.7753219461066,2292
741.0429515578281,2323
743.3099631419569,2273
745.5763569195191,2264
747.8421331116193,2292
750.1072919394409,2295
752.3718336242467,2212
754.6357583873777,2318
756.8990664502545,2288
759.1617580343765,2276
761.423833361321,2246
763.6852926527457,2336
765.9461361303862,2280
768.206364016058,2300
770.4659765316536,2345
772.7249738991469,2295
774.9833563405886,2330
777.2411240781092,2287
779.4982773339183,2279
781.7548163303044,2296
784.010741289634,2321
786.2660524343538,2367
788.5207499869881,2333
790.7748341701416,2361
793.0283052064964,2301
795.2811633188143,2391
797.5334087299362,2258
799.7850416627813,2373
802.0360623403484,2360
804.2864709857143,2364
806.5362678220353,2372
808.7854530725468,2316
811.0340269605625,2313
813.2819897094754,2337
815.5293415427581,2406
817.77608268396,2295
820.0222133567116,2348
822.2677337847211,2380
824.5126441917765,2371
826.7569448017433,2355
829.0006358385675,2301
831.2437175262731,2385
833.4861900889629,2363
835.7280537508192,2317
837.9693087361026,2361
840.2099552691533,2292
842.4499935743896,2342
844.689423876309,2407
846.9282463994886,2394
849.1664613685833,2357
851.4040690083276,2377
853.6410695435349,2406
855.877463199097,2343
858.1132501999847,2318
860.3484307712487,2362
862.5830051380175,2408
864.8169735254988,2414
867.0503361589791,2466
869.2830932638243,2402
871.5152450654786,2501
873.7467917894654,2386
875.9777336613873,2475
878.2080709069252,2387
880.4378037518389,2416
882.666932421968,2429
884.8954571432301,2550
887.1233781416219,2483
889.3506956432192,2387
891.5774098741766,2431
893.803521060728,2371
896.0290294291852,2394
898.2539352059397,2423
900.4782386174619,2420
902.7019398903011,2386
904.925039251085,2393
907.147536926521,2460
909.3694331433943,2306
911.59072812857,2486
913.8114221089921,2424
916.0315153116827,2435
918.2510079637437,2454
920.4699002923547,2416
922.6881925247761,2410
924.905884888345,2392
927.1229776104793,2410
929.3394709186747,2378
931.555365040506,2343
933.7706602036275,2489
935.9853566357709,2357
938.1994545647489,2442
940.4129542184515,2473
942.6258558248488,2422
944.8381596119883,2448
947.0498658079974,2466
949.2609746410825,2490
951.4714863395287,2458
953.6814011316998,2483
955.8907192460387,2381
958.0994409110671,2512
960.3075663553858,2444
962.5150958076741,2399
964.7220294966913,2498
966.928367651274,2428
969.1341105003388,2316
971.3392582728806,2324
973.5438111979742,2377
975.747769504772,2316
977.9511334225061,2378
980.153903180487,2422
982.3560790081052,2479
984.5576611348289,2334
986.7586497902058,2307
988.9590452038618,2286
991.158847605503,2302
993.3580572249133,2301
995.5566742919558,2252
997.7546990365728,2299
999.952131688785,2153
1002.1489724786926,2128
1004.3452216364743,2105
1006.5408793923874,2092
1008.7359459767691,2092
1010.9304216200343,2089
1013.1243065526781,2061
1015.3176010052733,2095
1017.510305208472,2134
1019.7024193930064,2100
1021.8939437896848,2071
1024.0848786293977,2103
1026.2752241431122,2051
1028.4649805618747,2042
1030.6541481168115,2085
1032.842727039127,2103
1035.0307175601051,2066
1037.2181199111074,2001
1039.4049343235752,2105
1041.591161029029,2069
1043.7768002590683,2038
1045.9618522453698,2008
1048.1463172196918,2103
1050.3301954138697,2148
1052.513487059818,2028
1054.69619238953,2082
1056.8783116350783,1990
1059.0598450286152,2096
1061.2407928023704,2043
1063.4211551886528,2068
1065.6009324198508,2009
1067.780124728432,2021
1069.9587323469414,2031
1072.1367555080046,1948
1074.314194444325,2060
1076.4910493886855,2030
1078.667320573947,2035
1080.843008233051,2093
1083.0181125990161,2037
1085.1926339049414,1998
1087.3665723840027,1967
1089.5399282694575,2031
1091.7127017946405,2030
1093.8848931929647,1999
1096.0565026979243,2033
1098.2275305430899,1973
1100.3979769621128,1960
1102.567842188722,1946
1104.737126456726,1967
1106.9058300000124,1989
1109.0739530525475,1984
1111.2414958483764,1985
1113.4084586216231,1924
1115.5748416064907,1870
1117.7406450372605,1967
1119.9058691482942,1969
1122.0705141740304,2000
1124.2345803489884,2020
1126.3980679077658,1958
1128.5609770850388,1945
1130.7233081155623,1969
1132.8850612341707,1983
1135.0462366757774,1969
1137.2068346753745,1995
1139.3668554680326,1848
1141.526299288901,1954
1143.68516637321,1988
1145.8434569562655,1991
1148.001171273455,1958
1150.158309560244,1982
1152.3148720521767,2009
1154.470858984876,1933
1156.626270594044,1931
1158.7811071154629,1983
1160.9353687849912,1900
1163.089055838569,1957
1165.242168512213,1976
1167.3947070420209,1959
1169.5466716641677,1996
1171.6980626149075,1959
1173.8488801305748,2022
1175.9991244475814,2013
1178.1487958024186,1999
1180.2978944316555,1977
1182.4464205719428,1973
1184.5943744600072,1931
1186.7417563326567,1911
1188.8885664267755,1932
1191.0348049793297,1931
1193.1804722273619,1930
1195.325568407995,1947
1197.4700937584303,1935
1199.614048515948,1958
1201.7574329179074,1921
1203.900247201746,1907
1206.042491604982,1968
1208.1841663652099,1897
1210.3252717201053,1940
1212.465807907422,1886
1214.6057751649923,1992
1216.7451737307279,1930
1218.8840038426192,2051
1221.0222657387353,1942
1223.1599596572241,1993
1225.2970858363137,1947
1227.4336445143094,1994
1229.5696359295966,2048
1231.705060320639,2038
1233.8399179259786,2060
1235.9742089842384,1996
1238.107933734118,1980
1240.2410924143974,1951
1242.373685263935,2010
1244.5057125216676,2067
1246.6371744266116,1982
1248.7680712178621,1947
1250.898403134593,2014
1253.028170416058,2067
1255.1573733015875,2016
1257.2860120305932,2043
1259.4140868425648,2022
1261.54159797707,1981
1263.6685456737569,2035
1265.7949301723515,2075
1267.9207517126597,2043
1270.046010534565,2092
1272.1707068780306,2080
1274.2948409830983,2044
1276.4184130898889,2067
1278.541423438603,2093
1280.6638722695184,2092
1282.785759822993,2067
1284.9070863394636,2099
1287.0278520594447,2093
1289.1480572235314,2136
1291.2677020723963,2149
1293.3867868467923,2117
1295.5053117875495,2154
1297.623277135579,2203
1299.740683131868,2211
1301.8575300174857,2191
1303.973818033578,2310
1306.0895474213703,2239
1308.2047184221678,2238
1310.3193312773528,2328
1312.4333862283888,2236
1314.5468835168163,2189
1316.659823384255,2266
1318.7722060724045,2253
1320.8840318230418,2237
1322.9953008780249,2212
1325.1060134792888,2297
1327.2161698688478,2280
1329.3257702887959,2289
1331.4348149813054,2304
1333.5433041886276,2255
1335.6512381530933,2229
1337.7586171171101,2227
1339.8654413231675,2233
1341.9717110138317,2193
1344.0774264317488,2277
1346.1825878196432,2207
1348.2871954203192,2190
1350.3912494766587,2244
1352.4947502316231,2229
1354.5976979282532,2248
1356.7000928096686,2245
1358.8019351190665,2242
1360.9032250997243,2169
1363.0039629949988,2163
1365.1041490483235,2203
1367.2037835032133,2099
1369.3028666032606,2147
1371.401398592137,2151
1373.4993797135926,2219
1375.5968102114575,2218
1377.6936903296396,2216
1379.7900203121262,2122
1381.8858004029835,2128
1383.9810308463561,2223
1386.075711886469,2161
1388.1698437676241,2195
1390.2634267342032,2175
1392.356461030667,2224
1394.4489469015557,2222
1396.5408845914872,2185
1398.6322743451592,2200
1400.7231164073469,2218
1402.813411022907,2228
1404.903158436773,2310
1406.9923588939578,2397
1409.0810126395531,2322
1411.1691199187303,2232
1413.2566809767386,2321
1415.343696058907,2318
1417.4301654106425,2313
1419.5160892774315,2379
1421.6014679048399,2391
1423.6863015385125,2329
1425.7705904241707,2376
1427.8543348076178,2315
1429.9375349347342,2324
1432.0201910514802,2467
1434.102303403894,2444
1436.1838722380944,2449
1438.2648978002767,2466
1440.3453803367174,2486
1442.4253200937692,2556
1444.5047173178677,2652
1446.5835722555234,2575
1448.6618851533285,2683
1450.739656257952,2654
1452.8168858161434,2695
1454.8935740747306,2612
1456.96972128062,2803
1459.045327680797,2845
1461.120393522327,2880
1463.1949190523528,2897
1465.2689045180973,2922
1467.3423501668608,2905
1469.415256246024,3031
1471.4876230030463,3016
1473.559450685465,3095
1475.6307395408976,3134
1477.7014898170391,3127
1479.771701761665,3232
1481.8413756226287,3208
1483.9105116478618,3233
1485.9791100853772,3353
1488.0471711832643,3316
1490.1146951896926,3331
1492.1816823529098,3404
1494.2481329212433,3501
1496.3140471430984,3453
1498.3794252669609,3434
1500.4442675413939,3554
1502.5085742150404,3596
1504.572345536622,3601
1506.6355817549388,3657
1508.6982831188702,3609
1510.7604498773744,3724
1512.8220822794883,3684
1514.8831805743293,3724
1516.9437450110909,3800
1519.003775839048,3824
1521.0632733075522,3794
1523.1222376660367,3833
1525.1806691640113,3879
1527.2385680510652,3815
1529.2959345768668,3985
1531.3527689911643,4102
1533.4090715437833,4108
1535.4648424846291,4130
1537.5200820636855,4088
1539.5747905310159,4278
1541.6289681367616,4301
1543.6826151311434,4286
1545.7357317644614,4465
1547.7883182870937,4371
1549.8403749494987,4497
1551.8919020022113,4623
1553.9428996958477,4714
1555.9933682811015,4664
1558.0433080087469,4811
1560.0927191296346,4773
1562.1416018946961,4771
1564.1899565549415,4797
1566.2377833614592,4713
1568.2850825654164,4588
1570.3318544180606,4532
1572.3780991707158,4385
1574.423817074788,4311
1576.4690083817595,4189
1578.5136733431923,3886
1580.5578122107272,3896
1582.601425236085,3625
1584.6445126710646,3527
1586.6870747675434,3476
1588.7291117774776,3266
1590.7706239529034,3191
1592.8116115459347,3131
1594.8520748087658,2995
1596.8920139936686,2977
1598.9314293529933,2865
1600.9703211391711,2811
1603.008689604711,2665
1605.0465350022005,2679
1607.0838575843068,2622
1609.1206576037753,2558
1611.1569353134305,2586
1613.1926909661765,2439
1615.2279248149953,2537
1617.2626371129481,2404
1619.2968281131757,2414
1621.3304980688963,2434
1623.3636472334088,2358
1625.39627586009,2397
1627.428384202396,2306
1629.459972513861,2327
1631.4910410480993,2227
1633.5215900588028,2285
1635.551619799744,2261
1637.5811305247717,2253
1639.6101224878166,2216
1641.6385959428862,2202
1643.6665511440683,2185
1645.693988345528,2217
1647.7209078015112,2199
1649.7473097663405,2144
1651.7731944944203,2181
1653.7985622402307,2143
1655.823413258333,2129
1657.847747803366,2143
1659.8715661300494,2118
1661.8948684931793,2167
1663.9176551476316,2164
1665.9399263483624,2153
1667.9616823504057,2154
1669.982923408873,2108
1672.0036497789574,2094
1674.0238617159293,2096
1676.043559475138,2100
1678.0627433120121,2040
1680.081413482059,2176
1682.0995702408654,2139
1684.117213844096,2092
1686.134344547495,2086
1688.1509626068864,2053
1690.1670682781705,2141
1692.182661817329,2105
1694.1977434804217,2030
1696.2123135235875,2056
1698.226372203043,2124
1700.2399197750851,2128
1702.2529564960905,2037
1704.2654826225112,2065
1706.277498410882,2073
1708.2890041178139,2072
1710.2999999999988,2097
1712.3104863142066,2060
1714.3204633172854,2017
1716.329931266163,2059
1718.3388904178469,2047
1720.3473410294214,2058
1722.3552833580516,2010
1724.3627176609807,2055
1726.3696441955308,2042
1728.3760632191033,2108
1730.3819749891782,2030
1732.3873797633146,2079
1734.3922777991502,1984
1736.3966693544012,1967
1738.4005546868639,2054
1740.4039340544127,2003
1742.406807715001,1969
1744.4091759266616,1945
1746.4110389475054,2021
1748.4123970357223,1941
1750.413250449582,2017
1752.4135994474318,1967
1754.4134442876993,1984
1756.4127852288902,2029
1758.4116225295893,1962
1760.4099564484595,1954
1762.407787244244,1957
1764.405115175764,1888
1766.4019405019203,2003
1768.3982634816916,1979
1770.3940843741357,1995
1772.3894034383907,1992
1774.3842209336717,1952
1776.378537119274,1848
1778.372352254571,1955
1780.3656665990156,1940
1782.3584804121397,1968
1784.3507939535534,1892
1786.3426074829463,1915
1788.3339212600863,1954
1790.3247355448211,1888
1792.3150505970766,1959
1794.3048666768573,1856
1796.2941840442477,1939
1798.2830029594106,1916
1800.2713236825884,1946
1802.2591464741004,1876
1804.2464715943465,1827
1806.2332993038058,1902
1808.2196298630352,1929
1810.2054635326708,1940
1812.190800573428,1922
1814.175641246101,1960
1816.1599858115628,1884
1818.1438345307652,1943
1820.127187664738,1975
1822.1100454745924,1975
1824.092408221516,1922
1826.0742761667766,1924
1828.055649571721,1948
1830.0365286977735,1933
1832.0169138064398,1942
1833.9968051593014,1923
1835.9762030180214,1976
1837.9551076443408,1921
1839.9335193000788,1974
1841.9114382471344,1962
1843.888864747485,1923
1845.8657990631878,1894
1847.842241456378,1918
1849.8181921892697,1854
1851.7936515241558,1897
1853.7686197234098,1889
1855.7430970494815,1776
1857.7170837649014,1912
1859.6905801322787,1955
1861.6635864143004,1880
1863.6361028737338,1880
1865.608129773424,1880
1867.5796673762961,1914
1869.5507159453537,1919
1871.521275743678,1866
1873.4913470344313,1955
1875.4609300808534,1979
1877.4300251462632,1970
1879.3986324940588,1855
1881.366752387717,1881
1883.3343850907936,1895
1885.3015308669228,1958
1887.268189979819,1952
1889.2343626932739,2008
1891.2000492711595,1913
1893.1652499774254,1914
1895.1299650761011,1907
1897.0941948312952,2015
1899.0579395071945,1948
1901.0211993680641,1947
1902.98397467825,1935
1904.9462657021745,1986
1906.9080727043415,1964
1908.869395949332,1987
1910.8302357018065,1941
1912.790592226504,1952
1914.7504657882428,1988
1916.7098566519212,1868
1918.6687650825133,2004
1920.6271913450764,1954
1922.5851357047422,1927
1924.5425984267245,1960
1926.499579776314,1962
1928.4560800188833,1944
1930.4120994198802,1958
1932.367638244833,1949
1934.32269675935,2018
1936.2772752291175,1957
1938.231373919899,1934
1940.1849930975404,1998
1942.1381330279637,1895
1944.0907939771696,1891
1946.0429762112412,1906
1947.9946799963363,1880
1949.9459055986945,1959
1951.896653284633,1911
1953.8469233205478,1901
1955.7967159729142,1901
1957.7460315082863,1930
1959.6948701932974,1909
1961.6432322946594,1884
1963.5911180791632,1854
1965.5385278136787,1957
1967.4854617651545,1961
1969.4319202006182,2008
1971.377903387176,1882
1973.3234115920136,1937
1975.268445082395,1883
1977.2130041256642,1975
1979.1570889892423,1911
1981.1006999406304,1943
1983.04383724741,1926
1984.986501177238,1864
1986.928691997853,1925
1988.8704099770712,1929
1990.811655382789,1894
1992.7524284829801,1910
1994.692729545698,1878
1996.6325588390755,1909
1998.5719166313224,1844
2000.5108031907307,1915
2002.4492187856677,1861
2004.387163684583,1950
2006.3246381560011,1932
2008.2616424685298,1870
2010.1981768908527,1837
2012.1342416917332,1878
2014.069837140014,1950
2016.0049635046162,1888
2017.9396210545406,1887
2019.8738100588666,1951
2021.8075307867502,1896
2023.740783507431,1891
2025.6735684902228,1911
2027.6058860045214,1904
2029.5377363198004,1916
2031.4691197056118,1925
2033.4000364315875,1895
2035.3304867674374,1867
2037.260470982952,1970
2039.189989347998,1867
2041.1190421325232,1840
2043.047629606554,1880
2044.9757520401945,1921
2046.9034097036288,1905
2048.8306028671195,1849
2050.7573318010086,1867
2052.683596775716,1866
2054.609398061742,1877
2056.5347359296647,1864
2058.4596106501403,1978
2060.384022493906,1879
2062.3079717317764,1911
2064.231458634646,1889
2066.1544834734873,1862
2068.077046519352,1855
2069.99914804337,1817
2071.9207883167524,1948
2073.8419676107865,1909
2075.7626861968406,1861
2077.6829443463607,1863
2079.6027423308715,1854
2081.522080421977,1992
2083.440958891362,1916
2085.359378010786,1879
2087.2773380520907,1867
2089.194839287196,1877
2091.111881988101,1916
2093.0284664268825,1945
2094.9445928756973,1955
2096.86026160678,1879
2098.775472892446,1858
2100.690227005088,1932
2102.604524217178,1890
2104.5183648012676,1878
2106.431749029985,1870
2108.34467717604,1894
2110.2571495122206,1897
2112.169166311393,1943
2114.080727846503,1907
2115.9918343905747,1909
2117.902486216711,1886
2119.8126835980956,1935
2121.722426807987,1920
2123.6317161197285,1859
2125.5405518067364,1897
2127.448934142509,1936
2129.356863400624,1925
2131.264339854737,1928
2133.1713637785815,1970
2135.077935445972,1887
2136.9840551308002,1940
2138.889723107037,1953
2140.7949396487334,1883
2142.699705030018,1933
2144.6040195250994,1915
2146.507883408264,1936
2148.4112969538774,1983
2150.3142604363848,1880
2152.2167741303097,1887
2154.1188383102535,1912
2156.0204532508997,1906
2157.9216192270064,1931
2159.822336513414,1940
2161.7226053850413,1968
2163.622426116884,1908
2165.5217989840185,1928
2167.4207242616,1891
2169.319202224862,1981
2171.2172331491165,1920
2173.1148173097563,2006
2175.0119549822507,2011
2176.90864644215,1956
2178.8048919650823,1966
2180.7006918267534,2030
2182.596046302952,2013
2184.4909556695407,1938
2186.3854202024645,1973
2188.279440177746,1988
2190.173015871487,1999
2192.066147559868,2094
2193.958835519149,1946
2195.851080025667,2028
2197.7428813558417,1974
2199.6342397861667,1883
2201.5251555932186,1964
2203.415629053651,1932
2205.3056604441986,1992
2207.19525004167,2040
2209.084398122958,2051
2210.9731049650327,1998
2212.861370844941,1969
2214.749196039812,1995
2216.636580826851,2046
2218.523525483344,2037
2220.410030286655,2030
2222.296095514226,1991
2224.1817214435805,2008
2226.066908352319,1971
2227.951656518121,2017
2229.835966218746,2001
2231.71983773203,1946
2233.6032713358913,2021
2235.486267308324,2002
2237.3688259274036,2065
2239.2509474712824,1994
2241.132632218193,2045
2243.013880446447,1963
2244.8946924344323,1988
2246.7750684606203,2028
2248.6550088035574,1988
2250.534513741871,1957
2252.413583554265,1957
2254.292218519526,1996
2256.170418916517,1970
2258.0481850241786,2036
2259.925517121534,1954
2261.8024154876825,2070
2263.678880401803,1997
2265.5549121431536,1965
2267.430510991071,1946
2269.305677224971,1982
2271.180411124348,2034
2273.0547129687766,2034
2274.9285830379076,1982
2276.8020216114737,2005
2278.6750289692845,1971
2280.5476053912294,2014
2282.4197511572766,2052
2284.2914665474727,1979
2286.162751841943,2023
2288.0336073208937,2013
2289.904033264608,2034
2291.774029953448,2018
2293.6435976678554,2037
2295.5127366883517,1999
2297.381447295534,2009
2299.2497297700825,1918
2301.1175843927526,1903
2302.9850114443825,1880
2304.852011205885,1819
2306.7185839582553,1876
2308.5847299825664,1929
2310.4504495599676,1931
2312.3157429716925,1904
2314.1806104990483,1817
2316.0450524234247,1807
2317.9090690262888,1817
2319.772660589186,1867
2321.635827393742,1850
2323.498569721661,1918
2325.3608878547248,1900
2327.2227820747967,1843
2329.0842526638157,1896
2330.945299903803,1820
2332.805924076857,1852
2334.6661254651535,1876
2336.525904350951,1794
2338.3852610165827,1869
2340.244195744464,1863
2342.102708817088,1952
2343.9608005170253,1817
2345.8184711269287,1874
2347.675720929526,1869
2349.532550207628,1866
2351.38895924412,1895
2353.24494832197,1921
2355.100517724223,1877
2356.955667734004,1867
2358.810398634514,1791
2360.664710709037,1846
2362.5186042409337,1891
2364.3720795136437,1843
2366.225136810686,1859
2368.0777764156583,1873
2369.929998612237,1870
2371.7818036841777,1907
2373.633191915315,1860
2375.484163589562,1889
2377.3347189909114,1896
2379.184858403434,1925
2381.03458211128,1853
2382.8838903986775,1823
2384.732783549936,1918
2386.5812618494406,1838
2388.4293255816588,1831
2390.2769750311327,1873
2392.1242104824883,1942
2393.971032220427,1917
2395.8174405297295,1895
2397.6634356952563,1861
2399.509018001947,1877
2401.3541877348193,1830
2403.1989451789705,1876
2405.043290619576,1833
2406.8872243418905,1794
2408.730746631247,1848
2410.5738577730594,1882
2412.4165580528183,1920
2414.258847756095,1859
2416.100727168537,1955
2417.9421965758734,1857
2419.783256263912,1957
2421.623906518538,1920
2423.4641476257157,1904
2425.303979871491,1887
2427.143403541984,1825
2428.9824189233977,1906
2430.821026302012,1908
2432.6592259641866,1889
2434.497018196361,1911
2436.33440328505,1929
2438.171381516851,1853
2440.00795317844,1940
2441.844118556569,1959
2443.6798779380724,1943
2445.5152316098606,1883
2447.3501798589255,1882
2449.1847229723357,1903
2451.0188612372403,1921
2452.8525949408663,1918
2454.6859243705203,1878
2456.518849813587,1971
2458.3513715575314,1945
2460.183489889895,1905
2462.015205098301,1926
2463.8465174704493,1925
2465.67742729412,1931
2467.5079348571717,1896
2469.338040447542,1978
2471.1677443532476,1941
2472.9970468623833,1941
2474.825948263123,1949
2476.6544488437207,1901
2478.482548892508,2000
2480.310248697896,1929
2482.137548548374,1915
2483.9644487325118,1947
2485.790949538956,1909
2487.617051256433,1954
2489.44275417375,1962
2491.26805857979,1915
2493.0929647635157,2018
2494.917473013971,1990
2496.741583620276,1999
2498.5652968716304,1978
2500.3886130573137,1956
2502.2115324666834,2005
2504.0340553891765,1969
2505.856182114308,1938
2507.6779129316733,2004
2509.499248130945,1999
2511.3201880018764,2030
2513.140732834298,1956
2514.9608829181198,2037
2516.780638543331,2056
2518.6,2015
2520.418967578273,2025
2522.237541568376,2053
2524.0557222606144,2043
2525.8735099453706,2026
2527.6909049131086,2033
2529.507907454368,2016
2531.32451785977,2062
2533.140736420014,2033
2534.9565634258774,2105
2536.771999168218,2088
2538.5870439379714,2096
2540.4016980261526,2115
2542.2159617238544,2152
2544.02983532225,2106
2545.8433191125914,2153
2547.656413386209,2109
2549.4691184345115,2155
2551.2814345489874,2170
2553.093362021204,2188
2554.904901142808,2197
2556.716052205523,2198
2558.526815501153,2189
2560.3371913215824,2240
2562.147179958771,2286
2563.956781704761,2227
2565.7659968516705,2226
2567.5748256916986,2204
2569.3832685171224,2265
2571.1913256202984,2258
2572.9989972936614,2284
2574.806283829725,2329
2576.613185521084,2274
2578.4197026604074,2250
2580.2258355404483,2258
2582.031584454035,2261
2583.836949694077,2293
2585.6419315535613,2316
2587.4465303255533,2341
2589.2507463032002,2241
2591.0545797797245,2282
2592.8580310484303,2260
2594.6611004026995,2310
2596.463788135992,2335
2598.266094541849,2254
2600.0680199138874,2333
2601.869564545807,2326
2603.670728731383,2279
2605.4715127644704,2329
2607.2719169390048,2351
2609.071941548998,2313
2610.8715868885433,2289
2612.670853251811,2364
2614.469740933052,2398
2616.268250226594,2291
2618.0663814268455,2319
2619.864134828292,2310
2621.6615107255006,2249
2623.458509413115,2232
2625.2551311858597,2342
2627.0513763385347,2254
2628.8472451660223,2215
2630.6427379632833,2220
2632.4378550253564,2216
2634.232596647359,2213
2636.026963124488,2232
2637.8209547520187,2110
2639.6145718253065,2191
2641.407814639785,2160
2643.200683490966,2147
2644.9931786744414,2167
2646.7853004858807,2178
2648.577049221034,2172
2650.3684251757277,2154
2652.1594286458712,2155
2653.9500599274484,2187
2655.740319316525,2117
2657.5302071092437,2045
2659.3197236018286,1986
2661.10886909058,2052
2662.8976438718782,2145
2664.686048242183,2111
2666.4740824980327,2027
2668.2617469360443,2084
2670.0490418529134,2101
2671.8359675454153,2021
2673.622524310403,2045
2675.408712444811,2023
2677.1945322456495,2023
2678.979984010009,2022
2680.76506803506,2001
2682.5497846180497,1906
2684.334134056306,2013
2686.1181166472343,1976
2687.9017326883213,2000
2689.6849824771293,2015
2691.4678663113013,1943
2693.2503844885596,2032
2695.032537306705,2008
2696.8143250636167,1966
2698.5957480572542,1891
2700.3768065856534,1907
2702.1575009469316,1934
2703.937831439283,1932
2705.717798360982,1917
2707.4974020103837,1954
2709.276642685917,1962
2711.055520686095,1901
2712.834036309506,1905
2714.612189854819,1986
2716.389981620782,1971
2718.1674119062204,1865
2719.944481010041,1865
2721.721189231226,1985
2723.4975368688415,1906
2725.273524222027,1857
2727.0491515900053,1889
2728.824419272075,1907
2730.5993275676146,1909
2732.3738767760838,1910
2734.148067197016,1908
2735.921899130031,1838
2737.6953728748194,1845
2739.468488731156,1838
2741.2412469988926,1805
2743.0136479779617,1857
2744.785691968372,1900
2746.5573792702116,1859
2748.3287101836504,1892
2750.099685008934,1902
2751.870304046388,1925
2753.640567596418,1848
2755.4104759595057,1861
2757.1800294362156,1862
2758.949228327187,1880
2760.7180729331412,1837
2762.486563554877,1889
2764.254700493272,1881
2766.022484049284,1815
2767.789914523947,1783
2769.5569922183786,1851
2771.3237174337705,1896
2773.090090471394,1800
2774.8561116326036,1911
2776.6217812188274,1870
2778.3870995315756,1879
2780.1520668724356,1900
2781.9166835430747,1847
2783.6809498452394,1886
2785.444866080754,1819
2787.2084325515225,1851
2788.971649559527,1845
2790.73451740683,1796
2792.4970363955713,1839
2794.2592068279705,1821
2796.0210290063264,1831
2797.7825032330147,1830
2799.543629810493,1852
2801.304409041296,1840
2803.0648412280366,1827
2804.8249266734088,1901
2806.5846656801846,1900
2808.344058551212,1901
2810.1031055894246,1858
2811.8618070978273,1847
2813.6201633795085,1860
2815.378174737636,1799
2817.1358414754536,1853
2818.893163896285,1848
2820.6501423035334,1894
2822.4067770006814,1836
2824.1630682912883,1884
2825.9190164789957,1867
2827.6746218675207,1879
2829.429884760661,1920
2831.184805462294,1846
2832.9393842763743,1870
2834.693621506936,1889
2836.4475174580916,1879
2838.201072434034,1889
2839.954286739034,1896
2841.707160677441,1859
2843.459694553685,1893
2845.2118886722724,1879
2846.96374333779,1873
2848.7152588549034,1843
2850.4664355283567,1876
2852.217273662973,1880
2853.9677735636546,1894
2855.7179355353833,1858
2857.4677598832186,1848
2859.217246912299,1892
2860.9663969278427,1909
2862.715210235146,1904
2864.4636871395846,1909
2866.211827946614,1862
2867.9596329617652,1842
2869.7071024906536,1850
2871.4542368389684,1812
2873.20103631248,1850
2874.947501217038,1811
2876.6936318585695,1891
2878.4394285430812,1821
2880.1848915766604,1857
2881.9300212654707,1861
2883.6748179157553,1825
2885.4192818338374,1866
2887.1634133261173,1875
2888.907212699077,1836
2890.6506802592744,1915
2892.393816313348,1848
2894.1366211680142,1845
2895.8790951300693,1890
2897.621238506388,1931
2899.363051603925,1831
2901.1045347297118,1861
2902.8456881908596,1825
2904.58651229456,1847
2906.327007348081,1867
2908.067173658772,1807
2909.8070115340597,1823
2911.5465212814497,1848
2913.285703208527,1907
2915.0245576229563,1915
2916.7630848324807,1883
2918.5012851449196,1801
2920.2391588681758,1829
2921.976706310227,1750
2923.7139277791334,1868
2925.4508235830313,1905
2927.187394030137,1854
2928.923639428745,1942
2930.6595600872306,1878
2932.395156314046,1803
2934.1304284177218,1878
2935.8653767068713,1925
2937.6000014901815,1910
2939.3343030764227,1914
2941.068281774442,1888
2942.8019378931644,1864
2944.5352717415976,1865
2946.2682836288236,1814
2948.0009738640065,1876
2949.7333427563885,1900
2951.465390615289,1854
2953.1971177501086,1867
2954.9285244703265,1860
2956.6596110855,1862
2958.3903779052657,1893
2960.1208252393385,1825
2961.8509533975125,1868
2963.5807626896617,1772
2965.3102534257378,1871
2967.0394259157715,1878
2968.768280469873,1838
2970.496817398232,1909
2972.2250370111146,1827
2973.952939618869,1804
2975.6805255319196,1861
2977.4077950607707,1851
2979.134748516006,1891
2980.861386208289,1896
2982.587708448359,1832
2984.313715547037,1821
2986.039407815222,1910
2987.764785563891,1860
2989.489849104102,1833
2991.2145987469908,1922
2992.9390348037705,1888
2994.6631575857346,1860
2996.3869674042576,1921
2998.1104645707887,1874
2999.83364939686,1826
3001.5565221940783,1859
3003.2790832741334,1777
3005.0013329487924,1867
3006.7232715298996,1829
3008.4448993293804,1833
3010.166216659239,1905
3011.887223831558,1887
3013.607921158498,1869
3015.3283089522993,1864
3017.0483875252826,1899
3018.7681571898443,1843
3020.4876182584626,1838
3022.2067710436927,1844
3023.9256158581707,1820
3025.644153014609,1873
3027.362382825801,1815
3029.0803056046193,1744
3030.797921664012,1893
3032.5152313170106,1876
3034.2322348767225,1898
3035.9489326563353,1801
3037.665324969115,1802
3039.3814121284063,1897
3041.097194447633,1836
3042.812672240299,1845
3044.5278458199855,1916
3046.2427155003525,1903
3047.9572815951406,1879
3049.671544418167,1884
3051.38550428333,1871
3053.0991615046073,1881
3054.812516396051,1810
3056.5255692717974,1821
3058.2383204460575,1873
3059.9507702331257,1903
3061.662918947372,1853
3063.3747669032446,1917
3065.0863144152736,1859
3066.7975617980674,1870
3068.508509366309,1853
3070.219157434767,1866
3071.9295063182844,1888
3073.639556331785,1823
3075.3493077902704,1871
3077.058761008821,1818
3078.7679163025964,1914
3080.476773986837,1934
3082.1853343768594,1876
3083.89359778806,1828
3085.6015645359153,1884
3087.3092349359786,1931
3089.016609303884,1832
3090.7236879553434,1896
3092.4304712061476,1898
3094.136959372166,1946
3095.843152769349,1859
3097.5490517137237,1882
3099.2546565213966,1852
3100.959967508554,1856
3102.66498499146,1982
3104.3697092864577,1936
3106.0741407099695,1859
3107.778279578498,1899
3109.482126208622,1895
3111.1856809170004,1881
3112.8889440203716,1871
3114.5919158355528,1898
3116.294596679439,1872
3117.996986869006,1894
3119.6990867213062,1867
3121.4008965534726,1895
3123.102416682717,1898
3124.803647426329,1928
3126.5045891016784,1941
3128.205242026213,1930
3129.90560651746,1913
3131.605682893025,1874
3133.3054714705922,1957
3135.0049725679282,1933
3136.7041865028714,1897
3138.4031135933465,1879
3140.101754157353,1884
3141.800108512971,1927
3143.498176978357,1863
3145.1959598717494,1848
3146.8934575114636,1823
3148.5906702158954,1893
3150.2875983035183,1911
3151.9842420928853,1823
3153.680601902627,1846
3155.376678051456,1897
3157.07247085816,1881
3158.767980641609,1827
3160.463207720748,1814
3162.158152414606,1812
3163.8528150422862,1920
3165.5471959229726,1867
3167.2412953759303,1874
3168.9351137204976,1864
3170.628651276098,1918
3172.3219083622307,1871
3174.014885298474,1874
3175.707582404485,1872
3177.4000000000005,1954
3179.092138404835,1935
3180.7839979388846,1824
3182.47557892212,1913
3184.166881674594,1895
3185.8579065164386,1820
3187.5486537678626,1917
3189.2391237491547,1860
3190.9293167806827,1846
3192.6192331828934,1815
3194.3088732763117,1883
3195.998237381542,1870
3197.687325819268,1875
3199.376138910251,1864
3201.064676975334,1825
3202.7529403354347,1851
3204.4409293115523,1831
3206.1286442247647,1835
3207.816085396229,1867
3209.5032531471825,1794
3211.190147798936,1877
3212.8767696728846,1824
3214.5631190905015,1806
3216.2491963733373,1778
3217.9350018430214,1910
3219.6205358212637,1822
3221.305798629851,1867
3222.990790590651,1807
3224.6755120256103,1797
3226.359963256751,1854
3228.0441446061795,1847
3229.7280563960758,1848
3231.411698948703,1893
3233.0950725863995,1904
3234.778177631587,1840
3236.461014406761,1847
3238.1435832345005,1854
3239.8258844374595,1952
3241.507918338374,1882
3243.1896852600576,1812
3244.8711855254023,1919
3246.552419457381,1861
3248.233387379042,1851
3249.914089613516,1855
3251.59452648401,1917
3253.274698313813,1830
3254.95460542629,1819
3256.6342481448855,1846
3258.313626793125,1841
3259.9927416946084,1848
3261.6715931730196,1783
3263.3501815521176,1883
3265.0285071557437,1777
3266.706570307815,1881
3268.3843713323286,1788
3270.0619105533615,1806
3271.739188295068,1900
3273.4162048816834,1838
3275.0929606375184,1942
3276.769455886966,1836
3278.445690954498,1806
3280.1216661646613,1873
3281.797381842087,1852
3283.4728383114807,1851
3285.1480358976296,1863
3286.8229749253996,1806
3288.4976557197333,1861
3290.172078605655,1802
3291.846243908266,1842
3293.5201519527463,1824
3295.193803064357,1783
3296.8671975684374,1791
3298.5403357904024,1850
3300.21321805575,1783
3301.8858446900567,1837
3303.558216018975,1851
3305.23033236824,1834
3306.9021940636603,1876
3308.57380143113,1831
3310.2451547966184,1843
3311.916254486174,1861
3313.5871008259246,1898
3315.2576941420766,1866
3316.9280347609147,1834
3318.5981230088046,1824
3320.2679592121895,1866
3321.9375436975924,1873
3323.606876791612,1861
3325.27595882093,1831
3326.944790112305,1875
3328.6133709925753,1841
3330.2817017886573,1802
3331.949782827547,1860
3333.617614436319,1851
3335.2851969421245,1869
3336.952530672199,1837
3338.619615953853,1877
3340.286453114475,1854
3341.9530424815357,1864
3343.619384382583,1913
3345.2854791452437,1900
3346.951327097224,1831
3348.6169285663073,1921
3350.2822838803577,1900
3351.947393367319,1877
3353.61225735521,1864
3355.2768761721345,1872
3356.9412501462693,1832
3358.605379605873,1867
3360.2692648792827,1868
3361.9329062949146,1875
3363.596304181263,1847
