CollectionTime,9/19/2024 11:26:15 AM
ExposureUsed,3
CalibratedSpectrum
-962.7078968117929,718
-959.9714848408522,777
-957.2358232597828,807
-954.5009119013725,825
-951.7667505983302,834
-949.0333391832855,812
-946.3006774887896,781
-943.5687653473143,778
-940.837602591253,750
-938.1071890529199,805
-935.3775245645503,832
-932.6486089583007,760
-929.9204420662485,769
-927.1930237203925,801
-924.4663537526524,799
-921.7404319948689,810
-919.0152582788041,797
-916.2908324361409,807
-913.5671542984834,804
-910.8442236973568,792
-908.1220404642074,771
-905.4006044304027,743
-902.679915427231,795
-899.959973285902,773
-897.2407778375464,767
-894.5223289132158,773
-891.8046263438832,791
-889.0876699604426,797
-886.3714595937089,805
-883.6559950744183,770
-880.9412762332282,774
-878.2273029007168,771
-875.5140749073835,767
-872.8015920836489,738
-870.0898542598545,758
-867.3788612662631,720
-864.6686129330585,717
-861.9591090903457,784
-859.2503495681506,785
-856.5423341964203,755
-853.8350628050229,781
-851.1285352237478,781
-848.4227512823054,761
-845.7177108103272,808
-843.0134136373656,790
-840.3098595928943,768
-837.6070485063082,773
-834.9049802069229,784
-832.2036545239757,787
-829.5030712866244,788
-826.8032303239481,762
-824.1041314649472,760
-821.4057745385428,793
-818.7081593735775,779
-816.0112857988148,770
-813.3151536429393,770
-810.6197627345566,793
-807.9251129021936,758
-805.2312039742981,761
-802.5380357792392,760
-799.8456081453069,777
-797.1539209007124,800
-794.462973873588,791
-791.772766891987,833
-789.083299783884,840
-786.3945723771743,772
-783.7065844996748,805
-781.0193359791231,810
-778.3328266431781,784
-775.6470563194197,764
-772.9620248353489,816
-770.2777320183878,838
-767.5941776958798,809
-764.9113616950891,828
-762.2292838432011,812
-759.5479439673222,775
-756.8673418944801,793
-754.1874774516235,823
-751.5083504656222,808
-748.8299607632671,834
-746.15230817127,850
-743.475392516264,833
-740.7992136248035,835
-738.1237713233636,835
-735.4490654383407,856
-732.7750957960521,832
-730.1018622227365,821
-727.4293645445534,801
-724.7576025875837,815
-722.0865761778291,851
-719.4162851412126,866
-716.7467293035781,859
-714.0779084906909,857
-711.409822528237,897
-708.7424712418238,881
-706.0758544569796,827
-703.4099719991541,885
-700.7448236937178,905
-698.0804093659622,869
-695.4167288411002,858
-692.7537819442656,917
-690.0915685005134,917
-687.4300883348199,892
-684.7693412720819,897
-682.1093271371178,886
-679.4500457546669,886
-676.7914969493897,878
-674.1336805458676,886
-671.4765963686034,881
-668.8202442420206,832
-666.1646239904642,876
-663.5097354382001,892
-660.8555784094151,891
-658.2021527282176,917
-655.5494582186366,883
-652.8974947046223,923
-650.2462620100463,890
-647.5957599587009,918
-644.9459883742998,917
-642.2969470804776,933
-639.6486359007902,955
-637.0010546587141,944
-634.3542031776476,949
-631.7080812809096,985
-629.0626887917401,911
-626.4180255333008,922
-623.7740913286734,929
-621.1308860008619,967
-618.4884093727904,928
-615.8466612673046,945
-613.2056415071715,899
-610.5653499150785,886
-607.9257863136347,982
-605.28695052537,957
-602.6488423727357,959
-600.0114616781036,925
-597.3748082637674,908
-594.7388819519412,968
-592.1036825647604,968
-589.4692099242818,957
-586.8354638524829,931
-584.2024441712624,976
-581.5701507024403,961
-578.9385832677575,979
-576.3077416888759,957
-573.6776257873787,944
-571.0482353847704,1046
-568.4195703024757,1011
-565.7916303618415,948
-563.164415384135,941
-560.5379251905453,947
-557.9121596021815,932
-555.2871184400748,1005
-552.6628015251767,991
-550.0392086783606,992
-547.4163397204204,990
-544.794194472071,1088
-542.1727727539491,1062
-539.5520743866118,1048
-536.9320991905377,1046
-534.3128469861261,1050
-531.6943175936979,1066
-529.0765108334947,1096
-526.4594265256793,1165
-523.8430644903358,1336
-521.2274245474689,1506
-518.612506517005,1538
-515.9983102187913,1572
-513.3848354725959,1635
-510.77208209810846,1720
-508.16004991493924,1695
-505.5487387426199,1742
-502.9381484006032,1808
-500.3282787082628,1782
-497.71912948489364,1677
-495.1107005497117,1519
-492.5029917218539,1376
-489.8960028203786,1247
-487.28973366426493,1196
-484.68418407241325,1245
-482.07935386364494,1113
-479.47524285670266,1104
-476.87185087025,1148
-474.2691777228715,1143
-471.66722323307334,1138
-469.0659872192821,1168
-466.4654694998459,1187
-463.86566989303384,1179
-461.26658821703614,1148
-458.66822428996414,1089
-456.07057792985,1101
-453.4736489546475,1098
-450.877437182231,1134
-448.28194243039627,1092
-445.68716451686,1154
-443.09310325926003,1123
-440.49975847515555,1100
-437.9071299820263,1118
-435.31521759727354,1136
-432.72402113821954,1189
-430.13354042210767,1155
-427.5437752661022,1144
-424.95472548728867,1153
-422.36639090267386,1142
-419.7787713291855,1204
-417.1918665836721,1221
-414.60567648290385,1222
-412.0202008435715,1205
-409.4354394822874,1192
-406.8513922155845,1203
-404.26805885991723,1259
-401.685439231661,1242
-399.103533147112,1257
-396.522340422488,1227
-393.9418608739278,1161
-391.3620943174908,1179
-388.7830405691583,1126
-386.2046994448317,1088
-383.6270707603344,1051
-381.05015433141045,1006
-378.473949973725,983
-375.8984575028645,919
-373.32367673433623,833
-370.74960748356875,807
-368.1762495659117,746
-365.60360279663576,658
-363.03166699093265,656
-360.4604419639154,583
-357.8899275306178,544
-355.32012350599507,526
-352.7510297049233,500
-350.1826459421999,503
-347.61497203254316,481
-345.04800779059235,475
-342.4817530309082,481
-339.91620756797226,518
-337.35137121618743,525
-334.7872437898774,526
-332.22382510328725,498
-329.66111497058273,513
-327.09911320585127,490
-324.53781962310075,467
-321.9772340362607,443
-319.4173562591816,457
-316.8581861056348,496
-314.2997233893127,521
-311.7419679238294,509
-309.1849195227194,546
-306.62857799943856,564
-304.0729431673641,538
-301.51801483979375,536
-298.963792829947,522
-296.41027695096386,519
-293.85746701590574,547
-291.3053628377552,555
-288.7539642294155,602
-286.2032710037115,633
-283.65328297338897,643
-281.1039999511146,575
-278.5554217494762,572
-276.007548180983,551
-273.4603790580651,547
-270.9139141930734,585
-268.3681533982807,575
-265.8230964858798,582
-263.27874326798565,604
-260.7350935566336,626
-258.1921471637804,637
-255.6499039013039,664
-253.10836358100266,642
-250.56752601459698,645
-248.02739101372765,671
-245.48795838995704,732
-242.94922795476816,766
-240.41119951956557,726
-237.8738728956746,689
-235.33724789434166,685
-232.80132432673452,697
-230.2661020039418,701
-227.73158073697357,768
-225.19776033676033,800
-222.66464061415422,853
-220.1322213799284,797
-217.60050244477725,761
-215.06948361931552,850
-212.53916471408013,839
-210.00954553952818,850
-207.48062590603843,781
-204.9524056239104,773
-202.4248845033651,822
-199.8980623545441,852
-197.37193898751036,852
-194.84651421224817,922
-192.32178783866232,863
-189.79775967657952,868
-187.27442953574644,932
-184.7517972258321,951
-182.2298625564256,856
-179.7086253370378,770
-177.18808537710026,862
-174.66824248596583,952
-172.14909647290835,946
-169.6306471471229,929
-167.11289431772548,930
-164.59583779375328,823
-162.07947738416453,976
-159.5638128978386,1171
-157.04884414357605,1193
-154.53457093009854,1225
-152.02099306604828,1169
-149.50811035998936,1091
-146.99592262040665,1220
-144.48442965570587,1323
-141.97363127421409,1452
-139.46352728417958,1572
-136.95411749377126,1478
-134.44540171107985,1229
-131.93737974411636,1051
-129.43005140081357,1191
-126.92341648902493,1413
-124.41747481652521,1771
-121.91222619101006,2048
-119.40767042009657,2089
-116.90380731132257,2215
-114.40063667214702,2792
-111.8981583099503,3539
-109.3963720320337,4826
-106.89527764561933,6910
-104.39487495785067,8744
-101.89516377579241,10758
-99.39614390642998,13403
-96.89781515667039,16206
-94.40017733334128,19119
-91.90323024319173,21725
-89.40697369289148,18154
-86.91140748903172,11180
-84.41653143812482,9530
-81.92234534660395,11274
-79.42884902082358,13771
-76.93604226705907,15232
-74.4439248915071,14947
-71.95249670028534,11855
-69.46175749943245,9867
-66.97170709490854,9103
-64.48234529259423,9247
-61.99367189829195,9706
-59.50568671772464,7510
-57.01838955653636,6650
-54.53178022029283,7861
-52.045858514480074,8594
-49.560624244506016,9663
-47.07607721569923,10340
-44.59221723330904,12978
-42.10904410250669,15785
-39.62655762838392,17140
-37.14475761595372,20239
-34.66364387015028,24331
-32.18321619582866,24225
-29.70347439776515,24866
-27.224418280657005,27917
-24.74604764912317,30458
-22.26836230770266,43005
-19.7913620608565,65035
-17.315046712966478,65035
-14.83941606833514,65035
-12.36446993118659,65035
-9.89020810566592,65035
-7.416630395839093,65035
-4.94373660569363,65035
-2.471526539137585,65035
-6.821210263296962E-13,65035
2.47084320796705,65035
4.941003281093458,65035
7.410480415786196,65035
9.879274808531363,65035
12.347386655893956,65035
14.814816154518212,65035
17.28156350112681,65035
19.74762889252179,65035
22.21301252558385,24569
24.67771459727237,7536
27.141735304626195,7081
29.605074844762612,6126
32.06773341487792,5438
34.52971121224755,4936
36.99100843422559,4577
39.45162527824516,3481
41.91156194181792,4222
44.370818622535126,4679
46.82939551806646,3439
49.287292826160524,4950
51.74451074464503,4891
54.201049471426245,3586
56.65690920448981,2848
59.112090141899785,2106
61.56659248179983,1901
64.02041642241159,2415
66.4735621620365,2903
68.92602989905402,3465
71.37781983192338,3399
73.82893215918205,2613
76.27936707944684,2265
78.72912479141326,2103
81.17820549385567,2053
83.62660938562783,1882
86.07433666566146,1559
88.5213875329681,1379
90.96776218663751,1469
93.41346082583925,1850
95.85848364982041,2073
98.30283085790859,2107
100.7465026495089,1774
103.18949922410604,1497
105.63182078126385,1218
108.07346752062438,1263
110.51443964190923,1372
112.95473734491827,1344
115.39436082953114,1224
117.83331029570547,1267
120.27158594347827,1134
122.7091879729652,1137
125.1461165843615,1039
127.58237197794062,962
130.01795435405518,1096
132.4528639131364,1217
134.88710085569494,1152
137.32066538231982,1292
139.75355769367923,1261
142.1857779905207,1218
144.61732647366978,1100
147.04820334403132,1117
149.47840880258934,1151
151.90794305040674,1219
154.33680628862487,1318
156.76499871846443,1487
159.19252054122433,1544
161.61937195828352,1678
164.04555317109896,1815
166.47106438120693,1992
168.89590579022217,2132
171.320077599839,2192
173.7435800118302,2352
176.16641322804742,2489
178.58857745042144,2594
181.01007288096173,2622
183.43089972175687,2737
185.85105817497413,2723
188.27054844285988,2811
190.6893707277394,2816
193.10752523201643,2868
195.5250121581745,2874
197.9418317087751,2938
200.3579840864594,2916
202.7734694939469,3054
205.18828813403627,3113
207.6024402096051,3134
210.01592592360964,2998
212.42874547908548,3006
214.84089907914665,2873
217.2523869269868,2993
219.66320922587727,3070
222.0733661791695,3098
224.48285799029293,3044
226.8916848627572,3094
229.29984700014882,3251
231.7073446061355,3160
234.11417788446204,3166
236.520347038953,3206
238.92585227351185,3370
241.33069379212054,3497
243.73487179884035,3414
246.1383864978112,3458
248.541238093252,3610
250.9434267894609,3547
253.34495279081432,3480
255.74581630176783,3563
258.1460175268563,3592
260.54555667069314,3700
262.9444339379703,3494
265.3426495334594,3570
267.7402036620107,3626
270.1370965285529,3432
272.53332833809407,3198
274.9288992957214,3067
277.32380960660055,2925
279.718059475976,2995
282.1116491091717,2904
284.5045787115897,2902
286.89684848871195,2783
289.2884586460981,2843
291.67940938938807,2901
294.0697009242996,2959
296.4593334566299,2885
298.84830719225477,2840
301.23662233712923,2835
303.6242790972866,2938
306.01127767884,2862
308.39761828798066,2815
310.78330113097934,2749
313.16832641418534,2686
315.5526943440269,2606
317.9364051270112,2706
320.3194589697242,2633
322.70185607883093,2554
325.0835966610754,2609
327.4646809232805,2582
329.8451090723478,2590
332.2248813152577,2545
334.6039978590701,2535
336.9824589109231,2485
339.36026467803447,2484
341.7374153677,2536
344.113911187295,2435
346.48975234427337,2464
348.8649390461686,2514
351.2394715005918,2524
353.61334991523415,2503
355.9865744978655,2505
358.35914545633375,2476
360.73106299856715,2453
363.10232733257146,2392
365.47293866643247,2412
367.84289720831396,2454
370.2122031664593,2381
372.5808567491905,2429
374.9488581649083,2414
377.31620762209275,2418
379.6829053293021,2466
382.0489514951745,2353
384.4143463284262,2333
386.7790900378528,2392
389.14318283232853,2392
391.50662492080653,2352
393.86941651231916,2261
396.23155781597745,2406
398.5930490409713,2363
400.9538903965696,2308
403.3140820921202,2315
405.6736243370498,2365
408.03251734086336,2243
410.3907613131465,2317
412.74835646356166,2267
415.10530300185144,2308
417.4616011378372,2261
419.81725108141893,2314
422.1722530425758,2341
424.5266072313656,2334
426.880313857925,2351
429.2333731324701,2236
431.58578526529516,2360
433.9375504667738,2338
436.2886689473588,2327
438.63914091758113,2355
440.9889665880513,2313
443.33814616945835,2254
445.68667987257015,2278
448.03456790823395,2266
450.3818104873759,2245
452.72840782100013,2282
455.07436012019105,2299
457.41966759611057,2231
459.7643304600007,2217
462.10834892318155,2237
464.4517231970525,2213
466.79445349309174,2235
469.1365400228566,2282
471.4779829979826,2316
473.81878263018564,2299
476.15893913125876,2284
478.4984527130747,2311
480.8373235875855,2393
483.17555196682144,2267
485.5131380628919,2410
487.8500820879857,2438
490.1863842543697,2474
492.52204477439034,2588
494.8570638604725,2761
497.1914417251204,2937
499.52517858091653,3292
501.85827464052306,3567
504.19073011668036,3669
506.5225452222086,3862
508.85372017000566,3842
511.18425517304956,4066
513.514150444396,4626
515.8434061971808,5774
518.1720226446176,6534
520.4999999999999,6553
522.8273384766991,6277
525.1540382881666,5821
527.480099647932,5376
529.8055227696037,4288
532.1303078668694,3183
534.454455153496,2786
536.777964843328,2491
539.1008371502907,2436
541.4230722883866,2390
543.744670471698,2417
546.0656319143858,2389
548.3859568306899,2349
550.7056454349294,2323
553.0246979415016,2323
555.3431145648834,2273
557.6608955196306,2262
559.978041020377,2265
562.2945512818363,2256
564.6104265188006,2355
566.9256669461412,2295
569.2402727788082,2411
571.5542442318302,2332
573.8675815203156,2362
576.1802848594508,2312
578.4923544645015,2361
580.8037905508126,2419
583.114593333807,2309
585.4247630289875,2302
587.7342998519354,2454
590.0432040183106,2328
592.3514757438526,2344
594.6591152443794,2343
596.9661227357875,2338
599.2724984340531,2303
601.578242555231,2262
603.8833553154542,2365
606.1878369309362,2267
608.4916876179676,2319
610.7949075929192,2295
613.0974970722403,2326
615.3994562724587,2348
617.7007854101818,2281
620.0014847020951,2375
622.3015543649641,2376
624.6009946156324,2270
626.8998056710224,2476
629.1979877481361,2420
631.4955410640538,2356
633.7924658359349,2370
636.0887622810175,2438
638.3844306166192,2362
640.6794710601358,2487
642.9738838290426,2348
645.2676691408932,2391
647.5608272133207,2458
649.853358264037,2490
652.1452625108324,2393
654.4365401715764,2423
656.7271914642178,2464
659.0172166067838,2466
661.3066158173809,2494
663.5953893141935,2407
665.8835373154867,2457
668.1710600396028,2447
670.4579577049639,2407
672.7442305300709,2463
675.0298787335033,2469
677.3149025339197,2447
679.599302150058,2439
681.8830778007342,2433
684.1662297048437,2470
686.4487580813608,2525
688.7306631493387,2449
691.0119451279091,2410
693.2926042362834,2359
695.5726406937516,2396
697.8520547196814,2484
700.1308465335215,2419
702.4090163547982,2392
704.6865644031171,2447
706.9634908981619,2431
709.2397960596965,2417
711.5154801075631,2380
713.7905432616823,2354
716.0649857420548,2419
718.3388077687592,2466
720.612009561953,2460
722.8845913418733,2343
725.1565533288352,2276
727.427895743234,2449
729.6986188055427,2374
731.9687227363137,2400
734.238207756178,2440
736.5070740858458,2471
738.7753219461066,2390
741.0429515578281,2401
743.3099631419569,2417
745.5763569195191,2349
747.8421331116193,2365
750.1072919394409,2340
752.3718336242467,2375
754.6357583873777,2419
756.8990664502545,2480
759.1617580343765,2406
761.423833361321,2342
763.6852926527457,2421
765.9461361303862,2458
768.206364016058,2336
770.4659765316536,2444
772.7249738991469,2440
774.9833563405886,2445
777.2411240781092,2435
779.4982773339183,2423
781.7548163303044,2347
784.010741289634,2371
786.2660524343538,2408
788.5207499869881,2483
790.7748341701416,2450
793.0283052064964,2378
795.2811633188143,2436
797.5334087299362,2451
799.7850416627813,2413
802.0360623403484,2460
804.2864709857143,2401
806.5362678220353,2400
808.7854530725468,2440
811.0340269605625,2506
813.2819897094754,2482
815.5293415427581,2385
817.77608268396,2519
820.0222133567116,2487
822.2677337847211,2410
824.5126441917765,2502
826.7569448017433,2503
829.0006358385675,2454
831.2437175262731,2420
833.4861900889629,2435
835.7280537508192,2511
837.9693087361026,2440
840.2099552691533,2437
842.4499935743896,2459
844.689423876309,2423
846.9282463994886,2534
849.1664613685833,2502
851.4040690083276,2508
853.6410695435349,2585
855.877463199097,2427
858.1132501999847,2613
860.3484307712487,2496
862.5830051380175,2522
864.8169735254988,2645
867.0503361589791,2526
869.2830932638243,2511
871.5152450654786,2543
873.7467917894654,2611
875.9777336613873,2538
878.2080709069252,2520
880.4378037518389,2494
882.666932421968,2567
884.8954571432301,2509
887.1233781416219,2585
889.3506956432192,2531
891.5774098741766,2504
893.803521060728,2547
896.0290294291852,2477
898.2539352059397,2629
900.4782386174619,2535
902.7019398903011,2554
904.925039251085,2561
907.147536926521,2558
909.3694331433943,2557
911.59072812857,2547
913.8114221089921,2567
916.0315153116827,2543
918.2510079637437,2496
920.4699002923547,2581
922.6881925247761,2540
924.905884888345,2530
927.1229776104793,2507
929.3394709186747,2620
931.555365040506,2543
933.7706602036275,2561
935.9853566357709,2568
938.1994545647489,2529
940.4129542184515,2614
942.6258558248488,2646
944.8381596119883,2666
947.0498658079974,2611
949.2609746410825,2612
951.4714863395287,2616
953.6814011316998,2614
955.8907192460387,2554
958.0994409110671,2583
960.3075663553858,2595
962.5150958076741,2531
964.7220294966913,2600
966.928367651274,2518
969.1341105003388,2491
971.3392582728806,2604
973.5438111979742,2580
975.747769504772,2521
977.9511334225061,2525
980.153903180487,2523
982.3560790081052,2543
984.5576611348289,2615
986.7586497902058,2522
988.9590452038618,2395
991.158847605503,2451
993.3580572249133,2404
995.5566742919558,2412
997.7546990365728,2376
999.952131688785,2282
1002.1489724786926,2354
1004.3452216364743,2350
1006.5408793923874,2300
1008.7359459767691,2257
1010.9304216200343,2203
1013.1243065526781,2288
1015.3176010052733,2273
1017.510305208472,2217
1019.7024193930064,2247
1021.8939437896848,2279
1024.0848786293977,2217
1026.2752241431122,2260
1028.4649805618747,2248
1030.6541481168115,2255
1032.842727039127,2253
1035.0307175601051,2191
1037.2181199111074,2240
1039.4049343235752,2187
1041.591161029029,2175
1043.7768002590683,2219
1045.9618522453698,2255
1048.1463172196918,2219
1050.3301954138697,2231
1052.513487059818,2158
1054.69619238953,2215
1056.8783116350783,2214
1059.0598450286152,2295
1061.2407928023704,2200
1063.4211551886528,2147
1065.6009324198508,2083
1067.780124728432,2163
1069.9587323469414,2187
1072.1367555080046,2177
1074.314194444325,2167
1076.4910493886855,2206
1078.667320573947,2159
1080.843008233051,2193
1083.0181125990161,2171
1085.1926339049414,2177
1087.3665723840027,2168
1089.5399282694575,2133
1091.7127017946405,2119
1093.8848931929647,2182
1096.0565026979243,2120
1098.2275305430899,2135
1100.3979769621128,2077
1102.567842188722,2062
1104.737126456726,2123
1106.9058300000124,2094
1109.0739530525475,2085
1111.2414958483764,2167
1113.4084586216231,2106
1115.5748416064907,2007
1117.7406450372605,2070
1119.9058691482942,2204
1122.0705141740304,2154
1124.2345803489884,2152
1126.3980679077658,2152
1128.5609770850388,2116
1130.7233081155623,2111
1132.8850612341707,2172
1135.0462366757774,2128
1137.2068346753745,2088
1139.3668554680326,2178
1141.526299288901,2096
1143.68516637321,2111
1145.8434569562655,2129
1148.001171273455,2079
1150.158309560244,2055
1152.3148720521767,2070
1154.470858984876,2119
1156.626270594044,2211
1158.7811071154629,2096
1160.9353687849912,2114
1163.089055838569,2071
1165.242168512213,2052
1167.3947070420209,2120
1169.5466716641677,2094
1171.6980626149075,2041
1173.8488801305748,2102
1175.9991244475814,2102
1178.1487958024186,2039
1180.2978944316555,2094
1182.4464205719428,2075
1184.5943744600072,2109
1186.7417563326567,2141
1188.8885664267755,2084
1191.0348049793297,2127
1193.1804722273619,2011
1195.325568407995,2079
1197.4700937584303,2039
1199.614048515948,2094
1201.7574329179074,2164
1203.900247201746,2114
1206.042491604982,2168
1208.1841663652099,2118
1210.3252717201053,2050
1212.465807907422,2170
1214.6057751649923,2140
1216.7451737307279,2140
1218.8840038426192,2153
1221.0222657387353,2157
1223.1599596572241,2224
1225.2970858363137,2078
1227.4336445143094,2147
1229.5696359295966,2162
1231.705060320639,2136
1233.8399179259786,2199
1235.9742089842384,2178
1238.107933734118,2197
1240.2410924143974,2176
1242.373685263935,2129
1244.5057125216676,2213
1246.6371744266116,2192
1248.7680712178621,2125
1250.898403134593,2179
1253.028170416058,2215
1255.1573733015875,2202
1257.2860120305932,2126
1259.4140868425648,2231
1261.54159797707,2222
1263.6685456737569,2226
1265.7949301723515,2220
1267.9207517126597,2186
1270.046010534565,2211
1272.1707068780306,2179
1274.2948409830983,2188
1276.4184130898889,2296
1278.541423438603,2323
1280.6638722695184,2276
1282.785759822993,2314
1284.9070863394636,2316
1287.0278520594447,2312
1289.1480572235314,2418
1291.2677020723963,2301
1293.3867868467923,2341
1295.5053117875495,2349
1297.623277135579,2349
1299.740683131868,2374
1301.8575300174857,2398
1303.973818033578,2326
1306.0895474213703,2424
1308.2047184221678,2389
1310.3193312773528,2385
1312.4333862283888,2336
1314.5468835168163,2356
1316.659823384255,2426
1318.7722060724045,2399
1320.8840318230418,2376
1322.9953008780249,2374
1325.1060134792888,2415
1327.2161698688478,2343
1329.3257702887959,2477
1331.4348149813054,2406
1333.5433041886276,2374
1335.6512381530933,2424
1337.7586171171101,2448
1339.8654413231675,2437
1341.9717110138317,2414
1344.0774264317488,2342
1346.1825878196432,2407
1348.2871954203192,2339
1350.3912494766587,2402
1352.4947502316231,2354
1354.5976979282532,2375
1356.7000928096686,2380
1358.8019351190665,2310
1360.9032250997243,2333
1363.0039629949988,2371
1365.1041490483235,2412
1367.2037835032133,2334
1369.3028666032606,2415
1371.401398592137,2377
1373.4993797135926,2423
1375.5968102114575,2379
1377.6936903296396,2368
1379.7900203121262,2375
1381.8858004029835,2337
1383.9810308463561,2381
1386.075711886469,2323
1388.1698437676241,2359
1390.2634267342032,2407
1392.356461030667,2423
1394.4489469015557,2373
1396.5408845914872,2414
1398.6322743451592,2405
1400.7231164073469,2431
1402.813411022907,2526
1404.903158436773,2467
1406.9923588939578,2467
1409.0810126395531,2460
1411.1691199187303,2465
1413.2566809767386,2541
1415.343696058907,2495
1417.4301654106425,2448
1419.5160892774315,2550
1421.6014679048399,2485
1423.6863015385125,2452
1425.7705904241707,2531
1427.8543348076178,2593
1429.9375349347342,2564
1432.0201910514802,2666
1434.102303403894,2604
1436.1838722380944,2676
1438.2648978002767,2670
1440.3453803367174,2689
1442.4253200937692,2680
1444.5047173178677,2821
1446.5835722555234,2792
1448.6618851533285,2825
1450.739656257952,2830
1452.8168858161434,2797
1454.8935740747306,2963
1456.96972128062,2910
1459.045327680797,2937
1461.120393522327,3049
1463.1949190523528,2978
1465.2689045180973,3125
1467.3423501668608,3137
1469.415256246024,3094
1471.4876230030463,3197
1473.559450685465,3271
1475.6307395408976,3269
1477.7014898170391,3369
1479.771701761665,3388
1481.8413756226287,3440
1483.9105116478618,3516
1485.9791100853772,3454
1488.0471711832643,3529
1490.1146951896926,3611
1492.1816823529098,3670
1494.2481329212433,3659
1496.3140471430984,3646
1498.3794252669609,3631
1500.4442675413939,3727
1502.5085742150404,3803
1504.572345536622,3795
1506.6355817549388,3805
1508.6982831188702,3813
1510.7604498773744,3798
1512.8220822794883,3893
1514.8831805743293,3946
1516.9437450110909,3895
1519.003775839048,3936
1521.0632733075522,3958
1523.1222376660367,3959
1525.1806691640113,4030
1527.2385680510652,4113
1529.2959345768668,3957
1531.3527689911643,4170
1533.4090715437833,4207
1535.4648424846291,4314
1537.5200820636855,4216
1539.5747905310159,4275
1541.6289681367616,4228
1543.6826151311434,4340
1545.7357317644614,4516
1547.7883182870937,4414
1549.8403749494987,4592
1551.8919020022113,4533
1553.9428996958477,4685
1555.9933682811015,4736
1558.0433080087469,4745
1560.0927191296346,4859
1562.1416018946961,4890
1564.1899565549415,4943
1566.2377833614592,4915
1568.2850825654164,4949
1570.3318544180606,4900
1572.3780991707158,4803
1574.423817074788,4589
1576.4690083817595,4567
1578.5136733431923,4332
1580.5578122107272,4185
1582.601425236085,4101
1584.6445126710646,3916
1586.6870747675434,3763
1588.7291117774776,3667
1590.7706239529034,3481
1592.8116115459347,3394
1594.8520748087658,3224
1596.8920139936686,3162
1598.9314293529933,3178
1600.9703211391711,3073
1603.008689604711,2989
1605.0465350022005,2871
1607.0838575843068,2849
1609.1206576037753,2799
1611.1569353134305,2755
1613.1926909661765,2683
1615.2279248149953,2678
1617.2626371129481,2657
1619.2968281131757,2596
1621.3304980688963,2627
1623.3636472334088,2514
1625.39627586009,2555
1627.428384202396,2501
1629.459972513861,2486
1631.4910410480993,2434
1633.5215900588028,2416
1635.551619799744,2395
1637.5811305247717,2371
1639.6101224878166,2401
1641.6385959428862,2415
1643.6665511440683,2356
1645.693988345528,2315
1647.7209078015112,2309
1649.7473097663405,2307
1651.7731944944203,2421
1653.7985622402307,2268
1655.823413258333,2322
1657.847747803366,2327
1659.8715661300494,2383
1661.8948684931793,2258
1663.9176551476316,2272
1665.9399263483624,2414
1667.9616823504057,2312
1669.982923408873,2334
1672.0036497789574,2272
1674.0238617159293,2358
1676.043559475138,2301
1678.0627433120121,2284
1680.081413482059,2294
1682.0995702408654,2272
1684.117213844096,2365
1686.134344547495,2276
1688.1509626068864,2237
1690.1670682781705,2262
1692.182661817329,2325
1694.1977434804217,2251
1696.2123135235875,2336
1698.226372203043,2276
1700.2399197750851,2318
1702.2529564960905,2300
1704.2654826225112,2283
1706.277498410882,2291
1708.2890041178139,2250
1710.2999999999988,2291
1712.3104863142066,2207
1714.3204633172854,2205
1716.329931266163,2207
1718.3388904178469,2241
1720.3473410294214,2160
1722.3552833580516,2208
1724.3627176609807,2173
1726.3696441955308,2135
1728.3760632191033,2193
1730.3819749891782,2245
1732.3873797633146,2228
1734.3922777991502,2217
1736.3966693544012,2188
1738.4005546868639,2125
1740.4039340544127,2170
1742.406807715001,2191
1744.4091759266616,2186
1746.4110389475054,2209
1748.4123970357223,2154
1750.413250449582,2152
1752.4135994474318,2163
1754.4134442876993,2179
1756.4127852288902,2214
1758.4116225295893,2204
1760.4099564484595,2123
1762.407787244244,2040
1764.405115175764,2160
1766.4019405019203,2185
1768.3982634816916,2108
1770.3940843741357,2049
1772.3894034383907,2111
1774.3842209336717,2146
1776.378537119274,2111
1778.372352254571,2116
1780.3656665990156,2146
1782.3584804121397,2106
1784.3507939535534,2072
1786.3426074829463,2162
1788.3339212600863,2125
1790.3247355448211,2126
1792.3150505970766,2136
1794.3048666768573,2142
1796.2941840442477,2133
1798.2830029594106,2172
1800.2713236825884,2142
1802.2591464741004,2098
1804.2464715943465,2133
1806.2332993038058,2164
1808.2196298630352,2048
1810.2054635326708,2069
1812.190800573428,2115
1814.175641246101,2137
1816.1599858115628,2106
1818.1438345307652,2053
1820.127187664738,2149
1822.1100454745924,2167
1824.092408221516,2102
1826.0742761667766,2062
1828.055649571721,2131
1830.0365286977735,2109
1832.0169138064398,2106
1833.9968051593014,2075
1835.9762030180214,2055
1837.9551076443408,2105
1839.9335193000788,2117
1841.9114382471344,2067
1843.888864747485,2096
1845.8657990631878,2086
1847.842241456378,2111
1849.8181921892697,2038
1851.7936515241558,2064
1853.7686197234098,2042
1855.7430970494815,2101
1857.7170837649014,2066
1859.6905801322787,2096
1861.6635864143004,2092
1863.6361028737338,2208
1865.608129773424,2095
1867.5796673762961,2147
1869.5507159453537,2089
1871.521275743678,2111
1873.4913470344313,2083
1875.4609300808534,2091
1877.4300251462632,2078
1879.3986324940588,2202
1881.366752387717,2170
1883.3343850907936,2231
1885.3015308669228,2179
1887.268189979819,2108
1889.2343626932739,2097
1891.2000492711595,2104
1893.1652499774254,2180
1895.1299650761011,2176
1897.0941948312952,2233
1899.0579395071945,2149
1901.0211993680641,2108
1902.98397467825,2159
1904.9462657021745,2172
1906.9080727043415,2160
1908.869395949332,2270
1910.8302357018065,2145
1912.790592226504,2199
1914.7504657882428,2110
1916.7098566519212,2163
1918.6687650825133,2158
1920.6271913450764,2168
1922.5851357047422,2107
1924.5425984267245,2222
1926.499579776314,2110
1928.4560800188833,2179
1930.4120994198802,2123
1932.367638244833,2148
1934.32269675935,2182
1936.2772752291175,2133
1938.231373919899,2168
1940.1849930975404,2103
1942.1381330279637,2129
1944.0907939771696,2117
1946.0429762112412,2144
1947.9946799963363,2112
1949.9459055986945,2105
1951.896653284633,2113
1953.8469233205478,2141
1955.7967159729142,2109
1957.7460315082863,2114
1959.6948701932974,2029
1961.6432322946594,2072
1963.5911180791632,2097
1965.5385278136787,2124
1967.4854617651545,2146
1969.4319202006182,2081
1971.377903387176,2086
1973.3234115920136,2158
1975.268445082395,2052
1977.2130041256642,2094
1979.1570889892423,2133
1981.1006999406304,2085
1983.04383724741,2125
1984.986501177238,2102
1986.928691997853,2140
1988.8704099770712,2032
1990.811655382789,2034
1992.7524284829801,2136
1994.692729545698,2062
1996.6325588390755,2087
1998.5719166313224,2071
2000.5108031907307,2090
2002.4492187856677,2104
2004.387163684583,2085
2006.3246381560011,2045
2008.2616424685298,2108
2010.1981768908527,2098
2012.1342416917332,2108
2014.069837140014,2121
2016.0049635046162,2083
2017.9396210545406,2009
2019.8738100588666,2059
2021.8075307867502,2068
2023.740783507431,2018
2025.6735684902228,2070
2027.6058860045214,2079
2029.5377363198004,2059
2031.4691197056118,2068
2033.4000364315875,2053
2035.3304867674374,2025
2037.260470982952,2051
2039.189989347998,2106
2041.1190421325232,2069
2043.047629606554,2067
2044.9757520401945,2038
2046.9034097036288,2115
2048.8306028671195,2038
2050.7573318010086,2079
2052.683596775716,2048
2054.609398061742,1991
2056.5347359296647,2029
2058.4596106501403,2054
2060.384022493906,2124
2062.3079717317764,2049
2064.231458634646,2069
2066.1544834734873,2087
2068.077046519352,2084
2069.99914804337,2065
2071.9207883167524,2078
2073.8419676107865,2061
2075.7626861968406,2107
2077.6829443463607,2063
2079.6027423308715,2109
2081.522080421977,2035
2083.440958891362,2094
2085.359378010786,2044
2087.2773380520907,2096
2089.194839287196,2024
2091.111881988101,2000
2093.0284664268825,2054
2094.9445928756973,2002
2096.86026160678,2091
2098.775472892446,2074
2100.690227005088,2026
2102.604524217178,2057
2104.5183648012676,2071
2106.431749029985,2067
2108.34467717604,2058
2110.2571495122206,2040
2112.169166311393,2072
2114.080727846503,2101
2115.9918343905747,2028
2117.902486216711,2161
2119.8126835980956,2083
2121.722426807987,2106
2123.6317161197285,2140
2125.5405518067364,2063
2127.448934142509,2088
2129.356863400624,2088
2131.264339854737,2089
2133.1713637785815,2134
2135.077935445972,2070
2136.9840551308002,2118
2138.889723107037,2081
2140.7949396487334,2116
2142.699705030018,2072
2144.6040195250994,2065
2146.507883408264,2210
2148.4112969538774,2111
2150.3142604363848,2181
2152.2167741303097,2115
2154.1188383102535,2174
2156.0204532508997,2144
2157.9216192270064,2141
2159.822336513414,2187
2161.7226053850413,2145
2163.622426116884,2167
2165.5217989840185,2215
2167.4207242616,2189
2169.319202224862,2223
2171.2172331491165,2139
2173.1148173097563,2198
2175.0119549822507,2126
2176.90864644215,2189
2178.8048919650823,2195
2180.7006918267534,2106
2182.596046302952,2125
2184.4909556695407,2135
2186.3854202024645,2158
2188.279440177746,2158
2190.173015871487,2121
2192.066147559868,2126
2193.958835519149,2162
2195.851080025667,2115
2197.7428813558417,2227
2199.6342397861667,2196
2201.5251555932186,2145
2203.415629053651,2195
2205.3056604441986,2252
2207.19525004167,2203
2209.084398122958,2291
2210.9731049650327,2182
2212.861370844941,2188
2214.749196039812,2236
2216.636580826851,2240
2218.523525483344,2145
2220.410030286655,2199
2222.296095514226,2173
2224.1817214435805,2268
2226.066908352319,2223
2227.951656518121,2195
2229.835966218746,2186
2231.71983773203,2165
2233.6032713358913,2233
2235.486267308324,2142
2237.3688259274036,2208
2239.2509474712824,2142
2241.132632218193,2221
2243.013880446447,2207
2244.8946924344323,2127
2246.7750684606203,2164
2248.6550088035574,2127
2250.534513741871,2297
2252.413583554265,2194
2254.292218519526,2196
2256.170418916517,2161
2258.0481850241786,2141
2259.925517121534,2147
2261.8024154876825,2153
2263.678880401803,2163
2265.5549121431536,2156
2267.430510991071,2110
2269.305677224971,2180
2271.180411124348,2252
2273.0547129687766,2179
2274.9285830379076,2135
2276.8020216114737,2220
2278.6750289692845,2124
2280.5476053912294,2195
2282.4197511572766,2218
2284.2914665474727,2170
2286.162751841943,2259
2288.0336073208937,2217
2289.904033264608,2228
2291.774029953448,2263
2293.6435976678554,2138
2295.5127366883517,2191
2297.381447295534,2152
2299.2497297700825,2092
2301.1175843927526,2101
2302.9850114443825,2024
2304.852011205885,2049
2306.7185839582553,2053
2308.5847299825664,2037
2310.4504495599676,2022
2312.3157429716925,2120
2314.1806104990483,2002
2316.0450524234247,1974
2317.9090690262888,2023
2319.772660589186,2042
2321.635827393742,2025
2323.498569721661,1992
2325.3608878547248,2026
2327.2227820747967,2021
2329.0842526638157,2055
2330.945299903803,1987
2332.805924076857,2060
2334.6661254651535,2024
2336.525904350951,2034
2338.3852610165827,2027
2340.244195744464,2062
2342.102708817088,2012
2343.9608005170253,2071
2345.8184711269287,2002
2347.675720929526,2078
2349.532550207628,2006
2351.38895924412,2115
2353.24494832197,2030
2355.100517724223,2059
2356.955667734004,2048
2358.810398634514,2019
2360.664710709037,2070
2362.5186042409337,2077
2364.3720795136437,2041
2366.225136810686,2048
2368.0777764156583,2012
2369.929998612237,2049
2371.7818036841777,2050
2373.633191915315,2133
2375.484163589562,2043
2377.3347189909114,2081
2379.184858403434,2113
2381.03458211128,2019
2382.8838903986775,2137
2384.732783549936,2113
2386.5812618494406,2156
2388.4293255816588,1979
2390.2769750311327,2025
2392.1242104824883,2063
2393.971032220427,2089
2395.8174405297295,2047
2397.6634356952563,2060
2399.509018001947,2041
2401.3541877348193,2071
2403.1989451789705,2161
2405.043290619576,2026
2406.8872243418905,2124
2408.730746631247,2078
2410.5738577730594,2168
2412.4165580528183,2102
2414.258847756095,2081
2416.100727168537,2020
2417.9421965758734,2093
2419.783256263912,2123
2421.623906518538,2086
2423.4641476257157,2132
2425.303979871491,2100
2427.143403541984,2038
2428.9824189233977,2098
2430.821026302012,2070
2432.6592259641866,2107
2434.497018196361,2163
2436.33440328505,2093
2438.171381516851,2149
2440.00795317844,2140
2441.844118556569,2118
2443.6798779380724,2040
2445.5152316098606,2099
2447.3501798589255,2123
2449.1847229723357,2188
2451.0188612372403,2108
2452.8525949408663,2076
2454.6859243705203,2055
2456.518849813587,2098
2458.3513715575314,2139
2460.183489889895,2040
2462.015205098301,2085
2463.8465174704493,2066
2465.67742729412,2121
2467.5079348571717,2157
2469.338040447542,2087
2471.1677443532476,2045
2472.9970468623833,2168
2474.825948263123,2109
2476.6544488437207,2115
2478.482548892508,2134
2480.310248697896,2188
2482.137548548374,2130
2483.9644487325118,2221
2485.790949538956,2150
2487.617051256433,2174
2489.44275417375,2179
2491.26805857979,2120
2493.0929647635157,2194
2494.917473013971,2102
2496.741583620276,2128
2498.5652968716304,2147
2500.3886130573137,2178
2502.2115324666834,2153
2504.0340553891765,2155
2505.856182114308,2245
2507.6779129316733,2203
2509.499248130945,2179
2511.3201880018764,2091
2513.140732834298,2123
2514.9608829181198,2262
2516.780638543331,2200
2518.6,2215
2520.418967578273,2232
2522.237541568376,2185
2524.0557222606144,2224
2525.8735099453706,2166
2527.6909049131086,2222
2529.507907454368,2181
2531.32451785977,2146
2533.140736420014,2205
2534.9565634258774,2302
2536.771999168218,2240
2538.5870439379714,2271
2540.4016980261526,2236
2542.2159617238544,2306
2544.02983532225,2379
2545.8433191125914,2276
2547.656413386209,2273
2549.4691184345115,2309
2551.2814345489874,2254
2553.093362021204,2356
2554.904901142808,2387
2556.716052205523,2349
2558.526815501153,2336
2560.3371913215824,2332
2562.147179958771,2411
2563.956781704761,2383
2565.7659968516705,2483
2567.5748256916986,2461
2569.3832685171224,2401
2571.1913256202984,2459
2572.9989972936614,2442
2574.806283829725,2460
2576.613185521084,2476
2578.4197026604074,2417
2580.2258355404483,2611
2582.031584454035,2464
2583.836949694077,2503
2585.6419315535613,2524
2587.4465303255533,2540
2589.2507463032002,2540
2591.0545797797245,2549
2592.8580310484303,2505
2594.6611004026995,2454
2596.463788135992,2397
2598.266094541849,2575
2600.0680199138874,2486
2601.869564545807,2497
2603.670728731383,2536
2605.4715127644704,2544
2607.2719169390048,2536
2609.071941548998,2621
2610.8715868885433,2560
2612.670853251811,2556
2614.469740933052,2537
2616.268250226594,2513
2618.0663814268455,2520
2619.864134828292,2507
2621.6615107255006,2501
2623.458509413115,2524
2625.2551311858597,2586
2627.0513763385347,2504
2628.8472451660223,2475
2630.6427379632833,2446
2632.4378550253564,2437
2634.232596647359,2483
2636.026963124488,2376
2637.8209547520187,2448
2639.6145718253065,2513
2641.407814639785,2418
2643.200683490966,2499
2644.9931786744414,2346
2646.7853004858807,2375
2648.577049221034,2390
2650.3684251757277,2324
2652.1594286458712,2255
2653.9500599274484,2330
2655.740319316525,2334
2657.5302071092437,2331
2659.3197236018286,2360
2661.10886909058,2296
2662.8976438718782,2315
2664.686048242183,2267
2666.4740824980327,2245
2668.2617469360443,2243
2670.0490418529134,2252
2671.8359675454153,2283
2673.622524310403,2304
2675.408712444811,2211
2677.1945322456495,2230
2678.979984010009,2142
2680.76506803506,2252
2682.5497846180497,2199
2684.334134056306,2137
2686.1181166472343,2154
2687.9017326883213,2180
2689.6849824771293,2222
2691.4678663113013,2180
2693.2503844885596,2154
2695.032537306705,2113
2696.8143250636167,2166
2698.5957480572542,2155
2700.3768065856534,2110
2702.1575009469316,2175
2703.937831439283,2181
2705.717798360982,2211
2707.4974020103837,2118
2709.276642685917,2145
2711.055520686095,2188
2712.834036309506,2063
2714.612189854819,2111
2716.389981620782,2080
2718.1674119062204,2125
2719.944481010041,2072
2721.721189231226,2143
2723.4975368688415,2022
2725.273524222027,2086
2727.0491515900053,2152
2728.824419272075,2099
2730.5993275676146,2031
2732.3738767760838,2113
2734.148067197016,2033
2735.921899130031,2083
2737.6953728748194,2103
2739.468488731156,2076
2741.2412469988926,2091
2743.0136479779617,1997
2744.785691968372,2044
2746.5573792702116,2042
2748.3287101836504,1983
2750.099685008934,2034
2751.870304046388,2036
2753.640567596418,2030
2755.4104759595057,2157
2757.1800294362156,2015
2758.949228327187,1972
2760.7180729331412,2076
2762.486563554877,2033
2764.254700493272,2038
2766.022484049284,2099
2767.789914523947,2069
2769.5569922183786,2015
2771.3237174337705,2038
2773.090090471394,2071
2774.8561116326036,1993
2776.6217812188274,2049
2778.3870995315756,2046
2780.1520668724356,2010
2781.9166835430747,1990
2783.6809498452394,2043
2785.444866080754,2071
2787.2084325515225,2069
2788.971649559527,2125
2790.73451740683,2031
2792.4970363955713,2024
2794.2592068279705,1989
2796.0210290063264,2024
2797.7825032330147,2077
2799.543629810493,2105
2801.304409041296,2080
2803.0648412280366,2110
2804.8249266734088,2001
2806.5846656801846,2067
2808.344058551212,2018
2810.1031055894246,2024
2811.8618070978273,2040
2813.6201633795085,2049
2815.378174737636,1987
2817.1358414754536,2111
2818.893163896285,2095
2820.6501423035334,1999
2822.4067770006814,2000
2824.1630682912883,2066
2825.9190164789957,2014
2827.6746218675207,2052
2829.429884760661,2069
2831.184805462294,2098
2832.9393842763743,2068
2834.693621506936,2042
2836.4475174580916,2029
2838.201072434034,2063
2839.954286739034,2043
2841.707160677441,2053
2843.459694553685,2082
2845.2118886722724,2054
2846.96374333779,2136
2848.7152588549034,2120
2850.4664355283567,2041
2852.217273662973,2074
2853.9677735636546,1967
2855.7179355353833,2048
2857.4677598832186,2137
2859.217246912299,2058
2860.9663969278427,2046
2862.715210235146,2010
2864.4636871395846,2034
2866.211827946614,2077
2867.9596329617652,2020
2869.7071024906536,2124
2871.4542368389684,2091
2873.20103631248,2032
2874.947501217038,2051
2876.6936318585695,2039
2878.4394285430812,2093
2880.1848915766604,1980
2881.9300212654707,2109
2883.6748179157553,2007
2885.4192818338374,2079
2887.1634133261173,2067
2888.907212699077,2010
2890.6506802592744,2039
2892.393816313348,2023
2894.1366211680142,2140
2895.8790951300693,2072
2897.621238506388,2008
2899.363051603925,1999
2901.1045347297118,2017
2902.8456881908596,2108
2904.58651229456,2043
2906.327007348081,1988
2908.067173658772,2055
2909.8070115340597,2058
2911.5465212814497,2019
2913.285703208527,2040
2915.0245576229563,2028
2916.7630848324807,2026
2918.5012851449196,1985
2920.2391588681758,1982
2921.976706310227,1966
2923.7139277791334,2051
2925.4508235830313,1973
2927.187394030137,1992
2928.923639428745,2063
2930.6595600872306,1994
2932.395156314046,2027
2934.1304284177218,2109
2935.8653767068713,2096
2937.6000014901815,2091
2939.3343030764227,2036
2941.068281774442,2081
2942.8019378931644,2079
2944.5352717415976,2063
2946.2682836288236,2037
2948.0009738640065,2054
2949.7333427563885,2087
2951.465390615289,2059
2953.1971177501086,2101
2954.9285244703265,1977
2956.6596110855,2030
2958.3903779052657,2010
2960.1208252393385,2062
2961.8509533975125,2009
2963.5807626896617,1945
2965.3102534257378,2036
2967.0394259157715,2041
2968.768280469873,2031
2970.496817398232,2048
2972.2250370111146,2028
2973.952939618869,2012
2975.6805255319196,2031
2977.4077950607707,2058
2979.134748516006,2103
2980.861386208289,2127
2982.587708448359,2132
2984.313715547037,2143
2986.039407815222,2047
2987.764785563891,2050
2989.489849104102,2021
2991.2145987469908,2143
2992.9390348037705,2100
2994.6631575857346,2028
2996.3869674042576,2050
2998.1104645707887,2103
2999.83364939686,2002
3001.5565221940783,2019
3003.2790832741334,1969
3005.0013329487924,2081
3006.7232715298996,2034
3008.4448993293804,2022
3010.166216659239,2017
3011.887223831558,1998
3013.607921158498,2026
3015.3283089522993,2076
3017.0483875252826,2030
3018.7681571898443,2008
3020.4876182584626,2049
3022.2067710436927,2025
3023.9256158581707,2101
3025.644153014609,2022
3027.362382825801,2055
3029.0803056046193,2056
3030.797921664012,2079
3032.5152313170106,2056
3034.2322348767225,2086
3035.9489326563353,2029
3037.665324969115,1974
3039.3814121284063,2021
3041.097194447633,2072
3042.812672240299,2028
3044.5278458199855,2065
3046.2427155003525,2049
3047.9572815951406,2013
3049.671544418167,2068
3051.38550428333,2033
3053.0991615046073,2104
3054.812516396051,1974
3056.5255692717974,1965
3058.2383204460575,2020
3059.9507702331257,2047
3061.662918947372,2030
3063.3747669032446,2097
3065.0863144152736,1939
3066.7975617980674,2054
3068.508509366309,2046
3070.219157434767,2087
3071.9295063182844,2046
3073.639556331785,2071
3075.3493077902704,2075
3077.058761008821,2049
3078.7679163025964,2039
3080.476773986837,2106
3082.1853343768594,1989
3083.89359778806,2030
3085.6015645359153,2014
3087.3092349359786,1974
3089.016609303884,2006
3090.7236879553434,2087
3092.4304712061476,2089
3094.136959372166,2082
3095.843152769349,2063
3097.5490517137237,2138
3099.2546565213966,2028
3100.959967508554,2112
3102.66498499146,2103
3104.3697092864577,2059
3106.0741407099695,1981
3107.778279578498,2139
3109.482126208622,2135
3111.1856809170004,2088
3112.8889440203716,2118
3114.5919158355528,2111
3116.294596679439,2103
3117.996986869006,2100
3119.6990867213062,1980
3121.4008965534726,2102
3123.102416682717,2081
3124.803647426329,2080
3126.5045891016784,2071
3128.205242026213,2081
3129.90560651746,2085
3131.605682893025,2058
3133.3054714705922,2080
3135.0049725679282,2128
3136.7041865028714,2126
3138.4031135933465,2027
3140.101754157353,2100
3141.800108512971,2125
3143.498176978357,2097
3145.1959598717494,2139
3146.8934575114636,2089
3148.5906702158954,2073
3150.2875983035183,2031
3151.9842420928853,2134
3153.680601902627,2065
3155.376678051456,2094
3157.07247085816,2113
3158.767980641609,2033
3160.463207720748,2040
3162.158152414606,2045
3163.8528150422862,2031
3165.5471959229726,1997
3167.2412953759303,2079
3168.9351137204976,2132
3170.628651276098,2111
3172.3219083622307,2043
3174.014885298474,2122
3175.707582404485,2101
3177.4000000000005,2022
3179.092138404835,2077
3180.7839979388846,2088
3182.47557892212,2105
3184.166881674594,2110
3185.8579065164386,2120
3187.5486537678626,2081
3189.2391237491547,2088
3190.9293167806827,2089
3192.6192331828934,2098
3194.3088732763117,2090
3195.998237381542,2032
3197.687325819268,2119
3199.376138910251,2074
3201.064676975334,2032
3202.7529403354347,2022
3204.4409293115523,2030
3206.1286442247647,2040
3207.816085396229,2091
3209.5032531471825,2009
3211.190147798936,2023
3212.8767696728846,2032
3214.5631190905015,2045
3216.2491963733373,2064
3217.9350018430214,2045
3219.6205358212637,1974
3221.305798629851,2003
3222.990790590651,2061
3224.6755120256103,1962
3226.359963256751,1999
3228.0441446061795,2026
3229.7280563960758,2011
3231.411698948703,2018
3233.0950725863995,1974
3234.778177631587,2024
3236.461014406761,2076
3238.1435832345005,2001
3239.8258844374595,2098
3241.507918338374,2105
3243.1896852600576,2061
3244.8711855254023,2119
3246.552419457381,2072
3248.233387379042,2119
3249.914089613516,2088
3251.59452648401,2041
3253.274698313813,2042
3254.95460542629,2051
3256.6342481448855,2015
3258.313626793125,2043
3259.9927416946084,1986
3261.6715931730196,2009
3263.3501815521176,1992
3265.0285071557437,1953
3266.706570307815,1953
3268.3843713323286,2067
3270.0619105533615,2071
3271.739188295068,2063
3273.4162048816834,2024
3275.0929606375184,2034
3276.769455886966,2068
3278.445690954498,1967
3280.1216661646613,2109
3281.797381842087,2100
3283.4728383114807,2021
3285.1480358976296,2052
3286.8229749253996,2054
3288.4976557197333,2060
3290.172078605655,2074
3291.846243908266,1986
3293.5201519527463,2023
3295.193803064357,1999
3296.8671975684374,2057
3298.5403357904024,2009
3300.21321805575,2049
3301.8858446900567,2007
3303.558216018975,2022
3305.23033236824,2022
3306.9021940636603,2008
3308.57380143113,2035
3310.2451547966184,2120
3311.916254486174,2108
3313.5871008259246,2047
3315.2576941420766,2094
3316.9280347609147,2064
3318.5981230088046,2037
3320.2679592121895,1992
3321.9375436975924,1989
3323.606876791612,2024
3325.27595882093,2045
3326.944790112305,1999
3328.6133709925753,1997
3330.2817017886573,2004
3331.949782827547,2093
3333.617614436319,2025
3335.2851969421245,2050
3336.952530672199,2048
3338.619615953853,2077
3340.286453114475,2114
3341.9530424815357,2065
3343.619384382583,2052
3345.2854791452437,2064
3346.951327097224,2047
3348.6169285663073,2031
3350.2822838803577,2111
3351.947393367319,2030
3353.61225735521,2084
3355.2768761721345,2096
3356.9412501462693,2013
3358.605379605873,2074
3360.2692648792827,2071
3361.9329062949146,2062
3363.596304181263,2015
