CollectionTime,7/9/2024 4:29:35 PM
ExposureUsed,3
CalibratedSpectrum
-962.7078968117929,1364
-959.9714848408522,1465
-957.2358232597828,1483
-954.5009119013725,1475
-951.7667505983302,1479
-949.0333391832855,1607
-946.3006774887896,1529
-943.5687653473143,1470
-940.837602591253,1536
-938.1071890529199,1516
-935.3775245645503,1505
-932.6486089583007,1539
-929.9204420662485,1529
-927.1930237203925,1550
-924.4663537526524,1420
-921.7404319948689,1544
-919.0152582788041,1566
-916.2908324361409,1518
-913.5671542984834,1495
-910.8442236973568,1522
-908.1220404642074,1564
-905.4006044304027,1552
-902.679915427231,1533
-899.959973285902,1544
-897.2407778375464,1503
-894.5223289132158,1482
-891.8046263438832,1519
-889.0876699604426,1511
-886.3714595937089,1528
-883.6559950744183,1577
-880.9412762332282,1528
-878.2273029007168,1512
-875.5140749073835,1508
-872.8015920836489,1510
-870.0898542598545,1560
-867.3788612662631,1519
-864.6686129330585,1540
-861.9591090903457,1537
-859.2503495681506,1535
-856.5423341964203,1595
-853.8350628050229,1541
-851.1285352237478,1580
-848.4227512823054,1547
-845.7177108103272,1535
-843.0134136373656,1627
-840.3098595928943,1606
-837.6070485063082,1543
-834.9049802069229,1581
-832.2036545239757,1545
-829.5030712866244,1631
-826.8032303239481,1617
-824.1041314649472,1577
-821.4057745385428,1569
-818.7081593735775,1646
-816.0112857988148,1591
-813.3151536429393,1520
-810.6197627345566,1646
-807.9251129021936,1595
-805.2312039742981,1594
-802.5380357792392,1683
-799.8456081453069,1638
-797.1539209007124,1642
-794.462973873588,1596
-791.772766891987,1650
-789.083299783884,1634
-786.3945723771743,1633
-783.7065844996748,1619
-781.0193359791231,1623
-778.3328266431781,1599
-775.6470563194197,1643
-772.9620248353489,1668
-770.2777320183878,1637
-767.5941776958798,1621
-764.9113616950891,1650
-762.2292838432011,1658
-759.5479439673222,1620
-756.8673418944801,1675
-754.1874774516235,1660
-751.5083504656222,1670
-748.8299607632671,1734
-746.15230817127,1635
-743.475392516264,1720
-740.7992136248035,1660
-738.1237713233636,1643
-735.4490654383407,1669
-732.7750957960521,1692
-730.1018622227365,1654
-727.4293645445534,1656
-724.7576025875837,1663
-722.0865761778291,1677
-719.4162851412126,1724
-716.7467293035781,1706
-714.0779084906909,1767
-711.409822528237,1767
-708.7424712418238,1814
-706.0758544569796,1728
-703.4099719991541,1740
-700.7448236937178,1791
-698.0804093659622,1718
-695.4167288411002,1748
-692.7537819442656,1732
-690.0915685005134,1752
-687.4300883348199,1698
-684.7693412720819,1763
-682.1093271371178,1692
-679.4500457546669,1790
-676.7914969493897,1775
-674.1336805458676,1724
-671.4765963686034,1771
-668.8202442420206,1742
-666.1646239904642,1721
-663.5097354382001,1737
-660.8555784094151,1754
-658.2021527282176,1829
-655.5494582186366,1781
-652.8974947046223,1746
-650.2462620100463,1747
-647.5957599587009,1797
-644.9459883742998,1837
-642.2969470804776,1832
-639.6486359007902,1799
-637.0010546587141,1804
-634.3542031776476,1822
-631.7080812809096,1865
-629.0626887917401,1837
-626.4180255333008,1820
-623.7740913286734,1867
-621.1308860008619,1933
-618.4884093727904,1839
-615.8466612673046,1841
-613.2056415071715,1835
-610.5653499150785,1915
-607.9257863136347,1851
-605.28695052537,1908
-602.6488423727357,1878
-600.0114616781036,1888
-597.3748082637674,1811
-594.7388819519412,1867
-592.1036825647604,1910
-589.4692099242818,1894
-586.8354638524829,1932
-584.2024441712624,1788
-581.5701507024403,1832
-578.9385832677575,1956
-576.3077416888759,1905
-573.6776257873787,1921
-571.0482353847704,1926
-568.4195703024757,1917
-565.7916303618415,1911
-563.164415384135,1896
-560.5379251905453,2009
-557.9121596021815,1935
-555.2871184400748,1953
-552.6628015251767,1907
-550.0392086783606,1908
-547.4163397204204,1940
-544.794194472071,1919
-542.1727727539491,1899
-539.5520743866118,1999
-536.9320991905377,1946
-534.3128469861261,1962
-531.6943175936979,2013
-529.0765108334947,1986
-526.4594265256793,2095
-523.8430644903358,2161
-521.2274245474689,2220
-518.612506517005,2316
-515.9983102187913,2261
-513.3848354725959,2275
-510.77208209810846,2358
-508.16004991493924,2457
-505.5487387426199,2597
-502.9381484006032,2616
-500.3282787082628,2575
-497.71912948489364,2426
-495.1107005497117,2368
-492.5029917218539,2333
-489.8960028203786,2203
-487.28973366426493,2130
-484.68418407241325,2167
-482.07935386364494,2051
-479.47524285670266,2133
-476.87185087025,2080
-474.2691777228715,2090
-471.66722323307334,2110
-469.0659872192821,2099
-466.4654694998459,2090
-463.86566989303384,2067
-461.26658821703614,2121
-458.66822428996414,2103
-456.07057792985,2203
-453.4736489546475,2133
-450.877437182231,2168
-448.28194243039627,2143
-445.68716451686,2133
-443.09310325926003,2120
-440.49975847515555,2054
-437.9071299820263,2065
-435.31521759727354,2163
-432.72402113821954,2165
-430.13354042210767,2179
-427.5437752661022,2112
-424.95472548728867,2175
-422.36639090267386,2117
-419.7787713291855,2143
-417.1918665836721,2206
-414.60567648290385,2160
-412.0202008435715,2184
-409.4354394822874,2133
-406.8513922155845,2252
-404.26805885991723,2189
-401.685439231661,2226
-399.103533147112,2197
-396.522340422488,2196
-393.9418608739278,2245
-391.3620943174908,2123
-388.7830405691583,2069
-386.2046994448317,1977
-383.6270707603344,1859
-381.05015433141045,1756
-378.473949973725,1622
-375.8984575028645,1513
-373.32367673433623,1352
-370.74960748356875,1191
-368.1762495659117,1058
-365.60360279663576,926
-363.03166699093265,827
-360.4604419639154,677
-357.8899275306178,630
-355.32012350599507,545
-352.7510297049233,523
-350.1826459421999,520
-347.61497203254316,496
-345.04800779059235,491
-342.4817530309082,488
-339.91620756797226,522
-337.35137121618743,531
-334.7872437898774,517
-332.22382510328725,462
-329.66111497058273,470
-327.09911320585127,476
-324.53781962310075,483
-321.9772340362607,510
-319.4173562591816,478
-316.8581861056348,488
-314.2997233893127,448
-311.7419679238294,464
-309.1849195227194,473
-306.62857799943856,523
-304.0729431673641,555
-301.51801483979375,530
-298.963792829947,511
-296.41027695096386,534
-293.85746701590574,534
-291.3053628377552,532
-288.7539642294155,556
-286.2032710037115,546
-283.65328297338897,527
-281.1039999511146,536
-278.5554217494762,595
-276.007548180983,583
-273.4603790580651,545
-270.9139141930734,553
-268.3681533982807,550
-265.8230964858798,547
-263.27874326798565,622
-260.7350935566336,624
-258.1921471637804,598
-255.6499039013039,592
-253.10836358100266,635
-250.56752601459698,626
-248.02739101372765,639
-245.48795838995704,673
-242.94922795476816,627
-240.41119951956557,616
-237.8738728956746,640
-235.33724789434166,696
-232.80132432673452,662
-230.2661020039418,599
-227.73158073697357,589
-225.19776033676033,703
-222.66464061415422,657
-220.1322213799284,607
-217.60050244477725,599
-215.06948361931552,627
-212.53916471408013,660
-210.00954553952818,716
-207.48062590603843,664
-204.9524056239104,670
-202.4248845033651,657
-199.8980623545441,665
-197.37193898751036,682
-194.84651421224817,733
-192.32178783866232,731
-189.79775967657952,779
-187.27442953574644,822
-184.7517972258321,798
-182.2298625564256,876
-179.7086253370378,757
-177.18808537710026,670
-174.66824248596583,693
-172.14909647290835,768
-169.6306471471229,871
-167.11289431772548,869
-164.59583779375328,821
-162.07947738416453,811
-159.5638128978386,859
-157.04884414357605,978
-154.53457093009854,1090
-152.02099306604828,960
-149.50811035998936,820
-146.99592262040665,764
-144.48442965570587,1061
-141.97363127421409,1129
-139.46352728417958,1036
-136.95411749377126,1033
-134.44540171107985,908
-131.93737974411636,905
-129.43005140081357,1040
-126.92341648902493,1478
-124.41747481652521,2110
-121.91222619101006,2493
-119.40767042009657,2394
-116.90380731132257,2015
-114.40063667214702,1988
-111.8981583099503,2492
-109.3963720320337,3577
-106.89527764561933,5159
-104.39487495785067,6547
-101.89516377579241,5923
-99.39614390642998,4725
-96.89781515667039,5536
-94.40017733334128,9577
-91.90323024319173,15292
-89.40697369289148,15767
-86.91140748903172,11229
-84.41653143812482,5792
-81.92234534660395,3294
-79.42884902082358,7254
-76.93604226705907,13684
-74.4439248915071,18598
-71.95249670028534,20573
-69.46175749943245,18408
-66.97170709490854,16504
-64.48234529259423,12928
-61.99367189829195,9224
-59.50568671772464,6339
-57.01838955653636,5644
-54.53178022029283,5764
-52.045858514480074,5594
-49.560624244506016,6693
-47.07607721569923,7977
-44.59221723330904,7345
-42.10904410250669,6786
-39.62655762838392,7074
-37.14475761595372,7163
-34.66364387015028,7705
-32.18321619582866,9100
-29.70347439776515,11362
-27.224418280657005,11760
-24.74604764912317,11853
-22.26836230770266,17194
-19.7913620608565,31633
-17.315046712966478,58022
-14.83941606833514,65039
-12.36446993118659,65039
-9.89020810566592,65039
-7.416630395839093,65039
-4.94373660569363,65039
-2.471526539137585,65039
-6.821210263296962E-13,65039
2.47084320796705,65039
4.941003281093458,65039
7.410480415786196,65039
9.879274808531363,65039
12.347386655893956,65039
14.814816154518212,65039
17.28156350112681,65039
19.74762889252179,65039
22.21301252558385,65039
24.67771459727237,20468
27.141735304626195,3648
29.605074844762612,2283
32.06773341487792,2138
34.52971121224755,2092
36.99100843422559,1842
39.45162527824516,1668
41.91156194181792,1605
44.370818622535126,1459
46.82939551806646,1369
49.287292826160524,1671
51.74451074464503,1904
54.201049471426245,1591
56.65690920448981,1330
59.112090141899785,1219
61.56659248179983,1113
64.02041642241159,1158
66.4735621620365,1036
68.92602989905402,1167
71.37781983192338,1459
73.82893215918205,1481
76.27936707944684,1249
78.72912479141326,1156
81.17820549385567,1183
83.62660938562783,1211
86.07433666566146,1052
88.5213875329681,941
90.96776218663751,1090
93.41346082583925,1111
95.85848364982041,1136
98.30283085790859,1391
100.7465026495089,1175
103.18949922410604,1051
105.63182078126385,988
108.07346752062438,892
110.51443964190923,934
112.95473734491827,916
115.39436082953114,988
117.83331029570547,1005
120.27158594347827,864
122.7091879729652,861
125.1461165843615,1057
127.58237197794062,1111
130.01795435405518,1012
132.4528639131364,963
134.88710085569494,834
137.32066538231982,874
139.75355769367923,932
142.1857779905207,963
144.61732647366978,890
147.04820334403132,896
149.47840880258934,978
151.90794305040674,999
154.33680628862487,1120
156.76499871846443,1325
159.19252054122433,1382
161.61937195828352,1568
164.04555317109896,1819
166.47106438120693,2130
168.89590579022217,2310
171.320077599839,2458
173.7435800118302,2624
176.16641322804742,2680
178.58857745042144,2976
181.01007288096173,3011
183.43089972175687,3046
185.85105817497413,3255
188.27054844285988,3447
190.6893707277394,3503
193.10752523201643,3625
195.5250121581745,3782
197.9418317087751,3851
200.3579840864594,3792
202.7734694939469,3800
205.18828813403627,3863
207.6024402096051,3955
210.01592592360964,4154
212.42874547908548,4102
214.84089907914665,4126
217.2523869269868,4073
219.66320922587727,4148
222.0733661791695,4094
224.48285799029293,4042
226.8916848627572,4175
229.29984700014882,4057
231.7073446061355,4194
234.11417788446204,4176
236.520347038953,4302
238.92585227351185,4312
241.33069379212054,4323
243.73487179884035,4306
246.1383864978112,4316
248.541238093252,4301
250.9434267894609,4369
253.34495279081432,4339
255.74581630176783,4256
258.1460175268563,4161
260.54555667069314,4290
262.9444339379703,4305
265.3426495334594,4318
267.7402036620107,4448
270.1370965285529,4358
272.53332833809407,4253
274.9288992957214,4216
277.32380960660055,4124
279.718059475976,4191
282.1116491091717,4192
284.5045787115897,4075
286.89684848871195,4111
289.2884586460981,4170
291.67940938938807,4153
294.0697009242996,4217
296.4593334566299,4230
298.84830719225477,4200
301.23662233712923,4115
303.6242790972866,4172
306.01127767884,4208
308.39761828798066,4205
310.78330113097934,4293
313.16832641418534,4138
315.5526943440269,4086
317.9364051270112,4081
320.3194589697242,4163
322.70185607883093,4063
325.0835966610754,4144
327.4646809232805,4118
329.8451090723478,4044
332.2248813152577,4149
334.6039978590701,4184
336.9824589109231,4010
339.36026467803447,4069
341.7374153677,4013
344.113911187295,3911
346.48975234427337,3987
348.8649390461686,4032
351.2394715005918,4064
353.61334991523415,3943
355.9865744978655,3989
358.35914545633375,4001
360.73106299856715,3978
363.10232733257146,4070
365.47293866643247,4043
367.84289720831396,4097
370.2122031664593,4025
372.5808567491905,3948
374.9488581649083,4076
377.31620762209275,4001
379.6829053293021,4082
382.0489514951745,4002
384.4143463284262,4067
386.7790900378528,4015
389.14318283232853,3886
391.50662492080653,3945
393.86941651231916,4026
396.23155781597745,3859
398.5930490409713,3956
400.9538903965696,4008
403.3140820921202,4038
405.6736243370498,3994
408.03251734086336,4027
410.3907613131465,3890
412.74835646356166,4000
415.10530300185144,3920
417.4616011378372,3880
419.81725108141893,3961
422.1722530425758,3987
424.5266072313656,4024
426.880313857925,4021
429.2333731324701,3906
431.58578526529516,3969
433.9375504667738,4007
436.2886689473588,4104
438.63914091758113,3914
440.9889665880513,3848
443.33814616945835,3831
445.68667987257015,3856
448.03456790823395,3915
450.3818104873759,3894
452.72840782100013,3938
455.07436012019105,3776
457.41966759611057,3828
459.7643304600007,3964
462.10834892318155,3931
464.4517231970525,4023
466.79445349309174,4010
469.1365400228566,3977
471.4779829979826,3999
473.81878263018564,3956
476.15893913125876,3958
478.4984527130747,3909
480.8373235875855,3919
483.17555196682144,4030
485.5131380628919,4063
487.8500820879857,4058
490.1863842543697,4236
492.52204477439034,4302
494.8570638604725,4299
497.1914417251204,4628
499.52517858091653,4919
501.85827464052306,5092
504.19073011668036,5076
506.5225452222086,5140
508.85372017000566,5151
511.18425517304956,5311
513.514150444396,5355
515.8434061971808,5917
518.1720226446176,6641
520.4999999999999,6917
522.8273384766991,6441
525.1540382881666,6091
527.480099647932,5726
529.8055227696037,5103
532.1303078668694,4695
534.454455153496,4288
536.777964843328,4280
539.1008371502907,4130
541.4230722883866,4219
543.744670471698,4178
546.0656319143858,4243
548.3859568306899,4225
550.7056454349294,4100
553.0246979415016,4015
555.3431145648834,4112
557.6608955196306,4002
559.978041020377,4136
562.2945512818363,4009
564.6104265188006,4075
566.9256669461412,4165
569.2402727788082,4145
571.5542442318302,4182
573.8675815203156,4131
576.1802848594508,4093
578.4923544645015,4074
580.8037905508126,4128
583.114593333807,4158
585.4247630289875,4211
587.7342998519354,4099
590.0432040183106,4142
592.3514757438526,4198
594.6591152443794,4112
596.9661227357875,4132
599.2724984340531,4126
601.578242555231,4118
603.8833553154542,4139
606.1878369309362,4149
608.4916876179676,4193
610.7949075929192,4174
613.0974970722403,4109
615.3994562724587,4165
617.7007854101818,4064
620.0014847020951,4098
622.3015543649641,4137
624.6009946156324,4096
626.8998056710224,4058
629.1979877481361,4080
631.4955410640538,4121
633.7924658359349,4199
636.0887622810175,4147
638.3844306166192,4094
640.6794710601358,4251
642.9738838290426,4233
645.2676691408932,4224
647.5608272133207,4248
649.853358264037,4135
652.1452625108324,4208
654.4365401715764,4128
656.7271914642178,4166
659.0172166067838,4191
661.3066158173809,4149
663.5953893141935,4116
665.8835373154867,4207
668.1710600396028,4248
670.4579577049639,4137
672.7442305300709,4128
675.0298787335033,4243
677.3149025339197,4302
679.599302150058,4341
681.8830778007342,4338
684.1662297048437,4312
686.4487580813608,4223
688.7306631493387,4381
691.0119451279091,4295
693.2926042362834,4253
695.5726406937516,4255
697.8520547196814,4157
700.1308465335215,4303
702.4090163547982,4239
704.6865644031171,4207
706.9634908981619,4170
709.2397960596965,4205
711.5154801075631,4241
713.7905432616823,4186
716.0649857420548,4320
718.3388077687592,4208
720.612009561953,4341
722.8845913418733,4236
725.1565533288352,4275
727.427895743234,4231
729.6986188055427,4403
731.9687227363137,4211
734.238207756178,4276
736.5070740858458,4170
738.7753219461066,4263
741.0429515578281,4278
743.3099631419569,4405
745.5763569195191,4360
747.8421331116193,4254
750.1072919394409,4407
752.3718336242467,4241
754.6357583873777,4209
756.8990664502545,4263
759.1617580343765,4315
761.423833361321,4336
763.6852926527457,4366
765.9461361303862,4211
768.206364016058,4266
770.4659765316536,4356
772.7249738991469,4337
774.9833563405886,4444
777.2411240781092,4316
779.4982773339183,4332
781.7548163303044,4321
784.010741289634,4191
786.2660524343538,4353
788.5207499869881,4456
790.7748341701416,4376
793.0283052064964,4243
795.2811633188143,4346
797.5334087299362,4414
799.7850416627813,4558
802.0360623403484,4328
804.2864709857143,4334
806.5362678220353,4373
808.7854530725468,4451
811.0340269605625,4332
813.2819897094754,4348
815.5293415427581,4308
817.77608268396,4523
820.0222133567116,4459
822.2677337847211,4434
824.5126441917765,4413
826.7569448017433,4382
829.0006358385675,4423
831.2437175262731,4335
833.4861900889629,4388
835.7280537508192,4403
837.9693087361026,4279
840.2099552691533,4443
842.4499935743896,4383
844.689423876309,4320
846.9282463994886,4422
849.1664613685833,4490
851.4040690083276,4302
853.6410695435349,4384
855.877463199097,4372
858.1132501999847,4307
860.3484307712487,4364
862.5830051380175,4432
864.8169735254988,4448
867.0503361589791,4531
869.2830932638243,4571
871.5152450654786,4417
873.7467917894654,4506
875.9777336613873,4365
878.2080709069252,4379
880.4378037518389,4520
882.666932421968,4462
884.8954571432301,4464
887.1233781416219,4445
889.3506956432192,4398
891.5774098741766,4406
893.803521060728,4380
896.0290294291852,4390
898.2539352059397,4363
900.4782386174619,4468
902.7019398903011,4365
904.925039251085,4407
907.147536926521,4438
909.3694331433943,4295
911.59072812857,4352
913.8114221089921,4380
916.0315153116827,4371
918.2510079637437,4349
920.4699002923547,4423
922.6881925247761,4395
924.905884888345,4509
927.1229776104793,4411
929.3394709186747,4342
931.555365040506,4401
933.7706602036275,4368
935.9853566357709,4410
938.1994545647489,4496
940.4129542184515,4477
942.6258558248488,4455
944.8381596119883,4378
947.0498658079974,4366
949.2609746410825,4434
951.4714863395287,4371
953.6814011316998,4312
955.8907192460387,4430
958.0994409110671,4503
960.3075663553858,4380
962.5150958076741,4346
964.7220294966913,4317
966.928367651274,4431
969.1341105003388,4475
971.3392582728806,4423
973.5438111979742,4474
975.747769504772,4385
977.9511334225061,4437
980.153903180487,4473
982.3560790081052,4401
984.5576611348289,4364
986.7586497902058,4357
988.9590452038618,4355
991.158847605503,4366
993.3580572249133,4443
995.5566742919558,4392
997.7546990365728,4274
999.952131688785,4279
1002.1489724786926,4272
1004.3452216364743,4171
1006.5408793923874,4202
1008.7359459767691,4257
1010.9304216200343,4122
1013.1243065526781,4163
1015.3176010052733,4260
1017.510305208472,4228
1019.7024193930064,4274
1021.8939437896848,4332
1024.0848786293977,4152
1026.2752241431122,4212
1028.4649805618747,4189
1030.6541481168115,4157
1032.842727039127,4219
1035.0307175601051,4163
1037.2181199111074,4210
1039.4049343235752,4156
1041.591161029029,4177
1043.7768002590683,4228
1045.9618522453698,4148
1048.1463172196918,4205
1050.3301954138697,4284
1052.513487059818,4311
1054.69619238953,4134
1056.8783116350783,4387
1059.0598450286152,4032
1061.2407928023704,4154
1063.4211551886528,4206
1065.6009324198508,4275
1067.780124728432,4307
1069.9587323469414,4198
1072.1367555080046,4186
1074.314194444325,4155
1076.4910493886855,4341
1078.667320573947,4152
1080.843008233051,4125
1083.0181125990161,4267
1085.1926339049414,4154
1087.3665723840027,3996
1089.5399282694575,4105
1091.7127017946405,4154
1093.8848931929647,4214
1096.0565026979243,4082
1098.2275305430899,4216
1100.3979769621128,4117
1102.567842188722,4191
1104.737126456726,4116
1106.9058300000124,4124
1109.0739530525475,4068
1111.2414958483764,4169
1113.4084586216231,4232
1115.5748416064907,4173
1117.7406450372605,4108
1119.9058691482942,4141
1122.0705141740304,4158
1124.2345803489884,4350
1126.3980679077658,4224
1128.5609770850388,4149
1130.7233081155623,4123
1132.8850612341707,4167
1135.0462366757774,4233
1137.2068346753745,4218
1139.3668554680326,4190
1141.526299288901,4256
1143.68516637321,4171
1145.8434569562655,4124
1148.001171273455,4195
1150.158309560244,4237
1152.3148720521767,4180
1154.470858984876,4232
1156.626270594044,4189
1158.7811071154629,4155
1160.9353687849912,4109
1163.089055838569,4179
1165.242168512213,4189
1167.3947070420209,4140
1169.5466716641677,4144
1171.6980626149075,4181
1173.8488801305748,4290
1175.9991244475814,4099
1178.1487958024186,4163
1180.2978944316555,4166
1182.4464205719428,4245
1184.5943744600072,4165
1186.7417563326567,4047
1188.8885664267755,4222
1191.0348049793297,4120
1193.1804722273619,4176
1195.325568407995,4245
1197.4700937584303,4193
1199.614048515948,4085
1201.7574329179074,4097
1203.900247201746,4083
1206.042491604982,4115
1208.1841663652099,4199
1210.3252717201053,4201
1212.465807907422,4209
1214.6057751649923,4260
1216.7451737307279,4239
1218.8840038426192,4146
1221.0222657387353,4224
1223.1599596572241,4251
1225.2970858363137,4223
1227.4336445143094,4248
1229.5696359295966,4295
1231.705060320639,4245
1233.8399179259786,4306
1235.9742089842384,4286
1238.107933734118,4227
1240.2410924143974,4285
1242.373685263935,4370
1244.5057125216676,4238
1246.6371744266116,4281
1248.7680712178621,4327
1250.898403134593,4228
1253.028170416058,4286
1255.1573733015875,4334
1257.2860120305932,4268
1259.4140868425648,4324
1261.54159797707,4301
1263.6685456737569,4326
1265.7949301723515,4333
1267.9207517126597,4320
1270.046010534565,4351
1272.1707068780306,4253
1274.2948409830983,4332
1276.4184130898889,4339
1278.541423438603,4295
1280.6638722695184,4434
1282.785759822993,4455
1284.9070863394636,4457
1287.0278520594447,4258
1289.1480572235314,4342
1291.2677020723963,4432
1293.3867868467923,4483
1295.5053117875495,4468
1297.623277135579,4413
1299.740683131868,4341
1301.8575300174857,4478
1303.973818033578,4499
1306.0895474213703,4545
1308.2047184221678,4476
1310.3193312773528,4524
1312.4333862283888,4491
1314.5468835168163,4391
1316.659823384255,4505
1318.7722060724045,4472
1320.8840318230418,4458
1322.9953008780249,4506
1325.1060134792888,4496
1327.2161698688478,4387
1329.3257702887959,4453
1331.4348149813054,4456
1333.5433041886276,4536
1335.6512381530933,4585
1337.7586171171101,4434
1339.8654413231675,4347
1341.9717110138317,4372
1344.0774264317488,4428
1346.1825878196432,4482
1348.2871954203192,4258
1350.3912494766587,4480
1352.4947502316231,4423
1354.5976979282532,4376
1356.7000928096686,4462
1358.8019351190665,4335
1360.9032250997243,4357
1363.0039629949988,4486
1365.1041490483235,4396
1367.2037835032133,4443
1369.3028666032606,4426
1371.401398592137,4376
1373.4993797135926,4446
1375.5968102114575,4393
1377.6936903296396,4526
1379.7900203121262,4543
1381.8858004029835,4531
1383.9810308463561,4594
1386.075711886469,4413
1388.1698437676241,4514
1390.2634267342032,4513
1392.356461030667,4481
1394.4489469015557,4585
1396.5408845914872,4492
1398.6322743451592,4574
1400.7231164073469,4543
1402.813411022907,4487
1404.903158436773,4515
1406.9923588939578,4559
1409.0810126395531,4597
1411.1691199187303,4529
1413.2566809767386,4492
1415.343696058907,4454
1417.4301654106425,4461
1419.5160892774315,4589
1421.6014679048399,4582
1423.6863015385125,4605
1425.7705904241707,4442
1427.8543348076178,4480
1429.9375349347342,4466
1432.0201910514802,4516
1434.102303403894,4522
1436.1838722380944,4643
1438.2648978002767,4615
1440.3453803367174,4431
1442.4253200937692,4515
1444.5047173178677,4632
1446.5835722555234,4727
1448.6618851533285,4616
1450.739656257952,4632
1452.8168858161434,4643
1454.8935740747306,4666
1456.96972128062,4756
1459.045327680797,4631
1461.120393522327,4600
1463.1949190523528,4692
1465.2689045180973,4688
1467.3423501668608,4915
1469.415256246024,4831
1471.4876230030463,4773
1473.559450685465,4870
1475.6307395408976,4758
1477.7014898170391,4852
1479.771701761665,4756
1481.8413756226287,4772
1483.9105116478618,4874
1485.9791100853772,4890
1488.0471711832643,4949
1490.1146951896926,4766
1492.1816823529098,5077
1494.2481329212433,4839
1496.3140471430984,5034
1498.3794252669609,4886
1500.4442675413939,4853
1502.5085742150404,5034
1504.572345536622,4923
1506.6355817549388,4942
1508.6982831188702,4988
1510.7604498773744,5002
1512.8220822794883,4875
1514.8831805743293,4967
1516.9437450110909,5048
1519.003775839048,4901
1521.0632733075522,5039
1523.1222376660367,5017
1525.1806691640113,5006
1527.2385680510652,5168
1529.2959345768668,5026
1531.3527689911643,5044
1533.4090715437833,4939
1535.4648424846291,5057
1537.5200820636855,5034
1539.5747905310159,5063
1541.6289681367616,5239
1543.6826151311434,5192
1545.7357317644614,5273
1547.7883182870937,5281
1549.8403749494987,5267
1551.8919020022113,5359
1553.9428996958477,5217
1555.9933682811015,5294
1558.0433080087469,5286
1560.0927191296346,5363
1562.1416018946961,5430
1564.1899565549415,5445
1566.2377833614592,5298
1568.2850825654164,5417
1570.3318544180606,5245
1572.3780991707158,5221
1574.423817074788,5466
1576.4690083817595,5338
1578.5136733431923,5252
1580.5578122107272,5261
1582.601425236085,5111
1584.6445126710646,5150
1586.6870747675434,5055
1588.7291117774776,5075
1590.7706239529034,4977
1592.8116115459347,4803
1594.8520748087658,4852
1596.8920139936686,4800
1598.9314293529933,4856
1600.9703211391711,4851
1603.008689604711,4674
1605.0465350022005,4726
1607.0838575843068,4672
1609.1206576037753,4648
1611.1569353134305,4739
1613.1926909661765,4650
1615.2279248149953,4631
1617.2626371129481,4556
1619.2968281131757,4610
1621.3304980688963,4559
1623.3636472334088,4522
1625.39627586009,4519
1627.428384202396,4576
1629.459972513861,4591
1631.4910410480993,4541
1633.5215900588028,4535
1635.551619799744,4593
1637.5811305247717,4622
1639.6101224878166,4468
1641.6385959428862,4505
1643.6665511440683,4499
1645.693988345528,4522
1647.7209078015112,4575
1649.7473097663405,4498
1651.7731944944203,4418
1653.7985622402307,4441
1655.823413258333,4451
1657.847747803366,4498
1659.8715661300494,4486
1661.8948684931793,4399
1663.9176551476316,4516
1665.9399263483624,4508
1667.9616823504057,4388
1669.982923408873,4441
1672.0036497789574,4545
1674.0238617159293,4486
1676.043559475138,4494
1678.0627433120121,4401
1680.081413482059,4345
1682.0995702408654,4584
1684.117213844096,4452
1686.134344547495,4396
1688.1509626068864,4459
1690.1670682781705,4410
1692.182661817329,4480
1694.1977434804217,4512
1696.2123135235875,4357
1698.226372203043,4421
1700.2399197750851,4398
1702.2529564960905,4463
1704.2654826225112,4511
1706.277498410882,4478
1708.2890041178139,4552
1710.2999999999988,4435
1712.3104863142066,4498
1714.3204633172854,4482
1716.329931266163,4377
1718.3388904178469,4413
1720.3473410294214,4458
1722.3552833580516,4416
1724.3627176609807,4412
1726.3696441955308,4480
1728.3760632191033,4533
1730.3819749891782,4497
1732.3873797633146,4327
1734.3922777991502,4311
1736.3966693544012,4386
1738.4005546868639,4348
1740.4039340544127,4489
1742.406807715001,4459
1744.4091759266616,4459
1746.4110389475054,4445
1748.4123970357223,4456
1750.413250449582,4455
1752.4135994474318,4479
1754.4134442876993,4434
1756.4127852288902,4390
1758.4116225295893,4335
1760.4099564484595,4384
1762.407787244244,4444
1764.405115175764,4459
1766.4019405019203,4326
1768.3982634816916,4385
1770.3940843741357,4326
1772.3894034383907,4352
1774.3842209336717,4342
1776.378537119274,4389
1778.372352254571,4390
1780.3656665990156,4354
1782.3584804121397,4441
1784.3507939535534,4430
1786.3426074829463,4321
1788.3339212600863,4322
1790.3247355448211,4396
1792.3150505970766,4412
1794.3048666768573,4355
1796.2941840442477,4431
1798.2830029594106,4373
1800.2713236825884,4394
1802.2591464741004,4432
1804.2464715943465,4438
1806.2332993038058,4393
1808.2196298630352,4425
1810.2054635326708,4381
1812.190800573428,4411
1814.175641246101,4451
1816.1599858115628,4440
1818.1438345307652,4396
1820.127187664738,4390
1822.1100454745924,4401
1824.092408221516,4363
1826.0742761667766,4347
1828.055649571721,4293
1830.0365286977735,4465
1832.0169138064398,4530
1833.9968051593014,4387
1835.9762030180214,4385
1837.9551076443408,4450
1839.9335193000788,4417
1841.9114382471344,4408
1843.888864747485,4402
1845.8657990631878,4359
1847.842241456378,4345
1849.8181921892697,4456
1851.7936515241558,4271
1853.7686197234098,4441
1855.7430970494815,4409
1857.7170837649014,4379
1859.6905801322787,4436
1861.6635864143004,4476
1863.6361028737338,4352
1865.608129773424,4424
1867.5796673762961,4494
1869.5507159453537,4366
1871.521275743678,4358
1873.4913470344313,4419
1875.4609300808534,4550
1877.4300251462632,4293
1879.3986324940588,4472
1881.366752387717,4459
1883.3343850907936,4329
1885.3015308669228,4383
1887.268189979819,4464
1889.2343626932739,4549
1891.2000492711595,4525
1893.1652499774254,4394
1895.1299650761011,4472
1897.0941948312952,4344
1899.0579395071945,4428
1901.0211993680641,4458
1902.98397467825,4539
1904.9462657021745,4541
1906.9080727043415,4496
1908.869395949332,4450
1910.8302357018065,4419
1912.790592226504,4384
1914.7504657882428,4398
1916.7098566519212,4389
1918.6687650825133,4368
1920.6271913450764,4373
1922.5851357047422,4335
1924.5425984267245,4470
1926.499579776314,4405
1928.4560800188833,4486
1930.4120994198802,4459
1932.367638244833,4410
1934.32269675935,4409
1936.2772752291175,4466
1938.231373919899,4394
1940.1849930975404,4390
1942.1381330279637,4480
1944.0907939771696,4524
1946.0429762112412,4536
1947.9946799963363,4445
1949.9459055986945,4519
1951.896653284633,4322
1953.8469233205478,4482
1955.7967159729142,4370
1957.7460315082863,4426
1959.6948701932974,4523
1961.6432322946594,4557
1963.5911180791632,4403
1965.5385278136787,4448
1967.4854617651545,4449
1969.4319202006182,4504
1971.377903387176,4403
1973.3234115920136,4434
1975.268445082395,4513
1977.2130041256642,4347
1979.1570889892423,4464
1981.1006999406304,4320
1983.04383724741,4478
1984.986501177238,4361
1986.928691997853,4376
1988.8704099770712,4417
1990.811655382789,4362
1992.7524284829801,4484
1994.692729545698,4486
1996.6325588390755,4449
1998.5719166313224,4544
2000.5108031907307,4523
2002.4492187856677,4372
2004.387163684583,4346
2006.3246381560011,4398
2008.2616424685298,4499
2010.1981768908527,4454
2012.1342416917332,4476
2014.069837140014,4446
2016.0049635046162,4484
2017.9396210545406,4471
2019.8738100588666,4453
2021.8075307867502,4434
2023.740783507431,4438
2025.6735684902228,4332
2027.6058860045214,4519
2029.5377363198004,4488
2031.4691197056118,4511
2033.4000364315875,4382
2035.3304867674374,4401
2037.260470982952,4505
2039.189989347998,4546
2041.1190421325232,4541
2043.047629606554,4537
2044.9757520401945,4492
2046.9034097036288,4502
2048.8306028671195,4507
2050.7573318010086,4548
2052.683596775716,4454
2054.609398061742,4502
2056.5347359296647,4478
2058.4596106501403,4433
2060.384022493906,4385
2062.3079717317764,4439
2064.231458634646,4396
2066.1544834734873,4569
2068.077046519352,4504
2069.99914804337,4490
2071.9207883167524,4415
2073.8419676107865,4491
2075.7626861968406,4551
2077.6829443463607,4459
2079.6027423308715,4503
2081.522080421977,4479
2083.440958891362,4524
2085.359378010786,4604
2087.2773380520907,4504
2089.194839287196,4496
2091.111881988101,4576
2093.0284664268825,4462
2094.9445928756973,4523
2096.86026160678,4554
2098.775472892446,4482
2100.690227005088,4485
2102.604524217178,4534
2104.5183648012676,4568
2106.431749029985,4534
2108.34467717604,4514
2110.2571495122206,4579
2112.169166311393,4421
2114.080727846503,4522
2115.9918343905747,4446
2117.902486216711,4436
2119.8126835980956,4562
2121.722426807987,4629
2123.6317161197285,4539
2125.5405518067364,4563
2127.448934142509,4632
2129.356863400624,4536
2131.264339854737,4503
2133.1713637785815,4580
2135.077935445972,4518
2136.9840551308002,4658
2138.889723107037,4572
2140.7949396487334,4724
2142.699705030018,4532
2144.6040195250994,4558
2146.507883408264,4571
2148.4112969538774,4749
2150.3142604363848,4680
2152.2167741303097,4679
2154.1188383102535,4620
2156.0204532508997,4727
2157.9216192270064,4659
2159.822336513414,4568
2161.7226053850413,4659
2163.622426116884,4675
2165.5217989840185,4592
2167.4207242616,4724
2169.319202224862,4678
2171.2172331491165,4638
2173.1148173097563,4764
2175.0119549822507,4639
2176.90864644215,4690
2178.8048919650823,4657
2180.7006918267534,4591
2182.596046302952,4709
2184.4909556695407,4780
2186.3854202024645,4769
2188.279440177746,4770
2190.173015871487,4720
2192.066147559868,4716
2193.958835519149,4762
2195.851080025667,4755
2197.7428813558417,4703
2199.6342397861667,4788
2201.5251555932186,4718
2203.415629053651,4587
2205.3056604441986,4631
2207.19525004167,4694
2209.084398122958,4737
2210.9731049650327,4794
2212.861370844941,4720
2214.749196039812,4673
2216.636580826851,4832
2218.523525483344,4810
2220.410030286655,4902
2222.296095514226,4641
2224.1817214435805,4775
2226.066908352319,4766
2227.951656518121,4737
2229.835966218746,4852
2231.71983773203,4753
2233.6032713358913,4796
2235.486267308324,4716
2237.3688259274036,4701
2239.2509474712824,4732
2241.132632218193,4799
2243.013880446447,4774
2244.8946924344323,4737
2246.7750684606203,4756
2248.6550088035574,4818
2250.534513741871,4778
2252.413583554265,4773
2254.292218519526,4665
2256.170418916517,4726
2258.0481850241786,4820
2259.925517121534,4887
2261.8024154876825,4811
2263.678880401803,4702
2265.5549121431536,4699
2267.430510991071,4814
2269.305677224971,4669
2271.180411124348,4748
2273.0547129687766,4727
2274.9285830379076,4698
2276.8020216114737,4697
2278.6750289692845,4745
2280.5476053912294,4779
2282.4197511572766,4742
2284.2914665474727,4814
2286.162751841943,4813
2288.0336073208937,4764
2289.904033264608,4691
2291.774029953448,4816
2293.6435976678554,4786
2295.5127366883517,4627
2297.381447295534,4693
2299.2497297700825,4620
2301.1175843927526,4730
2302.9850114443825,4653
2304.852011205885,4640
2306.7185839582553,4631
2308.5847299825664,4634
2310.4504495599676,4570
2312.3157429716925,4514
2314.1806104990483,4654
2316.0450524234247,4584
2317.9090690262888,4623
2319.772660589186,4656
2321.635827393742,4605
2323.498569721661,4648
2325.3608878547248,4514
2327.2227820747967,4651
2329.0842526638157,4710
2330.945299903803,4600
2332.805924076857,4580
2334.6661254651535,4629
2336.525904350951,4577
2338.3852610165827,4556
2340.244195744464,4706
2342.102708817088,4655
2343.9608005170253,4479
2345.8184711269287,4582
2347.675720929526,4669
2349.532550207628,4660
2351.38895924412,4568
2353.24494832197,4588
2355.100517724223,4680
2356.955667734004,4667
2358.810398634514,4686
2360.664710709037,4632
2362.5186042409337,4587
2364.3720795136437,4693
2366.225136810686,4572
2368.0777764156583,4701
2369.929998612237,4667
2371.7818036841777,4599
2373.633191915315,4676
2375.484163589562,4515
2377.3347189909114,4608
2379.184858403434,4667
2381.03458211128,4684
2382.8838903986775,4566
2384.732783549936,4646
2386.5812618494406,4619
2388.4293255816588,4668
2390.2769750311327,4633
2392.1242104824883,4650
2393.971032220427,4573
2395.8174405297295,4558
2397.6634356952563,4647
2399.509018001947,4607
2401.3541877348193,4637
2403.1989451789705,4596
2405.043290619576,4686
2406.8872243418905,4697
2408.730746631247,4654
2410.5738577730594,4676
2412.4165580528183,4614
2414.258847756095,4663
2416.100727168537,4611
2417.9421965758734,4693
2419.783256263912,4659
2421.623906518538,4649
2423.4641476257157,4713
2425.303979871491,4753
2427.143403541984,4710
2428.9824189233977,4677
2430.821026302012,4695
2432.6592259641866,4611
2434.497018196361,4719
2436.33440328505,4654
2438.171381516851,4643
2440.00795317844,4626
2441.844118556569,4588
2443.6798779380724,4622
2445.5152316098606,4679
2447.3501798589255,4766
2449.1847229723357,4671
2451.0188612372403,4799
2452.8525949408663,4623
2454.6859243705203,4692
2456.518849813587,4652
2458.3513715575314,4746
2460.183489889895,4861
2462.015205098301,4721
2463.8465174704493,4651
2465.67742729412,4676
2467.5079348571717,4733
2469.338040447542,4866
2471.1677443532476,4771
2472.9970468623833,4717
2474.825948263123,4688
2476.6544488437207,4708
2478.482548892508,4652
2480.310248697896,4693
2482.137548548374,4637
2483.9644487325118,4779
2485.790949538956,4754
2487.617051256433,4702
2489.44275417375,4654
2491.26805857979,4705
2493.0929647635157,4718
2494.917473013971,4713
2496.741583620276,4753
2498.5652968716304,4791
2500.3886130573137,4690
2502.2115324666834,4760
2504.0340553891765,4779
2505.856182114308,4790
2507.6779129316733,4820
2509.499248130945,4931
2511.3201880018764,4792
2513.140732834298,4713
2514.9608829181198,4753
2516.780638543331,4789
2518.6,4849
2520.418967578273,4749
2522.237541568376,4682
2524.0557222606144,4695
2525.8735099453706,4738
2527.6909049131086,4763
2529.507907454368,4776
2531.32451785977,4635
2533.140736420014,4829
2534.9565634258774,4696
2536.771999168218,4764
2538.5870439379714,4842
2540.4016980261526,4937
2542.2159617238544,4968
2544.02983532225,4776
2545.8433191125914,4926
2547.656413386209,4806
2549.4691184345115,4866
2551.2814345489874,4797
2553.093362021204,4858
2554.904901142808,4721
2556.716052205523,4715
2558.526815501153,4797
2560.3371913215824,4843
2562.147179958771,4857
2563.956781704761,4846
2565.7659968516705,4884
2567.5748256916986,4766
2569.3832685171224,4943
2571.1913256202984,4835
2572.9989972936614,4844
2574.806283829725,4947
2576.613185521084,4869
2578.4197026604074,4895
2580.2258355404483,4948
2582.031584454035,4940
2583.836949694077,4958
2585.6419315535613,4906
2587.4465303255533,5014
2589.2507463032002,4909
2591.0545797797245,4812
2592.8580310484303,4928
2594.6611004026995,4881
2596.463788135992,4894
2598.266094541849,4848
2600.0680199138874,4912
2601.869564545807,4950
2603.670728731383,4920
2605.4715127644704,4929
2607.2719169390048,4915
2609.071941548998,4922
2610.8715868885433,4869
2612.670853251811,4963
2614.469740933052,4828
2616.268250226594,4997
2618.0663814268455,4878
2619.864134828292,4863
2621.6615107255006,4876
2623.458509413115,4855
2625.2551311858597,4881
2627.0513763385347,4867
2628.8472451660223,4806
2630.6427379632833,4899
2632.4378550253564,4900
2634.232596647359,4844
2636.026963124488,4816
2637.8209547520187,4746
2639.6145718253065,4855
2641.407814639785,4903
2643.200683490966,4769
2644.9931786744414,4786
2646.7853004858807,4907
2648.577049221034,4875
2650.3684251757277,4797
2652.1594286458712,4776
2653.9500599274484,4789
2655.740319316525,4814
2657.5302071092437,4818
2659.3197236018286,4896
2661.10886909058,4817
2662.8976438718782,4779
2664.686048242183,4955
2666.4740824980327,4765
2668.2617469360443,4839
2670.0490418529134,4913
2671.8359675454153,4787
2673.622524310403,4861
2675.408712444811,4880
2677.1945322456495,4963
2678.979984010009,4767
2680.76506803506,4725
2682.5497846180497,4772
2684.334134056306,4731
2686.1181166472343,4843
2687.9017326883213,4902
2689.6849824771293,4822
2691.4678663113013,4870
2693.2503844885596,4840
2695.032537306705,4784
2696.8143250636167,4905
2698.5957480572542,4769
2700.3768065856534,4768
2702.1575009469316,4768
2703.937831439283,4845
2705.717798360982,4848
2707.4974020103837,4793
2709.276642685917,4819
2711.055520686095,4602
2712.834036309506,4677
2714.612189854819,4751
2716.389981620782,4830
2718.1674119062204,4762
2719.944481010041,4741
2721.721189231226,4670
2723.4975368688415,4728
2725.273524222027,4707
2727.0491515900053,4718
2728.824419272075,4770
2730.5993275676146,4886
2732.3738767760838,4755
2734.148067197016,4880
2735.921899130031,4734
2737.6953728748194,4745
2739.468488731156,4793
2741.2412469988926,4672
2743.0136479779617,4638
2744.785691968372,4801
2746.5573792702116,4827
2748.3287101836504,4893
2750.099685008934,4964
2751.870304046388,4760
2753.640567596418,4833
2755.4104759595057,4846
2757.1800294362156,4741
2758.949228327187,4804
2760.7180729331412,4685
2762.486563554877,4815
2764.254700493272,4849
2766.022484049284,4773
2767.789914523947,4792
2769.5569922183786,4776
2771.3237174337705,4843
2773.090090471394,4887
2774.8561116326036,4715
2776.6217812188274,4776
2778.3870995315756,4718
2780.1520668724356,4702
2781.9166835430747,4823
2783.6809498452394,4835
2785.444866080754,4803
2787.2084325515225,4856
2788.971649559527,4886
2790.73451740683,4777
2792.4970363955713,4815
2794.2592068279705,4874
2796.0210290063264,4828
2797.7825032330147,4798
2799.543629810493,4834
2801.304409041296,4847
2803.0648412280366,4780
2804.8249266734088,4826
2806.5846656801846,4729
2808.344058551212,4791
2810.1031055894246,4832
2811.8618070978273,4986
2813.6201633795085,4822
2815.378174737636,4886
2817.1358414754536,4819
2818.893163896285,4897
2820.6501423035334,4794
2822.4067770006814,4837
2824.1630682912883,4926
2825.9190164789957,4798
2827.6746218675207,4852
2829.429884760661,4778
2831.184805462294,4896
2832.9393842763743,4868
2834.693621506936,4936
2836.4475174580916,4934
2838.201072434034,4845
2839.954286739034,4815
2841.707160677441,4914
2843.459694553685,4832
2845.2118886722724,4816
2846.96374333779,4722
2848.7152588549034,4794
2850.4664355283567,4878
2852.217273662973,4889
2853.9677735636546,4892
2855.7179355353833,4912
2857.4677598832186,4959
2859.217246912299,4736
2860.9663969278427,4824
2862.715210235146,4858
2864.4636871395846,4891
2866.211827946614,4866
2867.9596329617652,4908
2869.7071024906536,4797
2871.4542368389684,4902
2873.20103631248,4867
2874.947501217038,4817
2876.6936318585695,4882
2878.4394285430812,4798
2880.1848915766604,4849
2881.9300212654707,4909
2883.6748179157553,4804
2885.4192818338374,4863
2887.1634133261173,4750
2888.907212699077,4882
2890.6506802592744,4889
2892.393816313348,4828
2894.1366211680142,4889
2895.8790951300693,4916
2897.621238506388,4821
2899.363051603925,4848
2901.1045347297118,4797
2902.8456881908596,4901
2904.58651229456,4948
2906.327007348081,4923
2908.067173658772,4920
2909.8070115340597,4680
2911.5465212814497,4901
2913.285703208527,4890
2915.0245576229563,4858
2916.7630848324807,4771
2918.5012851449196,4764
2920.2391588681758,4809
2921.976706310227,4869
2923.7139277791334,4933
2925.4508235830313,4948
2927.187394030137,4940
2928.923639428745,4832
2930.6595600872306,4881
2932.395156314046,4864
2934.1304284177218,4971
2935.8653767068713,4860
2937.6000014901815,4765
2939.3343030764227,4926
2941.068281774442,5125
2942.8019378931644,4868
2944.5352717415976,4900
2946.2682836288236,4897
2948.0009738640065,4984
2949.7333427563885,5020
2951.465390615289,4945
2953.1971177501086,4917
2954.9285244703265,4838
2956.6596110855,4897
2958.3903779052657,4893
2960.1208252393385,4836
2961.8509533975125,4747
2963.5807626896617,4867
2965.3102534257378,4985
2967.0394259157715,4909
2968.768280469873,4972
2970.496817398232,4891
2972.2250370111146,4827
2973.952939618869,4859
2975.6805255319196,5019
2977.4077950607707,4852
2979.134748516006,4996
2980.861386208289,4978
2982.587708448359,4970
2984.313715547037,4983
2986.039407815222,4887
2987.764785563891,5013
2989.489849104102,4934
2991.2145987469908,4851
2992.9390348037705,4867
2994.6631575857346,5037
2996.3869674042576,5016
2998.1104645707887,4937
2999.83364939686,4969
3001.5565221940783,4988
3003.2790832741334,4911
3005.0013329487924,5013
3006.7232715298996,4967
3008.4448993293804,4964
3010.166216659239,4871
3011.887223831558,4963
3013.607921158498,4948
3015.3283089522993,4861
3017.0483875252826,4856
3018.7681571898443,4880
3020.4876182584626,4931
3022.2067710436927,4786
3023.9256158581707,5058
3025.644153014609,5010
3027.362382825801,4908
3029.0803056046193,4863
3030.797921664012,4976
3032.5152313170106,5000
3034.2322348767225,4921
3035.9489326563353,4877
3037.665324969115,4943
3039.3814121284063,4969
3041.097194447633,4921
3042.812672240299,5018
3044.5278458199855,5035
3046.2427155003525,4883
3047.9572815951406,5015
3049.671544418167,4903
3051.38550428333,4939
3053.0991615046073,4880
3054.812516396051,4933
3056.5255692717974,4980
3058.2383204460575,4865
3059.9507702331257,4957
3061.662918947372,4897
3063.3747669032446,4905
3065.0863144152736,4862
3066.7975617980674,4973
3068.508509366309,4885
3070.219157434767,4976
3071.9295063182844,4960
3073.639556331785,4970
3075.3493077902704,4855
3077.058761008821,5008
3078.7679163025964,4888
3080.476773986837,4983
3082.1853343768594,4867
3083.89359778806,4844
3085.6015645359153,4975
3087.3092349359786,4863
3089.016609303884,5006
3090.7236879553434,4989
3092.4304712061476,4935
3094.136959372166,4984
3095.843152769349,4911
3097.5490517137237,5000
3099.2546565213966,5025
3100.959967508554,4910
3102.66498499146,5077
3104.3697092864577,4913
3106.0741407099695,4955
3107.778279578498,5048
3109.482126208622,5002
3111.1856809170004,5027
3112.8889440203716,5024
3114.5919158355528,5001
3116.294596679439,4956
3117.996986869006,5085
3119.6990867213062,5050
3121.4008965534726,5019
3123.102416682717,5014
3124.803647426329,5050
3126.5045891016784,5075
3128.205242026213,5088
3129.90560651746,5086
3131.605682893025,5071
3133.3054714705922,5195
3135.0049725679282,5052
3136.7041865028714,5077
3138.4031135933465,5049
3140.101754157353,5032
3141.800108512971,5022
3143.498176978357,5124
3145.1959598717494,5017
3146.8934575114636,5053
3148.5906702158954,5078
3150.2875983035183,4882
3151.9842420928853,4975
3153.680601902627,5018
3155.376678051456,4983
3157.07247085816,4976
3158.767980641609,5032
3160.463207720748,4999
3162.158152414606,5013
3163.8528150422862,5114
3165.5471959229726,4835
3167.2412953759303,4972
3168.9351137204976,5036
3170.628651276098,5029
3172.3219083622307,5084
3174.014885298474,5027
3175.707582404485,5042
3177.4000000000005,5119
3179.092138404835,5081
3180.7839979388846,5217
3182.47557892212,5142
3184.166881674594,5093
3185.8579065164386,5030
3187.5486537678626,4955
3189.2391237491547,5071
3190.9293167806827,5102
3192.6192331828934,5024
3194.3088732763117,5124
3195.998237381542,5021
3197.687325819268,5004
3199.376138910251,5071
3201.064676975334,5077
3202.7529403354347,5081
3204.4409293115523,5080
3206.1286442247647,5147
3207.816085396229,4974
3209.5032531471825,4939
3211.190147798936,5016
3212.8767696728846,4939
3214.5631190905015,5051
3216.2491963733373,5007
3217.9350018430214,4937
3219.6205358212637,4869
3221.305798629851,4994
3222.990790590651,4858
3224.6755120256103,5083
3226.359963256751,4955
3228.0441446061795,4999
3229.7280563960758,5001
3231.411698948703,5042
3233.0950725863995,5164
3234.778177631587,5017
3236.461014406761,5021
3238.1435832345005,4972
3239.8258844374595,4981
3241.507918338374,5062
3243.1896852600576,5137
3244.8711855254023,5061
3246.552419457381,5096
3248.233387379042,5062
3249.914089613516,5083
3251.59452648401,5046
3253.274698313813,5075
3254.95460542629,4980
3256.6342481448855,5038
3258.313626793125,4960
3259.9927416946084,5109
3261.6715931730196,4920
3263.3501815521176,4902
3265.0285071557437,5074
3266.706570307815,5071
3268.3843713323286,4946
3270.0619105533615,5031
3271.739188295068,5100
3273.4162048816834,5018
3275.0929606375184,5087
3276.769455886966,5129
3278.445690954498,5025
3280.1216661646613,5117
3281.797381842087,5006
3283.4728383114807,5027
3285.1480358976296,5073
3286.8229749253996,5120
3288.4976557197333,5091
3290.172078605655,5023
3291.846243908266,5045
3293.5201519527463,4974
3295.193803064357,5004
3296.8671975684374,4915
3298.5403357904024,4953
3300.21321805575,5100
3301.8858446900567,5122
3303.558216018975,5095
3305.23033236824,5060
3306.9021940636603,5297
3308.57380143113,5124
3310.2451547966184,5165
3311.916254486174,5257
3313.5871008259246,5092
3315.2576941420766,5101
3316.9280347609147,5041
3318.5981230088046,5003
3320.2679592121895,5043
3321.9375436975924,4955
3323.606876791612,4944
3325.27595882093,5014
3326.944790112305,5076
3328.6133709925753,5076
3330.2817017886573,5031
3331.949782827547,5070
3333.617614436319,5172
3335.2851969421245,5108
3336.952530672199,5177
3338.619615953853,5201
3340.286453114475,5210
3341.9530424815357,5249
3343.619384382583,5175
3345.2854791452437,5199
3346.951327097224,5207
3348.6169285663073,5109
3350.2822838803577,5131
3351.947393367319,5127
3353.61225735521,5001
3355.2768761721345,5084
3356.9412501462693,5130
3358.605379605873,5132
3360.2692648792827,5176
3361.9329062949146,5100
3363.596304181263,5133
