CollectionTime,7/9/2024 4:26:46 PM
ExposureUsed,3
CalibratedSpectrum
-962.7078968117929,471
-959.9714848408522,500
-957.2358232597828,512
-954.5009119013725,487
-951.7667505983302,472
-949.0333391832855,487
-946.3006774887896,504
-943.5687653473143,497
-940.837602591253,450
-938.1071890529199,486
-935.3775245645503,497
-932.6486089583007,467
-929.9204420662485,490
-927.1930237203925,483
-924.4663537526524,492
-921.7404319948689,489
-919.0152582788041,486
-916.2908324361409,561
-913.5671542984834,519
-910.8442236973568,489
-908.1220404642074,505
-905.4006044304027,489
-902.679915427231,506
-899.959973285902,519
-897.2407778375464,522
-894.5223289132158,476
-891.8046263438832,499
-889.0876699604426,490
-886.3714595937089,484
-883.6559950744183,485
-880.9412762332282,480
-878.2273029007168,499
-875.5140749073835,487
-872.8015920836489,477
-870.0898542598545,507
-867.3788612662631,497
-864.6686129330585,506
-861.9591090903457,501
-859.2503495681506,486
-856.5423341964203,495
-853.8350628050229,482
-851.1285352237478,465
-848.4227512823054,500
-845.7177108103272,520
-843.0134136373656,507
-840.3098595928943,509
-837.6070485063082,506
-834.9049802069229,518
-832.2036545239757,493
-829.5030712866244,492
-826.8032303239481,488
-824.1041314649472,525
-821.4057745385428,511
-818.7081593735775,505
-816.0112857988148,495
-813.3151536429393,519
-810.6197627345566,506
-807.9251129021936,533
-805.2312039742981,493
-802.5380357792392,556
-799.8456081453069,540
-797.1539209007124,498
-794.462973873588,518
-791.772766891987,556
-789.083299783884,546
-786.3945723771743,521
-783.7065844996748,527
-781.0193359791231,516
-778.3328266431781,484
-775.6470563194197,495
-772.9620248353489,513
-770.2777320183878,511
-767.5941776958798,520
-764.9113616950891,478
-762.2292838432011,509
-759.5479439673222,501
-756.8673418944801,524
-754.1874774516235,513
-751.5083504656222,510
-748.8299607632671,546
-746.15230817127,533
-743.475392516264,519
-740.7992136248035,529
-738.1237713233636,522
-735.4490654383407,516
-732.7750957960521,557
-730.1018622227365,556
-727.4293645445534,537
-724.7576025875837,526
-722.0865761778291,523
-719.4162851412126,532
-716.7467293035781,558
-714.0779084906909,539
-711.409822528237,558
-708.7424712418238,553
-706.0758544569796,552
-703.4099719991541,551
-700.7448236937178,565
-698.0804093659622,551
-695.4167288411002,533
-692.7537819442656,539
-690.0915685005134,564
-687.4300883348199,535
-684.7693412720819,543
-682.1093271371178,527
-679.4500457546669,565
-676.7914969493897,554
-674.1336805458676,540
-671.4765963686034,582
-668.8202442420206,562
-666.1646239904642,582
-663.5097354382001,530
-660.8555784094151,570
-658.2021527282176,571
-655.5494582186366,564
-652.8974947046223,568
-650.2462620100463,583
-647.5957599587009,581
-644.9459883742998,591
-642.2969470804776,584
-639.6486359007902,581
-637.0010546587141,581
-634.3542031776476,590
-631.7080812809096,612
-629.0626887917401,591
-626.4180255333008,587
-623.7740913286734,605
-621.1308860008619,622
-618.4884093727904,594
-615.8466612673046,597
-613.2056415071715,569
-610.5653499150785,565
-607.9257863136347,585
-605.28695052537,616
-602.6488423727357,620
-600.0114616781036,622
-597.3748082637674,619
-594.7388819519412,621
-592.1036825647604,654
-589.4692099242818,632
-586.8354638524829,643
-584.2024441712624,652
-581.5701507024403,650
-578.9385832677575,632
-576.3077416888759,625
-573.6776257873787,662
-571.0482353847704,661
-568.4195703024757,602
-565.7916303618415,601
-563.164415384135,605
-560.5379251905453,614
-557.9121596021815,608
-555.2871184400748,615
-552.6628015251767,630
-550.0392086783606,593
-547.4163397204204,605
-544.794194472071,635
-542.1727727539491,630
-539.5520743866118,655
-536.9320991905377,679
-534.3128469861261,732
-531.6943175936979,713
-529.0765108334947,706
-526.4594265256793,752
-523.8430644903358,869
-521.2274245474689,937
-518.612506517005,992
-515.9983102187913,966
-513.3848354725959,1020
-510.77208209810846,1140
-508.16004991493924,1197
-505.5487387426199,1438
-502.9381484006032,1476
-500.3282787082628,1430
-497.71912948489364,1326
-495.1107005497117,1176
-492.5029917218539,1029
-489.8960028203786,959
-487.28973366426493,889
-484.68418407241325,849
-482.07935386364494,779
-479.47524285670266,775
-476.87185087025,793
-474.2691777228715,777
-471.66722323307334,775
-469.0659872192821,766
-466.4654694998459,776
-463.86566989303384,779
-461.26658821703614,806
-458.66822428996414,788
-456.07057792985,805
-453.4736489546475,783
-450.877437182231,768
-448.28194243039627,756
-445.68716451686,736
-443.09310325926003,769
-440.49975847515555,749
-437.9071299820263,739
-435.31521759727354,780
-432.72402113821954,823
-430.13354042210767,825
-427.5437752661022,760
-424.95472548728867,795
-422.36639090267386,762
-419.7787713291855,785
-417.1918665836721,886
-414.60567648290385,819
-412.0202008435715,813
-409.4354394822874,852
-406.8513922155845,873
-404.26805885991723,850
-401.685439231661,855
-399.103533147112,828
-396.522340422488,872
-393.9418608739278,853
-391.3620943174908,839
-388.7830405691583,873
-386.2046994448317,762
-383.6270707603344,777
-381.05015433141045,714
-378.473949973725,671
-375.8984575028645,640
-373.32367673433623,631
-370.74960748356875,591
-368.1762495659117,623
-365.60360279663576,538
-363.03166699093265,530
-360.4604419639154,501
-357.8899275306178,508
-355.32012350599507,493
-352.7510297049233,488
-350.1826459421999,441
-347.61497203254316,460
-345.04800779059235,449
-342.4817530309082,451
-339.91620756797226,492
-337.35137121618743,489
-334.7872437898774,442
-332.22382510328725,493
-329.66111497058273,492
-327.09911320585127,456
-324.53781962310075,475
-321.9772340362607,495
-319.4173562591816,464
-316.8581861056348,426
-314.2997233893127,470
-311.7419679238294,458
-309.1849195227194,458
-306.62857799943856,489
-304.0729431673641,502
-301.51801483979375,509
-298.963792829947,513
-296.41027695096386,528
-293.85746701590574,552
-291.3053628377552,519
-288.7539642294155,584
-286.2032710037115,510
-283.65328297338897,505
-281.1039999511146,536
-278.5554217494762,561
-276.007548180983,562
-273.4603790580651,535
-270.9139141930734,501
-268.3681533982807,548
-265.8230964858798,563
-263.27874326798565,582
-260.7350935566336,571
-258.1921471637804,584
-255.6499039013039,548
-253.10836358100266,614
-250.56752601459698,577
-248.02739101372765,581
-245.48795838995704,603
-242.94922795476816,562
-240.41119951956557,587
-237.8738728956746,618
-235.33724789434166,682
-232.80132432673452,626
-230.2661020039418,594
-227.73158073697357,656
-225.19776033676033,678
-222.66464061415422,696
-220.1322213799284,636
-217.60050244477725,612
-215.06948361931552,581
-212.53916471408013,622
-210.00954553952818,650
-207.48062590603843,632
-204.9524056239104,628
-202.4248845033651,737
-199.8980623545441,717
-197.37193898751036,674
-194.84651421224817,697
-192.32178783866232,668
-189.79775967657952,695
-187.27442953574644,720
-184.7517972258321,702
-182.2298625564256,758
-179.7086253370378,666
-177.18808537710026,672
-174.66824248596583,721
-172.14909647290835,747
-169.6306471471229,778
-167.11289431772548,768
-164.59583779375328,735
-162.07947738416453,759
-159.5638128978386,760
-157.04884414357605,910
-154.53457093009854,1010
-152.02099306604828,946
-149.50811035998936,808
-146.99592262040665,876
-144.48442965570587,915
-141.97363127421409,830
-139.46352728417958,923
-136.95411749377126,1022
-134.44540171107985,1044
-131.93737974411636,865
-129.43005140081357,914
-126.92341648902493,1245
-124.41747481652521,1449
-121.91222619101006,2003
-119.40767042009657,2497
-116.90380731132257,2919
-114.40063667214702,2775
-111.8981583099503,2316
-109.3963720320337,1737
-106.89527764561933,1633
-104.39487495785067,1652
-101.89516377579241,2558
-99.39614390642998,3728
-96.89781515667039,4164
-94.40017733334128,3724
-91.90323024319173,3145
-89.40697369289148,2978
-86.91140748903172,3970
-84.41653143812482,4573
-81.92234534660395,4459
-79.42884902082358,4144
-76.93604226705907,5356
-74.4439248915071,9117
-71.95249670028534,12486
-69.46175749943245,14452
-66.97170709490854,14574
-64.48234529259423,12934
-61.99367189829195,10738
-59.50568671772464,7756
-57.01838955653636,6134
-54.53178022029283,5943
-52.045858514480074,5426
-49.560624244506016,5832
-47.07607721569923,7105
-44.59221723330904,7422
-42.10904410250669,7241
-39.62655762838392,6680
-37.14475761595372,6807
-34.66364387015028,7198
-32.18321619582866,7244
-29.70347439776515,8487
-27.224418280657005,8642
-24.74604764912317,8610
-22.26836230770266,10620
-19.7913620608565,17335
-17.315046712966478,31004
-14.83941606833514,45219
-12.36446993118659,65037
-9.89020810566592,65037
-7.416630395839093,65037
-4.94373660569363,65037
-2.471526539137585,65037
-6.821210263296962E-13,65037
2.47084320796705,65037
4.941003281093458,65037
7.410480415786196,65037
9.879274808531363,65037
12.347386655893956,65037
14.814816154518212,65037
17.28156350112681,65037
19.74762889252179,65037
22.21301252558385,65037
24.67771459727237,20479
27.141735304626195,4032
29.605074844762612,2365
32.06773341487792,1832
34.52971121224755,1761
36.99100843422559,1869
39.45162527824516,1792
41.91156194181792,1782
44.370818622535126,1697
46.82939551806646,1328
49.287292826160524,1316
51.74451074464503,1285
54.201049471426245,1266
56.65690920448981,1276
59.112090141899785,1159
61.56659248179983,1085
64.02041642241159,977
66.4735621620365,987
68.92602989905402,980
71.37781983192338,1012
73.82893215918205,1067
76.27936707944684,1163
78.72912479141326,1200
81.17820549385567,1121
83.62660938562783,1083
86.07433666566146,925
88.5213875329681,821
90.96776218663751,848
93.41346082583925,806
95.85848364982041,954
98.30283085790859,1020
100.7465026495089,1053
103.18949922410604,1005
105.63182078126385,852
108.07346752062438,993
110.51443964190923,960
112.95473734491827,944
115.39436082953114,913
117.83331029570547,869
120.27158594347827,796
122.7091879729652,1011
125.1461165843615,1138
127.58237197794062,1118
130.01795435405518,1009
132.4528639131364,992
134.88710085569494,934
137.32066538231982,809
139.75355769367923,747
142.1857779905207,875
144.61732647366978,828
147.04820334403132,813
149.47840880258934,839
151.90794305040674,856
154.33680628862487,933
156.76499871846443,1161
159.19252054122433,1281
161.61937195828352,1293
164.04555317109896,1338
166.47106438120693,1494
168.89590579022217,1637
171.320077599839,1715
173.7435800118302,1765
176.16641322804742,1769
178.58857745042144,1969
181.01007288096173,2020
183.43089972175687,1984
185.85105817497413,2023
188.27054844285988,2062
190.6893707277394,2047
193.10752523201643,2071
195.5250121581745,2074
197.9418317087751,2204
200.3579840864594,2135
202.7734694939469,2115
205.18828813403627,2159
207.6024402096051,2183
210.01592592360964,2222
212.42874547908548,2218
214.84089907914665,2310
217.2523869269868,2176
219.66320922587727,2159
222.0733661791695,2263
224.48285799029293,2177
226.8916848627572,2204
229.29984700014882,2193
231.7073446061355,2328
234.11417788446204,2154
236.520347038953,2204
238.92585227351185,2243
241.33069379212054,2237
243.73487179884035,2288
246.1383864978112,2378
248.541238093252,2384
250.9434267894609,2372
253.34495279081432,2404
255.74581630176783,2422
258.1460175268563,2345
260.54555667069314,2441
262.9444339379703,2489
265.3426495334594,2392
267.7402036620107,2453
270.1370965285529,2374
272.53332833809407,2303
274.9288992957214,2218
277.32380960660055,2206
279.718059475976,2132
282.1116491091717,2212
284.5045787115897,2215
286.89684848871195,2181
289.2884586460981,2251
291.67940938938807,2226
294.0697009242996,2164
296.4593334566299,2165
298.84830719225477,2243
301.23662233712923,2246
303.6242790972866,2173
306.01127767884,2171
308.39761828798066,2114
310.78330113097934,2055
313.16832641418534,2104
315.5526943440269,2054
317.9364051270112,2088
320.3194589697242,2087
322.70185607883093,2115
325.0835966610754,1946
327.4646809232805,1977
329.8451090723478,1986
332.2248813152577,1971
334.6039978590701,1957
336.9824589109231,1980
339.36026467803447,1932
341.7374153677,1897
344.113911187295,1881
346.48975234427337,1905
348.8649390461686,1932
351.2394715005918,1912
353.61334991523415,1869
355.9865744978655,1903
358.35914545633375,1902
360.73106299856715,1871
363.10232733257146,1846
365.47293866643247,1868
367.84289720831396,1847
370.2122031664593,1886
372.5808567491905,1853
374.9488581649083,1759
377.31620762209275,1857
379.6829053293021,1784
382.0489514951745,1812
384.4143463284262,1751
386.7790900378528,1756
389.14318283232853,1797
391.50662492080653,1827
393.86941651231916,1811
396.23155781597745,1852
398.5930490409713,1826
400.9538903965696,1825
403.3140820921202,1758
405.6736243370498,1760
408.03251734086336,1745
410.3907613131465,1739
412.74835646356166,1704
415.10530300185144,1689
417.4616011378372,1789
419.81725108141893,1788
422.1722530425758,1778
424.5266072313656,1733
426.880313857925,1743
429.2333731324701,1737
431.58578526529516,1779
433.9375504667738,1718
436.2886689473588,1734
438.63914091758113,1747
440.9889665880513,1716
443.33814616945835,1632
445.68667987257015,1654
448.03456790823395,1671
450.3818104873759,1620
452.72840782100013,1706
455.07436012019105,1691
457.41966759611057,1670
459.7643304600007,1694
462.10834892318155,1609
464.4517231970525,1637
466.79445349309174,1700
469.1365400228566,1705
471.4779829979826,1681
473.81878263018564,1642
476.15893913125876,1737
478.4984527130747,1756
480.8373235875855,1702
483.17555196682144,1803
485.5131380628919,1788
487.8500820879857,1863
490.1863842543697,1947
492.52204477439034,2063
494.8570638604725,2159
497.1914417251204,2389
499.52517858091653,2818
501.85827464052306,3214
504.19073011668036,3379
506.5225452222086,3343
508.85372017000566,3482
511.18425517304956,3502
513.514150444396,3451
515.8434061971808,3991
518.1720226446176,4817
520.4999999999999,4863
522.8273384766991,4521
525.1540382881666,4078
527.480099647932,3479
529.8055227696037,2903
532.1303078668694,2366
534.454455153496,2017
536.777964843328,1964
539.1008371502907,1885
541.4230722883866,1794
543.744670471698,1813
546.0656319143858,1783
548.3859568306899,1790
550.7056454349294,1726
553.0246979415016,1764
555.3431145648834,1751
557.6608955196306,1651
559.978041020377,1615
562.2945512818363,1693
564.6104265188006,1747
566.9256669461412,1722
569.2402727788082,1734
571.5542442318302,1758
573.8675815203156,1709
576.1802848594508,1666
578.4923544645015,1692
580.8037905508126,1681
583.114593333807,1694
585.4247630289875,1696
587.7342998519354,1680
590.0432040183106,1727
592.3514757438526,1696
594.6591152443794,1712
596.9661227357875,1671
599.2724984340531,1724
601.578242555231,1695
603.8833553154542,1725
606.1878369309362,1774
608.4916876179676,1737
610.7949075929192,1704
613.0974970722403,1696
615.3994562724587,1723
617.7007854101818,1693
620.0014847020951,1660
622.3015543649641,1689
624.6009946156324,1735
626.8998056710224,1735
629.1979877481361,1739
631.4955410640538,1707
633.7924658359349,1748
636.0887622810175,1766
638.3844306166192,1734
640.6794710601358,1701
642.9738838290426,1716
645.2676691408932,1813
647.5608272133207,1736
649.853358264037,1754
652.1452625108324,1780
654.4365401715764,1771
656.7271914642178,1789
659.0172166067838,1689
661.3066158173809,1735
663.5953893141935,1708
665.8835373154867,1683
668.1710600396028,1694
670.4579577049639,1749
672.7442305300709,1777
675.0298787335033,1740
677.3149025339197,1764
679.599302150058,1720
681.8830778007342,1703
684.1662297048437,1640
686.4487580813608,1711
688.7306631493387,1732
691.0119451279091,1688
693.2926042362834,1758
695.5726406937516,1728
697.8520547196814,1729
700.1308465335215,1778
702.4090163547982,1807
704.6865644031171,1773
706.9634908981619,1709
709.2397960596965,1754
711.5154801075631,1774
713.7905432616823,1780
716.0649857420548,1822
718.3388077687592,1802
720.612009561953,1778
722.8845913418733,1764
725.1565533288352,1720
727.427895743234,1738
729.6986188055427,1702
731.9687227363137,1764
734.238207756178,1719
736.5070740858458,1690
738.7753219461066,1744
741.0429515578281,1747
743.3099631419569,1776
745.5763569195191,1790
747.8421331116193,1744
750.1072919394409,1750
752.3718336242467,1757
754.6357583873777,1717
756.8990664502545,1718
759.1617580343765,1759
761.423833361321,1717
763.6852926527457,1768
765.9461361303862,1830
768.206364016058,1779
770.4659765316536,1783
772.7249738991469,1745
774.9833563405886,1814
777.2411240781092,1733
779.4982773339183,1747
781.7548163303044,1760
784.010741289634,1797
786.2660524343538,1848
788.5207499869881,1786
790.7748341701416,1738
793.0283052064964,1825
795.2811633188143,1790
797.5334087299362,1847
799.7850416627813,1836
802.0360623403484,1842
804.2864709857143,1759
806.5362678220353,1793
808.7854530725468,1796
811.0340269605625,1779
813.2819897094754,1806
815.5293415427581,1723
817.77608268396,1751
820.0222133567116,1769
822.2677337847211,1806
824.5126441917765,1762
826.7569448017433,1776
829.0006358385675,1806
831.2437175262731,1820
833.4861900889629,1808
835.7280537508192,1736
837.9693087361026,1791
840.2099552691533,1755
842.4499935743896,1691
844.689423876309,1786
846.9282463994886,1749
849.1664613685833,1771
851.4040690083276,1759
853.6410695435349,1797
855.877463199097,1741
858.1132501999847,1828
860.3484307712487,1821
862.5830051380175,1823
864.8169735254988,1871
867.0503361589791,1810
869.2830932638243,1845
871.5152450654786,1789
873.7467917894654,1836
875.9777336613873,1839
878.2080709069252,1852
880.4378037518389,1801
882.666932421968,1786
884.8954571432301,1868
887.1233781416219,1872
889.3506956432192,1829
891.5774098741766,1825
893.803521060728,1856
896.0290294291852,1777
898.2539352059397,1819
900.4782386174619,1876
902.7019398903011,1821
904.925039251085,1845
907.147536926521,1844
909.3694331433943,1820
911.59072812857,1809
913.8114221089921,1778
916.0315153116827,1798
918.2510079637437,1799
920.4699002923547,1769
922.6881925247761,1769
924.905884888345,1829
927.1229776104793,1759
929.3394709186747,1776
931.555365040506,1773
933.7706602036275,1722
935.9853566357709,1731
938.1994545647489,1771
940.4129542184515,1791
942.6258558248488,1787
944.8381596119883,1731
947.0498658079974,1750
949.2609746410825,1822
951.4714863395287,1748
953.6814011316998,1758
955.8907192460387,1834
958.0994409110671,1731
960.3075663553858,1783
962.5150958076741,1781
964.7220294966913,1770
966.928367651274,1715
969.1341105003388,1801
971.3392582728806,1718
973.5438111979742,1698
975.747769504772,1697
977.9511334225061,1713
980.153903180487,1716
982.3560790081052,1704
984.5576611348289,1698
986.7586497902058,1678
988.9590452038618,1664
991.158847605503,1713
993.3580572249133,1599
995.5566742919558,1543
997.7546990365728,1575
999.952131688785,1590
1002.1489724786926,1521
1004.3452216364743,1501
1006.5408793923874,1505
1008.7359459767691,1475
1010.9304216200343,1475
1013.1243065526781,1535
1015.3176010052733,1488
1017.510305208472,1425
1019.7024193930064,1422
1021.8939437896848,1488
1024.0848786293977,1498
1026.2752241431122,1473
1028.4649805618747,1399
1030.6541481168115,1486
1032.842727039127,1411
1035.0307175601051,1458
1037.2181199111074,1415
1039.4049343235752,1375
1041.591161029029,1421
1043.7768002590683,1330
1045.9618522453698,1426
1048.1463172196918,1429
1050.3301954138697,1458
1052.513487059818,1425
1054.69619238953,1423
1056.8783116350783,1422
1059.0598450286152,1406
1061.2407928023704,1409
1063.4211551886528,1379
1065.6009324198508,1409
1067.780124728432,1403
1069.9587323469414,1399
1072.1367555080046,1412
1074.314194444325,1409
1076.4910493886855,1401
1078.667320573947,1397
1080.843008233051,1368
1083.0181125990161,1301
1085.1926339049414,1409
1087.3665723840027,1342
1089.5399282694575,1406
1091.7127017946405,1297
1093.8848931929647,1338
1096.0565026979243,1341
1098.2275305430899,1369
1100.3979769621128,1331
1102.567842188722,1296
1104.737126456726,1359
1106.9058300000124,1327
1109.0739530525475,1352
1111.2414958483764,1344
1113.4084586216231,1293
1115.5748416064907,1377
1117.7406450372605,1353
1119.9058691482942,1327
1122.0705141740304,1268
1124.2345803489884,1289
1126.3980679077658,1296
1128.5609770850388,1314
1130.7233081155623,1299
1132.8850612341707,1282
1135.0462366757774,1317
1137.2068346753745,1321
1139.3668554680326,1304
1141.526299288901,1281
1143.68516637321,1350
1145.8434569562655,1328
1148.001171273455,1293
1150.158309560244,1312
1152.3148720521767,1259
1154.470858984876,1251
1156.626270594044,1357
1158.7811071154629,1284
1160.9353687849912,1324
1163.089055838569,1322
1165.242168512213,1293
1167.3947070420209,1312
1169.5466716641677,1291
1171.6980626149075,1274
1173.8488801305748,1286
1175.9991244475814,1292
1178.1487958024186,1311
1180.2978944316555,1319
1182.4464205719428,1263
1184.5943744600072,1273
1186.7417563326567,1288
1188.8885664267755,1267
1191.0348049793297,1288
1193.1804722273619,1272
1195.325568407995,1280
1197.4700937584303,1327
1199.614048515948,1341
1201.7574329179074,1292
1203.900247201746,1296
1206.042491604982,1315
1208.1841663652099,1311
1210.3252717201053,1283
1212.465807907422,1311
1214.6057751649923,1309
1216.7451737307279,1341
1218.8840038426192,1280
1221.0222657387353,1316
1223.1599596572241,1322
1225.2970858363137,1329
1227.4336445143094,1316
1229.5696359295966,1393
1231.705060320639,1339
1233.8399179259786,1323
1235.9742089842384,1348
1238.107933734118,1319
1240.2410924143974,1328
1242.373685263935,1335
1244.5057125216676,1358
1246.6371744266116,1317
1248.7680712178621,1373
1250.898403134593,1330
1253.028170416058,1309
1255.1573733015875,1347
1257.2860120305932,1324
1259.4140868425648,1298
1261.54159797707,1361
1263.6685456737569,1336
1265.7949301723515,1316
1267.9207517126597,1315
1270.046010534565,1350
1272.1707068780306,1326
1274.2948409830983,1380
1276.4184130898889,1380
1278.541423438603,1340
1280.6638722695184,1338
1282.785759822993,1341
1284.9070863394636,1377
1287.0278520594447,1377
1289.1480572235314,1397
1291.2677020723963,1372
1293.3867868467923,1401
1295.5053117875495,1413
1297.623277135579,1423
1299.740683131868,1402
1301.8575300174857,1481
1303.973818033578,1437
1306.0895474213703,1431
1308.2047184221678,1457
1310.3193312773528,1457
1312.4333862283888,1415
1314.5468835168163,1402
1316.659823384255,1478
1318.7722060724045,1480
1320.8840318230418,1455
1322.9953008780249,1452
1325.1060134792888,1404
1327.2161698688478,1388
1329.3257702887959,1455
1331.4348149813054,1407
1333.5433041886276,1492
1335.6512381530933,1422
1337.7586171171101,1415
1339.8654413231675,1437
1341.9717110138317,1502
1344.0774264317488,1376
1346.1825878196432,1408
1348.2871954203192,1415
1350.3912494766587,1467
1352.4947502316231,1442
1354.5976979282532,1435
1356.7000928096686,1394
1358.8019351190665,1446
1360.9032250997243,1477
1363.0039629949988,1409
1365.1041490483235,1460
1367.2037835032133,1412
1369.3028666032606,1406
1371.401398592137,1376
1373.4993797135926,1427
1375.5968102114575,1469
1377.6936903296396,1446
1379.7900203121262,1484
1381.8858004029835,1454
1383.9810308463561,1477
1386.075711886469,1408
1388.1698437676241,1343
1390.2634267342032,1425
1392.356461030667,1498
1394.4489469015557,1437
1396.5408845914872,1413
1398.6322743451592,1451
1400.7231164073469,1452
1402.813411022907,1436
1404.903158436773,1494
1406.9923588939578,1427
1409.0810126395531,1415
1411.1691199187303,1442
1413.2566809767386,1448
1415.343696058907,1460
1417.4301654106425,1430
1419.5160892774315,1521
1421.6014679048399,1487
1423.6863015385125,1498
1425.7705904241707,1460
1427.8543348076178,1518
1429.9375349347342,1440
1432.0201910514802,1481
1434.102303403894,1449
1436.1838722380944,1489
1438.2648978002767,1501
1440.3453803367174,1465
1442.4253200937692,1595
1444.5047173178677,1543
1446.5835722555234,1541
1448.6618851533285,1526
1450.739656257952,1494
1452.8168858161434,1561
1454.8935740747306,1557
1456.96972128062,1602
1459.045327680797,1664
1461.120393522327,1548
1463.1949190523528,1601
1465.2689045180973,1628
1467.3423501668608,1638
1469.415256246024,1673
1471.4876230030463,1656
1473.559450685465,1666
1475.6307395408976,1640
1477.7014898170391,1694
1479.771701761665,1734
1481.8413756226287,1734
1483.9105116478618,1762
1485.9791100853772,1698
1488.0471711832643,1709
1490.1146951896926,1721
1492.1816823529098,1821
1494.2481329212433,1726
1496.3140471430984,1719
1498.3794252669609,1772
1500.4442675413939,1762
1502.5085742150404,1759
1504.572345536622,1783
1506.6355817549388,1716
1508.6982831188702,1796
1510.7604498773744,1794
1512.8220822794883,1793
1514.8831805743293,1845
1516.9437450110909,1818
1519.003775839048,1823
1521.0632733075522,1809
1523.1222376660367,1871
1525.1806691640113,1825
1527.2385680510652,1863
1529.2959345768668,1833
1531.3527689911643,1841
1533.4090715437833,1858
1535.4648424846291,1818
1537.5200820636855,1923
1539.5747905310159,1872
1541.6289681367616,1946
1543.6826151311434,1954
1545.7357317644614,1944
1547.7883182870937,1922
1549.8403749494987,2026
1551.8919020022113,1933
1553.9428996958477,2031
1555.9933682811015,2010
1558.0433080087469,2000
1560.0927191296346,2058
1562.1416018946961,2083
1564.1899565549415,2126
1566.2377833614592,2052
1568.2850825654164,2142
1570.3318544180606,2110
1572.3780991707158,2088
1574.423817074788,2030
1576.4690083817595,1997
1578.5136733431923,1982
1580.5578122107272,1907
1582.601425236085,1890
1584.6445126710646,1807
1586.6870747675434,1820
1588.7291117774776,1740
1590.7706239529034,1755
1592.8116115459347,1756
1594.8520748087658,1702
1596.8920139936686,1689
1598.9314293529933,1679
1600.9703211391711,1581
1603.008689604711,1581
1605.0465350022005,1556
1607.0838575843068,1522
1609.1206576037753,1518
1611.1569353134305,1542
1613.1926909661765,1522
1615.2279248149953,1457
1617.2626371129481,1481
1619.2968281131757,1414
1621.3304980688963,1400
1623.3636472334088,1420
1625.39627586009,1404
1627.428384202396,1407
1629.459972513861,1393
1631.4910410480993,1423
1633.5215900588028,1415
1635.551619799744,1385
1637.5811305247717,1371
1639.6101224878166,1329
1641.6385959428862,1377
1643.6665511440683,1345
1645.693988345528,1433
1647.7209078015112,1326
1649.7473097663405,1334
1651.7731944944203,1361
1653.7985622402307,1364
1655.823413258333,1343
1657.847747803366,1339
1659.8715661300494,1373
1661.8948684931793,1310
1663.9176551476316,1377
1665.9399263483624,1390
1667.9616823504057,1384
1669.982923408873,1391
1672.0036497789574,1341
1674.0238617159293,1348
1676.043559475138,1341
1678.0627433120121,1324
1680.081413482059,1355
1682.0995702408654,1347
1684.117213844096,1356
1686.134344547495,1304
1688.1509626068864,1330
1690.1670682781705,1299
1692.182661817329,1329
1694.1977434804217,1357
1696.2123135235875,1328
1698.226372203043,1338
1700.2399197750851,1316
1702.2529564960905,1324
1704.2654826225112,1356
1706.277498410882,1331
1708.2890041178139,1368
1710.2999999999988,1393
1712.3104863142066,1331
1714.3204633172854,1393
1716.329931266163,1335
1718.3388904178469,1330
1720.3473410294214,1360
1722.3552833580516,1308
1724.3627176609807,1313
1726.3696441955308,1318
1728.3760632191033,1315
1730.3819749891782,1329
1732.3873797633146,1324
1734.3922777991502,1342
1736.3966693544012,1359
1738.4005546868639,1302
1740.4039340544127,1266
1742.406807715001,1324
1744.4091759266616,1343
1746.4110389475054,1315
1748.4123970357223,1302
1750.413250449582,1279
1752.4135994474318,1335
1754.4134442876993,1339
1756.4127852288902,1357
1758.4116225295893,1296
1760.4099564484595,1334
1762.407787244244,1330
1764.405115175764,1304
1766.4019405019203,1323
1768.3982634816916,1283
1770.3940843741357,1329
1772.3894034383907,1320
1774.3842209336717,1276
1776.378537119274,1253
1778.372352254571,1333
1780.3656665990156,1321
1782.3584804121397,1276
1784.3507939535534,1333
1786.3426074829463,1298
1788.3339212600863,1273
1790.3247355448211,1313
1792.3150505970766,1254
1794.3048666768573,1300
1796.2941840442477,1308
1798.2830029594106,1333
1800.2713236825884,1321
1802.2591464741004,1334
1804.2464715943465,1277
1806.2332993038058,1314
1808.2196298630352,1270
1810.2054635326708,1292
1812.190800573428,1320
1814.175641246101,1345
1816.1599858115628,1338
1818.1438345307652,1254
1820.127187664738,1257
1822.1100454745924,1295
1824.092408221516,1274
1826.0742761667766,1342
1828.055649571721,1322
1830.0365286977735,1299
1832.0169138064398,1321
1833.9968051593014,1318
1835.9762030180214,1246
1837.9551076443408,1258
1839.9335193000788,1267
1841.9114382471344,1278
1843.888864747485,1274
1845.8657990631878,1256
1847.842241456378,1245
1849.8181921892697,1266
1851.7936515241558,1289
1853.7686197234098,1306
1855.7430970494815,1252
1857.7170837649014,1263
1859.6905801322787,1304
1861.6635864143004,1282
1863.6361028737338,1272
1865.608129773424,1257
1867.5796673762961,1252
1869.5507159453537,1232
1871.521275743678,1220
1873.4913470344313,1226
1875.4609300808534,1310
1877.4300251462632,1278
1879.3986324940588,1319
1881.366752387717,1225
1883.3343850907936,1296
1885.3015308669228,1319
1887.268189979819,1288
1889.2343626932739,1271
1891.2000492711595,1333
1893.1652499774254,1285
1895.1299650761011,1311
1897.0941948312952,1371
1899.0579395071945,1258
1901.0211993680641,1268
1902.98397467825,1320
1904.9462657021745,1249
1906.9080727043415,1289
1908.869395949332,1271
1910.8302357018065,1295
1912.790592226504,1280
1914.7504657882428,1287
1916.7098566519212,1269
1918.6687650825133,1222
1920.6271913450764,1296
1922.5851357047422,1297
1924.5425984267245,1298
1926.499579776314,1293
1928.4560800188833,1239
1930.4120994198802,1287
1932.367638244833,1251
1934.32269675935,1264
1936.2772752291175,1301
1938.231373919899,1277
1940.1849930975404,1256
1942.1381330279637,1238
1944.0907939771696,1249
1946.0429762112412,1237
1947.9946799963363,1217
1949.9459055986945,1288
1951.896653284633,1305
1953.8469233205478,1230
1955.7967159729142,1224
1957.7460315082863,1247
1959.6948701932974,1251
1961.6432322946594,1218
1963.5911180791632,1223
1965.5385278136787,1267
1967.4854617651545,1288
1969.4319202006182,1301
1971.377903387176,1258
1973.3234115920136,1294
1975.268445082395,1261
1977.2130041256642,1298
1979.1570889892423,1297
1981.1006999406304,1265
1983.04383724741,1210
1984.986501177238,1273
1986.928691997853,1309
1988.8704099770712,1273
1990.811655382789,1276
1992.7524284829801,1294
1994.692729545698,1247
1996.6325588390755,1274
1998.5719166313224,1200
2000.5108031907307,1304
2002.4492187856677,1231
2004.387163684583,1295
2006.3246381560011,1311
2008.2616424685298,1297
2010.1981768908527,1285
2012.1342416917332,1256
2014.069837140014,1282
2016.0049635046162,1258
2017.9396210545406,1250
2019.8738100588666,1270
2021.8075307867502,1249
2023.740783507431,1186
2025.6735684902228,1249
2027.6058860045214,1225
2029.5377363198004,1286
2031.4691197056118,1213
2033.4000364315875,1239
2035.3304867674374,1246
2037.260470982952,1217
2039.189989347998,1232
2041.1190421325232,1219
2043.047629606554,1268
2044.9757520401945,1262
2046.9034097036288,1217
2048.8306028671195,1290
2050.7573318010086,1203
2052.683596775716,1214
2054.609398061742,1273
2056.5347359296647,1282
2058.4596106501403,1254
2060.384022493906,1252
2062.3079717317764,1303
2064.231458634646,1251
2066.1544834734873,1283
2068.077046519352,1270
2069.99914804337,1271
2071.9207883167524,1248
2073.8419676107865,1259
2075.7626861968406,1255
2077.6829443463607,1237
2079.6027423308715,1243
2081.522080421977,1307
2083.440958891362,1240
2085.359378010786,1265
2087.2773380520907,1291
2089.194839287196,1259
2091.111881988101,1267
2093.0284664268825,1271
2094.9445928756973,1274
2096.86026160678,1285
2098.775472892446,1317
2100.690227005088,1240
2102.604524217178,1263
2104.5183648012676,1230
2106.431749029985,1283
2108.34467717604,1311
2110.2571495122206,1244
2112.169166311393,1293
2114.080727846503,1275
2115.9918343905747,1265
2117.902486216711,1230
2119.8126835980956,1261
2121.722426807987,1213
2123.6317161197285,1296
2125.5405518067364,1315
2127.448934142509,1268
2129.356863400624,1207
2131.264339854737,1272
2133.1713637785815,1234
2135.077935445972,1283
2136.9840551308002,1304
2138.889723107037,1275
2140.7949396487334,1338
2142.699705030018,1276
2144.6040195250994,1286
2146.507883408264,1307
2148.4112969538774,1280
2150.3142604363848,1294
2152.2167741303097,1275
2154.1188383102535,1257
2156.0204532508997,1278
2157.9216192270064,1307
2159.822336513414,1270
2161.7226053850413,1330
2163.622426116884,1348
2165.5217989840185,1268
2167.4207242616,1298
2169.319202224862,1333
2171.2172331491165,1298
2173.1148173097563,1248
2175.0119549822507,1301
2176.90864644215,1360
2178.8048919650823,1382
2180.7006918267534,1335
2182.596046302952,1349
2184.4909556695407,1363
2186.3854202024645,1339
2188.279440177746,1308
2190.173015871487,1263
2192.066147559868,1379
2193.958835519149,1334
2195.851080025667,1307
2197.7428813558417,1344
2199.6342397861667,1347
2201.5251555932186,1330
2203.415629053651,1345
2205.3056604441986,1346
2207.19525004167,1396
2209.084398122958,1325
2210.9731049650327,1321
2212.861370844941,1302
2214.749196039812,1300
2216.636580826851,1335
2218.523525483344,1382
2220.410030286655,1343
2222.296095514226,1404
2224.1817214435805,1309
2226.066908352319,1321
2227.951656518121,1399
2229.835966218746,1370
2231.71983773203,1350
2233.6032713358913,1381
2235.486267308324,1375
2237.3688259274036,1372
2239.2509474712824,1370
2241.132632218193,1387
2243.013880446447,1370
2244.8946924344323,1390
2246.7750684606203,1391
2248.6550088035574,1351
2250.534513741871,1335
2252.413583554265,1398
2254.292218519526,1333
2256.170418916517,1318
2258.0481850241786,1349
2259.925517121534,1312
2261.8024154876825,1365
2263.678880401803,1318
2265.5549121431536,1298
2267.430510991071,1379
2269.305677224971,1347
2271.180411124348,1307
2273.0547129687766,1338
2274.9285830379076,1311
2276.8020216114737,1321
2278.6750289692845,1379
2280.5476053912294,1318
2282.4197511572766,1379
2284.2914665474727,1388
2286.162751841943,1387
2288.0336073208937,1379
2289.904033264608,1362
2291.774029953448,1419
2293.6435976678554,1329
2295.5127366883517,1277
2297.381447295534,1323
2299.2497297700825,1290
2301.1175843927526,1334
2302.9850114443825,1180
2304.852011205885,1200
2306.7185839582553,1230
2308.5847299825664,1244
2310.4504495599676,1222
2312.3157429716925,1150
2314.1806104990483,1217
2316.0450524234247,1163
2317.9090690262888,1199
2319.772660589186,1196
2321.635827393742,1153
2323.498569721661,1157
2325.3608878547248,1152
2327.2227820747967,1158
2329.0842526638157,1183
2330.945299903803,1135
2332.805924076857,1153
2334.6661254651535,1120
2336.525904350951,1126
2338.3852610165827,1173
2340.244195744464,1140
2342.102708817088,1141
2343.9608005170253,1153
2345.8184711269287,1126
2347.675720929526,1126
2349.532550207628,1133
2351.38895924412,1178
2353.24494832197,1156
2355.100517724223,1158
2356.955667734004,1172
2358.810398634514,1174
2360.664710709037,1138
2362.5186042409337,1161
2364.3720795136437,1143
2366.225136810686,1109
2368.0777764156583,1168
2369.929998612237,1139
2371.7818036841777,1201
2373.633191915315,1177
2375.484163589562,1150
2377.3347189909114,1175
2379.184858403434,1161
2381.03458211128,1202
2382.8838903986775,1174
2384.732783549936,1234
2386.5812618494406,1188
2388.4293255816588,1160
2390.2769750311327,1163
2392.1242104824883,1177
2393.971032220427,1169
2395.8174405297295,1191
2397.6634356952563,1172
2399.509018001947,1163
2401.3541877348193,1149
2403.1989451789705,1210
2405.043290619576,1195
2406.8872243418905,1162
2408.730746631247,1187
2410.5738577730594,1218
2412.4165580528183,1256
2414.258847756095,1193
2416.100727168537,1154
2417.9421965758734,1213
2419.783256263912,1217
2421.623906518538,1201
2423.4641476257157,1231
2425.303979871491,1206
2427.143403541984,1221
2428.9824189233977,1189
2430.821026302012,1159
2432.6592259641866,1152
2434.497018196361,1211
2436.33440328505,1177
2438.171381516851,1146
2440.00795317844,1136
2441.844118556569,1245
2443.6798779380724,1219
2445.5152316098606,1149
2447.3501798589255,1230
2449.1847229723357,1168
2451.0188612372403,1184
2452.8525949408663,1173
2454.6859243705203,1186
2456.518849813587,1173
2458.3513715575314,1178
2460.183489889895,1226
2462.015205098301,1156
2463.8465174704493,1173
2465.67742729412,1200
2467.5079348571717,1190
2469.338040447542,1211
2471.1677443532476,1120
2472.9970468623833,1178
2474.825948263123,1234
2476.6544488437207,1195
2478.482548892508,1193
2480.310248697896,1175
2482.137548548374,1147
2483.9644487325118,1199
2485.790949538956,1188
2487.617051256433,1253
2489.44275417375,1148
2491.26805857979,1185
2493.0929647635157,1178
2494.917473013971,1175
2496.741583620276,1177
2498.5652968716304,1235
2500.3886130573137,1193
2502.2115324666834,1125
2504.0340553891765,1210
2505.856182114308,1243
2507.6779129316733,1204
2509.499248130945,1206
2511.3201880018764,1146
2513.140732834298,1232
2514.9608829181198,1178
2516.780638543331,1272
2518.6,1166
2520.418967578273,1175
2522.237541568376,1191
2524.0557222606144,1226
2525.8735099453706,1233
2527.6909049131086,1191
2529.507907454368,1186
2531.32451785977,1209
2533.140736420014,1190
2534.9565634258774,1241
2536.771999168218,1222
2538.5870439379714,1255
2540.4016980261526,1204
2542.2159617238544,1259
2544.02983532225,1196
2545.8433191125914,1223
2547.656413386209,1264
2549.4691184345115,1230
2551.2814345489874,1295
2553.093362021204,1213
2554.904901142808,1236
2556.716052205523,1230
2558.526815501153,1237
2560.3371913215824,1280
2562.147179958771,1286
2563.956781704761,1290
2565.7659968516705,1242
2567.5748256916986,1255
2569.3832685171224,1282
2571.1913256202984,1285
2572.9989972936614,1282
2574.806283829725,1258
2576.613185521084,1344
2578.4197026604074,1254
2580.2258355404483,1309
2582.031584454035,1297
2583.836949694077,1318
2585.6419315535613,1250
2587.4465303255533,1299
2589.2507463032002,1258
2591.0545797797245,1292
2592.8580310484303,1365
2594.6611004026995,1336
2596.463788135992,1398
2598.266094541849,1286
2600.0680199138874,1305
2601.869564545807,1340
2603.670728731383,1322
2605.4715127644704,1366
2607.2719169390048,1290
2609.071941548998,1317
2610.8715868885433,1344
2612.670853251811,1296
2614.469740933052,1309
2616.268250226594,1299
2618.0663814268455,1289
2619.864134828292,1283
2621.6615107255006,1338
2623.458509413115,1322
2625.2551311858597,1270
2627.0513763385347,1281
2628.8472451660223,1277
2630.6427379632833,1308
2632.4378550253564,1266
2634.232596647359,1299
2636.026963124488,1287
2637.8209547520187,1254
2639.6145718253065,1291
2641.407814639785,1297
2643.200683490966,1266
2644.9931786744414,1257
2646.7853004858807,1335
2648.577049221034,1197
2650.3684251757277,1267
2652.1594286458712,1292
2653.9500599274484,1205
2655.740319316525,1268
2657.5302071092437,1238
2659.3197236018286,1262
2661.10886909058,1266
2662.8976438718782,1265
2664.686048242183,1186
2666.4740824980327,1279
2668.2617469360443,1214
2670.0490418529134,1250
2671.8359675454153,1247
2673.622524310403,1241
2675.408712444811,1214
2677.1945322456495,1167
2678.979984010009,1284
2680.76506803506,1235
2682.5497846180497,1196
2684.334134056306,1189
2686.1181166472343,1202
2687.9017326883213,1204
2689.6849824771293,1201
2691.4678663113013,1232
2693.2503844885596,1205
2695.032537306705,1195
2696.8143250636167,1235
2698.5957480572542,1218
2700.3768065856534,1182
2702.1575009469316,1158
2703.937831439283,1234
2705.717798360982,1132
2707.4974020103837,1155
2709.276642685917,1137
2711.055520686095,1219
2712.834036309506,1169
2714.612189854819,1152
2716.389981620782,1164
2718.1674119062204,1124
2719.944481010041,1155
2721.721189231226,1136
2723.4975368688415,1158
2725.273524222027,1142
2727.0491515900053,1202
2728.824419272075,1157
2730.5993275676146,1131
2732.3738767760838,1201
2734.148067197016,1135
2735.921899130031,1193
2737.6953728748194,1196
2739.468488731156,1149
2741.2412469988926,1158
2743.0136479779617,1149
2744.785691968372,1185
2746.5573792702116,1139
2748.3287101836504,1147
2750.099685008934,1148
2751.870304046388,1177
2753.640567596418,1177
2755.4104759595057,1158
2757.1800294362156,1109
2758.949228327187,1153
2760.7180729331412,1162
2762.486563554877,1127
2764.254700493272,1163
2766.022484049284,1152
2767.789914523947,1153
2769.5569922183786,1106
2771.3237174337705,1218
2773.090090471394,1156
2774.8561116326036,1147
2776.6217812188274,1169
2778.3870995315756,1161
2780.1520668724356,1161
2781.9166835430747,1122
2783.6809498452394,1149
2785.444866080754,1149
2787.2084325515225,1107
2788.971649559527,1176
2790.73451740683,1115
2792.4970363955713,1119
2794.2592068279705,1163
2796.0210290063264,1167
2797.7825032330147,1170
2799.543629810493,1141
2801.304409041296,1133
2803.0648412280366,1174
2804.8249266734088,1234
2806.5846656801846,1192
2808.344058551212,1152
2810.1031055894246,1197
2811.8618070978273,1162
2813.6201633795085,1162
2815.378174737636,1183
2817.1358414754536,1156
2818.893163896285,1145
2820.6501423035334,1155
2822.4067770006814,1131
2824.1630682912883,1150
2825.9190164789957,1170
2827.6746218675207,1190
2829.429884760661,1147
2831.184805462294,1199
2832.9393842763743,1120
2834.693621506936,1143
2836.4475174580916,1191
2838.201072434034,1141
2839.954286739034,1139
2841.707160677441,1187
2843.459694553685,1186
2845.2118886722724,1121
2846.96374333779,1130
2848.7152588549034,1176
2850.4664355283567,1229
2852.217273662973,1163
2853.9677735636546,1164
2855.7179355353833,1203
2857.4677598832186,1125
2859.217246912299,1111
2860.9663969278427,1181
2862.715210235146,1144
2864.4636871395846,1109
2866.211827946614,1138
2867.9596329617652,1166
2869.7071024906536,1183
2871.4542368389684,1208
2873.20103631248,1130
2874.947501217038,1149
2876.6936318585695,1102
2878.4394285430812,1204
2880.1848915766604,1163
2881.9300212654707,1161
2883.6748179157553,1211
2885.4192818338374,1174
2887.1634133261173,1164
2888.907212699077,1164
2890.6506802592744,1152
2892.393816313348,1140
2894.1366211680142,1185
2895.8790951300693,1169
2897.621238506388,1144
2899.363051603925,1112
2901.1045347297118,1149
2902.8456881908596,1174
2904.58651229456,1162
2906.327007348081,1152
2908.067173658772,1175
2909.8070115340597,1131
2911.5465212814497,1177
2913.285703208527,1172
2915.0245576229563,1185
2916.7630848324807,1129
2918.5012851449196,1173
2920.2391588681758,1136
2921.976706310227,1147
2923.7139277791334,1139
2925.4508235830313,1122
2927.187394030137,1134
2928.923639428745,1085
2930.6595600872306,1126
2932.395156314046,1122
2934.1304284177218,1194
2935.8653767068713,1164
2937.6000014901815,1172
2939.3343030764227,1172
2941.068281774442,1139
2942.8019378931644,1203
2944.5352717415976,1194
2946.2682836288236,1222
2948.0009738640065,1150
2949.7333427563885,1134
2951.465390615289,1146
2953.1971177501086,1132
2954.9285244703265,1175
2956.6596110855,1143
2958.3903779052657,1165
2960.1208252393385,1189
2961.8509533975125,1130
2963.5807626896617,1187
2965.3102534257378,1130
2967.0394259157715,1121
2968.768280469873,1148
2970.496817398232,1174
2972.2250370111146,1162
2973.952939618869,1158
2975.6805255319196,1183
2977.4077950607707,1182
2979.134748516006,1185
2980.861386208289,1193
2982.587708448359,1196
2984.313715547037,1149
2986.039407815222,1175
2987.764785563891,1135
2989.489849104102,1183
2991.2145987469908,1157
2992.9390348037705,1149
2994.6631575857346,1196
2996.3869674042576,1108
2998.1104645707887,1118
2999.83364939686,1127
3001.5565221940783,1116
3003.2790832741334,1122
3005.0013329487924,1126
3006.7232715298996,1138
3008.4448993293804,1157
3010.166216659239,1117
3011.887223831558,1113
3013.607921158498,1086
3015.3283089522993,1151
3017.0483875252826,1176
3018.7681571898443,1133
3020.4876182584626,1167
3022.2067710436927,1125
3023.9256158581707,1123
3025.644153014609,1190
3027.362382825801,1182
3029.0803056046193,1161
3030.797921664012,1097
3032.5152313170106,1102
3034.2322348767225,1167
3035.9489326563353,1153
3037.665324969115,1123
3039.3814121284063,1126
3041.097194447633,1117
3042.812672240299,1133
3044.5278458199855,1178
3046.2427155003525,1209
3047.9572815951406,1194
3049.671544418167,1127
3051.38550428333,1149
3053.0991615046073,1142
3054.812516396051,1154
3056.5255692717974,1094
3058.2383204460575,1182
3059.9507702331257,1089
3061.662918947372,1139
3063.3747669032446,1141
3065.0863144152736,1130
3066.7975617980674,1110
3068.508509366309,1151
3070.219157434767,1164
3071.9295063182844,1094
3073.639556331785,1131
3075.3493077902704,1156
3077.058761008821,1098
3078.7679163025964,1206
3080.476773986837,1186
3082.1853343768594,1107
3083.89359778806,1136
3085.6015645359153,1134
3087.3092349359786,1164
3089.016609303884,1155
3090.7236879553434,1109
3092.4304712061476,1151
3094.136959372166,1108
3095.843152769349,1126
3097.5490517137237,1126
3099.2546565213966,1075
3100.959967508554,1150
3102.66498499146,1161
3104.3697092864577,1133
3106.0741407099695,1095
3107.778279578498,1175
3109.482126208622,1180
3111.1856809170004,1139
3112.8889440203716,1145
3114.5919158355528,1150
3116.294596679439,1163
3117.996986869006,1150
3119.6990867213062,1149
3121.4008965534726,1153
3123.102416682717,1206
3124.803647426329,1207
3126.5045891016784,1137
3128.205242026213,1208
3129.90560651746,1175
3131.605682893025,1164
3133.3054714705922,1103
3135.0049725679282,1141
3136.7041865028714,1135
3138.4031135933465,1094
3140.101754157353,1207
3141.800108512971,1114
3143.498176978357,1177
3145.1959598717494,1155
3146.8934575114636,1160
3148.5906702158954,1127
3150.2875983035183,1137
3151.9842420928853,1106
3153.680601902627,1169
3155.376678051456,1122
3157.07247085816,1143
3158.767980641609,1093
3160.463207720748,1173
3162.158152414606,1131
3163.8528150422862,1125
3165.5471959229726,1160
3167.2412953759303,1160
3168.9351137204976,1116
3170.628651276098,1112
3172.3219083622307,1151
3174.014885298474,1134
3175.707582404485,1123
3177.4000000000005,1079
3179.092138404835,1190
3180.7839979388846,1095
3182.47557892212,1164
3184.166881674594,1136
3185.8579065164386,1123
3187.5486537678626,1150
3189.2391237491547,1162
3190.9293167806827,1174
3192.6192331828934,1139
3194.3088732763117,1144
3195.998237381542,1162
3197.687325819268,1121
3199.376138910251,1115
3201.064676975334,1154
3202.7529403354347,1116
3204.4409293115523,1153
3206.1286442247647,1082
3207.816085396229,1136
3209.5032531471825,1144
3211.190147798936,1167
3212.8767696728846,1122
3214.5631190905015,1141
3216.2491963733373,1129
3217.9350018430214,1039
3219.6205358212637,1044
3221.305798629851,1104
3222.990790590651,1059
3224.6755120256103,1090
3226.359963256751,1113
3228.0441446061795,1058
3229.7280563960758,1136
3231.411698948703,1085
3233.0950725863995,1160
3234.778177631587,1108
3236.461014406761,1123
3238.1435832345005,1098
3239.8258844374595,1015
3241.507918338374,1180
3243.1896852600576,1142
3244.8711855254023,1139
3246.552419457381,1112
3248.233387379042,1105
3249.914089613516,1136
3251.59452648401,1158
3253.274698313813,1133
3254.95460542629,1111
3256.6342481448855,1122
3258.313626793125,1149
3259.9927416946084,1095
3261.6715931730196,1087
3263.3501815521176,1092
3265.0285071557437,1126
3266.706570307815,1099
3268.3843713323286,1083
3270.0619105533615,1129
3271.739188295068,1133
3273.4162048816834,1100
3275.0929606375184,1206
3276.769455886966,1115
3278.445690954498,1136
3280.1216661646613,1134
3281.797381842087,1213
3283.4728383114807,1142
3285.1480358976296,1132
3286.8229749253996,1128
3288.4976557197333,1130
3290.172078605655,1196
3291.846243908266,1127
3293.5201519527463,1156
3295.193803064357,1152
3296.8671975684374,1121
3298.5403357904024,1097
3300.21321805575,1104
3301.8858446900567,1085
3303.558216018975,1110
3305.23033236824,1166
3306.9021940636603,1115
3308.57380143113,1107
3310.2451547966184,1147
3311.916254486174,1183
3313.5871008259246,1099
3315.2576941420766,1177
3316.9280347609147,1125
3318.5981230088046,1155
3320.2679592121895,1142
3321.9375436975924,1115
3323.606876791612,1132
3325.27595882093,1115
3326.944790112305,1131
3328.6133709925753,1133
3330.2817017886573,1095
3331.949782827547,1165
3333.617614436319,1128
3335.2851969421245,1137
3336.952530672199,1098
3338.619615953853,1162
3340.286453114475,1089
3341.9530424815357,1148
3343.619384382583,1137
3345.2854791452437,1121
3346.951327097224,1156
3348.6169285663073,1198
3350.2822838803577,1117
3351.947393367319,1121
3353.61225735521,1209
3355.2768761721345,1178
3356.9412501462693,1164
3358.605379605873,1113
3360.2692648792827,1131
3361.9329062949146,1143
3363.596304181263,1099
