CollectionTime,9/19/2024 11:41:18 AM
ExposureUsed,3
CalibratedSpectrum
-962.7078968117929,840
-959.9714848408522,906
-957.2358232597828,919
-954.5009119013725,892
-951.7667505983302,930
-949.0333391832855,962
-946.3006774887896,935
-943.5687653473143,947
-940.837602591253,972
-938.1071890529199,904
-935.3775245645503,950
-932.6486089583007,918
-929.9204420662485,924
-927.1930237203925,914
-924.4663537526524,917
-921.7404319948689,886
-919.0152582788041,929
-916.2908324361409,954
-913.5671542984834,894
-910.8442236973568,915
-908.1220404642074,914
-905.4006044304027,921
-902.679915427231,890
-899.959973285902,854
-897.2407778375464,889
-894.5223289132158,867
-891.8046263438832,881
-889.0876699604426,909
-886.3714595937089,908
-883.6559950744183,864
-880.9412762332282,885
-878.2273029007168,844
-875.5140749073835,902
-872.8015920836489,880
-870.0898542598545,871
-867.3788612662631,877
-864.6686129330585,865
-861.9591090903457,879
-859.2503495681506,873
-856.5423341964203,901
-853.8350628050229,891
-851.1285352237478,890
-848.4227512823054,892
-845.7177108103272,886
-843.0134136373656,879
-840.3098595928943,837
-837.6070485063082,905
-834.9049802069229,880
-832.2036545239757,910
-829.5030712866244,884
-826.8032303239481,836
-824.1041314649472,874
-821.4057745385428,874
-818.7081593735775,855
-816.0112857988148,886
-813.3151536429393,851
-810.6197627345566,880
-807.9251129021936,906
-805.2312039742981,899
-802.5380357792392,892
-799.8456081453069,894
-797.1539209007124,889
-794.462973873588,909
-791.772766891987,928
-789.083299783884,970
-786.3945723771743,908
-783.7065844996748,888
-781.0193359791231,928
-778.3328266431781,911
-775.6470563194197,894
-772.9620248353489,912
-770.2777320183878,899
-767.5941776958798,860
-764.9113616950891,855
-762.2292838432011,903
-759.5479439673222,890
-756.8673418944801,881
-754.1874774516235,904
-751.5083504656222,897
-748.8299607632671,929
-746.15230817127,931
-743.475392516264,941
-740.7992136248035,900
-738.1237713233636,878
-735.4490654383407,952
-732.7750957960521,900
-730.1018622227365,916
-727.4293645445534,921
-724.7576025875837,969
-722.0865761778291,929
-719.4162851412126,955
-716.7467293035781,977
-714.0779084906909,943
-711.409822528237,1002
-708.7424712418238,976
-706.0758544569796,989
-703.4099719991541,993
-700.7448236937178,1024
-698.0804093659622,981
-695.4167288411002,962
-692.7537819442656,972
-690.0915685005134,976
-687.4300883348199,1014
-684.7693412720819,1029
-682.1093271371178,982
-679.4500457546669,962
-676.7914969493897,1003
-674.1336805458676,960
-671.4765963686034,1023
-668.8202442420206,1007
-666.1646239904642,988
-663.5097354382001,984
-660.8555784094151,975
-658.2021527282176,1011
-655.5494582186366,1042
-652.8974947046223,1031
-650.2462620100463,1052
-647.5957599587009,1037
-644.9459883742998,1026
-642.2969470804776,1028
-639.6486359007902,1039
-637.0010546587141,1053
-634.3542031776476,1071
-631.7080812809096,1039
-629.0626887917401,1020
-626.4180255333008,1048
-623.7740913286734,1025
-621.1308860008619,1097
-618.4884093727904,1068
-615.8466612673046,1042
-613.2056415071715,1045
-610.5653499150785,1042
-607.9257863136347,1046
-605.28695052537,1012
-602.6488423727357,1041
-600.0114616781036,1055
-597.3748082637674,1127
-594.7388819519412,1146
-592.1036825647604,1105
-589.4692099242818,1040
-586.8354638524829,1028
-584.2024441712624,1092
-581.5701507024403,1076
-578.9385832677575,1136
-576.3077416888759,1108
-573.6776257873787,1055
-571.0482353847704,1023
-568.4195703024757,1044
-565.7916303618415,1055
-563.164415384135,1065
-560.5379251905453,1050
-557.9121596021815,1105
-555.2871184400748,1024
-552.6628015251767,1121
-550.0392086783606,1176
-547.4163397204204,1123
-544.794194472071,1182
-542.1727727539491,1223
-539.5520743866118,1150
-536.9320991905377,1119
-534.3128469861261,1146
-531.6943175936979,1189
-529.0765108334947,1194
-526.4594265256793,1257
-523.8430644903358,1509
-521.2274245474689,1684
-518.612506517005,1739
-515.9983102187913,1754
-513.3848354725959,1830
-510.77208209810846,1828
-508.16004991493924,1955
-505.5487387426199,2040
-502.9381484006032,2067
-500.3282787082628,2099
-497.71912948489364,2155
-495.1107005497117,1989
-492.5029917218539,1810
-489.8960028203786,1722
-487.28973366426493,1566
-484.68418407241325,1489
-482.07935386364494,1403
-479.47524285670266,1357
-476.87185087025,1314
-474.2691777228715,1306
-471.66722323307334,1303
-469.0659872192821,1338
-466.4654694998459,1338
-463.86566989303384,1275
-461.26658821703614,1321
-458.66822428996414,1337
-456.07057792985,1356
-453.4736489546475,1296
-450.877437182231,1330
-448.28194243039627,1272
-445.68716451686,1224
-443.09310325926003,1236
-440.49975847515555,1200
-437.9071299820263,1276
-435.31521759727354,1257
-432.72402113821954,1270
-430.13354042210767,1302
-427.5437752661022,1259
-424.95472548728867,1249
-422.36639090267386,1338
-419.7787713291855,1437
-417.1918665836721,1329
-414.60567648290385,1404
-412.0202008435715,1367
-409.4354394822874,1443
-406.8513922155845,1422
-404.26805885991723,1368
-401.685439231661,1418
-399.103533147112,1382
-396.522340422488,1375
-393.9418608739278,1428
-391.3620943174908,1310
-388.7830405691583,1305
-386.2046994448317,1273
-383.6270707603344,1203
-381.05015433141045,1128
-378.473949973725,1093
-375.8984575028645,990
-373.32367673433623,926
-370.74960748356875,835
-368.1762495659117,784
-365.60360279663576,727
-363.03166699093265,692
-360.4604419639154,632
-357.8899275306178,590
-355.32012350599507,592
-352.7510297049233,570
-350.1826459421999,546
-347.61497203254316,554
-345.04800779059235,530
-342.4817530309082,574
-339.91620756797226,624
-337.35137121618743,642
-334.7872437898774,616
-332.22382510328725,520
-329.66111497058273,560
-327.09911320585127,526
-324.53781962310075,522
-321.9772340362607,508
-319.4173562591816,539
-316.8581861056348,528
-314.2997233893127,533
-311.7419679238294,557
-309.1849195227194,604
-306.62857799943856,584
-304.0729431673641,572
-301.51801483979375,606
-298.963792829947,574
-296.41027695096386,615
-293.85746701590574,644
-291.3053628377552,661
-288.7539642294155,676
-286.2032710037115,663
-283.65328297338897,663
-281.1039999511146,712
-278.5554217494762,614
-276.007548180983,606
-273.4603790580651,670
-270.9139141930734,682
-268.3681533982807,712
-265.8230964858798,717
-263.27874326798565,740
-260.7350935566336,769
-258.1921471637804,763
-255.6499039013039,861
-253.10836358100266,886
-250.56752601459698,769
-248.02739101372765,774
-245.48795838995704,869
-242.94922795476816,899
-240.41119951956557,815
-237.8738728956746,797
-235.33724789434166,856
-232.80132432673452,759
-230.2661020039418,773
-227.73158073697357,874
-225.19776033676033,916
-222.66464061415422,933
-220.1322213799284,886
-217.60050244477725,833
-215.06948361931552,855
-212.53916471408013,988
-210.00954553952818,1035
-207.48062590603843,1009
-204.9524056239104,932
-202.4248845033651,988
-199.8980623545441,1076
-197.37193898751036,1090
-194.84651421224817,1093
-192.32178783866232,1004
-189.79775967657952,935
-187.27442953574644,1146
-184.7517972258321,1185
-182.2298625564256,1109
-179.7086253370378,955
-177.18808537710026,1004
-174.66824248596583,1227
-172.14909647290835,1295
-169.6306471471229,1376
-167.11289431772548,1164
-164.59583779375328,1021
-162.07947738416453,1177
-159.5638128978386,1439
-157.04884414357605,1573
-154.53457093009854,1759
-152.02099306604828,1415
-149.50811035998936,1234
-146.99592262040665,1432
-144.48442965570587,1561
-141.97363127421409,1739
-139.46352728417958,1949
-136.95411749377126,2088
-134.44540171107985,1646
-131.93737974411636,1381
-129.43005140081357,1250
-126.92341648902493,1583
-124.41747481652521,1970
-121.91222619101006,2510
-119.40767042009657,2921
-116.90380731132257,2876
-114.40063667214702,3037
-111.8981583099503,3919
-109.3963720320337,5899
-106.89527764561933,8906
-104.39487495785067,10561
-101.89516377579241,12914
-99.39614390642998,18058
-96.89781515667039,26314
-94.40017733334128,31733
-91.90323024319173,26603
-89.40697369289148,18887
-86.91140748903172,12498
-84.41653143812482,8214
-81.92234534660395,11261
-79.42884902082358,18132
-76.93604226705907,20148
-74.4439248915071,19046
-71.95249670028534,16709
-69.46175749943245,13665
-66.97170709490854,9799
-64.48234529259423,7257
-61.99367189829195,6911
-59.50568671772464,8057
-57.01838955653636,10003
-54.53178022029283,11766
-52.045858514480074,14510
-49.560624244506016,18216
-47.07607721569923,20089
-44.59221723330904,20988
-42.10904410250669,21581
-39.62655762838392,20424
-37.14475761595372,19375
-34.66364387015028,20474
-32.18321619582866,25611
-29.70347439776515,26519
-27.224418280657005,26347
-24.74604764912317,35410
-22.26836230770266,56473
-19.7913620608565,65033
-17.315046712966478,65033
-14.83941606833514,65033
-12.36446993118659,65033
-9.89020810566592,65033
-7.416630395839093,65033
-4.94373660569363,65033
-2.471526539137585,65033
-6.821210263296962E-13,65033
2.47084320796705,65033
4.941003281093458,65033
7.410480415786196,65033
9.879274808531363,65033
12.347386655893956,65033
14.814816154518212,65033
17.28156350112681,65033
19.74762889252179,65033
22.21301252558385,28309
24.67771459727237,9066
27.141735304626195,9586
29.605074844762612,8607
32.06773341487792,7425
34.52971121224755,6315
36.99100843422559,6572
39.45162527824516,5181
41.91156194181792,5464
44.370818622535126,5632
46.82939551806646,4649
49.287292826160524,7511
51.74451074464503,7640
54.201049471426245,4969
56.65690920448981,3670
59.112090141899785,2879
61.56659248179983,3043
64.02041642241159,3496
66.4735621620365,3843
68.92602989905402,4710
71.37781983192338,4814
73.82893215918205,3323
76.27936707944684,2552
78.72912479141326,2576
81.17820549385567,2827
83.62660938562783,2359
86.07433666566146,2001
88.5213875329681,2179
90.96776218663751,2398
93.41346082583925,2582
95.85848364982041,2898
98.30283085790859,2522
100.7465026495089,1714
103.18949922410604,1739
105.63182078126385,1730
108.07346752062438,1692
110.51443964190923,1501
112.95473734491827,1596
115.39436082953114,1550
117.83331029570547,1469
120.27158594347827,1629
122.7091879729652,1787
125.1461165843615,1552
127.58237197794062,1310
130.01795435405518,1344
132.4528639131364,1544
134.88710085569494,1456
137.32066538231982,1709
139.75355769367923,1712
142.1857779905207,1404
144.61732647366978,1386
147.04820334403132,1239
149.47840880258934,1257
151.90794305040674,1383
154.33680628862487,1494
156.76499871846443,1729
159.19252054122433,1975
161.61937195828352,1952
164.04555317109896,2201
166.47106438120693,2584
168.89590579022217,2758
171.320077599839,2907
173.7435800118302,3082
176.16641322804742,3255
178.58857745042144,3354
181.01007288096173,3367
183.43089972175687,3300
185.85105817497413,3457
188.27054844285988,3442
190.6893707277394,3348
193.10752523201643,3451
195.5250121581745,3648
197.9418317087751,3603
200.3579840864594,3643
202.7734694939469,3758
205.18828813403627,3882
207.6024402096051,3812
210.01592592360964,3626
212.42874547908548,3767
214.84089907914665,3633
217.2523869269868,3579
219.66320922587727,3704
222.0733661791695,3584
224.48285799029293,3631
226.8916848627572,3723
229.29984700014882,3815
231.7073446061355,3757
234.11417788446204,3710
236.520347038953,3916
238.92585227351185,3981
241.33069379212054,4113
243.73487179884035,4170
246.1383864978112,4058
248.541238093252,4161
250.9434267894609,4177
253.34495279081432,4124
255.74581630176783,4148
258.1460175268563,4110
260.54555667069314,4088
262.9444339379703,4102
265.3426495334594,4144
267.7402036620107,3929
270.1370965285529,3792
272.53332833809407,3645
274.9288992957214,3546
277.32380960660055,3513
279.718059475976,3343
282.1116491091717,3402
284.5045787115897,3434
286.89684848871195,3288
289.2884586460981,3392
291.67940938938807,3408
294.0697009242996,3504
296.4593334566299,3325
298.84830719225477,3352
301.23662233712923,3388
303.6242790972866,3231
306.01127767884,3226
308.39761828798066,3195
310.78330113097934,3084
313.16832641418534,3053
315.5526943440269,3073
317.9364051270112,3032
320.3194589697242,3143
322.70185607883093,3053
325.0835966610754,2953
327.4646809232805,2850
329.8451090723478,2851
332.2248813152577,2948
334.6039978590701,2981
336.9824589109231,2951
339.36026467803447,2869
341.7374153677,2820
344.113911187295,2814
346.48975234427337,2769
348.8649390461686,2798
351.2394715005918,2809
353.61334991523415,2819
355.9865744978655,2818
358.35914545633375,2792
360.73106299856715,2865
363.10232733257146,2854
365.47293866643247,2787
367.84289720831396,2804
370.2122031664593,2695
372.5808567491905,2664
374.9488581649083,2571
377.31620762209275,2676
379.6829053293021,2720
382.0489514951745,2628
384.4143463284262,2627
386.7790900378528,2655
389.14318283232853,2628
391.50662492080653,2556
393.86941651231916,2676
396.23155781597745,2678
398.5930490409713,2659
400.9538903965696,2703
403.3140820921202,2580
405.6736243370498,2530
408.03251734086336,2467
410.3907613131465,2532
412.74835646356166,2516
415.10530300185144,2639
417.4616011378372,2579
419.81725108141893,2595
422.1722530425758,2623
424.5266072313656,2541
426.880313857925,2491
429.2333731324701,2501
431.58578526529516,2573
433.9375504667738,2566
436.2886689473588,2553
438.63914091758113,2619
440.9889665880513,2536
443.33814616945835,2461
445.68667987257015,2503
448.03456790823395,2513
450.3818104873759,2470
452.72840782100013,2470
455.07436012019105,2459
457.41966759611057,2456
459.7643304600007,2494
462.10834892318155,2424
464.4517231970525,2443
466.79445349309174,2479
469.1365400228566,2543
471.4779829979826,2634
473.81878263018564,2565
476.15893913125876,2580
478.4984527130747,2560
480.8373235875855,2627
483.17555196682144,2745
485.5131380628919,2706
487.8500820879857,2908
490.1863842543697,2933
492.52204477439034,3197
494.8570638604725,3447
497.1914417251204,3732
499.52517858091653,4118
501.85827464052306,4263
504.19073011668036,4442
506.5225452222086,4284
508.85372017000566,4452
511.18425517304956,4411
513.514150444396,5190
515.8434061971808,6700
518.1720226446176,7606
520.4999999999999,7834
522.8273384766991,7564
525.1540382881666,6999
527.480099647932,6445
529.8055227696037,5032
532.1303078668694,3821
534.454455153496,3287
536.777964843328,2856
539.1008371502907,2898
541.4230722883866,2793
543.744670471698,2822
546.0656319143858,2767
548.3859568306899,2645
550.7056454349294,2628
553.0246979415016,2611
555.3431145648834,2596
557.6608955196306,2555
559.978041020377,2569
562.2945512818363,2588
564.6104265188006,2657
566.9256669461412,2601
569.2402727788082,2541
571.5542442318302,2586
573.8675815203156,2635
576.1802848594508,2598
578.4923544645015,2600
580.8037905508126,2679
583.114593333807,2655
585.4247630289875,2672
587.7342998519354,2632
590.0432040183106,2666
592.3514757438526,2717
594.6591152443794,2720
596.9661227357875,2607
599.2724984340531,2669
601.578242555231,2681
603.8833553154542,2609
606.1878369309362,2624
608.4916876179676,2585
610.7949075929192,2655
613.0974970722403,2589
615.3994562724587,2587
617.7007854101818,2625
620.0014847020951,2622
622.3015543649641,2616
624.6009946156324,2583
626.8998056710224,2616
629.1979877481361,2651
631.4955410640538,2614
633.7924658359349,2642
636.0887622810175,2712
638.3844306166192,2620
640.6794710601358,2618
642.9738838290426,2581
645.2676691408932,2736
647.5608272133207,2640
649.853358264037,2713
652.1452625108324,2703
654.4365401715764,2708
656.7271914642178,2774
659.0172166067838,2708
661.3066158173809,2686
663.5953893141935,2616
665.8835373154867,2727
668.1710600396028,2664
670.4579577049639,2664
672.7442305300709,2681
675.0298787335033,2633
677.3149025339197,2732
679.599302150058,2608
681.8830778007342,2641
684.1662297048437,2681
686.4487580813608,2654
688.7306631493387,2685
691.0119451279091,2640
693.2926042362834,2652
695.5726406937516,2638
697.8520547196814,2629
700.1308465335215,2597
702.4090163547982,2618
704.6865644031171,2611
706.9634908981619,2697
709.2397960596965,2667
711.5154801075631,2630
713.7905432616823,2593
716.0649857420548,2599
718.3388077687592,2538
720.612009561953,2605
722.8845913418733,2651
725.1565533288352,2584
727.427895743234,2553
729.6986188055427,2642
731.9687227363137,2574
734.238207756178,2665
736.5070740858458,2590
738.7753219461066,2649
741.0429515578281,2634
743.3099631419569,2645
745.5763569195191,2656
747.8421331116193,2626
750.1072919394409,2598
752.3718336242467,2599
754.6357583873777,2584
756.8990664502545,2657
759.1617580343765,2613
761.423833361321,2490
763.6852926527457,2604
765.9461361303862,2630
768.206364016058,2620
770.4659765316536,2580
772.7249738991469,2606
774.9833563405886,2692
777.2411240781092,2645
779.4982773339183,2593
781.7548163303044,2648
784.010741289634,2647
786.2660524343538,2726
788.5207499869881,2712
790.7748341701416,2724
793.0283052064964,2674
795.2811633188143,2641
797.5334087299362,2634
799.7850416627813,2682
802.0360623403484,2673
804.2864709857143,2573
806.5362678220353,2697
808.7854530725468,2647
811.0340269605625,2643
813.2819897094754,2617
815.5293415427581,2662
817.77608268396,2656
820.0222133567116,2631
822.2677337847211,2601
824.5126441917765,2626
826.7569448017433,2645
829.0006358385675,2610
831.2437175262731,2632
833.4861900889629,2699
835.7280537508192,2714
837.9693087361026,2591
840.2099552691533,2573
842.4499935743896,2631
844.689423876309,2691
846.9282463994886,2726
849.1664613685833,2703
851.4040690083276,2699
853.6410695435349,2675
855.877463199097,2703
858.1132501999847,2730
860.3484307712487,2691
862.5830051380175,2639
864.8169735254988,2702
867.0503361589791,2686
869.2830932638243,2686
871.5152450654786,2655
873.7467917894654,2710
875.9777336613873,2682
878.2080709069252,2746
880.4378037518389,2751
882.666932421968,2763
884.8954571432301,2728
887.1233781416219,2819
889.3506956432192,2779
891.5774098741766,2850
893.803521060728,2735
896.0290294291852,2855
898.2539352059397,2818
900.4782386174619,2718
902.7019398903011,2673
904.925039251085,2770
907.147536926521,2737
909.3694331433943,2816
911.59072812857,2688
913.8114221089921,2675
916.0315153116827,2713
918.2510079637437,2821
920.4699002923547,2741
922.6881925247761,2674
924.905884888345,2658
927.1229776104793,2771
929.3394709186747,2731
931.555365040506,2690
933.7706602036275,2691
935.9853566357709,2769
938.1994545647489,2662
940.4129542184515,2782
942.6258558248488,2780
944.8381596119883,2719
947.0498658079974,2740
949.2609746410825,2700
951.4714863395287,2787
953.6814011316998,2821
955.8907192460387,2786
958.0994409110671,2778
960.3075663553858,2745
962.5150958076741,2825
964.7220294966913,2681
966.928367651274,2739
969.1341105003388,2733
971.3392582728806,2648
973.5438111979742,2647
975.747769504772,2657
977.9511334225061,2600
980.153903180487,2651
982.3560790081052,2599
984.5576611348289,2563
986.7586497902058,2597
988.9590452038618,2541
991.158847605503,2570
993.3580572249133,2505
995.5566742919558,2559
997.7546990365728,2414
999.952131688785,2338
1002.1489724786926,2361
1004.3452216364743,2338
1006.5408793923874,2227
1008.7359459767691,2345
1010.9304216200343,2334
1013.1243065526781,2326
1015.3176010052733,2217
1017.510305208472,2307
1019.7024193930064,2253
1021.8939437896848,2213
1024.0848786293977,2247
1026.2752241431122,2293
1028.4649805618747,2244
1030.6541481168115,2290
1032.842727039127,2294
1035.0307175601051,2248
1037.2181199111074,2210
1039.4049343235752,2284
1041.591161029029,2177
1043.7768002590683,2288
1045.9618522453698,2212
1048.1463172196918,2188
1050.3301954138697,2212
1052.513487059818,2191
1054.69619238953,2231
1056.8783116350783,2199
1059.0598450286152,2193
1061.2407928023704,2227
1063.4211551886528,2282
1065.6009324198508,2175
1067.780124728432,2128
1069.9587323469414,2177
1072.1367555080046,2149
1074.314194444325,2191
1076.4910493886855,2096
1078.667320573947,2131
1080.843008233051,2073
1083.0181125990161,2155
1085.1926339049414,2119
1087.3665723840027,2137
1089.5399282694575,2199
1091.7127017946405,2152
1093.8848931929647,2105
1096.0565026979243,2152
1098.2275305430899,2125
1100.3979769621128,2067
1102.567842188722,2078
1104.737126456726,2117
1106.9058300000124,2057
1109.0739530525475,2131
1111.2414958483764,2119
1113.4084586216231,2129
1115.5748416064907,2063
1117.7406450372605,2087
1119.9058691482942,2061
1122.0705141740304,2081
1124.2345803489884,2062
1126.3980679077658,2067
1128.5609770850388,2038
1130.7233081155623,2070
1132.8850612341707,2100
1135.0462366757774,2073
1137.2068346753745,2080
1139.3668554680326,2042
1141.526299288901,2020
1143.68516637321,2088
1145.8434569562655,2092
1148.001171273455,2082
1150.158309560244,2042
1152.3148720521767,2046
1154.470858984876,1979
1156.626270594044,2097
1158.7811071154629,2064
1160.9353687849912,2093
1163.089055838569,2092
1165.242168512213,2033
1167.3947070420209,1997
1169.5466716641677,2010
1171.6980626149075,2056
1173.8488801305748,2057
1175.9991244475814,2051
1178.1487958024186,2003
1180.2978944316555,1997
1182.4464205719428,2006
1184.5943744600072,2005
1186.7417563326567,1932
1188.8885664267755,2048
1191.0348049793297,2010
1193.1804722273619,2041
1195.325568407995,2016
1197.4700937584303,1985
1199.614048515948,2046
1201.7574329179074,2024
1203.900247201746,1987
1206.042491604982,2005
1208.1841663652099,2036
1210.3252717201053,2012
1212.465807907422,2035
1214.6057751649923,2015
1216.7451737307279,1990
1218.8840038426192,2058
1221.0222657387353,2018
1223.1599596572241,2092
1225.2970858363137,2055
1227.4336445143094,2076
1229.5696359295966,1983
1231.705060320639,2061
1233.8399179259786,2095
1235.9742089842384,2115
1238.107933734118,2126
1240.2410924143974,2092
1242.373685263935,2058
1244.5057125216676,2104
1246.6371744266116,2074
1248.7680712178621,2064
1250.898403134593,2092
1253.028170416058,2081
1255.1573733015875,2083
1257.2860120305932,2133
1259.4140868425648,2108
1261.54159797707,2160
1263.6685456737569,2145
1265.7949301723515,2067
1267.9207517126597,2217
1270.046010534565,2090
1272.1707068780306,2153
1274.2948409830983,2177
1276.4184130898889,2120
1278.541423438603,2170
1280.6638722695184,2132
1282.785759822993,2183
1284.9070863394636,2213
1287.0278520594447,2223
1289.1480572235314,2119
1291.2677020723963,2151
1293.3867868467923,2255
1295.5053117875495,2258
1297.623277135579,2227
1299.740683131868,2236
1301.8575300174857,2267
1303.973818033578,2276
1306.0895474213703,2238
1308.2047184221678,2274
1310.3193312773528,2265
1312.4333862283888,2334
1314.5468835168163,2292
1316.659823384255,2234
1318.7722060724045,2259
1320.8840318230418,2250
1322.9953008780249,2313
1325.1060134792888,2304
1327.2161698688478,2259
1329.3257702887959,2392
1331.4348149813054,2242
1333.5433041886276,2286
1335.6512381530933,2301
1337.7586171171101,2335
1339.8654413231675,2270
1341.9717110138317,2304
1344.0774264317488,2272
1346.1825878196432,2311
1348.2871954203192,2225
1350.3912494766587,2277
1352.4947502316231,2278
1354.5976979282532,2217
1356.7000928096686,2258
1358.8019351190665,2176
1360.9032250997243,2257
1363.0039629949988,2255
1365.1041490483235,2213
1367.2037835032133,2353
1369.3028666032606,2300
1371.401398592137,2207
1373.4993797135926,2289
1375.5968102114575,2280
1377.6936903296396,2216
1379.7900203121262,2309
1381.8858004029835,2235
1383.9810308463561,2276
1386.075711886469,2319
1388.1698437676241,2265
1390.2634267342032,2253
1392.356461030667,2398
1394.4489469015557,2376
1396.5408845914872,2295
1398.6322743451592,2324
1400.7231164073469,2409
1402.813411022907,2340
1404.903158436773,2386
1406.9923588939578,2452
1409.0810126395531,2387
1411.1691199187303,2429
1413.2566809767386,2403
1415.343696058907,2443
1417.4301654106425,2384
1419.5160892774315,2459
1421.6014679048399,2395
1423.6863015385125,2424
1425.7705904241707,2509
1427.8543348076178,2562
1429.9375349347342,2589
1432.0201910514802,2535
1434.102303403894,2580
1436.1838722380944,2614
1438.2648978002767,2563
1440.3453803367174,2652
1442.4253200937692,2667
1444.5047173178677,2626
1446.5835722555234,2683
1448.6618851533285,2711
1450.739656257952,2842
1452.8168858161434,2796
1454.8935740747306,2873
1456.96972128062,2961
1459.045327680797,2989
1461.120393522327,2835
1463.1949190523528,2998
1465.2689045180973,3029
1467.3423501668608,3103
1469.415256246024,3133
1471.4876230030463,3169
1473.559450685465,3303
1475.6307395408976,3345
1477.7014898170391,3509
1479.771701761665,3480
1481.8413756226287,3445
1483.9105116478618,3582
1485.9791100853772,3493
1488.0471711832643,3693
1490.1146951896926,3623
1492.1816823529098,3633
1494.2481329212433,3819
1496.3140471430984,3740
1498.3794252669609,3894
1500.4442675413939,3694
1502.5085742150404,3851
1504.572345536622,3991
1506.6355817549388,4074
1508.6982831188702,4019
1510.7604498773744,4005
1512.8220822794883,4074
1514.8831805743293,4130
1516.9437450110909,4158
1519.003775839048,4394
1521.0632733075522,4276
1523.1222376660367,4348
1525.1806691640113,4505
1527.2385680510652,4452
1529.2959345768668,4582
1531.3527689911643,4688
1533.4090715437833,4688
1535.4648424846291,4748
1537.5200820636855,4866
1539.5747905310159,4913
1541.6289681367616,4918
1543.6826151311434,4992
1545.7357317644614,5039
1547.7883182870937,5232
1549.8403749494987,5215
1551.8919020022113,5210
1553.9428996958477,5376
1555.9933682811015,5514
1558.0433080087469,5446
1560.0927191296346,5758
1562.1416018946961,5735
1564.1899565549415,5783
1566.2377833614592,5789
1568.2850825654164,5639
1570.3318544180606,5567
1572.3780991707158,5325
1574.423817074788,5182
1576.4690083817595,4908
1578.5136733431923,4729
1580.5578122107272,4275
1582.601425236085,4188
1584.6445126710646,4026
1586.6870747675434,3815
1588.7291117774776,3617
1590.7706239529034,3514
1592.8116115459347,3437
1594.8520748087658,3180
1596.8920139936686,3165
1598.9314293529933,3083
1600.9703211391711,3049
1603.008689604711,2932
1605.0465350022005,2818
1607.0838575843068,2753
1609.1206576037753,2688
1611.1569353134305,2611
1613.1926909661765,2633
1615.2279248149953,2542
1617.2626371129481,2597
1619.2968281131757,2503
1621.3304980688963,2392
1623.3636472334088,2405
1625.39627586009,2387
1627.428384202396,2419
1629.459972513861,2340
1631.4910410480993,2355
1633.5215900588028,2264
1635.551619799744,2286
1637.5811305247717,2240
1639.6101224878166,2338
1641.6385959428862,2176
1643.6665511440683,2256
1645.693988345528,2181
1647.7209078015112,2108
1649.7473097663405,2198
1651.7731944944203,2185
1653.7985622402307,2155
1655.823413258333,2233
1657.847747803366,2283
1659.8715661300494,2199
1661.8948684931793,2181
1663.9176551476316,2256
1665.9399263483624,2174
1667.9616823504057,2184
1669.982923408873,2226
1672.0036497789574,2130
1674.0238617159293,2096
1676.043559475138,2134
1678.0627433120121,2155
1680.081413482059,2069
1682.0995702408654,2158
1684.117213844096,2195
1686.134344547495,2115
1688.1509626068864,2176
1690.1670682781705,2184
1692.182661817329,2160
1694.1977434804217,2205
1696.2123135235875,2124
1698.226372203043,2136
1700.2399197750851,2243
1702.2529564960905,2165
1704.2654826225112,2152
1706.277498410882,2159
1708.2890041178139,2070
1710.2999999999988,2162
1712.3104863142066,2060
1714.3204633172854,2088
1716.329931266163,2109
1718.3388904178469,2143
1720.3473410294214,2158
1722.3552833580516,2054
1724.3627176609807,2060
1726.3696441955308,2050
1728.3760632191033,2109
1730.3819749891782,2065
1732.3873797633146,2046
1734.3922777991502,2025
1736.3966693544012,2097
1738.4005546868639,2063
1740.4039340544127,2079
1742.406807715001,2087
1744.4091759266616,2094
1746.4110389475054,2030
1748.4123970357223,2106
1750.413250449582,2003
1752.4135994474318,2008
1754.4134442876993,2042
1756.4127852288902,1991
1758.4116225295893,1980
1760.4099564484595,2105
1762.407787244244,1996
1764.405115175764,2044
1766.4019405019203,2001
1768.3982634816916,2051
1770.3940843741357,1982
1772.3894034383907,1982
1774.3842209336717,2013
1776.378537119274,2020
1778.372352254571,1942
1780.3656665990156,1989
1782.3584804121397,1994
1784.3507939535534,1925
1786.3426074829463,2021
1788.3339212600863,1981
1790.3247355448211,1943
1792.3150505970766,1998
1794.3048666768573,1976
1796.2941840442477,1914
1798.2830029594106,1896
1800.2713236825884,1952
1802.2591464741004,1906
1804.2464715943465,1975
1806.2332993038058,1959
1808.2196298630352,1942
1810.2054635326708,2033
1812.190800573428,2009
1814.175641246101,1956
1816.1599858115628,1955
1818.1438345307652,2000
1820.127187664738,2000
1822.1100454745924,1936
1824.092408221516,1897
1826.0742761667766,1950
1828.055649571721,1984
1830.0365286977735,1935
1832.0169138064398,2014
1833.9968051593014,1905
1835.9762030180214,1936
1837.9551076443408,1917
1839.9335193000788,1889
1841.9114382471344,1953
1843.888864747485,1934
1845.8657990631878,1944
1847.842241456378,1876
1849.8181921892697,1977
1851.7936515241558,1948
1853.7686197234098,1947
1855.7430970494815,1914
1857.7170837649014,2008
1859.6905801322787,1874
1861.6635864143004,1953
1863.6361028737338,1956
1865.608129773424,1970
1867.5796673762961,1920
1869.5507159453537,1962
1871.521275743678,1950
1873.4913470344313,1908
1875.4609300808534,1926
1877.4300251462632,1949
1879.3986324940588,1871
1881.366752387717,2000
1883.3343850907936,1966
1885.3015308669228,2001
1887.268189979819,1924
1889.2343626932739,1935
1891.2000492711595,2000
1893.1652499774254,1996
1895.1299650761011,2018
1897.0941948312952,1951
1899.0579395071945,2051
1901.0211993680641,1997
1902.98397467825,1936
1904.9462657021745,2058
1906.9080727043415,2017
1908.869395949332,2046
1910.8302357018065,1981
1912.790592226504,1996
1914.7504657882428,1894
1916.7098566519212,1905
1918.6687650825133,1965
1920.6271913450764,1977
1922.5851357047422,1920
1924.5425984267245,1917
1926.499579776314,1879
1928.4560800188833,1993
1930.4120994198802,1981
1932.367638244833,1957
1934.32269675935,1931
1936.2772752291175,2003
1938.231373919899,1922
1940.1849930975404,1958
1942.1381330279637,1930
1944.0907939771696,1893
1946.0429762112412,1950
1947.9946799963363,1898
1949.9459055986945,1910
1951.896653284633,1870
1953.8469233205478,1923
1955.7967159729142,1928
1957.7460315082863,1909
1959.6948701932974,1892
1961.6432322946594,1907
1963.5911180791632,1886
1965.5385278136787,1879
1967.4854617651545,1881
1969.4319202006182,1886
1971.377903387176,1868
1973.3234115920136,1920
1975.268445082395,1924
1977.2130041256642,1816
1979.1570889892423,1907
1981.1006999406304,1882
1983.04383724741,1916
1984.986501177238,1881
1986.928691997853,1875
1988.8704099770712,1811
1990.811655382789,1918
1992.7524284829801,1939
1994.692729545698,1895
1996.6325588390755,1878
1998.5719166313224,1857
2000.5108031907307,1869
2002.4492187856677,1859
2004.387163684583,1846
2006.3246381560011,1859
2008.2616424685298,1869
2010.1981768908527,1870
2012.1342416917332,1921
2014.069837140014,1860
2016.0049635046162,1774
2017.9396210545406,1851
2019.8738100588666,1876
2021.8075307867502,1877
2023.740783507431,1798
2025.6735684902228,1885
2027.6058860045214,1879
2029.5377363198004,1857
2031.4691197056118,1895
2033.4000364315875,1775
2035.3304867674374,1882
2037.260470982952,1845
2039.189989347998,1889
2041.1190421325232,1815
2043.047629606554,1826
2044.9757520401945,1836
2046.9034097036288,1871
2048.8306028671195,1899
2050.7573318010086,1870
2052.683596775716,1880
2054.609398061742,1823
2056.5347359296647,1798
2058.4596106501403,1845
2060.384022493906,1908
2062.3079717317764,1817
2064.231458634646,1824
2066.1544834734873,1841
2068.077046519352,1826
2069.99914804337,1762
2071.9207883167524,1853
2073.8419676107865,1908
2075.7626861968406,1788
2077.6829443463607,1756
2079.6027423308715,1907
2081.522080421977,1860
2083.440958891362,1875
2085.359378010786,1829
2087.2773380520907,1834
2089.194839287196,1812
2091.111881988101,1839
2093.0284664268825,1889
2094.9445928756973,1853
2096.86026160678,1789
2098.775472892446,1821
2100.690227005088,1882
2102.604524217178,1869
2104.5183648012676,1879
2106.431749029985,1925
2108.34467717604,1860
2110.2571495122206,1893
2112.169166311393,1819
2114.080727846503,1856
2115.9918343905747,1742
2117.902486216711,1861
2119.8126835980956,1915
2121.722426807987,1861
2123.6317161197285,1863
2125.5405518067364,1914
2127.448934142509,1939
2129.356863400624,1900
2131.264339854737,1876
2133.1713637785815,1874
2135.077935445972,1885
2136.9840551308002,1931
2138.889723107037,1943
2140.7949396487334,1951
2142.699705030018,1905
2144.6040195250994,1878
2146.507883408264,1899
2148.4112969538774,1901
2150.3142604363848,1962
2152.2167741303097,1930
2154.1188383102535,1926
2156.0204532508997,1895
2157.9216192270064,1933
2159.822336513414,1999
2161.7226053850413,1863
2163.622426116884,1914
2165.5217989840185,1897
2167.4207242616,1967
2169.319202224862,1922
2171.2172331491165,1899
2173.1148173097563,1914
2175.0119549822507,1913
2176.90864644215,1938
2178.8048919650823,1872
2180.7006918267534,1942
2182.596046302952,1959
2184.4909556695407,1982
2186.3854202024645,1921
2188.279440177746,1958
2190.173015871487,1937
2192.066147559868,1916
2193.958835519149,1924
2195.851080025667,1964
2197.7428813558417,1898
2199.6342397861667,1968
2201.5251555932186,1942
2203.415629053651,1987
2205.3056604441986,1963
2207.19525004167,1993
2209.084398122958,1947
2210.9731049650327,1958
2212.861370844941,2047
2214.749196039812,1997
2216.636580826851,2062
2218.523525483344,2060
2220.410030286655,1997
2222.296095514226,2049
2224.1817214435805,1982
2226.066908352319,2034
2227.951656518121,1949
2229.835966218746,1971
2231.71983773203,1961
2233.6032713358913,1987
2235.486267308324,1985
2237.3688259274036,2011
2239.2509474712824,2014
2241.132632218193,1964
2243.013880446447,1950
2244.8946924344323,1971
2246.7750684606203,1964
2248.6550088035574,1944
2250.534513741871,1974
2252.413583554265,2051
2254.292218519526,1987
2256.170418916517,1963
2258.0481850241786,1981
2259.925517121534,1932
2261.8024154876825,1973
2263.678880401803,1975
2265.5549121431536,1958
2267.430510991071,1860
2269.305677224971,1939
2271.180411124348,1893
2273.0547129687766,1916
2274.9285830379076,1905
2276.8020216114737,1912
2278.6750289692845,1876
2280.5476053912294,1953
2282.4197511572766,1943
2284.2914665474727,1988
2286.162751841943,1986
2288.0336073208937,2025
2289.904033264608,2060
2291.774029953448,2052
2293.6435976678554,1944
2295.5127366883517,1885
2297.381447295534,1967
2299.2497297700825,1831
2301.1175843927526,1810
2302.9850114443825,1745
2304.852011205885,1767
2306.7185839582553,1789
2308.5847299825664,1768
2310.4504495599676,1705
2312.3157429716925,1730
2314.1806104990483,1740
2316.0450524234247,1667
2317.9090690262888,1750
2319.772660589186,1710
2321.635827393742,1717
2323.498569721661,1713
2325.3608878547248,1726
2327.2227820747967,1677
2329.0842526638157,1644
2330.945299903803,1759
2332.805924076857,1674
2334.6661254651535,1660
2336.525904350951,1730
2338.3852610165827,1731
2340.244195744464,1686
2342.102708817088,1683
2343.9608005170253,1689
2345.8184711269287,1648
2347.675720929526,1675
2349.532550207628,1748
2351.38895924412,1731
2353.24494832197,1718
2355.100517724223,1721
2356.955667734004,1713
2358.810398634514,1748
2360.664710709037,1740
2362.5186042409337,1712
2364.3720795136437,1752
2366.225136810686,1741
2368.0777764156583,1732
2369.929998612237,1746
2371.7818036841777,1726
2373.633191915315,1722
2375.484163589562,1744
2377.3347189909114,1751
2379.184858403434,1801
2381.03458211128,1715
2382.8838903986775,1756
2384.732783549936,1749
2386.5812618494406,1706
2388.4293255816588,1727
2390.2769750311327,1717
2392.1242104824883,1713
2393.971032220427,1758
2395.8174405297295,1734
2397.6634356952563,1743
2399.509018001947,1724
2401.3541877348193,1691
2403.1989451789705,1759
2405.043290619576,1761
2406.8872243418905,1707
2408.730746631247,1683
2410.5738577730594,1728
2412.4165580528183,1741
2414.258847756095,1733
2416.100727168537,1782
2417.9421965758734,1712
2419.783256263912,1789
2421.623906518538,1716
2423.4641476257157,1705
2425.303979871491,1711
2427.143403541984,1814
2428.9824189233977,1792
2430.821026302012,1735
2432.6592259641866,1738
2434.497018196361,1748
2436.33440328505,1708
2438.171381516851,1721
2440.00795317844,1818
2441.844118556569,1736
2443.6798779380724,1698
2445.5152316098606,1742
2447.3501798589255,1764
2449.1847229723357,1757
2451.0188612372403,1713
2452.8525949408663,1722
2454.6859243705203,1730
2456.518849813587,1813
2458.3513715575314,1828
2460.183489889895,1767
2462.015205098301,1762
2463.8465174704493,1743
2465.67742729412,1756
2467.5079348571717,1731
2469.338040447542,1708
2471.1677443532476,1770
2472.9970468623833,1745
2474.825948263123,1761
2476.6544488437207,1812
2478.482548892508,1820
2480.310248697896,1759
2482.137548548374,1801
2483.9644487325118,1767
2485.790949538956,1813
2487.617051256433,1824
2489.44275417375,1788
2491.26805857979,1779
2493.0929647635157,1815
2494.917473013971,1774
2496.741583620276,1857
2498.5652968716304,1907
2500.3886130573137,1808
2502.2115324666834,1798
2504.0340553891765,1874
2505.856182114308,1840
2507.6779129316733,1800
2509.499248130945,1875
2511.3201880018764,1820
2513.140732834298,1842
2514.9608829181198,1783
2516.780638543331,1867
2518.6,1841
2520.418967578273,1869
2522.237541568376,1857
2524.0557222606144,1862
2525.8735099453706,1845
2527.6909049131086,1864
2529.507907454368,1832
2531.32451785977,1929
2533.140736420014,1910
2534.9565634258774,1900
2536.771999168218,1908
2538.5870439379714,1881
2540.4016980261526,1949
2542.2159617238544,1946
2544.02983532225,1910
2545.8433191125914,1931
2547.656413386209,2035
2549.4691184345115,2000
2551.2814345489874,1986
2553.093362021204,2024
2554.904901142808,2068
2556.716052205523,2013
2558.526815501153,2059
2560.3371913215824,2036
2562.147179958771,2090
2563.956781704761,2095
2565.7659968516705,2110
2567.5748256916986,2159
2569.3832685171224,2233
2571.1913256202984,2134
2572.9989972936614,2186
2574.806283829725,2150
2576.613185521084,2125
2578.4197026604074,2102
2580.2258355404483,2195
2582.031584454035,2239
2583.836949694077,2236
2585.6419315535613,2230
2587.4465303255533,2189
2589.2507463032002,2260
2591.0545797797245,2295
2592.8580310484303,2246
2594.6611004026995,2246
2596.463788135992,2306
2598.266094541849,2298
2600.0680199138874,2287
2601.869564545807,2279
2603.670728731383,2294
2605.4715127644704,2319
2607.2719169390048,2307
2609.071941548998,2304
2610.8715868885433,2287
2612.670853251811,2332
2614.469740933052,2322
2616.268250226594,2324
2618.0663814268455,2285
2619.864134828292,2285
2621.6615107255006,2315
2623.458509413115,2271
2625.2551311858597,2223
2627.0513763385347,2201
2628.8472451660223,2233
2630.6427379632833,2191
2632.4378550253564,2192
2634.232596647359,2148
2636.026963124488,2103
2637.8209547520187,2127
2639.6145718253065,2063
2641.407814639785,2169
2643.200683490966,2109
2644.9931786744414,2057
2646.7853004858807,2077
2648.577049221034,2090
2650.3684251757277,2043
2652.1594286458712,2024
2653.9500599274484,2092
2655.740319316525,1982
2657.5302071092437,1928
2659.3197236018286,1988
2661.10886909058,1953
2662.8976438718782,2021
2664.686048242183,1946
2666.4740824980327,1916
2668.2617469360443,1929
2670.0490418529134,1916
2671.8359675454153,1867
2673.622524310403,1905
2675.408712444811,1798
2677.1945322456495,1948
2678.979984010009,1850
2680.76506803506,1852
2682.5497846180497,1873
2684.334134056306,1788
2686.1181166472343,1762
2687.9017326883213,1809
2689.6849824771293,1770
2691.4678663113013,1818
2693.2503844885596,1782
2695.032537306705,1747
2696.8143250636167,1812
2698.5957480572542,1753
2700.3768065856534,1769
2702.1575009469316,1762
2703.937831439283,1739
2705.717798360982,1820
2707.4974020103837,1825
2709.276642685917,1757
2711.055520686095,1706
2712.834036309506,1743
2714.612189854819,1701
2716.389981620782,1778
2718.1674119062204,1733
2719.944481010041,1727
2721.721189231226,1707
2723.4975368688415,1754
2725.273524222027,1714
2727.0491515900053,1725
2728.824419272075,1703
2730.5993275676146,1758
2732.3738767760838,1742
2734.148067197016,1742
2735.921899130031,1724
2737.6953728748194,1644
2739.468488731156,1641
2741.2412469988926,1626
2743.0136479779617,1674
2744.785691968372,1660
2746.5573792702116,1689
2748.3287101836504,1646
2750.099685008934,1654
2751.870304046388,1656
2753.640567596418,1620
2755.4104759595057,1687
2757.1800294362156,1717
2758.949228327187,1685
2760.7180729331412,1676
2762.486563554877,1684
2764.254700493272,1659
2766.022484049284,1660
2767.789914523947,1661
2769.5569922183786,1675
2771.3237174337705,1644
2773.090090471394,1717
2774.8561116326036,1628
2776.6217812188274,1653
2778.3870995315756,1668
2780.1520668724356,1679
2781.9166835430747,1614
2783.6809498452394,1645
2785.444866080754,1700
2787.2084325515225,1663
2788.971649559527,1632
2790.73451740683,1670
2792.4970363955713,1704
2794.2592068279705,1651
2796.0210290063264,1633
2797.7825032330147,1649
2799.543629810493,1587
2801.304409041296,1681
2803.0648412280366,1679
2804.8249266734088,1710
2806.5846656801846,1637
2808.344058551212,1594
2810.1031055894246,1617
2811.8618070978273,1697
2813.6201633795085,1628
2815.378174737636,1629
2817.1358414754536,1653
2818.893163896285,1639
2820.6501423035334,1604
2822.4067770006814,1614
2824.1630682912883,1663
2825.9190164789957,1659
2827.6746218675207,1619
2829.429884760661,1678
2831.184805462294,1665
2832.9393842763743,1667
2834.693621506936,1666
2836.4475174580916,1732
2838.201072434034,1653
2839.954286739034,1644
2841.707160677441,1629
2843.459694553685,1589
2845.2118886722724,1627
2846.96374333779,1598
2848.7152588549034,1652
2850.4664355283567,1656
2852.217273662973,1613
2853.9677735636546,1693
2855.7179355353833,1649
2857.4677598832186,1661
2859.217246912299,1611
2860.9663969278427,1592
2862.715210235146,1621
2864.4636871395846,1566
2866.211827946614,1554
2867.9596329617652,1604
2869.7071024906536,1628
2871.4542368389684,1569
2873.20103631248,1600
2874.947501217038,1602
2876.6936318585695,1557
2878.4394285430812,1639
2880.1848915766604,1646
2881.9300212654707,1614
2883.6748179157553,1590
2885.4192818338374,1584
2887.1634133261173,1679
2888.907212699077,1636
2890.6506802592744,1590
2892.393816313348,1587
2894.1366211680142,1626
2895.8790951300693,1652
2897.621238506388,1640
2899.363051603925,1649
2901.1045347297118,1679
2902.8456881908596,1634
2904.58651229456,1639
2906.327007348081,1611
2908.067173658772,1623
2909.8070115340597,1591
2911.5465212814497,1590
2913.285703208527,1569
2915.0245576229563,1558
2916.7630848324807,1622
2918.5012851449196,1636
2920.2391588681758,1567
2921.976706310227,1589
2923.7139277791334,1579
2925.4508235830313,1530
2927.187394030137,1594
2928.923639428745,1633
2930.6595600872306,1613
2932.395156314046,1602
2934.1304284177218,1656
2935.8653767068713,1621
2937.6000014901815,1585
2939.3343030764227,1642
2941.068281774442,1575
2942.8019378931644,1596
2944.5352717415976,1584
2946.2682836288236,1578
2948.0009738640065,1625
2949.7333427563885,1630
2951.465390615289,1673
2953.1971177501086,1704
2954.9285244703265,1662
2956.6596110855,1650
2958.3903779052657,1595
2960.1208252393385,1533
2961.8509533975125,1617
2963.5807626896617,1602
2965.3102534257378,1558
2967.0394259157715,1627
2968.768280469873,1612
2970.496817398232,1645
2972.2250370111146,1635
2973.952939618869,1613
2975.6805255319196,1659
2977.4077950607707,1632
2979.134748516006,1601
2980.861386208289,1599
2982.587708448359,1623
2984.313715547037,1634
2986.039407815222,1623
2987.764785563891,1596
2989.489849104102,1633
2991.2145987469908,1630
2992.9390348037705,1609
2994.6631575857346,1594
2996.3869674042576,1613
2998.1104645707887,1583
2999.83364939686,1658
3001.5565221940783,1580
3003.2790832741334,1534
3005.0013329487924,1574
3006.7232715298996,1547
3008.4448993293804,1552
3010.166216659239,1523
3011.887223831558,1623
3013.607921158498,1608
3015.3283089522993,1613
3017.0483875252826,1601
3018.7681571898443,1617
3020.4876182584626,1605
3022.2067710436927,1639
3023.9256158581707,1561
3025.644153014609,1564
3027.362382825801,1603
3029.0803056046193,1568
3030.797921664012,1585
3032.5152313170106,1573
3034.2322348767225,1617
3035.9489326563353,1554
3037.665324969115,1597
3039.3814121284063,1584
3041.097194447633,1603
3042.812672240299,1662
3044.5278458199855,1622
3046.2427155003525,1575
3047.9572815951406,1592
3049.671544418167,1568
3051.38550428333,1610
3053.0991615046073,1662
3054.812516396051,1621
3056.5255692717974,1554
3058.2383204460575,1555
3059.9507702331257,1615
3061.662918947372,1568
3063.3747669032446,1620
3065.0863144152736,1595
3066.7975617980674,1577
3068.508509366309,1651
3070.219157434767,1597
3071.9295063182844,1639
3073.639556331785,1652
3075.3493077902704,1536
3077.058761008821,1596
3078.7679163025964,1657
3080.476773986837,1577
3082.1853343768594,1623
3083.89359778806,1597
3085.6015645359153,1651
3087.3092349359786,1595
3089.016609303884,1626
3090.7236879553434,1621
3092.4304712061476,1649
3094.136959372166,1587
3095.843152769349,1603
3097.5490517137237,1621
3099.2546565213966,1654
3100.959967508554,1628
3102.66498499146,1564
3104.3697092864577,1625
3106.0741407099695,1587
3107.778279578498,1607
3109.482126208622,1592
3111.1856809170004,1588
3112.8889440203716,1597
3114.5919158355528,1653
3116.294596679439,1616
3117.996986869006,1593
3119.6990867213062,1679
3121.4008965534726,1666
3123.102416682717,1626
3124.803647426329,1626
3126.5045891016784,1641
3128.205242026213,1606
3129.90560651746,1611
3131.605682893025,1694
3133.3054714705922,1599
3135.0049725679282,1620
3136.7041865028714,1601
3138.4031135933465,1608
3140.101754157353,1562
3141.800108512971,1610
3143.498176978357,1622
3145.1959598717494,1616
3146.8934575114636,1661
3148.5906702158954,1553
3150.2875983035183,1596
3151.9842420928853,1557
3153.680601902627,1619
3155.376678051456,1587
3157.07247085816,1581
3158.767980641609,1588
3160.463207720748,1600
3162.158152414606,1581
3163.8528150422862,1583
3165.5471959229726,1569
3167.2412953759303,1569
3168.9351137204976,1589
3170.628651276098,1572
3172.3219083622307,1667
3174.014885298474,1586
3175.707582404485,1604
3177.4000000000005,1580
3179.092138404835,1575
3180.7839979388846,1560
3182.47557892212,1578
3184.166881674594,1610
3185.8579065164386,1530
3187.5486537678626,1558
3189.2391237491547,1609
3190.9293167806827,1503
3192.6192331828934,1517
3194.3088732763117,1547
3195.998237381542,1539
3197.687325819268,1557
3199.376138910251,1576
3201.064676975334,1564
3202.7529403354347,1494
3204.4409293115523,1571
3206.1286442247647,1561
3207.816085396229,1547
3209.5032531471825,1552
3211.190147798936,1547
3212.8767696728846,1469
3214.5631190905015,1508
3216.2491963733373,1525
3217.9350018430214,1483
3219.6205358212637,1525
3221.305798629851,1490
3222.990790590651,1492
3224.6755120256103,1463
3226.359963256751,1531
3228.0441446061795,1443
3229.7280563960758,1536
3231.411698948703,1510
3233.0950725863995,1517
3234.778177631587,1481
3236.461014406761,1526
3238.1435832345005,1582
3239.8258844374595,1565
3241.507918338374,1542
3243.1896852600576,1542
3244.8711855254023,1576
3246.552419457381,1545
3248.233387379042,1561
3249.914089613516,1506
3251.59452648401,1526
3253.274698313813,1459
3254.95460542629,1488
3256.6342481448855,1505
3258.313626793125,1495
3259.9927416946084,1546
3261.6715931730196,1470
3263.3501815521176,1498
3265.0285071557437,1517
3266.706570307815,1552
3268.3843713323286,1555
3270.0619105533615,1515
3271.739188295068,1442
3273.4162048816834,1493
3275.0929606375184,1482
3276.769455886966,1568
3278.445690954498,1530
3280.1216661646613,1473
3281.797381842087,1514
3283.4728383114807,1517
3285.1480358976296,1533
3286.8229749253996,1425
3288.4976557197333,1514
3290.172078605655,1566
3291.846243908266,1496
3293.5201519527463,1494
3295.193803064357,1431
3296.8671975684374,1495
3298.5403357904024,1488
3300.21321805575,1536
3301.8858446900567,1500
3303.558216018975,1542
3305.23033236824,1522
3306.9021940636603,1544
3308.57380143113,1547
3310.2451547966184,1514
3311.916254486174,1540
3313.5871008259246,1498
3315.2576941420766,1517
3316.9280347609147,1558
3318.5981230088046,1483
3320.2679592121895,1505
3321.9375436975924,1476
3323.606876791612,1458
3325.27595882093,1477
3326.944790112305,1524
3328.6133709925753,1428
3330.2817017886573,1466
3331.949782827547,1560
3333.617614436319,1504
3335.2851969421245,1516
3336.952530672199,1539
3338.619615953853,1503
3340.286453114475,1534
3341.9530424815357,1484
3343.619384382583,1574
3345.2854791452437,1533
3346.951327097224,1488
3348.6169285663073,1523
3350.2822838803577,1542
3351.947393367319,1518
3353.61225735521,1502
3355.2768761721345,1475
3356.9412501462693,1493
3358.605379605873,1488
3360.2692648792827,1474
3361.9329062949146,1505
3363.596304181263,1484
