CollectionTime,9/19/2024 11:42:30 AM
ExposureUsed,3
CalibratedSpectrum
-962.7078968117929,1099
-959.9714848408522,1104
-957.2358232597828,1169
-954.5009119013725,1186
-951.7667505983302,1224
-949.0333391832855,1174
-946.3006774887896,1221
-943.5687653473143,1181
-940.837602591253,1180
-938.1071890529199,1182
-935.3775245645503,1140
-932.6486089583007,1197
-929.9204420662485,1124
-927.1930237203925,1147
-924.4663537526524,1194
-921.7404319948689,1220
-919.0152582788041,1212
-916.2908324361409,1154
-913.5671542984834,1152
-910.8442236973568,1147
-908.1220404642074,1157
-905.4006044304027,1184
-902.679915427231,1197
-899.959973285902,1192
-897.2407778375464,1172
-894.5223289132158,1156
-891.8046263438832,1200
-889.0876699604426,1163
-886.3714595937089,1101
-883.6559950744183,1154
-880.9412762332282,1132
-878.2273029007168,1115
-875.5140749073835,1148
-872.8015920836489,1110
-870.0898542598545,1128
-867.3788612662631,1146
-864.6686129330585,1143
-861.9591090903457,1135
-859.2503495681506,1162
-856.5423341964203,1108
-853.8350628050229,1176
-851.1285352237478,1151
-848.4227512823054,1159
-845.7177108103272,1157
-843.0134136373656,1187
-840.3098595928943,1163
-837.6070485063082,1149
-834.9049802069229,1129
-832.2036545239757,1161
-829.5030712866244,1131
-826.8032303239481,1122
-824.1041314649472,1136
-821.4057745385428,1127
-818.7081593735775,1165
-816.0112857988148,1140
-813.3151536429393,1142
-810.6197627345566,1204
-807.9251129021936,1128
-805.2312039742981,1138
-802.5380357792392,1236
-799.8456081453069,1198
-797.1539209007124,1235
-794.462973873588,1118
-791.772766891987,1138
-789.083299783884,1231
-786.3945723771743,1222
-783.7065844996748,1176
-781.0193359791231,1128
-778.3328266431781,1164
-775.6470563194197,1177
-772.9620248353489,1201
-770.2777320183878,1144
-767.5941776958798,1142
-764.9113616950891,1170
-762.2292838432011,1157
-759.5479439673222,1144
-756.8673418944801,1137
-754.1874774516235,1169
-751.5083504656222,1182
-748.8299607632671,1179
-746.15230817127,1232
-743.475392516264,1152
-740.7992136248035,1216
-738.1237713233636,1203
-735.4490654383407,1215
-732.7750957960521,1212
-730.1018622227365,1193
-727.4293645445534,1197
-724.7576025875837,1203
-722.0865761778291,1289
-719.4162851412126,1277
-716.7467293035781,1218
-714.0779084906909,1221
-711.409822528237,1245
-708.7424712418238,1284
-706.0758544569796,1219
-703.4099719991541,1294
-700.7448236937178,1319
-698.0804093659622,1289
-695.4167288411002,1263
-692.7537819442656,1259
-690.0915685005134,1307
-687.4300883348199,1315
-684.7693412720819,1302
-682.1093271371178,1339
-679.4500457546669,1277
-676.7914969493897,1238
-674.1336805458676,1304
-671.4765963686034,1326
-668.8202442420206,1291
-666.1646239904642,1326
-663.5097354382001,1324
-660.8555784094151,1315
-658.2021527282176,1358
-655.5494582186366,1310
-652.8974947046223,1331
-650.2462620100463,1336
-647.5957599587009,1283
-644.9459883742998,1365
-642.2969470804776,1315
-639.6486359007902,1357
-637.0010546587141,1344
-634.3542031776476,1432
-631.7080812809096,1343
-629.0626887917401,1269
-626.4180255333008,1318
-623.7740913286734,1359
-621.1308860008619,1367
-618.4884093727904,1328
-615.8466612673046,1332
-613.2056415071715,1377
-610.5653499150785,1388
-607.9257863136347,1401
-605.28695052537,1355
-602.6488423727357,1309
-600.0114616781036,1323
-597.3748082637674,1375
-594.7388819519412,1456
-592.1036825647604,1383
-589.4692099242818,1416
-586.8354638524829,1322
-584.2024441712624,1377
-581.5701507024403,1417
-578.9385832677575,1420
-576.3077416888759,1420
-573.6776257873787,1399
-571.0482353847704,1347
-568.4195703024757,1351
-565.7916303618415,1429
-563.164415384135,1388
-560.5379251905453,1384
-557.9121596021815,1385
-555.2871184400748,1395
-552.6628015251767,1345
-550.0392086783606,1445
-547.4163397204204,1493
-544.794194472071,1476
-542.1727727539491,1456
-539.5520743866118,1495
-536.9320991905377,1438
-534.3128469861261,1526
-531.6943175936979,1593
-529.0765108334947,1524
-526.4594265256793,1599
-523.8430644903358,1895
-521.2274245474689,2015
-518.612506517005,2068
-515.9983102187913,2077
-513.3848354725959,2081
-510.77208209810846,2098
-508.16004991493924,2225
-505.5487387426199,2324
-502.9381484006032,2419
-500.3282787082628,2416
-497.71912948489364,2365
-495.1107005497117,2287
-492.5029917218539,2136
-489.8960028203786,1997
-487.28973366426493,1869
-484.68418407241325,1774
-482.07935386364494,1635
-479.47524285670266,1608
-476.87185087025,1659
-474.2691777228715,1646
-471.66722323307334,1655
-469.0659872192821,1671
-466.4654694998459,1641
-463.86566989303384,1638
-461.26658821703614,1618
-458.66822428996414,1617
-456.07057792985,1613
-453.4736489546475,1645
-450.877437182231,1587
-448.28194243039627,1617
-445.68716451686,1597
-443.09310325926003,1570
-440.49975847515555,1607
-437.9071299820263,1546
-435.31521759727354,1540
-432.72402113821954,1581
-430.13354042210767,1592
-427.5437752661022,1646
-424.95472548728867,1625
-422.36639090267386,1673
-419.7787713291855,1794
-417.1918665836721,1707
-414.60567648290385,1707
-412.0202008435715,1715
-409.4354394822874,1745
-406.8513922155845,1722
-404.26805885991723,1731
-401.685439231661,1779
-399.103533147112,1723
-396.522340422488,1668
-393.9418608739278,1664
-391.3620943174908,1628
-388.7830405691583,1641
-386.2046994448317,1541
-383.6270707603344,1460
-381.05015433141045,1385
-378.473949973725,1400
-375.8984575028645,1267
-373.32367673433623,1102
-370.74960748356875,1009
-368.1762495659117,954
-365.60360279663576,899
-363.03166699093265,788
-360.4604419639154,729
-357.8899275306178,639
-355.32012350599507,660
-352.7510297049233,583
-350.1826459421999,586
-347.61497203254316,557
-345.04800779059235,526
-342.4817530309082,535
-339.91620756797226,620
-337.35137121618743,634
-334.7872437898774,578
-332.22382510328725,538
-329.66111497058273,554
-327.09911320585127,524
-324.53781962310075,522
-321.9772340362607,517
-319.4173562591816,542
-316.8581861056348,548
-314.2997233893127,572
-311.7419679238294,619
-309.1849195227194,647
-306.62857799943856,663
-304.0729431673641,611
-301.51801483979375,657
-298.963792829947,664
-296.41027695096386,649
-293.85746701590574,674
-291.3053628377552,657
-288.7539642294155,641
-286.2032710037115,631
-283.65328297338897,734
-281.1039999511146,800
-278.5554217494762,750
-276.007548180983,707
-273.4603790580651,722
-270.9139141930734,741
-268.3681533982807,754
-265.8230964858798,755
-263.27874326798565,863
-260.7350935566336,843
-258.1921471637804,895
-255.6499039013039,964
-253.10836358100266,887
-250.56752601459698,766
-248.02739101372765,788
-245.48795838995704,885
-242.94922795476816,969
-240.41119951956557,881
-237.8738728956746,912
-235.33724789434166,929
-232.80132432673452,848
-230.2661020039418,837
-227.73158073697357,895
-225.19776033676033,836
-222.66464061415422,914
-220.1322213799284,912
-217.60050244477725,931
-215.06948361931552,929
-212.53916471408013,1148
-210.00954553952818,1091
-207.48062590603843,965
-204.9524056239104,863
-202.4248845033651,978
-199.8980623545441,1157
-197.37193898751036,1157
-194.84651421224817,1108
-192.32178783866232,1003
-189.79775967657952,1020
-187.27442953574644,1240
-184.7517972258321,1287
-182.2298625564256,1072
-179.7086253370378,932
-177.18808537710026,988
-174.66824248596583,1303
-172.14909647290835,1338
-169.6306471471229,1399
-167.11289431772548,1215
-164.59583779375328,1066
-162.07947738416453,1378
-159.5638128978386,1643
-157.04884414357605,1824
-154.53457093009854,1955
-152.02099306604828,1564
-149.50811035998936,1478
-146.99592262040665,1662
-144.48442965570587,1855
-141.97363127421409,1933
-139.46352728417958,2099
-136.95411749377126,2227
-134.44540171107985,1781
-131.93737974411636,1449
-129.43005140081357,1321
-126.92341648902493,1605
-124.41747481652521,2063
-121.91222619101006,2635
-119.40767042009657,2812
-116.90380731132257,2639
-114.40063667214702,2957
-111.8981583099503,3734
-109.3963720320337,6044
-106.89527764561933,9226
-104.39487495785067,11137
-101.89516377579241,13317
-99.39614390642998,18962
-96.89781515667039,27019
-94.40017733334128,32701
-91.90323024319173,28315
-89.40697369289148,21610
-86.91140748903172,14605
-84.41653143812482,8983
-81.92234534660395,11516
-79.42884902082358,18717
-76.93604226705907,22265
-74.4439248915071,22482
-71.95249670028534,20278
-69.46175749943245,16360
-66.97170709490854,12409
-64.48234529259423,8673
-61.99367189829195,7908
-59.50568671772464,9108
-57.01838955653636,9483
-54.53178022029283,8905
-52.045858514480074,8664
-49.560624244506016,12589
-47.07607721569923,14549
-44.59221723330904,12831
-42.10904410250669,13344
-39.62655762838392,15173
-37.14475761595372,16732
-34.66364387015028,19440
-32.18321619582866,25293
-29.70347439776515,26881
-27.224418280657005,27713
-24.74604764912317,37263
-22.26836230770266,59857
-19.7913620608565,65032
-17.315046712966478,65032
-14.83941606833514,65032
-12.36446993118659,65032
-9.89020810566592,65032
-7.416630395839093,65032
-4.94373660569363,65032
-2.471526539137585,65032
-6.821210263296962E-13,65032
2.47084320796705,65032
4.941003281093458,65032
7.410480415786196,65032
9.879274808531363,65032
12.347386655893956,65032
14.814816154518212,65032
17.28156350112681,65032
19.74762889252179,65032
22.21301252558385,27980
24.67771459727237,8288
27.141735304626195,8745
29.605074844762612,7894
32.06773341487792,7683
34.52971121224755,7400
36.99100843422559,6797
39.45162527824516,5079
41.91156194181792,5319
44.370818622535126,5775
46.82939551806646,4603
49.287292826160524,6942
51.74451074464503,7328
54.201049471426245,4652
56.65690920448981,3576
59.112090141899785,2903
61.56659248179983,2898
64.02041642241159,3478
66.4735621620365,3804
68.92602989905402,4480
71.37781983192338,4964
73.82893215918205,3444
76.27936707944684,2285
78.72912479141326,2365
81.17820549385567,2843
83.62660938562783,2635
86.07433666566146,2042
88.5213875329681,1922
90.96776218663751,2394
93.41346082583925,2740
95.85848364982041,2880
98.30283085790859,2658
100.7465026495089,1949
103.18949922410604,1672
105.63182078126385,1784
108.07346752062438,1756
110.51443964190923,1443
112.95473734491827,1659
115.39436082953114,1732
117.83331029570547,1717
120.27158594347827,1828
122.7091879729652,2012
125.1461165843615,1765
127.58237197794062,1507
130.01795435405518,1495
132.4528639131364,1593
134.88710085569494,1504
137.32066538231982,1798
139.75355769367923,1846
142.1857779905207,1577
144.61732647366978,1490
147.04820334403132,1454
149.47840880258934,1345
151.90794305040674,1435
154.33680628862487,1548
156.76499871846443,1821
159.19252054122433,2030
161.61937195828352,2109
164.04555317109896,2288
166.47106438120693,2672
168.89590579022217,2817
171.320077599839,2997
173.7435800118302,3316
176.16641322804742,3428
178.58857745042144,3572
181.01007288096173,3691
183.43089972175687,3744
185.85105817497413,3803
188.27054844285988,3678
190.6893707277394,3747
193.10752523201643,3789
195.5250121581745,3866
197.9418317087751,3968
200.3579840864594,3888
202.7734694939469,4176
205.18828813403627,4410
207.6024402096051,4330
210.01592592360964,4234
212.42874547908548,4118
214.84089907914665,3968
217.2523869269868,4023
219.66320922587727,4133
222.0733661791695,3985
224.48285799029293,4034
226.8916848627572,4157
229.29984700014882,4189
231.7073446061355,4026
234.11417788446204,4188
236.520347038953,4414
238.92585227351185,4357
241.33069379212054,4564
243.73487179884035,4443
246.1383864978112,4407
248.541238093252,4474
250.9434267894609,4652
253.34495279081432,4494
255.74581630176783,4501
258.1460175268563,4523
260.54555667069314,4406
262.9444339379703,4465
265.3426495334594,4521
267.7402036620107,4325
270.1370965285529,4225
272.53332833809407,4022
274.9288992957214,3934
277.32380960660055,3751
279.718059475976,3793
282.1116491091717,3857
284.5045787115897,3807
286.89684848871195,3730
289.2884586460981,3657
291.67940938938807,3805
294.0697009242996,3854
296.4593334566299,3863
298.84830719225477,3656
301.23662233712923,3805
303.6242790972866,3732
306.01127767884,3554
308.39761828798066,3735
310.78330113097934,3493
313.16832641418534,3387
315.5526943440269,3379
317.9364051270112,3481
320.3194589697242,3470
322.70185607883093,3507
325.0835966610754,3401
327.4646809232805,3311
329.8451090723478,3271
332.2248813152577,3312
334.6039978590701,3325
336.9824589109231,3273
339.36026467803447,3253
341.7374153677,3159
344.113911187295,3120
346.48975234427337,3133
348.8649390461686,3146
351.2394715005918,3226
353.61334991523415,3266
355.9865744978655,3091
358.35914545633375,3238
360.73106299856715,3214
363.10232733257146,3183
365.47293866643247,3165
367.84289720831396,3142
370.2122031664593,3136
372.5808567491905,3104
374.9488581649083,3031
377.31620762209275,3043
379.6829053293021,3070
382.0489514951745,2986
384.4143463284262,2985
386.7790900378528,3049
389.14318283232853,3032
391.50662492080653,3024
393.86941651231916,3063
396.23155781597745,3063
398.5930490409713,3062
400.9538903965696,3079
403.3140820921202,2922
405.6736243370498,2927
408.03251734086336,2902
410.3907613131465,2936
412.74835646356166,3015
415.10530300185144,3034
417.4616011378372,3006
419.81725108141893,2952
422.1722530425758,2880
424.5266072313656,2963
426.880313857925,2948
429.2333731324701,2981
431.58578526529516,2986
433.9375504667738,2998
436.2886689473588,2882
438.63914091758113,2876
440.9889665880513,2884
443.33814616945835,2917
445.68667987257015,2904
448.03456790823395,2851
450.3818104873759,2835
452.72840782100013,2823
455.07436012019105,2889
457.41966759611057,2897
459.7643304600007,2907
462.10834892318155,2870
464.4517231970525,2961
466.79445349309174,2868
469.1365400228566,2786
471.4779829979826,2845
473.81878263018564,2958
476.15893913125876,2833
478.4984527130747,2861
480.8373235875855,2987
483.17555196682144,3148
485.5131380628919,3181
487.8500820879857,3156
490.1863842543697,3336
492.52204477439034,3581
494.8570638604725,3719
497.1914417251204,3991
499.52517858091653,4371
501.85827464052306,4476
504.19073011668036,4569
506.5225452222086,4536
508.85372017000566,4570
511.18425517304956,4756
513.514150444396,5392
515.8434061971808,6726
518.1720226446176,7692
520.4999999999999,8109
522.8273384766991,7699
525.1540382881666,7381
527.480099647932,6660
529.8055227696037,5396
532.1303078668694,4215
534.454455153496,3605
536.777964843328,3270
539.1008371502907,3169
541.4230722883866,3101
543.744670471698,3069
546.0656319143858,3031
548.3859568306899,3008
550.7056454349294,3008
553.0246979415016,3026
555.3431145648834,2912
557.6608955196306,2919
559.978041020377,2810
562.2945512818363,2972
564.6104265188006,2918
566.9256669461412,2967
569.2402727788082,2936
571.5542442318302,3006
573.8675815203156,2992
576.1802848594508,2966
578.4923544645015,3124
580.8037905508126,3101
583.114593333807,3060
585.4247630289875,3031
587.7342998519354,2997
590.0432040183106,3025
592.3514757438526,3039
594.6591152443794,3104
596.9661227357875,2990
599.2724984340531,2931
601.578242555231,2871
603.8833553154542,2986
606.1878369309362,2948
608.4916876179676,3047
610.7949075929192,2953
613.0974970722403,2908
615.3994562724587,3044
617.7007854101818,2877
620.0014847020951,3008
622.3015543649641,2942
624.6009946156324,3069
626.8998056710224,3037
629.1979877481361,3030
631.4955410640538,2954
633.7924658359349,2999
636.0887622810175,2882
638.3844306166192,3066
640.6794710601358,2964
642.9738838290426,3018
645.2676691408932,3085
647.5608272133207,3111
649.853358264037,3036
652.1452625108324,3121
654.4365401715764,3002
656.7271914642178,3122
659.0172166067838,3108
661.3066158173809,3108
663.5953893141935,2988
665.8835373154867,3117
668.1710600396028,2996
670.4579577049639,3060
672.7442305300709,3072
675.0298787335033,3093
677.3149025339197,2995
679.599302150058,3092
681.8830778007342,2961
684.1662297048437,2986
686.4487580813608,3058
688.7306631493387,3015
691.0119451279091,3020
693.2926042362834,3075
695.5726406937516,3015
697.8520547196814,2938
700.1308465335215,2968
702.4090163547982,2937
704.6865644031171,2922
706.9634908981619,3106
709.2397960596965,3012
711.5154801075631,2985
713.7905432616823,3000
716.0649857420548,3010
718.3388077687592,3041
720.612009561953,3050
722.8845913418733,2988
725.1565533288352,2977
727.427895743234,2912
729.6986188055427,2902
731.9687227363137,2986
734.238207756178,2911
736.5070740858458,2892
738.7753219461066,2834
741.0429515578281,2986
743.3099631419569,2989
745.5763569195191,2985
747.8421331116193,2958
750.1072919394409,2907
752.3718336242467,2990
754.6357583873777,2957
756.8990664502545,2968
759.1617580343765,2941
761.423833361321,3024
763.6852926527457,2948
765.9461361303862,3000
768.206364016058,3003
770.4659765316536,2972
772.7249738991469,2985
774.9833563405886,3047
777.2411240781092,2956
779.4982773339183,2999
781.7548163303044,2990
784.010741289634,2984
786.2660524343538,3075
788.5207499869881,2981
790.7748341701416,3018
793.0283052064964,2940
795.2811633188143,3017
797.5334087299362,2997
799.7850416627813,3032
802.0360623403484,3017
804.2864709857143,3005
806.5362678220353,3014
808.7854530725468,3082
811.0340269605625,3018
813.2819897094754,3013
815.5293415427581,3059
817.77608268396,3032
820.0222133567116,2922
822.2677337847211,2916
824.5126441917765,2971
826.7569448017433,3053
829.0006358385675,2965
831.2437175262731,3022
833.4861900889629,3062
835.7280537508192,2993
837.9693087361026,2948
840.2099552691533,2963
842.4499935743896,3078
844.689423876309,2996
846.9282463994886,2997
849.1664613685833,3077
851.4040690083276,3064
853.6410695435349,3051
855.877463199097,3037
858.1132501999847,3073
860.3484307712487,3057
862.5830051380175,3051
864.8169735254988,3027
867.0503361589791,2973
869.2830932638243,2974
871.5152450654786,3030
873.7467917894654,3107
875.9777336613873,3082
878.2080709069252,3103
880.4378037518389,3013
882.666932421968,3078
884.8954571432301,3060
887.1233781416219,3108
889.3506956432192,3078
891.5774098741766,3038
893.803521060728,3055
896.0290294291852,3022
898.2539352059397,3059
900.4782386174619,3100
902.7019398903011,3024
904.925039251085,3121
907.147536926521,3149
909.3694331433943,3034
911.59072812857,3077
913.8114221089921,3118
916.0315153116827,3030
918.2510079637437,3054
920.4699002923547,3061
922.6881925247761,3126
924.905884888345,3082
927.1229776104793,3029
929.3394709186747,3025
931.555365040506,2970
933.7706602036275,3048
935.9853566357709,3072
938.1994545647489,3038
940.4129542184515,3182
942.6258558248488,3141
944.8381596119883,3228
947.0498658079974,3157
949.2609746410825,3128
951.4714863395287,3056
953.6814011316998,3106
955.8907192460387,3099
958.0994409110671,3092
960.3075663553858,3105
962.5150958076741,3114
964.7220294966913,3032
966.928367651274,3046
969.1341105003388,2997
971.3392582728806,3042
973.5438111979742,3095
975.747769504772,2982
977.9511334225061,2982
980.153903180487,2971
982.3560790081052,2973
984.5576611348289,3004
986.7586497902058,2843
988.9590452038618,2940
991.158847605503,2916
993.3580572249133,2851
995.5566742919558,2748
997.7546990365728,2751
999.952131688785,2623
1002.1489724786926,2701
1004.3452216364743,2712
1006.5408793923874,2708
1008.7359459767691,2679
1010.9304216200343,2740
1013.1243065526781,2657
1015.3176010052733,2622
1017.510305208472,2691
1019.7024193930064,2566
1021.8939437896848,2586
1024.0848786293977,2569
1026.2752241431122,2565
1028.4649805618747,2668
1030.6541481168115,2640
1032.842727039127,2609
1035.0307175601051,2523
1037.2181199111074,2546
1039.4049343235752,2579
1041.591161029029,2638
1043.7768002590683,2570
1045.9618522453698,2582
1048.1463172196918,2604
1050.3301954138697,2556
1052.513487059818,2588
1054.69619238953,2595
1056.8783116350783,2580
1059.0598450286152,2633
1061.2407928023704,2607
1063.4211551886528,2486
1065.6009324198508,2554
1067.780124728432,2598
1069.9587323469414,2522
1072.1367555080046,2553
1074.314194444325,2515
1076.4910493886855,2468
1078.667320573947,2532
1080.843008233051,2584
1083.0181125990161,2509
1085.1926339049414,2548
1087.3665723840027,2524
1089.5399282694575,2514
1091.7127017946405,2506
1093.8848931929647,2407
1096.0565026979243,2442
1098.2275305430899,2483
1100.3979769621128,2499
1102.567842188722,2428
1104.737126456726,2346
1106.9058300000124,2408
1109.0739530525475,2403
1111.2414958483764,2441
1113.4084586216231,2489
1115.5748416064907,2394
1117.7406450372605,2410
1119.9058691482942,2402
1122.0705141740304,2416
1124.2345803489884,2497
1126.3980679077658,2469
1128.5609770850388,2441
1130.7233081155623,2424
1132.8850612341707,2332
1135.0462366757774,2362
1137.2068346753745,2443
1139.3668554680326,2485
1141.526299288901,2336
1143.68516637321,2428
1145.8434569562655,2335
1148.001171273455,2399
1150.158309560244,2340
1152.3148720521767,2367
1154.470858984876,2395
1156.626270594044,2444
1158.7811071154629,2454
1160.9353687849912,2391
1163.089055838569,2350
1165.242168512213,2298
1167.3947070420209,2362
1169.5466716641677,2446
1171.6980626149075,2355
1173.8488801305748,2296
1175.9991244475814,2360
1178.1487958024186,2362
1180.2978944316555,2367
1182.4464205719428,2405
1184.5943744600072,2440
1186.7417563326567,2368
1188.8885664267755,2376
1191.0348049793297,2341
1193.1804722273619,2305
1195.325568407995,2402
1197.4700937584303,2364
1199.614048515948,2359
1201.7574329179074,2406
1203.900247201746,2395
1206.042491604982,2358
1208.1841663652099,2347
1210.3252717201053,2381
1212.465807907422,2374
1214.6057751649923,2416
1216.7451737307279,2438
1218.8840038426192,2430
1221.0222657387353,2405
1223.1599596572241,2413
1225.2970858363137,2478
1227.4336445143094,2420
1229.5696359295966,2477
1231.705060320639,2397
1233.8399179259786,2466
1235.9742089842384,2402
1238.107933734118,2382
1240.2410924143974,2375
1242.373685263935,2452
1244.5057125216676,2386
1246.6371744266116,2403
1248.7680712178621,2456
1250.898403134593,2409
1253.028170416058,2458
1255.1573733015875,2515
1257.2860120305932,2455
1259.4140868425648,2435
1261.54159797707,2452
1263.6685456737569,2453
1265.7949301723515,2529
1267.9207517126597,2525
1270.046010534565,2524
1272.1707068780306,2480
1274.2948409830983,2480
1276.4184130898889,2501
1278.541423438603,2504
1280.6638722695184,2486
1282.785759822993,2464
1284.9070863394636,2584
1287.0278520594447,2541
1289.1480572235314,2559
1291.2677020723963,2629
1293.3867868467923,2548
1295.5053117875495,2571
1297.623277135579,2585
1299.740683131868,2593
1301.8575300174857,2684
1303.973818033578,2696
1306.0895474213703,2702
1308.2047184221678,2625
1310.3193312773528,2542
1312.4333862283888,2662
1314.5468835168163,2611
1316.659823384255,2592
1318.7722060724045,2681
1320.8840318230418,2650
1322.9953008780249,2715
1325.1060134792888,2602
1327.2161698688478,2608
1329.3257702887959,2669
1331.4348149813054,2644
1333.5433041886276,2654
1335.6512381530933,2702
1337.7586171171101,2627
1339.8654413231675,2620
1341.9717110138317,2594
1344.0774264317488,2620
1346.1825878196432,2624
1348.2871954203192,2625
1350.3912494766587,2674
1352.4947502316231,2590
1354.5976979282532,2609
1356.7000928096686,2612
1358.8019351190665,2615
1360.9032250997243,2545
1363.0039629949988,2667
1365.1041490483235,2570
1367.2037835032133,2639
1369.3028666032606,2556
1371.401398592137,2622
1373.4993797135926,2645
1375.5968102114575,2666
1377.6936903296396,2596
1379.7900203121262,2618
1381.8858004029835,2626
1383.9810308463561,2581
1386.075711886469,2585
1388.1698437676241,2623
1390.2634267342032,2660
1392.356461030667,2704
1394.4489469015557,2731
1396.5408845914872,2703
1398.6322743451592,2656
1400.7231164073469,2718
1402.813411022907,2736
1404.903158436773,2718
1406.9923588939578,2731
1409.0810126395531,2779
1411.1691199187303,2694
1413.2566809767386,2841
1415.343696058907,2777
1417.4301654106425,2782
1419.5160892774315,2827
1421.6014679048399,2863
1423.6863015385125,2896
1425.7705904241707,2790
1427.8543348076178,2867
1429.9375349347342,2873
1432.0201910514802,2909
1434.102303403894,2865
1436.1838722380944,2860
1438.2648978002767,2886
1440.3453803367174,3076
1442.4253200937692,3008
1444.5047173178677,2938
1446.5835722555234,2952
1448.6618851533285,3194
1450.739656257952,3209
1452.8168858161434,3130
1454.8935740747306,3226
1456.96972128062,3218
1459.045327680797,3314
1461.120393522327,3294
1463.1949190523528,3408
1465.2689045180973,3415
1467.3423501668608,3443
1469.415256246024,3586
1471.4876230030463,3675
1473.559450685465,3630
1475.6307395408976,3679
1477.7014898170391,3826
1479.771701761665,3668
1481.8413756226287,3882
1483.9105116478618,3967
1485.9791100853772,3893
1488.0471711832643,3970
1490.1146951896926,4024
1492.1816823529098,4071
1494.2481329212433,4132
1496.3140471430984,4234
1498.3794252669609,4363
1500.4442675413939,4351
1502.5085742150404,4310
1504.572345536622,4430
1506.6355817549388,4385
1508.6982831188702,4472
1510.7604498773744,4520
1512.8220822794883,4551
1514.8831805743293,4580
1516.9437450110909,4752
1519.003775839048,4794
1521.0632733075522,4731
1523.1222376660367,4836
1525.1806691640113,5014
1527.2385680510652,5046
1529.2959345768668,5070
1531.3527689911643,5125
1533.4090715437833,5196
1535.4648424846291,5260
1537.5200820636855,5400
1539.5747905310159,5320
1541.6289681367616,5326
1543.6826151311434,5578
1545.7357317644614,5631
1547.7883182870937,5728
1549.8403749494987,5880
1551.8919020022113,5856
1553.9428996958477,6003
1555.9933682811015,6172
1558.0433080087469,6251
1560.0927191296346,6261
1562.1416018946961,6319
1564.1899565549415,6112
1566.2377833614592,6187
1568.2850825654164,6211
1570.3318544180606,6074
1572.3780991707158,5895
1574.423817074788,5582
1576.4690083817595,5312
1578.5136733431923,4963
1580.5578122107272,4754
1582.601425236085,4666
1584.6445126710646,4474
1586.6870747675434,4239
1588.7291117774776,4064
1590.7706239529034,3929
1592.8116115459347,3699
1594.8520748087658,3651
1596.8920139936686,3572
1598.9314293529933,3500
1600.9703211391711,3312
1603.008689604711,3299
1605.0465350022005,3185
1607.0838575843068,3087
1609.1206576037753,3010
1611.1569353134305,2987
1613.1926909661765,2881
1615.2279248149953,2846
1617.2626371129481,2825
1619.2968281131757,2834
1621.3304980688963,2743
1623.3636472334088,2764
1625.39627586009,2725
1627.428384202396,2716
1629.459972513861,2661
1631.4910410480993,2637
1633.5215900588028,2733
1635.551619799744,2521
1637.5811305247717,2595
1639.6101224878166,2667
1641.6385959428862,2595
1643.6665511440683,2586
1645.693988345528,2620
1647.7209078015112,2555
1649.7473097663405,2508
1651.7731944944203,2458
1653.7985622402307,2420
1655.823413258333,2465
1657.847747803366,2437
1659.8715661300494,2515
1661.8948684931793,2566
1663.9176551476316,2519
1665.9399263483624,2427
1667.9616823504057,2539
1669.982923408873,2529
1672.0036497789574,2432
1674.0238617159293,2484
1676.043559475138,2419
1678.0627433120121,2480
1680.081413482059,2464
1682.0995702408654,2426
1684.117213844096,2415
1686.134344547495,2411
1688.1509626068864,2518
1690.1670682781705,2465
1692.182661817329,2438
1694.1977434804217,2474
1696.2123135235875,2476
1698.226372203043,2525
1700.2399197750851,2407
1702.2529564960905,2458
1704.2654826225112,2424
1706.277498410882,2543
1708.2890041178139,2446
1710.2999999999988,2442
1712.3104863142066,2398
1714.3204633172854,2355
1716.329931266163,2430
1718.3388904178469,2384
1720.3473410294214,2413
1722.3552833580516,2368
1724.3627176609807,2348
1726.3696441955308,2384
1728.3760632191033,2330
1730.3819749891782,2350
1732.3873797633146,2340
1734.3922777991502,2326
1736.3966693544012,2366
1738.4005546868639,2364
1740.4039340544127,2313
1742.406807715001,2255
1744.4091759266616,2313
1746.4110389475054,2370
1748.4123970357223,2333
1750.413250449582,2375
1752.4135994474318,2342
1754.4134442876993,2305
1756.4127852288902,2271
1758.4116225295893,2216
1760.4099564484595,2346
1762.407787244244,2212
1764.405115175764,2173
1766.4019405019203,2265
1768.3982634816916,2253
1770.3940843741357,2264
1772.3894034383907,2187
1774.3842209336717,2157
1776.378537119274,2182
1778.372352254571,2217
1780.3656665990156,2286
1782.3584804121397,2262
1784.3507939535534,2292
1786.3426074829463,2285
1788.3339212600863,2299
1790.3247355448211,2265
1792.3150505970766,2217
1794.3048666768573,2209
1796.2941840442477,2237
1798.2830029594106,2194
1800.2713236825884,2202
1802.2591464741004,2138
1804.2464715943465,2126
1806.2332993038058,2168
1808.2196298630352,2217
1810.2054635326708,2249
1812.190800573428,2228
1814.175641246101,2237
1816.1599858115628,2177
1818.1438345307652,2206
1820.127187664738,2174
1822.1100454745924,2123
1824.092408221516,2210
1826.0742761667766,2176
1828.055649571721,2136
1830.0365286977735,2259
1832.0169138064398,2256
1833.9968051593014,2278
1835.9762030180214,2233
1837.9551076443408,2176
1839.9335193000788,2188
1841.9114382471344,2135
1843.888864747485,2096
1845.8657990631878,2172
1847.842241456378,2201
1849.8181921892697,2231
1851.7936515241558,2191
1853.7686197234098,2223
1855.7430970494815,2217
1857.7170837649014,2170
1859.6905801322787,2233
1861.6635864143004,2200
1863.6361028737338,2222
1865.608129773424,2171
1867.5796673762961,2204
1869.5507159453537,2236
1871.521275743678,2215
1873.4913470344313,2200
1875.4609300808534,2239
1877.4300251462632,2245
1879.3986324940588,2212
1881.366752387717,2285
1883.3343850907936,2319
1885.3015308669228,2176
1887.268189979819,2188
1889.2343626932739,2270
1891.2000492711595,2249
1893.1652499774254,2249
1895.1299650761011,2295
1897.0941948312952,2302
1899.0579395071945,2219
1901.0211993680641,2253
1902.98397467825,2213
1904.9462657021745,2305
1906.9080727043415,2254
1908.869395949332,2220
1910.8302357018065,2244
1912.790592226504,2172
1914.7504657882428,2237
1916.7098566519212,2185
1918.6687650825133,2176
1920.6271913450764,2209
1922.5851357047422,2193
1924.5425984267245,2246
1926.499579776314,2229
1928.4560800188833,2174
1930.4120994198802,2160
1932.367638244833,2249
1934.32269675935,2274
1936.2772752291175,2240
1938.231373919899,2223
1940.1849930975404,2258
1942.1381330279637,2197
1944.0907939771696,2229
1946.0429762112412,2210
1947.9946799963363,2168
1949.9459055986945,2192
1951.896653284633,2210
1953.8469233205478,2109
1955.7967159729142,2198
1957.7460315082863,2148
1959.6948701932974,2147
1961.6432322946594,2192
1963.5911180791632,2169
1965.5385278136787,2160
1967.4854617651545,2191
1969.4319202006182,2152
1971.377903387176,2207
1973.3234115920136,2177
1975.268445082395,2099
1977.2130041256642,2135
1979.1570889892423,2128
1981.1006999406304,2193
1983.04383724741,2157
1984.986501177238,2155
1986.928691997853,2115
1988.8704099770712,2165
1990.811655382789,2145
1992.7524284829801,2132
1994.692729545698,2160
1996.6325588390755,2174
1998.5719166313224,2065
2000.5108031907307,2123
2002.4492187856677,2142
2004.387163684583,2114
2006.3246381560011,2125
2008.2616424685298,2104
2010.1981768908527,2121
2012.1342416917332,2117
2014.069837140014,2089
2016.0049635046162,2103
2017.9396210545406,2096
2019.8738100588666,2092
2021.8075307867502,2136
2023.740783507431,2082
2025.6735684902228,2098
2027.6058860045214,2048
2029.5377363198004,2130
2031.4691197056118,2155
2033.4000364315875,2099
2035.3304867674374,2093
2037.260470982952,2080
2039.189989347998,2097
2041.1190421325232,2066
2043.047629606554,2047
2044.9757520401945,2094
2046.9034097036288,2052
2048.8306028671195,2064
2050.7573318010086,2095
2052.683596775716,2102
2054.609398061742,2075
2056.5347359296647,2045
2058.4596106501403,2067
2060.384022493906,2091
2062.3079717317764,2067
2064.231458634646,2105
2066.1544834734873,2129
2068.077046519352,2123
2069.99914804337,2127
2071.9207883167524,2128
2073.8419676107865,2068
2075.7626861968406,2096
2077.6829443463607,2083
2079.6027423308715,2156
2081.522080421977,2108
2083.440958891362,2051
2085.359378010786,2106
2087.2773380520907,2155
2089.194839287196,2070
2091.111881988101,2026
2093.0284664268825,2174
2094.9445928756973,2060
2096.86026160678,2045
2098.775472892446,2140
2100.690227005088,2093
2102.604524217178,2025
2104.5183648012676,2055
2106.431749029985,1990
2108.34467717604,2064
2110.2571495122206,2109
2112.169166311393,2061
2114.080727846503,2015
2115.9918343905747,2164
2117.902486216711,2129
2119.8126835980956,2081
2121.722426807987,2078
2123.6317161197285,2076
2125.5405518067364,2063
2127.448934142509,2077
2129.356863400624,2211
2131.264339854737,2022
2133.1713637785815,2193
2135.077935445972,2175
2136.9840551308002,2190
2138.889723107037,2107
2140.7949396487334,2158
2142.699705030018,2159
2144.6040195250994,2193
2146.507883408264,2186
2148.4112969538774,2114
2150.3142604363848,2088
2152.2167741303097,2138
2154.1188383102535,2101
2156.0204532508997,2163
2157.9216192270064,2107
2159.822336513414,2108
2161.7226053850413,2101
2163.622426116884,2196
2165.5217989840185,2176
2167.4207242616,2112
2169.319202224862,2099
2171.2172331491165,2120
2173.1148173097563,2273
2175.0119549822507,2210
2176.90864644215,2177
2178.8048919650823,2157
2180.7006918267534,2194
2182.596046302952,2194
2184.4909556695407,2161
2186.3854202024645,2199
2188.279440177746,2211
2190.173015871487,2103
2192.066147559868,2158
2193.958835519149,2116
2195.851080025667,2125
2197.7428813558417,2178
2199.6342397861667,2112
2201.5251555932186,2196
2203.415629053651,2207
2205.3056604441986,2271
2207.19525004167,2207
2209.084398122958,2249
2210.9731049650327,2170
2212.861370844941,2196
2214.749196039812,2188
2216.636580826851,2221
2218.523525483344,2229
2220.410030286655,2267
2222.296095514226,2179
2224.1817214435805,2153
2226.066908352319,2177
2227.951656518121,2109
2229.835966218746,2243
2231.71983773203,2223
2233.6032713358913,2181
2235.486267308324,2236
2237.3688259274036,2150
2239.2509474712824,2088
2241.132632218193,2199
2243.013880446447,2228
2244.8946924344323,2191
2246.7750684606203,2144
2248.6550088035574,2171
2250.534513741871,2099
2252.413583554265,2216
2254.292218519526,2272
2256.170418916517,2240
2258.0481850241786,2140
2259.925517121534,2177
2261.8024154876825,2208
2263.678880401803,2184
2265.5549121431536,2114
2267.430510991071,2164
2269.305677224971,2097
2271.180411124348,2116
2273.0547129687766,2094
2274.9285830379076,2114
2276.8020216114737,2118
2278.6750289692845,2116
2280.5476053912294,2176
2282.4197511572766,2132
2284.2914665474727,2252
2286.162751841943,2218
2288.0336073208937,2236
2289.904033264608,2159
2291.774029953448,2192
2293.6435976678554,2166
2295.5127366883517,2203
2297.381447295534,2079
2299.2497297700825,2019
2301.1175843927526,2100
2302.9850114443825,2028
2304.852011205885,2021
2306.7185839582553,2039
2308.5847299825664,1903
2310.4504495599676,1958
2312.3157429716925,1920
2314.1806104990483,2029
2316.0450524234247,2018
2317.9090690262888,2002
2319.772660589186,1954
2321.635827393742,2012
2323.498569721661,1989
2325.3608878547248,1989
2327.2227820747967,1878
2329.0842526638157,1978
2330.945299903803,1984
2332.805924076857,1900
2334.6661254651535,1942
2336.525904350951,1950
2338.3852610165827,1905
2340.244195744464,1946
2342.102708817088,1979
2343.9608005170253,1873
2345.8184711269287,2000
2347.675720929526,1923
2349.532550207628,1954
2351.38895924412,1910
2353.24494832197,1938
2355.100517724223,1967
2356.955667734004,1964
2358.810398634514,1876
2360.664710709037,1996
2362.5186042409337,1961
2364.3720795136437,1965
2366.225136810686,1968
2368.0777764156583,1968
2369.929998612237,1953
2371.7818036841777,2041
2373.633191915315,1954
2375.484163589562,1965
2377.3347189909114,1952
2379.184858403434,1998
2381.03458211128,2025
2382.8838903986775,2032
2384.732783549936,2009
2386.5812618494406,1994
2388.4293255816588,1989
2390.2769750311327,1988
2392.1242104824883,2009
2393.971032220427,2081
2395.8174405297295,1964
2397.6634356952563,2005
2399.509018001947,1989
2401.3541877348193,2052
2403.1989451789705,1955
2405.043290619576,2053
2406.8872243418905,1930
2408.730746631247,2018
2410.5738577730594,1958
2412.4165580528183,2035
2414.258847756095,1951
2416.100727168537,2042
2417.9421965758734,1961
2419.783256263912,1986
2421.623906518538,1990
2423.4641476257157,2039
2425.303979871491,2044
2427.143403541984,2020
2428.9824189233977,2005
2430.821026302012,1995
2432.6592259641866,1994
2434.497018196361,2000
2436.33440328505,2035
2438.171381516851,2034
2440.00795317844,1991
2441.844118556569,2024
2443.6798779380724,1964
2445.5152316098606,1982
2447.3501798589255,1962
2449.1847229723357,1975
2451.0188612372403,2016
2452.8525949408663,1907
2454.6859243705203,2081
2456.518849813587,1968
2458.3513715575314,1981
2460.183489889895,1967
2462.015205098301,1955
2463.8465174704493,1983
2465.67742729412,1982
2467.5079348571717,1975
2469.338040447542,1975
2471.1677443532476,2066
2472.9970468623833,1992
2474.825948263123,2098
2476.6544488437207,2055
2478.482548892508,1964
2480.310248697896,2006
2482.137548548374,2022
2483.9644487325118,2061
2485.790949538956,2047
2487.617051256433,2052
2489.44275417375,2043
2491.26805857979,2097
2493.0929647635157,2030
2494.917473013971,2054
2496.741583620276,2046
2498.5652968716304,2037
2500.3886130573137,2066
2502.2115324666834,1991
2504.0340553891765,2070
2505.856182114308,2057
2507.6779129316733,2091
2509.499248130945,2073
2511.3201880018764,2037
2513.140732834298,2122
2514.9608829181198,2087
2516.780638543331,2058
2518.6,2044
2520.418967578273,2040
2522.237541568376,2082
2524.0557222606144,2156
2525.8735099453706,2114
2527.6909049131086,2185
2529.507907454368,2086
2531.32451785977,2121
2533.140736420014,2118
2534.9565634258774,2155
2536.771999168218,2139
2538.5870439379714,2151
2540.4016980261526,2203
2542.2159617238544,2161
2544.02983532225,2227
2545.8433191125914,2218
2547.656413386209,2287
2549.4691184345115,2194
2551.2814345489874,2322
2553.093362021204,2316
2554.904901142808,2363
2556.716052205523,2267
2558.526815501153,2286
2560.3371913215824,2281
2562.147179958771,2365
2563.956781704761,2350
2565.7659968516705,2378
2567.5748256916986,2314
2569.3832685171224,2392
2571.1913256202984,2397
2572.9989972936614,2374
2574.806283829725,2382
2576.613185521084,2392
2578.4197026604074,2432
2580.2258355404483,2470
2582.031584454035,2452
2583.836949694077,2463
2585.6419315535613,2424
2587.4465303255533,2395
2589.2507463032002,2455
2591.0545797797245,2504
2592.8580310484303,2494
2594.6611004026995,2522
2596.463788135992,2476
2598.266094541849,2500
2600.0680199138874,2540
2601.869564545807,2527
2603.670728731383,2488
2605.4715127644704,2449
2607.2719169390048,2523
2609.071941548998,2488
2610.8715868885433,2482
2612.670853251811,2548
2614.469740933052,2526
2616.268250226594,2491
2618.0663814268455,2495
2619.864134828292,2505
2621.6615107255006,2472
2623.458509413115,2352
2625.2551311858597,2490
2627.0513763385347,2407
2628.8472451660223,2400
2630.6427379632833,2436
2632.4378550253564,2407
2634.232596647359,2304
2636.026963124488,2381
2637.8209547520187,2362
2639.6145718253065,2349
2641.407814639785,2319
2643.200683490966,2337
2644.9931786744414,2309
2646.7853004858807,2269
2648.577049221034,2328
2650.3684251757277,2274
2652.1594286458712,2220
2653.9500599274484,2169
2655.740319316525,2192
2657.5302071092437,2186
2659.3197236018286,2181
2661.10886909058,2161
2662.8976438718782,2168
2664.686048242183,2148
2666.4740824980327,2144
2668.2617469360443,2119
2670.0490418529134,2184
2671.8359675454153,2088
2673.622524310403,2136
2675.408712444811,2091
2677.1945322456495,2062
2678.979984010009,2024
2680.76506803506,2026
2682.5497846180497,2028
2684.334134056306,2051
2686.1181166472343,2069
2687.9017326883213,2080
2689.6849824771293,2021
2691.4678663113013,2066
2693.2503844885596,1983
2695.032537306705,1982
2696.8143250636167,2014
2698.5957480572542,2053
2700.3768065856534,2027
2702.1575009469316,2009
2703.937831439283,1948
2705.717798360982,1929
2707.4974020103837,1950
2709.276642685917,1957
2711.055520686095,1936
2712.834036309506,1961
2714.612189854819,1935
2716.389981620782,1952
2718.1674119062204,1945
2719.944481010041,2017
2721.721189231226,1956
2723.4975368688415,2013
2725.273524222027,1952
2727.0491515900053,1953
2728.824419272075,1963
2730.5993275676146,1898
2732.3738767760838,1921
2734.148067197016,1951
2735.921899130031,1871
2737.6953728748194,1909
2739.468488731156,1888
2741.2412469988926,1846
2743.0136479779617,1939
2744.785691968372,1871
2746.5573792702116,1899
2748.3287101836504,1888
2750.099685008934,1874
2751.870304046388,1896
2753.640567596418,1927
2755.4104759595057,1793
2757.1800294362156,1865
2758.949228327187,1905
2760.7180729331412,1835
2762.486563554877,1860
2764.254700493272,1898
2766.022484049284,1920
2767.789914523947,1891
2769.5569922183786,1860
2771.3237174337705,1925
2773.090090471394,1859
2774.8561116326036,1890
2776.6217812188274,1873
2778.3870995315756,1936
2780.1520668724356,1875
2781.9166835430747,1886
2783.6809498452394,1863
2785.444866080754,1919
2787.2084325515225,1924
2788.971649559527,1864
2790.73451740683,1820
2792.4970363955713,1868
2794.2592068279705,1809
2796.0210290063264,1795
2797.7825032330147,1826
2799.543629810493,1848
2801.304409041296,1883
2803.0648412280366,1910
2804.8249266734088,1813
2806.5846656801846,1904
2808.344058551212,1836
2810.1031055894246,1891
2811.8618070978273,1920
2813.6201633795085,1862
2815.378174737636,1929
2817.1358414754536,1760
2818.893163896285,1842
2820.6501423035334,1841
2822.4067770006814,1906
2824.1630682912883,1865
2825.9190164789957,1904
2827.6746218675207,1875
2829.429884760661,1817
2831.184805462294,1742
2832.9393842763743,1883
2834.693621506936,1906
2836.4475174580916,1814
2838.201072434034,1932
2839.954286739034,1893
2841.707160677441,1919
2843.459694553685,1811
2845.2118886722724,1910
2846.96374333779,1831
2848.7152588549034,1915
2850.4664355283567,1881
2852.217273662973,1959
2853.9677735636546,1933
2855.7179355353833,1898
2857.4677598832186,1907
2859.217246912299,1912
2860.9663969278427,1877
2862.715210235146,1784
2864.4636871395846,1912
2866.211827946614,1884
2867.9596329617652,1842
2869.7071024906536,1883
2871.4542368389684,1845
2873.20103631248,1861
2874.947501217038,1826
2876.6936318585695,1801
2878.4394285430812,1789
2880.1848915766604,1869
2881.9300212654707,1901
2883.6748179157553,1844
2885.4192818338374,1802
2887.1634133261173,1818
2888.907212699077,1831
2890.6506802592744,1822
2892.393816313348,1923
2894.1366211680142,1874
2895.8790951300693,1883
2897.621238506388,1843
2899.363051603925,1886
2901.1045347297118,1863
2902.8456881908596,1897
2904.58651229456,1857
2906.327007348081,1832
2908.067173658772,1784
2909.8070115340597,1900
2911.5465212814497,1864
2913.285703208527,1856
2915.0245576229563,1848
2916.7630848324807,1816
2918.5012851449196,1859
2920.2391588681758,1795
2921.976706310227,1857
2923.7139277791334,1785
2925.4508235830313,1832
2927.187394030137,1822
2928.923639428745,1812
2930.6595600872306,1898
2932.395156314046,1887
2934.1304284177218,1854
2935.8653767068713,1873
2937.6000014901815,1881
2939.3343030764227,1844
2941.068281774442,1801
2942.8019378931644,1796
2944.5352717415976,1842
2946.2682836288236,1853
2948.0009738640065,1811
2949.7333427563885,1848
2951.465390615289,1835
2953.1971177501086,1883
2954.9285244703265,1898
2956.6596110855,1874
2958.3903779052657,1931
2960.1208252393385,1851
2961.8509533975125,1841
2963.5807626896617,1869
2965.3102534257378,1811
2967.0394259157715,1861
2968.768280469873,1847
2970.496817398232,1791
2972.2250370111146,1902
2973.952939618869,1834
2975.6805255319196,1845
2977.4077950607707,1873
2979.134748516006,1918
2980.861386208289,1842
2982.587708448359,1935
2984.313715547037,1844
2986.039407815222,1849
2987.764785563891,1879
2989.489849104102,1777
2991.2145987469908,1806
2992.9390348037705,1826
2994.6631575857346,1849
2996.3869674042576,1823
2998.1104645707887,1841
2999.83364939686,1815
3001.5565221940783,1840
3003.2790832741334,1860
3005.0013329487924,1831
3006.7232715298996,1791
3008.4448993293804,1743
3010.166216659239,1861
3011.887223831558,1768
3013.607921158498,1829
3015.3283089522993,1808
3017.0483875252826,1773
3018.7681571898443,1843
3020.4876182584626,1811
3022.2067710436927,1801
3023.9256158581707,1823
3025.644153014609,1866
3027.362382825801,1888
3029.0803056046193,1811
3030.797921664012,1786
3032.5152313170106,1755
3034.2322348767225,1812
3035.9489326563353,1852
3037.665324969115,1826
3039.3814121284063,1783
3041.097194447633,1826
3042.812672240299,1823
3044.5278458199855,1868
3046.2427155003525,1826
3047.9572815951406,1791
3049.671544418167,1831
3051.38550428333,1804
3053.0991615046073,1852
3054.812516396051,1770
3056.5255692717974,1847
3058.2383204460575,1809
3059.9507702331257,1823
3061.662918947372,1769
3063.3747669032446,1844
3065.0863144152736,1788
3066.7975617980674,1800
3068.508509366309,1832
3070.219157434767,1785
3071.9295063182844,1786
3073.639556331785,1840
3075.3493077902704,1803
3077.058761008821,1773
3078.7679163025964,1862
3080.476773986837,1823
3082.1853343768594,1853
3083.89359778806,1758
3085.6015645359153,1843
3087.3092349359786,1797
3089.016609303884,1821
3090.7236879553434,1807
3092.4304712061476,1815
3094.136959372166,1763
3095.843152769349,1783
3097.5490517137237,1807
3099.2546565213966,1826
3100.959967508554,1805
3102.66498499146,1795
3104.3697092864577,1839
3106.0741407099695,1843
3107.778279578498,1774
3109.482126208622,1866
3111.1856809170004,1849
3112.8889440203716,1813
3114.5919158355528,1820
3116.294596679439,1854
3117.996986869006,1852
3119.6990867213062,1826
3121.4008965534726,1811
3123.102416682717,1874
3124.803647426329,1785
3126.5045891016784,1825
3128.205242026213,1791
3129.90560651746,1872
3131.605682893025,1838
3133.3054714705922,1849
3135.0049725679282,1772
3136.7041865028714,1724
3138.4031135933465,1766
3140.101754157353,1789
3141.800108512971,1801
3143.498176978357,1840
3145.1959598717494,1823
3146.8934575114636,1816
3148.5906702158954,1823
3150.2875983035183,1786
3151.9842420928853,1772
3153.680601902627,1827
3155.376678051456,1758
3157.07247085816,1770
3158.767980641609,1777
3160.463207720748,1821
3162.158152414606,1797
3163.8528150422862,1755
3165.5471959229726,1822
3167.2412953759303,1865
3168.9351137204976,1801
3170.628651276098,1833
3172.3219083622307,1793
3174.014885298474,1809
3175.707582404485,1816
3177.4000000000005,1858
3179.092138404835,1847
3180.7839979388846,1784
3182.47557892212,1808
3184.166881674594,1754
3185.8579065164386,1789
3187.5486537678626,1854
3189.2391237491547,1822
3190.9293167806827,1807
3192.6192331828934,1802
3194.3088732763117,1813
3195.998237381542,1866
3197.687325819268,1796
3199.376138910251,1811
3201.064676975334,1867
3202.7529403354347,1825
3204.4409293115523,1792
3206.1286442247647,1780
3207.816085396229,1831
3209.5032531471825,1728
3211.190147798936,1777
3212.8767696728846,1715
3214.5631190905015,1744
3216.2491963733373,1714
3217.9350018430214,1742
3219.6205358212637,1772
3221.305798629851,1768
3222.990790590651,1725
3224.6755120256103,1726
3226.359963256751,1783
3228.0441446061795,1756
3229.7280563960758,1784
3231.411698948703,1735
3233.0950725863995,1771
3234.778177631587,1855
3236.461014406761,1828
3238.1435832345005,1788
3239.8258844374595,1775
3241.507918338374,1781
3243.1896852600576,1763
3244.8711855254023,1738
3246.552419457381,1751
3248.233387379042,1743
3249.914089613516,1857
3251.59452648401,1810
3253.274698313813,1799
3254.95460542629,1718
3256.6342481448855,1716
3258.313626793125,1730
3259.9927416946084,1712
3261.6715931730196,1733
3263.3501815521176,1769
3265.0285071557437,1818
3266.706570307815,1750
3268.3843713323286,1832
3270.0619105533615,1766
3271.739188295068,1741
3273.4162048816834,1796
3275.0929606375184,1783
3276.769455886966,1735
3278.445690954498,1762
3280.1216661646613,1704
3281.797381842087,1750
3283.4728383114807,1828
3285.1480358976296,1810
3286.8229749253996,1816
3288.4976557197333,1742
3290.172078605655,1704
3291.846243908266,1718
3293.5201519527463,1729
3295.193803064357,1749
3296.8671975684374,1806
3298.5403357904024,1777
3300.21321805575,1759
3301.8858446900567,1807
3303.558216018975,1800
3305.23033236824,1856
3306.9021940636603,1812
3308.57380143113,1761
3310.2451547966184,1768
3311.916254486174,1803
3313.5871008259246,1773
3315.2576941420766,1733
3316.9280347609147,1785
3318.5981230088046,1753
3320.2679592121895,1707
3321.9375436975924,1713
3323.606876791612,1701
3325.27595882093,1764
3326.944790112305,1744
3328.6133709925753,1734
3330.2817017886573,1743
3331.949782827547,1728
3333.617614436319,1737
3335.2851969421245,1805
3336.952530672199,1753
3338.619615953853,1718
3340.286453114475,1773
3341.9530424815357,1780
3343.619384382583,1771
3345.2854791452437,1730
3346.951327097224,1788
3348.6169285663073,1780
3350.2822838803577,1758
3351.947393367319,1751
3353.61225735521,1816
3355.2768761721345,1808
3356.9412501462693,1756
3358.605379605873,1751
3360.2692648792827,1764
3361.9329062949146,1773
3363.596304181263,1740
