CollectionTime,9/19/2024 11:16:05 AM
ExposureUsed,3
CalibratedSpectrum
-962.7078968117929,659
-959.9714848408522,702
-957.2358232597828,739
-954.5009119013725,736
-951.7667505983302,750
-949.0333391832855,735
-946.3006774887896,754
-943.5687653473143,702
-940.837602591253,736
-938.1071890529199,696
-935.3775245645503,704
-932.6486089583007,745
-929.9204420662485,657
-927.1930237203925,754
-924.4663537526524,769
-921.7404319948689,726
-919.0152582788041,798
-916.2908324361409,776
-913.5671542984834,723
-910.8442236973568,772
-908.1220404642074,727
-905.4006044304027,736
-902.679915427231,747
-899.959973285902,686
-897.2407778375464,692
-894.5223289132158,721
-891.8046263438832,722
-889.0876699604426,702
-886.3714595937089,714
-883.6559950744183,675
-880.9412762332282,645
-878.2273029007168,665
-875.5140749073835,663
-872.8015920836489,694
-870.0898542598545,652
-867.3788612662631,657
-864.6686129330585,660
-861.9591090903457,696
-859.2503495681506,684
-856.5423341964203,684
-853.8350628050229,688
-851.1285352237478,694
-848.4227512823054,709
-845.7177108103272,693
-843.0134136373656,692
-840.3098595928943,692
-837.6070485063082,699
-834.9049802069229,684
-832.2036545239757,673
-829.5030712866244,697
-826.8032303239481,684
-824.1041314649472,618
-821.4057745385428,665
-818.7081593735775,661
-816.0112857988148,685
-813.3151536429393,735
-810.6197627345566,743
-807.9251129021936,682
-805.2312039742981,687
-802.5380357792392,691
-799.8456081453069,722
-797.1539209007124,721
-794.462973873588,708
-791.772766891987,751
-789.083299783884,758
-786.3945723771743,757
-783.7065844996748,729
-781.0193359791231,738
-778.3328266431781,720
-775.6470563194197,683
-772.9620248353489,684
-770.2777320183878,694
-767.5941776958798,742
-764.9113616950891,746
-762.2292838432011,691
-759.5479439673222,733
-756.8673418944801,707
-754.1874774516235,745
-751.5083504656222,688
-748.8299607632671,710
-746.15230817127,785
-743.475392516264,721
-740.7992136248035,711
-738.1237713233636,710
-735.4490654383407,695
-732.7750957960521,728
-730.1018622227365,741
-727.4293645445534,706
-724.7576025875837,745
-722.0865761778291,756
-719.4162851412126,767
-716.7467293035781,758
-714.0779084906909,741
-711.409822528237,773
-708.7424712418238,783
-706.0758544569796,814
-703.4099719991541,783
-700.7448236937178,804
-698.0804093659622,778
-695.4167288411002,791
-692.7537819442656,789
-690.0915685005134,827
-687.4300883348199,773
-684.7693412720819,806
-682.1093271371178,830
-679.4500457546669,812
-676.7914969493897,799
-674.1336805458676,770
-671.4765963686034,787
-668.8202442420206,808
-666.1646239904642,820
-663.5097354382001,812
-660.8555784094151,799
-658.2021527282176,773
-655.5494582186366,814
-652.8974947046223,817
-650.2462620100463,816
-647.5957599587009,801
-644.9459883742998,827
-642.2969470804776,832
-639.6486359007902,822
-637.0010546587141,828
-634.3542031776476,928
-631.7080812809096,851
-629.0626887917401,841
-626.4180255333008,854
-623.7740913286734,884
-621.1308860008619,911
-618.4884093727904,827
-615.8466612673046,847
-613.2056415071715,839
-610.5653499150785,864
-607.9257863136347,864
-605.28695052537,894
-602.6488423727357,891
-600.0114616781036,904
-597.3748082637674,887
-594.7388819519412,923
-592.1036825647604,903
-589.4692099242818,873
-586.8354638524829,902
-584.2024441712624,889
-581.5701507024403,898
-578.9385832677575,911
-576.3077416888759,909
-573.6776257873787,865
-571.0482353847704,855
-568.4195703024757,873
-565.7916303618415,891
-563.164415384135,914
-560.5379251905453,865
-557.9121596021815,871
-555.2871184400748,857
-552.6628015251767,898
-550.0392086783606,934
-547.4163397204204,962
-544.794194472071,938
-542.1727727539491,954
-539.5520743866118,880
-536.9320991905377,976
-534.3128469861261,977
-531.6943175936979,999
-529.0765108334947,1035
-526.4594265256793,1164
-523.8430644903358,1421
-521.2274245474689,1592
-518.612506517005,1598
-515.9983102187913,1648
-513.3848354725959,1695
-510.77208209810846,1858
-508.16004991493924,1848
-505.5487387426199,1996
-502.9381484006032,2109
-500.3282787082628,2057
-497.71912948489364,1990
-495.1107005497117,1827
-492.5029917218539,1665
-489.8960028203786,1483
-487.28973366426493,1344
-484.68418407241325,1284
-482.07935386364494,1195
-479.47524285670266,1103
-476.87185087025,1096
-474.2691777228715,1129
-471.66722323307334,1135
-469.0659872192821,1178
-466.4654694998459,1182
-463.86566989303384,1152
-461.26658821703614,1114
-458.66822428996414,1123
-456.07057792985,1121
-453.4736489546475,1099
-450.877437182231,1105
-448.28194243039627,1017
-445.68716451686,1075
-443.09310325926003,1041
-440.49975847515555,1065
-437.9071299820263,1031
-435.31521759727354,1016
-432.72402113821954,1120
-430.13354042210767,1064
-427.5437752661022,1092
-424.95472548728867,1095
-422.36639090267386,1121
-419.7787713291855,1191
-417.1918665836721,1251
-414.60567648290385,1240
-412.0202008435715,1147
-409.4354394822874,1172
-406.8513922155845,1203
-404.26805885991723,1169
-401.685439231661,1274
-399.103533147112,1202
-396.522340422488,1212
-393.9418608739278,1149
-391.3620943174908,1156
-388.7830405691583,1079
-386.2046994448317,1069
-383.6270707603344,1022
-381.05015433141045,969
-378.473949973725,951
-375.8984575028645,879
-373.32367673433623,793
-370.74960748356875,810
-368.1762495659117,793
-365.60360279663576,739
-363.03166699093265,644
-360.4604419639154,627
-357.8899275306178,623
-355.32012350599507,627
-352.7510297049233,557
-350.1826459421999,596
-347.61497203254316,558
-345.04800779059235,566
-342.4817530309082,574
-339.91620756797226,657
-337.35137121618743,649
-334.7872437898774,598
-332.22382510328725,560
-329.66111497058273,590
-327.09911320585127,559
-324.53781962310075,547
-321.9772340362607,531
-319.4173562591816,567
-316.8581861056348,564
-314.2997233893127,556
-311.7419679238294,623
-309.1849195227194,646
-306.62857799943856,657
-304.0729431673641,598
-301.51801483979375,603
-298.963792829947,604
-296.41027695096386,609
-293.85746701590574,610
-291.3053628377552,666
-288.7539642294155,694
-286.2032710037115,752
-283.65328297338897,679
-281.1039999511146,709
-278.5554217494762,687
-276.007548180983,716
-273.4603790580651,672
-270.9139141930734,732
-268.3681533982807,738
-265.8230964858798,801
-263.27874326798565,900
-260.7350935566336,827
-258.1921471637804,846
-255.6499039013039,902
-253.10836358100266,862
-250.56752601459698,813
-248.02739101372765,861
-245.48795838995704,925
-242.94922795476816,956
-240.41119951956557,868
-237.8738728956746,814
-235.33724789434166,861
-232.80132432673452,889
-230.2661020039418,814
-227.73158073697357,885
-225.19776033676033,924
-222.66464061415422,1102
-220.1322213799284,1115
-217.60050244477725,966
-215.06948361931552,992
-212.53916471408013,1176
-210.00954553952818,1197
-207.48062590603843,1010
-204.9524056239104,949
-202.4248845033651,1050
-199.8980623545441,1122
-197.37193898751036,1185
-194.84651421224817,1256
-192.32178783866232,1062
-189.79775967657952,1053
-187.27442953574644,1292
-184.7517972258321,1209
-182.2298625564256,1168
-179.7086253370378,995
-177.18808537710026,983
-174.66824248596583,1292
-172.14909647290835,1475
-169.6306471471229,1438
-167.11289431772548,1402
-164.59583779375328,1316
-162.07947738416453,1388
-159.5638128978386,1595
-157.04884414357605,1820
-154.53457093009854,1742
-152.02099306604828,1375
-149.50811035998936,1351
-146.99592262040665,1614
-144.48442965570587,1855
-141.97363127421409,2022
-139.46352728417958,2343
-136.95411749377126,2233
-134.44540171107985,1758
-131.93737974411636,1410
-129.43005140081357,1384
-126.92341648902493,1895
-124.41747481652521,2341
-121.91222619101006,3168
-119.40767042009657,3338
-116.90380731132257,3228
-114.40063667214702,3496
-111.8981583099503,4491
-109.3963720320337,6656
-106.89527764561933,9614
-104.39487495785067,11705
-101.89516377579241,14999
-99.39614390642998,19521
-96.89781515667039,27287
-94.40017733334128,33181
-91.90323024319173,29368
-89.40697369289148,19851
-86.91140748903172,12019
-84.41653143812482,8716
-81.92234534660395,13177
-79.42884902082358,20267
-76.93604226705907,24021
-74.4439248915071,21415
-71.95249670028534,16128
-69.46175749943245,11909
-66.97170709490854,8463
-64.48234529259423,6777
-61.99367189829195,6329
-59.50568671772464,8369
-57.01838955653636,11292
-54.53178022029283,14013
-52.045858514480074,16520
-49.560624244506016,20023
-47.07607721569923,21031
-44.59221723330904,23215
-42.10904410250669,25250
-39.62655762838392,24673
-37.14475761595372,25620
-34.66364387015028,26315
-32.18321619582866,31581
-29.70347439776515,34210
-27.224418280657005,30640
-24.74604764912317,38778
-22.26836230770266,65034
-19.7913620608565,65034
-17.315046712966478,65034
-14.83941606833514,65034
-12.36446993118659,65034
-9.89020810566592,65034
-7.416630395839093,65034
-4.94373660569363,65034
-2.471526539137585,65034
-6.821210263296962E-13,65034
2.47084320796705,65034
4.941003281093458,65034
7.410480415786196,65034
9.879274808531363,65034
12.347386655893956,65034
14.814816154518212,65034
17.28156350112681,65034
19.74762889252179,65034
22.21301252558385,28650
24.67771459727237,9884
27.141735304626195,9607
29.605074844762612,9315
32.06773341487792,8197
34.52971121224755,6702
36.99100843422559,6293
39.45162527824516,5613
41.91156194181792,5778
44.370818622535126,5761
46.82939551806646,5572
49.287292826160524,8943
51.74451074464503,8414
54.201049471426245,5713
56.65690920448981,3979
59.112090141899785,3209
61.56659248179983,3390
64.02041642241159,3878
66.4735621620365,4355
68.92602989905402,5267
71.37781983192338,5443
73.82893215918205,3744
76.27936707944684,3204
78.72912479141326,3131
81.17820549385567,3156
83.62660938562783,2661
86.07433666566146,2094
88.5213875329681,2334
90.96776218663751,2651
93.41346082583925,2889
95.85848364982041,3051
98.30283085790859,2812
100.7465026495089,2204
103.18949922410604,1952
105.63182078126385,1882
108.07346752062438,1705
110.51443964190923,1590
112.95473734491827,1507
115.39436082953114,1699
117.83331029570547,1804
120.27158594347827,2050
122.7091879729652,1877
125.1461165843615,1797
127.58237197794062,1569
130.01795435405518,1590
132.4528639131364,1631
134.88710085569494,1669
137.32066538231982,1840
139.75355769367923,1846
142.1857779905207,1645
144.61732647366978,1356
147.04820334403132,1376
149.47840880258934,1382
151.90794305040674,1394
154.33680628862487,1597
156.76499871846443,1858
159.19252054122433,2015
161.61937195828352,1944
164.04555317109896,2087
166.47106438120693,2299
168.89590579022217,2456
171.320077599839,2650
173.7435800118302,2653
176.16641322804742,2758
178.58857745042144,2901
181.01007288096173,2883
183.43089972175687,2900
185.85105817497413,2914
188.27054844285988,2840
190.6893707277394,2898
193.10752523201643,2924
195.5250121581745,3095
197.9418317087751,2918
200.3579840864594,3002
202.7734694939469,3091
205.18828813403627,3291
207.6024402096051,3242
210.01592592360964,3169
212.42874547908548,3215
214.84089907914665,3149
217.2523869269868,3136
219.66320922587727,3171
222.0733661791695,3072
224.48285799029293,3150
226.8916848627572,3268
229.29984700014882,3337
231.7073446061355,3182
234.11417788446204,3250
236.520347038953,3326
238.92585227351185,3413
241.33069379212054,3526
243.73487179884035,3629
246.1383864978112,3566
248.541238093252,3591
250.9434267894609,3614
253.34495279081432,3427
255.74581630176783,3448
258.1460175268563,3520
260.54555667069314,3559
262.9444339379703,3491
265.3426495334594,3620
267.7402036620107,3561
270.1370965285529,3482
272.53332833809407,3356
274.9288992957214,3108
277.32380960660055,3096
279.718059475976,3123
282.1116491091717,3072
284.5045787115897,3054
286.89684848871195,2983
289.2884586460981,2871
291.67940938938807,3133
294.0697009242996,3085
296.4593334566299,3111
298.84830719225477,3007
301.23662233712923,2990
303.6242790972866,2970
306.01127767884,2924
308.39761828798066,2857
310.78330113097934,2747
313.16832641418534,2783
315.5526943440269,2726
317.9364051270112,2786
320.3194589697242,2762
322.70185607883093,2816
325.0835966610754,2648
327.4646809232805,2625
329.8451090723478,2589
332.2248813152577,2601
334.6039978590701,2606
336.9824589109231,2623
339.36026467803447,2530
341.7374153677,2493
344.113911187295,2509
346.48975234427337,2527
348.8649390461686,2608
351.2394715005918,2569
353.61334991523415,2469
355.9865744978655,2582
358.35914545633375,2595
360.73106299856715,2582
363.10232733257146,2398
365.47293866643247,2427
367.84289720831396,2504
370.2122031664593,2485
372.5808567491905,2410
374.9488581649083,2431
377.31620762209275,2352
379.6829053293021,2305
382.0489514951745,2408
384.4143463284262,2340
386.7790900378528,2364
389.14318283232853,2300
391.50662492080653,2341
393.86941651231916,2351
396.23155781597745,2456
398.5930490409713,2432
400.9538903965696,2356
403.3140820921202,2261
405.6736243370498,2323
408.03251734086336,2291
410.3907613131465,2271
412.74835646356166,2315
415.10530300185144,2333
417.4616011378372,2329
419.81725108141893,2263
422.1722530425758,2241
424.5266072313656,2268
426.880313857925,2275
429.2333731324701,2273
431.58578526529516,2274
433.9375504667738,2381
436.2886689473588,2203
438.63914091758113,2285
440.9889665880513,2219
443.33814616945835,2240
445.68667987257015,2253
448.03456790823395,2187
450.3818104873759,2165
452.72840782100013,2099
455.07436012019105,2253
457.41966759611057,2191
459.7643304600007,2196
462.10834892318155,2099
464.4517231970525,2227
466.79445349309174,2185
469.1365400228566,2197
471.4779829979826,2250
473.81878263018564,2228
476.15893913125876,2318
478.4984527130747,2293
480.8373235875855,2405
483.17555196682144,2370
485.5131380628919,2459
487.8500820879857,2624
490.1863842543697,2716
492.52204477439034,2968
494.8570638604725,3247
497.1914417251204,3604
499.52517858091653,3956
501.85827464052306,4215
504.19073011668036,4358
506.5225452222086,4438
508.85372017000566,4385
511.18425517304956,4453
513.514150444396,5163
515.8434061971808,6608
518.1720226446176,7591
520.4999999999999,7710
522.8273384766991,7411
525.1540382881666,6820
527.480099647932,6175
529.8055227696037,4682
532.1303078668694,3593
534.454455153496,2960
536.777964843328,2694
539.1008371502907,2523
541.4230722883866,2436
543.744670471698,2442
546.0656319143858,2458
548.3859568306899,2351
550.7056454349294,2341
553.0246979415016,2334
555.3431145648834,2345
557.6608955196306,2268
559.978041020377,2284
562.2945512818363,2381
564.6104265188006,2377
566.9256669461412,2321
569.2402727788082,2330
571.5542442318302,2307
573.8675815203156,2332
576.1802848594508,2313
578.4923544645015,2368
580.8037905508126,2460
583.114593333807,2354
585.4247630289875,2338
587.7342998519354,2324
590.0432040183106,2368
592.3514757438526,2371
594.6591152443794,2439
596.9661227357875,2344
599.2724984340531,2363
601.578242555231,2352
603.8833553154542,2377
606.1878369309362,2385
608.4916876179676,2292
610.7949075929192,2222
613.0974970722403,2322
615.3994562724587,2341
617.7007854101818,2294
620.0014847020951,2350
622.3015543649641,2297
624.6009946156324,2337
626.8998056710224,2333
629.1979877481361,2317
631.4955410640538,2254
633.7924658359349,2369
636.0887622810175,2337
638.3844306166192,2355
640.6794710601358,2338
642.9738838290426,2364
645.2676691408932,2410
647.5608272133207,2382
649.853358264037,2312
652.1452625108324,2392
654.4365401715764,2267
656.7271914642178,2390
659.0172166067838,2376
661.3066158173809,2344
663.5953893141935,2370
665.8835373154867,2337
668.1710600396028,2370
670.4579577049639,2318
672.7442305300709,2352
675.0298787335033,2329
677.3149025339197,2405
679.599302150058,2379
681.8830778007342,2338
684.1662297048437,2337
686.4487580813608,2270
688.7306631493387,2307
691.0119451279091,2230
693.2926042362834,2299
695.5726406937516,2309
697.8520547196814,2227
700.1308465335215,2252
702.4090163547982,2259
704.6865644031171,2338
706.9634908981619,2255
709.2397960596965,2306
711.5154801075631,2337
713.7905432616823,2254
716.0649857420548,2208
718.3388077687592,2329
720.612009561953,2305
722.8845913418733,2341
725.1565533288352,2224
727.427895743234,2234
729.6986188055427,2312
731.9687227363137,2237
734.238207756178,2287
736.5070740858458,2227
738.7753219461066,2243
741.0429515578281,2323
743.3099631419569,2367
745.5763569195191,2296
747.8421331116193,2337
750.1072919394409,2331
752.3718336242467,2259
754.6357583873777,2255
756.8990664502545,2264
759.1617580343765,2225
761.423833361321,2380
763.6852926527457,2386
765.9461361303862,2331
768.206364016058,2262
770.4659765316536,2342
772.7249738991469,2326
774.9833563405886,2415
777.2411240781092,2245
779.4982773339183,2281
781.7548163303044,2322
784.010741289634,2326
786.2660524343538,2337
788.5207499869881,2309
790.7748341701416,2407
793.0283052064964,2355
795.2811633188143,2307
797.5334087299362,2426
799.7850416627813,2326
802.0360623403484,2333
804.2864709857143,2364
806.5362678220353,2399
808.7854530725468,2302
811.0340269605625,2257
813.2819897094754,2378
815.5293415427581,2337
817.77608268396,2419
820.0222133567116,2365
822.2677337847211,2346
824.5126441917765,2302
826.7569448017433,2409
829.0006358385675,2384
831.2437175262731,2306
833.4861900889629,2369
835.7280537508192,2204
837.9693087361026,2331
840.2099552691533,2350
842.4499935743896,2338
844.689423876309,2356
846.9282463994886,2365
849.1664613685833,2380
851.4040690083276,2331
853.6410695435349,2402
855.877463199097,2259
858.1132501999847,2332
860.3484307712487,2383
862.5830051380175,2430
864.8169735254988,2326
867.0503361589791,2389
869.2830932638243,2343
871.5152450654786,2422
873.7467917894654,2370
875.9777336613873,2350
878.2080709069252,2404
880.4378037518389,2415
882.666932421968,2405
884.8954571432301,2356
887.1233781416219,2478
889.3506956432192,2462
891.5774098741766,2458
893.803521060728,2422
896.0290294291852,2497
898.2539352059397,2478
900.4782386174619,2364
902.7019398903011,2393
904.925039251085,2364
907.147536926521,2328
909.3694331433943,2408
911.59072812857,2434
913.8114221089921,2359
916.0315153116827,2352
918.2510079637437,2424
920.4699002923547,2346
922.6881925247761,2387
924.905884888345,2393
927.1229776104793,2351
929.3394709186747,2409
931.555365040506,2387
933.7706602036275,2350
935.9853566357709,2433
938.1994545647489,2433
940.4129542184515,2475
942.6258558248488,2438
944.8381596119883,2418
947.0498658079974,2453
949.2609746410825,2446
951.4714863395287,2453
953.6814011316998,2445
955.8907192460387,2391
958.0994409110671,2424
960.3075663553858,2442
962.5150958076741,2398
964.7220294966913,2355
966.928367651274,2321
969.1341105003388,2315
971.3392582728806,2355
973.5438111979742,2430
975.747769504772,2388
977.9511334225061,2291
980.153903180487,2323
982.3560790081052,2348
984.5576611348289,2294
986.7586497902058,2202
988.9590452038618,2187
991.158847605503,2215
993.3580572249133,2096
995.5566742919558,2201
997.7546990365728,2009
999.952131688785,1936
1002.1489724786926,2030
1004.3452216364743,1994
1006.5408793923874,2015
1008.7359459767691,2029
1010.9304216200343,2000
1013.1243065526781,1978
1015.3176010052733,2005
1017.510305208472,1985
1019.7024193930064,1974
1021.8939437896848,1924
1024.0848786293977,1892
1026.2752241431122,1955
1028.4649805618747,1922
1030.6541481168115,1944
1032.842727039127,1958
1035.0307175601051,1839
1037.2181199111074,1919
1039.4049343235752,1891
1041.591161029029,1904
1043.7768002590683,1927
1045.9618522453698,1899
1048.1463172196918,1927
1050.3301954138697,1893
1052.513487059818,1911
1054.69619238953,1859
1056.8783116350783,1863
1059.0598450286152,1852
1061.2407928023704,1875
1063.4211551886528,1894
1065.6009324198508,1863
1067.780124728432,1896
1069.9587323469414,1837
1072.1367555080046,1880
1074.314194444325,1822
1076.4910493886855,1828
1078.667320573947,1849
1080.843008233051,1871
1083.0181125990161,1699
1085.1926339049414,1787
1087.3665723840027,1815
1089.5399282694575,1862
1091.7127017946405,1863
1093.8848931929647,1854
1096.0565026979243,1864
1098.2275305430899,1769
1100.3979769621128,1815
1102.567842188722,1738
1104.737126456726,1755
1106.9058300000124,1715
1109.0739530525475,1726
1111.2414958483764,1714
1113.4084586216231,1794
1115.5748416064907,1830
1117.7406450372605,1741
1119.9058691482942,1769
1122.0705141740304,1768
1124.2345803489884,1784
1126.3980679077658,1761
1128.5609770850388,1808
1130.7233081155623,1748
1132.8850612341707,1731
1135.0462366757774,1718
1137.2068346753745,1702
1139.3668554680326,1732
1141.526299288901,1749
1143.68516637321,1750
1145.8434569562655,1714
1148.001171273455,1745
1150.158309560244,1698
1152.3148720521767,1694
1154.470858984876,1751
1156.626270594044,1829
1158.7811071154629,1688
1160.9353687849912,1778
1163.089055838569,1758
1165.242168512213,1694
1167.3947070420209,1715
1169.5466716641677,1720
1171.6980626149075,1695
1173.8488801305748,1718
1175.9991244475814,1750
1178.1487958024186,1753
1180.2978944316555,1773
1182.4464205719428,1736
1184.5943744600072,1675
1186.7417563326567,1742
1188.8885664267755,1710
1191.0348049793297,1691
1193.1804722273619,1725
1195.325568407995,1718
1197.4700937584303,1778
1199.614048515948,1791
1201.7574329179074,1729
1203.900247201746,1641
1206.042491604982,1684
1208.1841663652099,1728
1210.3252717201053,1736
1212.465807907422,1766
1214.6057751649923,1687
1216.7451737307279,1732
1218.8840038426192,1743
1221.0222657387353,1711
1223.1599596572241,1721
1225.2970858363137,1744
1227.4336445143094,1724
1229.5696359295966,1800
1231.705060320639,1733
1233.8399179259786,1757
1235.9742089842384,1737
1238.107933734118,1772
1240.2410924143974,1707
1242.373685263935,1798
1244.5057125216676,1757
1246.6371744266116,1744
1248.7680712178621,1791
1250.898403134593,1802
1253.028170416058,1796
1255.1573733015875,1714
1257.2860120305932,1828
1259.4140868425648,1823
1261.54159797707,1814
1263.6685456737569,1849
1265.7949301723515,1843
1267.9207517126597,1755
1270.046010534565,1807
1272.1707068780306,1801
1274.2948409830983,1873
1276.4184130898889,1873
1278.541423438603,1824
1280.6638722695184,1834
1282.785759822993,1802
1284.9070863394636,1873
1287.0278520594447,1806
1289.1480572235314,1860
1291.2677020723963,1799
1293.3867868467923,1836
1295.5053117875495,1866
1297.623277135579,1911
1299.740683131868,1888
1301.8575300174857,1880
1303.973818033578,1960
1306.0895474213703,1934
1308.2047184221678,1908
1310.3193312773528,1960
1312.4333862283888,1895
1314.5468835168163,1965
1316.659823384255,1938
1318.7722060724045,1898
1320.8840318230418,1895
1322.9953008780249,1887
1325.1060134792888,1927
1327.2161698688478,1978
1329.3257702887959,1846
1331.4348149813054,1894
1333.5433041886276,1894
1335.6512381530933,1904
1337.7586171171101,1941
1339.8654413231675,1863
1341.9717110138317,1919
1344.0774264317488,1894
1346.1825878196432,1929
1348.2871954203192,1900
1350.3912494766587,1934
1352.4947502316231,1918
1354.5976979282532,1906
1356.7000928096686,1891
1358.8019351190665,1936
1360.9032250997243,1898
1363.0039629949988,1883
1365.1041490483235,1947
1367.2037835032133,1864
1369.3028666032606,1931
1371.401398592137,1888
1373.4993797135926,1872
1375.5968102114575,1867
1377.6936903296396,1782
1379.7900203121262,1977
1381.8858004029835,1880
1383.9810308463561,1899
1386.075711886469,1882
1388.1698437676241,1869
1390.2634267342032,1918
1392.356461030667,1865
1394.4489469015557,1919
1396.5408845914872,1891
1398.6322743451592,1931
1400.7231164073469,1925
1402.813411022907,1938
1404.903158436773,1984
1406.9923588939578,2017
1409.0810126395531,1967
1411.1691199187303,2032
1413.2566809767386,1958
1415.343696058907,2001
1417.4301654106425,2029
1419.5160892774315,2066
1421.6014679048399,2028
1423.6863015385125,2025
1425.7705904241707,2071
1427.8543348076178,1990
1429.9375349347342,2064
1432.0201910514802,2032
1434.102303403894,2073
1436.1838722380944,2053
1438.2648978002767,2102
1440.3453803367174,2104
1442.4253200937692,2183
1444.5047173178677,2104
1446.5835722555234,2193
1448.6618851533285,2192
1450.739656257952,2190
1452.8168858161434,2169
1454.8935740747306,2279
1456.96972128062,2248
1459.045327680797,2255
1461.120393522327,2326
1463.1949190523528,2336
1465.2689045180973,2415
1467.3423501668608,2328
1469.415256246024,2354
1471.4876230030463,2436
1473.559450685465,2498
1475.6307395408976,2522
1477.7014898170391,2533
1479.771701761665,2639
1481.8413756226287,2656
1483.9105116478618,2652
1485.9791100853772,2623
1488.0471711832643,2624
1490.1146951896926,2733
1492.1816823529098,2667
1494.2481329212433,2659
1496.3140471430984,2692
1498.3794252669609,2737
1500.4442675413939,2767
1502.5085742150404,2820
1504.572345536622,2855
1506.6355817549388,2813
1508.6982831188702,2786
1510.7604498773744,2844
1512.8220822794883,2937
1514.8831805743293,2881
1516.9437450110909,2830
1519.003775839048,2865
1521.0632733075522,2848
1523.1222376660367,2941
1525.1806691640113,2826
1527.2385680510652,2981
1529.2959345768668,3064
1531.3527689911643,3031
1533.4090715437833,3047
1535.4648424846291,2995
1537.5200820636855,3035
1539.5747905310159,3008
1541.6289681367616,2994
1543.6826151311434,3087
1545.7357317644614,3154
1547.7883182870937,3275
1549.8403749494987,3287
1551.8919020022113,3326
1553.9428996958477,3421
1555.9933682811015,3389
1558.0433080087469,3434
1560.0927191296346,3416
1562.1416018946961,3514
1564.1899565549415,3366
1566.2377833614592,3397
1568.2850825654164,3455
1570.3318544180606,3268
1572.3780991707158,3239
1574.423817074788,3151
1576.4690083817595,2976
1578.5136733431923,2912
1580.5578122107272,2843
1582.601425236085,2690
1584.6445126710646,2634
1586.6870747675434,2647
1588.7291117774776,2577
1590.7706239529034,2414
1592.8116115459347,2433
1594.8520748087658,2297
1596.8920139936686,2288
1598.9314293529933,2218
1600.9703211391711,2151
1603.008689604711,2142
1605.0465350022005,2108
1607.0838575843068,2036
1609.1206576037753,2004
1611.1569353134305,1985
1613.1926909661765,1996
1615.2279248149953,1981
1617.2626371129481,2021
1619.2968281131757,1975
1621.3304980688963,1925
1623.3636472334088,1884
1625.39627586009,1867
1627.428384202396,1883
1629.459972513861,1862
1631.4910410480993,1878
1633.5215900588028,1807
1635.551619799744,1858
1637.5811305247717,1793
1639.6101224878166,1805
1641.6385959428862,1863
1643.6665511440683,1765
1645.693988345528,1788
1647.7209078015112,1754
1649.7473097663405,1783
1651.7731944944203,1826
1653.7985622402307,1761
1655.823413258333,1734
1657.847747803366,1783
1659.8715661300494,1762
1661.8948684931793,1771
1663.9176551476316,1790
1665.9399263483624,1745
1667.9616823504057,1714
1669.982923408873,1804
1672.0036497789574,1782
1674.0238617159293,1729
1676.043559475138,1746
1678.0627433120121,1761
1680.081413482059,1679
1682.0995702408654,1769
1684.117213844096,1746
1686.134344547495,1727
1688.1509626068864,1783
1690.1670682781705,1711
1692.182661817329,1739
1694.1977434804217,1768
1696.2123135235875,1722
1698.226372203043,1805
1700.2399197750851,1771
1702.2529564960905,1774
1704.2654826225112,1806
1706.277498410882,1727
1708.2890041178139,1718
1710.2999999999988,1661
1712.3104863142066,1701
1714.3204633172854,1702
1716.329931266163,1739
1718.3388904178469,1725
1720.3473410294214,1719
1722.3552833580516,1670
1724.3627176609807,1648
1726.3696441955308,1710
1728.3760632191033,1621
1730.3819749891782,1699
1732.3873797633146,1723
1734.3922777991502,1760
1736.3966693544012,1739
1738.4005546868639,1731
1740.4039340544127,1723
1742.406807715001,1725
1744.4091759266616,1652
1746.4110389475054,1730
1748.4123970357223,1766
1750.413250449582,1657
1752.4135994474318,1675
1754.4134442876993,1729
1756.4127852288902,1654
1758.4116225295893,1659
1760.4099564484595,1683
1762.407787244244,1681
1764.405115175764,1681
1766.4019405019203,1621
1768.3982634816916,1699
1770.3940843741357,1661
1772.3894034383907,1678
1774.3842209336717,1661
1776.378537119274,1616
1778.372352254571,1632
1780.3656665990156,1631
1782.3584804121397,1690
1784.3507939535534,1628
1786.3426074829463,1608
1788.3339212600863,1624
1790.3247355448211,1604
1792.3150505970766,1668
1794.3048666768573,1665
1796.2941840442477,1661
1798.2830029594106,1694
1800.2713236825884,1675
1802.2591464741004,1656
1804.2464715943465,1684
1806.2332993038058,1634
1808.2196298630352,1667
1810.2054635326708,1660
1812.190800573428,1726
1814.175641246101,1654
1816.1599858115628,1659
1818.1438345307652,1678
1820.127187664738,1657
1822.1100454745924,1680
1824.092408221516,1669
1826.0742761667766,1697
1828.055649571721,1683
1830.0365286977735,1724
1832.0169138064398,1668
1833.9968051593014,1699
1835.9762030180214,1604
1837.9551076443408,1620
1839.9335193000788,1632
1841.9114382471344,1641
1843.888864747485,1638
1845.8657990631878,1614
1847.842241456378,1597
1849.8181921892697,1601
1851.7936515241558,1553
1853.7686197234098,1587
1855.7430970494815,1623
1857.7170837649014,1647
1859.6905801322787,1571
1861.6635864143004,1621
1863.6361028737338,1675
1865.608129773424,1551
1867.5796673762961,1667
1869.5507159453537,1677
1871.521275743678,1610
1873.4913470344313,1611
1875.4609300808534,1673
1877.4300251462632,1667
1879.3986324940588,1635
1881.366752387717,1664
1883.3343850907936,1669
1885.3015308669228,1627
1887.268189979819,1653
1889.2343626932739,1708
1891.2000492711595,1689
1893.1652499774254,1634
1895.1299650761011,1651
1897.0941948312952,1686
1899.0579395071945,1636
1901.0211993680641,1638
1902.98397467825,1614
1904.9462657021745,1686
1906.9080727043415,1671
1908.869395949332,1662
1910.8302357018065,1681
1912.790592226504,1604
1914.7504657882428,1701
1916.7098566519212,1616
1918.6687650825133,1628
1920.6271913450764,1598
1922.5851357047422,1663
1924.5425984267245,1700
1926.499579776314,1576
1928.4560800188833,1605
1930.4120994198802,1660
1932.367638244833,1608
1934.32269675935,1725
1936.2772752291175,1712
1938.231373919899,1650
1940.1849930975404,1650
1942.1381330279637,1647
1944.0907939771696,1623
1946.0429762112412,1648
1947.9946799963363,1628
1949.9459055986945,1589
1951.896653284633,1621
1953.8469233205478,1584
1955.7967159729142,1612
1957.7460315082863,1633
1959.6948701932974,1564
1961.6432322946594,1603
1963.5911180791632,1613
1965.5385278136787,1605
1967.4854617651545,1610
1969.4319202006182,1593
1971.377903387176,1625
1973.3234115920136,1651
1975.268445082395,1549
1977.2130041256642,1640
1979.1570889892423,1645
1981.1006999406304,1598
1983.04383724741,1541
1984.986501177238,1579
1986.928691997853,1593
1988.8704099770712,1597
1990.811655382789,1574
1992.7524284829801,1647
1994.692729545698,1569
1996.6325588390755,1630
1998.5719166313224,1572
2000.5108031907307,1642
2002.4492187856677,1598
2004.387163684583,1599
2006.3246381560011,1575
2008.2616424685298,1622
2010.1981768908527,1579
2012.1342416917332,1613
2014.069837140014,1601
2016.0049635046162,1620
2017.9396210545406,1573
2019.8738100588666,1598
2021.8075307867502,1643
2023.740783507431,1570
2025.6735684902228,1653
2027.6058860045214,1545
2029.5377363198004,1595
2031.4691197056118,1532
2033.4000364315875,1662
2035.3304867674374,1594
2037.260470982952,1563
2039.189989347998,1594
2041.1190421325232,1578
2043.047629606554,1567
2044.9757520401945,1533
2046.9034097036288,1582
2048.8306028671195,1550
2050.7573318010086,1597
2052.683596775716,1618
2054.609398061742,1598
2056.5347359296647,1527
2058.4596106501403,1578
2060.384022493906,1606
2062.3079717317764,1576
2064.231458634646,1493
2066.1544834734873,1593
2068.077046519352,1592
2069.99914804337,1585
2071.9207883167524,1576
2073.8419676107865,1586
2075.7626861968406,1589
2077.6829443463607,1538
2079.6027423308715,1594
2081.522080421977,1554
2083.440958891362,1525
2085.359378010786,1594
2087.2773380520907,1518
2089.194839287196,1620
2091.111881988101,1580
2093.0284664268825,1543
2094.9445928756973,1614
2096.86026160678,1569
2098.775472892446,1594
2100.690227005088,1576
2102.604524217178,1581
2104.5183648012676,1584
2106.431749029985,1645
2108.34467717604,1562
2110.2571495122206,1602
2112.169166311393,1542
2114.080727846503,1592
2115.9918343905747,1570
2117.902486216711,1598
2119.8126835980956,1652
2121.722426807987,1617
2123.6317161197285,1548
2125.5405518067364,1689
2127.448934142509,1643
2129.356863400624,1676
2131.264339854737,1613
2133.1713637785815,1616
2135.077935445972,1624
2136.9840551308002,1686
2138.889723107037,1643
2140.7949396487334,1611
2142.699705030018,1643
2144.6040195250994,1556
2146.507883408264,1619
2148.4112969538774,1641
2150.3142604363848,1599
2152.2167741303097,1705
2154.1188383102535,1573
2156.0204532508997,1627
2157.9216192270064,1652
2159.822336513414,1610
2161.7226053850413,1614
2163.622426116884,1611
2165.5217989840185,1644
2167.4207242616,1625
2169.319202224862,1685
2171.2172331491165,1667
2173.1148173097563,1785
2175.0119549822507,1627
2176.90864644215,1639
2178.8048919650823,1687
2180.7006918267534,1653
2182.596046302952,1685
2184.4909556695407,1703
2186.3854202024645,1670
2188.279440177746,1712
2190.173015871487,1583
2192.066147559868,1651
2193.958835519149,1628
2195.851080025667,1650
2197.7428813558417,1613
2199.6342397861667,1727
2201.5251555932186,1678
2203.415629053651,1737
2205.3056604441986,1749
2207.19525004167,1802
2209.084398122958,1690
2210.9731049650327,1689
2212.861370844941,1690
2214.749196039812,1674
2216.636580826851,1737
2218.523525483344,1725
2220.410030286655,1722
2222.296095514226,1732
2224.1817214435805,1746
2226.066908352319,1708
2227.951656518121,1671
2229.835966218746,1643
2231.71983773203,1769
2233.6032713358913,1735
2235.486267308324,1755
2237.3688259274036,1687
2239.2509474712824,1650
2241.132632218193,1783
2243.013880446447,1659
2244.8946924344323,1737
2246.7750684606203,1712
2248.6550088035574,1742
2250.534513741871,1707
2252.413583554265,1676
2254.292218519526,1759
2256.170418916517,1709
2258.0481850241786,1664
2259.925517121534,1633
2261.8024154876825,1613
2263.678880401803,1674
2265.5549121431536,1696
2267.430510991071,1647
2269.305677224971,1617
2271.180411124348,1687
2273.0547129687766,1652
2274.9285830379076,1651
2276.8020216114737,1756
2278.6750289692845,1702
2280.5476053912294,1692
2282.4197511572766,1686
2284.2914665474727,1718
2286.162751841943,1694
2288.0336073208937,1715
2289.904033264608,1702
2291.774029953448,1685
2293.6435976678554,1665
2295.5127366883517,1719
2297.381447295534,1678
2299.2497297700825,1634
2301.1175843927526,1558
2302.9850114443825,1575
2304.852011205885,1554
2306.7185839582553,1479
2308.5847299825664,1429
2310.4504495599676,1449
2312.3157429716925,1432
2314.1806104990483,1428
2316.0450524234247,1448
2317.9090690262888,1376
2319.772660589186,1419
2321.635827393742,1453
2323.498569721661,1467
2325.3608878547248,1433
2327.2227820747967,1459
2329.0842526638157,1449
2330.945299903803,1446
2332.805924076857,1446
2334.6661254651535,1489
2336.525904350951,1398
2338.3852610165827,1372
2340.244195744464,1489
2342.102708817088,1379
2343.9608005170253,1467
2345.8184711269287,1498
2347.675720929526,1398
2349.532550207628,1446
2351.38895924412,1419
2353.24494832197,1454
2355.100517724223,1397
2356.955667734004,1412
2358.810398634514,1405
2360.664710709037,1396
2362.5186042409337,1423
2364.3720795136437,1424
2366.225136810686,1501
2368.0777764156583,1490
2369.929998612237,1520
2371.7818036841777,1402
2373.633191915315,1461
2375.484163589562,1428
2377.3347189909114,1419
2379.184858403434,1476
2381.03458211128,1406
2382.8838903986775,1457
2384.732783549936,1438
2386.5812618494406,1440
2388.4293255816588,1499
2390.2769750311327,1512
2392.1242104824883,1487
2393.971032220427,1444
2395.8174405297295,1425
2397.6634356952563,1419
2399.509018001947,1444
2401.3541877348193,1444
2403.1989451789705,1511
2405.043290619576,1435
2406.8872243418905,1487
2408.730746631247,1433
2410.5738577730594,1418
2412.4165580528183,1392
2414.258847756095,1431
2416.100727168537,1431
2417.9421965758734,1449
2419.783256263912,1437
2421.623906518538,1432
2423.4641476257157,1420
2425.303979871491,1490
2427.143403541984,1464
2428.9824189233977,1471
2430.821026302012,1513
2432.6592259641866,1434
2434.497018196361,1431
2436.33440328505,1475
2438.171381516851,1471
2440.00795317844,1526
2441.844118556569,1493
2443.6798779380724,1506
2445.5152316098606,1462
2447.3501798589255,1471
2449.1847229723357,1367
2451.0188612372403,1542
2452.8525949408663,1535
2454.6859243705203,1484
2456.518849813587,1435
2458.3513715575314,1476
2460.183489889895,1499
2462.015205098301,1539
2463.8465174704493,1497
2465.67742729412,1449
2467.5079348571717,1475
2469.338040447542,1495
2471.1677443532476,1443
2472.9970468623833,1488
2474.825948263123,1509
2476.6544488437207,1499
2478.482548892508,1505
2480.310248697896,1459
2482.137548548374,1509
2483.9644487325118,1459
2485.790949538956,1489
2487.617051256433,1469
2489.44275417375,1505
2491.26805857979,1480
2493.0929647635157,1439
2494.917473013971,1522
2496.741583620276,1568
2498.5652968716304,1460
2500.3886130573137,1436
2502.2115324666834,1544
2504.0340553891765,1427
2505.856182114308,1510
2507.6779129316733,1559
2509.499248130945,1489
2511.3201880018764,1534
2513.140732834298,1547
2514.9608829181198,1487
2516.780638543331,1570
2518.6,1543
2520.418967578273,1536
2522.237541568376,1557
2524.0557222606144,1565
2525.8735099453706,1475
2527.6909049131086,1536
2529.507907454368,1540
2531.32451785977,1537
2533.140736420014,1548
2534.9565634258774,1555
2536.771999168218,1554
2538.5870439379714,1610
2540.4016980261526,1625
2542.2159617238544,1595
2544.02983532225,1603
2545.8433191125914,1620
2547.656413386209,1587
2549.4691184345115,1658
2551.2814345489874,1703
2553.093362021204,1608
2554.904901142808,1662
2556.716052205523,1620
2558.526815501153,1688
2560.3371913215824,1599
2562.147179958771,1646
2563.956781704761,1700
2565.7659968516705,1712
2567.5748256916986,1678
2569.3832685171224,1733
2571.1913256202984,1732
2572.9989972936614,1688
2574.806283829725,1661
2576.613185521084,1735
2578.4197026604074,1706
2580.2258355404483,1712
2582.031584454035,1712
2583.836949694077,1781
2585.6419315535613,1777
2587.4465303255533,1728
2589.2507463032002,1800
2591.0545797797245,1758
2592.8580310484303,1686
2594.6611004026995,1813
2596.463788135992,1657
2598.266094541849,1770
2600.0680199138874,1738
2601.869564545807,1783
2603.670728731383,1721
2605.4715127644704,1745
2607.2719169390048,1727
2609.071941548998,1781
2610.8715868885433,1748
2612.670853251811,1750
2614.469740933052,1759
2616.268250226594,1768
2618.0663814268455,1738
2619.864134828292,1778
2621.6615107255006,1802
2623.458509413115,1677
2625.2551311858597,1699
2627.0513763385347,1693
2628.8472451660223,1665
2630.6427379632833,1686
2632.4378550253564,1689
2634.232596647359,1672
2636.026963124488,1595
2637.8209547520187,1676
2639.6145718253065,1612
2641.407814639785,1652
2643.200683490966,1651
2644.9931786744414,1667
2646.7853004858807,1661
2648.577049221034,1626
2650.3684251757277,1602
2652.1594286458712,1578
2653.9500599274484,1579
2655.740319316525,1526
2657.5302071092437,1547
2659.3197236018286,1577
2661.10886909058,1541
2662.8976438718782,1637
2664.686048242183,1573
2666.4740824980327,1504
2668.2617469360443,1586
2670.0490418529134,1560
2671.8359675454153,1512
2673.622524310403,1548
2675.408712444811,1515
2677.1945322456495,1500
2678.979984010009,1447
2680.76506803506,1555
2682.5497846180497,1524
2684.334134056306,1499
2686.1181166472343,1485
2687.9017326883213,1492
2689.6849824771293,1506
2691.4678663113013,1481
2693.2503844885596,1479
2695.032537306705,1492
2696.8143250636167,1489
2698.5957480572542,1454
2700.3768065856534,1505
2702.1575009469316,1470
2703.937831439283,1462
2705.717798360982,1391
2707.4974020103837,1455
2709.276642685917,1432
2711.055520686095,1436
2712.834036309506,1433
2714.612189854819,1448
2716.389981620782,1402
2718.1674119062204,1402
2719.944481010041,1479
2721.721189231226,1484
2723.4975368688415,1457
2725.273524222027,1491
2727.0491515900053,1470
2728.824419272075,1440
2730.5993275676146,1448
2732.3738767760838,1453
2734.148067197016,1448
2735.921899130031,1438
2737.6953728748194,1415
2739.468488731156,1402
2741.2412469988926,1415
2743.0136479779617,1425
2744.785691968372,1465
2746.5573792702116,1387
2748.3287101836504,1444
2750.099685008934,1438
2751.870304046388,1460
2753.640567596418,1443
2755.4104759595057,1455
2757.1800294362156,1414
2758.949228327187,1379
2760.7180729331412,1434
2762.486563554877,1441
2764.254700493272,1426
2766.022484049284,1421
2767.789914523947,1439
2769.5569922183786,1369
2771.3237174337705,1444
2773.090090471394,1433
2774.8561116326036,1392
2776.6217812188274,1447
2778.3870995315756,1410
2780.1520668724356,1445
2781.9166835430747,1374
2783.6809498452394,1399
2785.444866080754,1382
2787.2084325515225,1422
2788.971649559527,1375
2790.73451740683,1375
2792.4970363955713,1458
2794.2592068279705,1357
2796.0210290063264,1389
2797.7825032330147,1389
2799.543629810493,1376
2801.304409041296,1419
2803.0648412280366,1382
2804.8249266734088,1421
2806.5846656801846,1431
2808.344058551212,1446
2810.1031055894246,1483
2811.8618070978273,1417
2813.6201633795085,1427
2815.378174737636,1363
2817.1358414754536,1425
2818.893163896285,1361
2820.6501423035334,1386
2822.4067770006814,1391
2824.1630682912883,1433
2825.9190164789957,1397
2827.6746218675207,1377
2829.429884760661,1410
2831.184805462294,1428
2832.9393842763743,1447
2834.693621506936,1441
2836.4475174580916,1453
2838.201072434034,1485
2839.954286739034,1474
2841.707160677441,1382
2843.459694553685,1353
2845.2118886722724,1426
2846.96374333779,1375
2848.7152588549034,1416
2850.4664355283567,1400
2852.217273662973,1454
2853.9677735636546,1445
2855.7179355353833,1449
2857.4677598832186,1386
2859.217246912299,1466
2860.9663969278427,1383
2862.715210235146,1384
2864.4636871395846,1408
2866.211827946614,1464
2867.9596329617652,1398
2869.7071024906536,1414
2871.4542368389684,1399
2873.20103631248,1364
2874.947501217038,1367
2876.6936318585695,1370
2878.4394285430812,1416
2880.1848915766604,1434
2881.9300212654707,1362
2883.6748179157553,1393
2885.4192818338374,1414
2887.1634133261173,1424
2888.907212699077,1385
2890.6506802592744,1420
2892.393816313348,1404
2894.1366211680142,1397
2895.8790951300693,1428
2897.621238506388,1433
2899.363051603925,1365
2901.1045347297118,1387
2902.8456881908596,1434
2904.58651229456,1391
2906.327007348081,1391
2908.067173658772,1377
2909.8070115340597,1447
2911.5465212814497,1397
2913.285703208527,1428
2915.0245576229563,1396
2916.7630848324807,1384
2918.5012851449196,1409
2920.2391588681758,1346
2921.976706310227,1451
2923.7139277791334,1388
2925.4508235830313,1389
2927.187394030137,1365
2928.923639428745,1465
2930.6595600872306,1406
2932.395156314046,1430
2934.1304284177218,1386
2935.8653767068713,1353
2937.6000014901815,1466
2939.3343030764227,1427
2941.068281774442,1413
2942.8019378931644,1364
2944.5352717415976,1425
2946.2682836288236,1407
2948.0009738640065,1378
2949.7333427563885,1397
2951.465390615289,1367
2953.1971177501086,1440
2954.9285244703265,1377
2956.6596110855,1459
2958.3903779052657,1369
2960.1208252393385,1411
2961.8509533975125,1391
2963.5807626896617,1389
2965.3102534257378,1433
2967.0394259157715,1447
2968.768280469873,1392
2970.496817398232,1430
2972.2250370111146,1426
2973.952939618869,1431
2975.6805255319196,1395
2977.4077950607707,1506
2979.134748516006,1411
2980.861386208289,1414
2982.587708448359,1395
2984.313715547037,1363
2986.039407815222,1398
2987.764785563891,1354
2989.489849104102,1421
2991.2145987469908,1400
2992.9390348037705,1380
2994.6631575857346,1387
2996.3869674042576,1368
2998.1104645707887,1364
2999.83364939686,1433
3001.5565221940783,1355
3003.2790832741334,1423
3005.0013329487924,1349
3006.7232715298996,1413
3008.4448993293804,1339
3010.166216659239,1371
3011.887223831558,1397
3013.607921158498,1407
3015.3283089522993,1429
3017.0483875252826,1405
3018.7681571898443,1402
3020.4876182584626,1392
3022.2067710436927,1397
3023.9256158581707,1393
3025.644153014609,1355
3027.362382825801,1392
3029.0803056046193,1382
3030.797921664012,1377
3032.5152313170106,1402
3034.2322348767225,1397
3035.9489326563353,1389
3037.665324969115,1370
3039.3814121284063,1402
3041.097194447633,1365
3042.812672240299,1322
3044.5278458199855,1365
3046.2427155003525,1420
3047.9572815951406,1385
3049.671544418167,1360
3051.38550428333,1395
3053.0991615046073,1385
3054.812516396051,1366
3056.5255692717974,1345
3058.2383204460575,1307
3059.9507702331257,1371
3061.662918947372,1380
3063.3747669032446,1406
3065.0863144152736,1364
3066.7975617980674,1362
3068.508509366309,1348
3070.219157434767,1332
3071.9295063182844,1354
3073.639556331785,1395
3075.3493077902704,1417
3077.058761008821,1403
3078.7679163025964,1360
3080.476773986837,1415
3082.1853343768594,1381
3083.89359778806,1378
3085.6015645359153,1398
3087.3092349359786,1380
3089.016609303884,1378
3090.7236879553434,1424
3092.4304712061476,1338
3094.136959372166,1360
3095.843152769349,1360
3097.5490517137237,1334
3099.2546565213966,1387
3100.959967508554,1436
3102.66498499146,1362
3104.3697092864577,1305
3106.0741407099695,1312
3107.778279578498,1348
3109.482126208622,1389
3111.1856809170004,1356
3112.8889440203716,1349
3114.5919158355528,1363
3116.294596679439,1404
3117.996986869006,1402
3119.6990867213062,1398
3121.4008965534726,1449
3123.102416682717,1393
3124.803647426329,1448
3126.5045891016784,1385
3128.205242026213,1375
3129.90560651746,1366
3131.605682893025,1363
3133.3054714705922,1421
3135.0049725679282,1455
3136.7041865028714,1415
3138.4031135933465,1393
3140.101754157353,1360
3141.800108512971,1373
3143.498176978357,1351
3145.1959598717494,1463
3146.8934575114636,1405
3148.5906702158954,1395
3150.2875983035183,1360
3151.9842420928853,1306
3153.680601902627,1374
3155.376678051456,1369
3157.07247085816,1411
3158.767980641609,1379
3160.463207720748,1373
3162.158152414606,1400
3163.8528150422862,1412
3165.5471959229726,1308
3167.2412953759303,1316
3168.9351137204976,1400
3170.628651276098,1395
3172.3219083622307,1401
3174.014885298474,1409
3175.707582404485,1323
3177.4000000000005,1442
3179.092138404835,1385
3180.7839979388846,1396
3182.47557892212,1374
3184.166881674594,1392
3185.8579065164386,1359
3187.5486537678626,1353
3189.2391237491547,1376
3190.9293167806827,1375
3192.6192331828934,1332
3194.3088732763117,1401
3195.998237381542,1350
3197.687325819268,1349
3199.376138910251,1358
3201.064676975334,1352
3202.7529403354347,1338
3204.4409293115523,1310
3206.1286442247647,1284
3207.816085396229,1324
3209.5032531471825,1298
3211.190147798936,1311
3212.8767696728846,1313
3214.5631190905015,1385
3216.2491963733373,1350
3217.9350018430214,1344
3219.6205358212637,1248
3221.305798629851,1346
3222.990790590651,1382
3224.6755120256103,1299
3226.359963256751,1360
3228.0441446061795,1334
3229.7280563960758,1337
3231.411698948703,1336
3233.0950725863995,1310
3234.778177631587,1336
3236.461014406761,1358
3238.1435832345005,1333
3239.8258844374595,1352
3241.507918338374,1354
3243.1896852600576,1319
3244.8711855254023,1333
3246.552419457381,1384
3248.233387379042,1342
3249.914089613516,1364
3251.59452648401,1358
3253.274698313813,1317
3254.95460542629,1375
3256.6342481448855,1329
3258.313626793125,1315
3259.9927416946084,1314
3261.6715931730196,1342
3263.3501815521176,1308
3265.0285071557437,1335
3266.706570307815,1312
3268.3843713323286,1324
3270.0619105533615,1362
3271.739188295068,1365
3273.4162048816834,1330
3275.0929606375184,1365
3276.769455886966,1348
3278.445690954498,1373
3280.1216661646613,1348
3281.797381842087,1421
3283.4728383114807,1410
3285.1480358976296,1349
3286.8229749253996,1354
3288.4976557197333,1313
3290.172078605655,1338
3291.846243908266,1338
3293.5201519527463,1318
3295.193803064357,1421
3296.8671975684374,1324
3298.5403357904024,1341
3300.21321805575,1387
3301.8858446900567,1362
3303.558216018975,1270
3305.23033236824,1311
3306.9021940636603,1348
3308.57380143113,1323
3310.2451547966184,1355
3311.916254486174,1350
3313.5871008259246,1332
3315.2576941420766,1375
3316.9280347609147,1305
3318.5981230088046,1358
3320.2679592121895,1358
3321.9375436975924,1279
3323.606876791612,1306
3325.27595882093,1370
3326.944790112305,1306
3328.6133709925753,1361
3330.2817017886573,1303
3331.949782827547,1331
3333.617614436319,1409
3335.2851969421245,1344
3336.952530672199,1358
3338.619615953853,1336
3340.286453114475,1283
3341.9530424815357,1333
3343.619384382583,1362
3345.2854791452437,1378
3346.951327097224,1335
3348.6169285663073,1387
3350.2822838803577,1365
3351.947393367319,1340
3353.61225735521,1338
3355.2768761721345,1350
3356.9412501462693,1343
3358.605379605873,1319
3360.2692648792827,1308
3361.9329062949146,1318
3363.596304181263,1354
