CollectionTime,9/19/2024 11:16:58 AM
ExposureUsed,3
CalibratedSpectrum
-962.7078968117929,608
-959.9714848408522,638
-957.2358232597828,683
-954.5009119013725,673
-951.7667505983302,672
-949.0333391832855,704
-946.3006774887896,692
-943.5687653473143,681
-940.837602591253,710
-938.1071890529199,680
-935.3775245645503,655
-932.6486089583007,663
-929.9204420662485,664
-927.1930237203925,658
-924.4663537526524,718
-921.7404319948689,685
-919.0152582788041,695
-916.2908324361409,709
-913.5671542984834,677
-910.8442236973568,680
-908.1220404642074,675
-905.4006044304027,637
-902.679915427231,616
-899.959973285902,641
-897.2407778375464,637
-894.5223289132158,633
-891.8046263438832,644
-889.0876699604426,661
-886.3714595937089,647
-883.6559950744183,623
-880.9412762332282,620
-878.2273029007168,633
-875.5140749073835,644
-872.8015920836489,664
-870.0898542598545,627
-867.3788612662631,614
-864.6686129330585,643
-861.9591090903457,606
-859.2503495681506,626
-856.5423341964203,643
-853.8350628050229,672
-851.1285352237478,674
-848.4227512823054,626
-845.7177108103272,639
-843.0134136373656,664
-840.3098595928943,643
-837.6070485063082,644
-834.9049802069229,675
-832.2036545239757,618
-829.5030712866244,639
-826.8032303239481,626
-824.1041314649472,601
-821.4057745385428,628
-818.7081593735775,608
-816.0112857988148,666
-813.3151536429393,622
-810.6197627345566,602
-807.9251129021936,654
-805.2312039742981,655
-802.5380357792392,654
-799.8456081453069,668
-797.1539209007124,658
-794.462973873588,649
-791.772766891987,638
-789.083299783884,653
-786.3945723771743,658
-783.7065844996748,666
-781.0193359791231,652
-778.3328266431781,685
-775.6470563194197,665
-772.9620248353489,665
-770.2777320183878,673
-767.5941776958798,661
-764.9113616950891,668
-762.2292838432011,662
-759.5479439673222,664
-756.8673418944801,651
-754.1874774516235,672
-751.5083504656222,679
-748.8299607632671,694
-746.15230817127,664
-743.475392516264,653
-740.7992136248035,633
-738.1237713233636,674
-735.4490654383407,694
-732.7750957960521,695
-730.1018622227365,677
-727.4293645445534,660
-724.7576025875837,680
-722.0865761778291,722
-719.4162851412126,709
-716.7467293035781,711
-714.0779084906909,729
-711.409822528237,687
-708.7424712418238,695
-706.0758544569796,694
-703.4099719991541,744
-700.7448236937178,723
-698.0804093659622,703
-695.4167288411002,694
-692.7537819442656,717
-690.0915685005134,690
-687.4300883348199,761
-684.7693412720819,741
-682.1093271371178,724
-679.4500457546669,714
-676.7914969493897,752
-674.1336805458676,773
-671.4765963686034,717
-668.8202442420206,752
-666.1646239904642,722
-663.5097354382001,736
-660.8555784094151,724
-658.2021527282176,737
-655.5494582186366,747
-652.8974947046223,723
-650.2462620100463,784
-647.5957599587009,763
-644.9459883742998,794
-642.2969470804776,819
-639.6486359007902,775
-637.0010546587141,836
-634.3542031776476,776
-631.7080812809096,748
-629.0626887917401,762
-626.4180255333008,775
-623.7740913286734,820
-621.1308860008619,748
-618.4884093727904,743
-615.8466612673046,767
-613.2056415071715,781
-610.5653499150785,799
-607.9257863136347,812
-605.28695052537,790
-602.6488423727357,756
-600.0114616781036,791
-597.3748082637674,828
-594.7388819519412,860
-592.1036825647604,869
-589.4692099242818,820
-586.8354638524829,806
-584.2024441712624,815
-581.5701507024403,811
-578.9385832677575,811
-576.3077416888759,759
-573.6776257873787,804
-571.0482353847704,770
-568.4195703024757,809
-565.7916303618415,849
-563.164415384135,807
-560.5379251905453,800
-557.9121596021815,788
-555.2871184400748,810
-552.6628015251767,807
-550.0392086783606,823
-547.4163397204204,900
-544.794194472071,938
-542.1727727539491,907
-539.5520743866118,872
-536.9320991905377,863
-534.3128469861261,902
-531.6943175936979,900
-529.0765108334947,951
-526.4594265256793,1060
-523.8430644903358,1237
-521.2274245474689,1369
-518.612506517005,1475
-515.9983102187913,1410
-513.3848354725959,1497
-510.77208209810846,1566
-508.16004991493924,1568
-505.5487387426199,1692
-502.9381484006032,1746
-500.3282787082628,1698
-497.71912948489364,1747
-495.1107005497117,1536
-492.5029917218539,1441
-489.8960028203786,1273
-487.28973366426493,1182
-484.68418407241325,1097
-482.07935386364494,1035
-479.47524285670266,1065
-476.87185087025,1002
-474.2691777228715,1017
-471.66722323307334,1007
-469.0659872192821,1000
-466.4654694998459,1034
-463.86566989303384,967
-461.26658821703614,995
-458.66822428996414,1023
-456.07057792985,1021
-453.4736489546475,1013
-450.877437182231,970
-448.28194243039627,991
-445.68716451686,949
-443.09310325926003,928
-440.49975847515555,965
-437.9071299820263,975
-435.31521759727354,948
-432.72402113821954,1010
-430.13354042210767,1037
-427.5437752661022,997
-424.95472548728867,1063
-422.36639090267386,1046
-419.7787713291855,1088
-417.1918665836721,1023
-414.60567648290385,1050
-412.0202008435715,1091
-409.4354394822874,1097
-406.8513922155845,1008
-404.26805885991723,1055
-401.685439231661,1063
-399.103533147112,1129
-396.522340422488,1041
-393.9418608739278,1042
-391.3620943174908,1009
-388.7830405691583,986
-386.2046994448317,1002
-383.6270707603344,946
-381.05015433141045,912
-378.473949973725,901
-375.8984575028645,836
-373.32367673433623,760
-370.74960748356875,737
-368.1762495659117,689
-365.60360279663576,651
-363.03166699093265,602
-360.4604419639154,583
-357.8899275306178,549
-355.32012350599507,571
-352.7510297049233,558
-350.1826459421999,541
-347.61497203254316,542
-345.04800779059235,493
-342.4817530309082,519
-339.91620756797226,590
-337.35137121618743,597
-334.7872437898774,544
-332.22382510328725,494
-329.66111497058273,525
-327.09911320585127,521
-324.53781962310075,490
-321.9772340362607,482
-319.4173562591816,492
-316.8581861056348,515
-314.2997233893127,539
-311.7419679238294,536
-309.1849195227194,567
-306.62857799943856,548
-304.0729431673641,529
-301.51801483979375,555
-298.963792829947,553
-296.41027695096386,596
-293.85746701590574,649
-291.3053628377552,643
-288.7539642294155,579
-286.2032710037115,638
-283.65328297338897,702
-281.1039999511146,792
-278.5554217494762,638
-276.007548180983,583
-273.4603790580651,586
-270.9139141930734,639
-268.3681533982807,681
-265.8230964858798,748
-263.27874326798565,812
-260.7350935566336,784
-258.1921471637804,746
-255.6499039013039,793
-253.10836358100266,779
-250.56752601459698,706
-248.02739101372765,797
-245.48795838995704,804
-242.94922795476816,867
-240.41119951956557,861
-237.8738728956746,814
-235.33724789434166,845
-232.80132432673452,786
-230.2661020039418,744
-227.73158073697357,785
-225.19776033676033,851
-222.66464061415422,864
-220.1322213799284,842
-217.60050244477725,854
-215.06948361931552,906
-212.53916471408013,1041
-210.00954553952818,987
-207.48062590603843,876
-204.9524056239104,819
-202.4248845033651,871
-199.8980623545441,973
-197.37193898751036,977
-194.84651421224817,1036
-192.32178783866232,972
-189.79775967657952,970
-187.27442953574644,1298
-184.7517972258321,1250
-182.2298625564256,1030
-179.7086253370378,830
-177.18808537710026,897
-174.66824248596583,1108
-172.14909647290835,1158
-169.6306471471229,1228
-167.11289431772548,995
-164.59583779375328,1104
-162.07947738416453,1278
-159.5638128978386,1644
-157.04884414357605,1740
-154.53457093009854,1672
-152.02099306604828,1284
-149.50811035998936,1145
-146.99592262040665,1345
-144.48442965570587,1650
-141.97363127421409,1825
-139.46352728417958,1929
-136.95411749377126,1888
-134.44540171107985,1357
-131.93737974411636,1171
-129.43005140081357,1306
-126.92341648902493,1782
-124.41747481652521,2179
-121.91222619101006,2738
-119.40767042009657,2822
-116.90380731132257,2706
-114.40063667214702,2983
-111.8981583099503,3544
-109.3963720320337,5300
-106.89527764561933,8406
-104.39487495785067,10342
-101.89516377579241,13917
-99.39614390642998,18566
-96.89781515667039,25315
-94.40017733334128,29133
-91.90323024319173,24376
-89.40697369289148,16210
-86.91140748903172,9572
-84.41653143812482,7201
-81.92234534660395,12277
-79.42884902082358,21095
-76.93604226705907,26588
-74.4439248915071,25724
-71.95249670028534,21992
-69.46175749943245,17700
-66.97170709490854,14237
-64.48234529259423,11377
-61.99367189829195,9243
-59.50568671772464,9889
-57.01838955653636,10760
-54.53178022029283,10687
-52.045858514480074,11623
-49.560624244506016,15073
-47.07607721569923,15717
-44.59221723330904,13876
-42.10904410250669,13456
-39.62655762838392,14691
-37.14475761595372,16537
-34.66364387015028,19690
-32.18321619582866,26746
-29.70347439776515,28542
-27.224418280657005,28523
-24.74604764912317,36362
-22.26836230770266,59124
-19.7913620608565,65033
-17.315046712966478,65033
-14.83941606833514,65033
-12.36446993118659,65033
-9.89020810566592,65033
-7.416630395839093,65033
-4.94373660569363,65033
-2.471526539137585,65033
-6.821210263296962E-13,65033
2.47084320796705,65033
4.941003281093458,65033
7.410480415786196,65033
9.879274808531363,65033
12.347386655893956,65033
14.814816154518212,65033
17.28156350112681,65033
19.74762889252179,65033
22.21301252558385,25748
24.67771459727237,7770
27.141735304626195,8350
29.605074844762612,8937
32.06773341487792,7009
34.52971121224755,7159
36.99100843422559,6440
39.45162527824516,4495
41.91156194181792,4756
44.370818622535126,5601
46.82939551806646,4555
49.287292826160524,7352
51.74451074464503,6614
54.201049471426245,4129
56.65690920448981,2743
59.112090141899785,2289
61.56659248179983,2576
64.02041642241159,3132
66.4735621620365,3591
68.92602989905402,4129
71.37781983192338,4410
73.82893215918205,2972
76.27936707944684,2316
78.72912479141326,2227
81.17820549385567,2451
83.62660938562783,2672
86.07433666566146,1900
88.5213875329681,1627
90.96776218663751,2029
93.41346082583925,2419
95.85848364982041,2681
98.30283085790859,2411
100.7465026495089,2034
103.18949922410604,1730
105.63182078126385,1419
108.07346752062438,1254
110.51443964190923,1180
112.95473734491827,1217
115.39436082953114,1436
117.83331029570547,1532
120.27158594347827,1677
122.7091879729652,1557
125.1461165843615,1421
127.58237197794062,1208
130.01795435405518,1344
132.4528639131364,1285
134.88710085569494,1386
137.32066538231982,1447
139.75355769367923,1643
142.1857779905207,1479
144.61732647366978,1245
147.04820334403132,1179
149.47840880258934,1206
151.90794305040674,1261
154.33680628862487,1440
156.76499871846443,1498
159.19252054122433,1631
161.61937195828352,1655
164.04555317109896,1818
166.47106438120693,2175
168.89590579022217,2272
171.320077599839,2395
173.7435800118302,2497
176.16641322804742,2604
178.58857745042144,2675
181.01007288096173,2756
183.43089972175687,2723
185.85105817497413,2777
188.27054844285988,2762
190.6893707277394,2677
193.10752523201643,2778
195.5250121581745,2833
197.9418317087751,2830
200.3579840864594,2753
202.7734694939469,2899
205.18828813403627,3069
207.6024402096051,3009
210.01592592360964,3006
212.42874547908548,2986
214.84089907914665,2902
217.2523869269868,2869
219.66320922587727,2930
222.0733661791695,2909
224.48285799029293,2971
226.8916848627572,2954
229.29984700014882,3038
231.7073446061355,3046
234.11417788446204,3174
236.520347038953,3198
238.92585227351185,3257
241.33069379212054,3360
243.73487179884035,3373
246.1383864978112,3348
248.541238093252,3451
250.9434267894609,3643
253.34495279081432,3442
255.74581630176783,3510
258.1460175268563,3557
260.54555667069314,3465
262.9444339379703,3483
265.3426495334594,3443
267.7402036620107,3451
270.1370965285529,3379
272.53332833809407,3159
274.9288992957214,2995
277.32380960660055,3013
279.718059475976,2987
282.1116491091717,2981
284.5045787115897,2807
286.89684848871195,2858
289.2884586460981,2804
291.67940938938807,2845
294.0697009242996,2919
296.4593334566299,2935
298.84830719225477,2789
301.23662233712923,2837
303.6242790972866,2745
306.01127767884,2719
308.39761828798066,2710
310.78330113097934,2667
313.16832641418534,2556
315.5526943440269,2572
317.9364051270112,2581
320.3194589697242,2564
322.70185607883093,2575
325.0835966610754,2456
327.4646809232805,2377
329.8451090723478,2408
332.2248813152577,2389
334.6039978590701,2370
336.9824589109231,2463
339.36026467803447,2388
341.7374153677,2185
344.113911187295,2261
346.48975234427337,2330
348.8649390461686,2349
351.2394715005918,2423
353.61334991523415,2317
355.9865744978655,2304
358.35914545633375,2270
360.73106299856715,2298
363.10232733257146,2254
365.47293866643247,2303
367.84289720831396,2199
370.2122031664593,2185
372.5808567491905,2210
374.9488581649083,2122
377.31620762209275,2200
379.6829053293021,2205
382.0489514951745,2182
384.4143463284262,2150
386.7790900378528,2123
389.14318283232853,2145
391.50662492080653,2140
393.86941651231916,2086
396.23155781597745,2189
398.5930490409713,2225
400.9538903965696,2193
403.3140820921202,2075
405.6736243370498,2094
408.03251734086336,2126
410.3907613131465,2073
412.74835646356166,2068
415.10530300185144,2167
417.4616011378372,2196
419.81725108141893,2043
422.1722530425758,2057
424.5266072313656,2082
426.880313857925,2117
429.2333731324701,2092
431.58578526529516,2059
433.9375504667738,2109
436.2886689473588,2114
438.63914091758113,2129
440.9889665880513,2058
443.33814616945835,2033
445.68667987257015,2024
448.03456790823395,2026
450.3818104873759,2097
452.72840782100013,2058
455.07436012019105,2015
457.41966759611057,2058
459.7643304600007,2017
462.10834892318155,1974
464.4517231970525,1976
466.79445349309174,2112
469.1365400228566,2088
471.4779829979826,2061
473.81878263018564,2045
476.15893913125876,2042
478.4984527130747,2113
480.8373235875855,2141
483.17555196682144,2231
485.5131380628919,2265
487.8500820879857,2312
490.1863842543697,2455
492.52204477439034,2623
494.8570638604725,2796
497.1914417251204,3022
499.52517858091653,3463
501.85827464052306,3555
504.19073011668036,3587
506.5225452222086,3768
508.85372017000566,3886
511.18425517304956,3927
513.514150444396,4629
515.8434061971808,5936
518.1720226446176,6838
520.4999999999999,6886
522.8273384766991,6813
525.1540382881666,6328
527.480099647932,5648
529.8055227696037,4432
532.1303078668694,3152
534.454455153496,2564
536.777964843328,2368
539.1008371502907,2237
541.4230722883866,2247
543.744670471698,2175
546.0656319143858,2132
548.3859568306899,2076
550.7056454349294,2173
553.0246979415016,2103
555.3431145648834,2094
557.6608955196306,1964
559.978041020377,1982
562.2945512818363,2071
564.6104265188006,2062
566.9256669461412,2107
569.2402727788082,1999
571.5542442318302,2135
573.8675815203156,2157
576.1802848594508,2075
578.4923544645015,2035
580.8037905508126,2106
583.114593333807,2051
585.4247630289875,2012
587.7342998519354,2076
590.0432040183106,2039
592.3514757438526,2053
594.6591152443794,2039
596.9661227357875,2051
599.2724984340531,2047
601.578242555231,2005
603.8833553154542,2049
606.1878369309362,2008
608.4916876179676,2037
610.7949075929192,2042
613.0974970722403,2028
615.3994562724587,2075
617.7007854101818,2015
620.0014847020951,2156
622.3015543649641,2126
624.6009946156324,2055
626.8998056710224,2014
629.1979877481361,2016
631.4955410640538,2039
633.7924658359349,2012
636.0887622810175,2039
638.3844306166192,2045
640.6794710601358,2004
642.9738838290426,2141
645.2676691408932,2077
647.5608272133207,2083
649.853358264037,2162
652.1452625108324,2142
654.4365401715764,2191
656.7271914642178,2117
659.0172166067838,2186
661.3066158173809,2174
663.5953893141935,2193
665.8835373154867,2114
668.1710600396028,2090
670.4579577049639,2099
672.7442305300709,2156
675.0298787335033,2142
677.3149025339197,2189
679.599302150058,2258
681.8830778007342,2152
684.1662297048437,2109
686.4487580813608,2130
688.7306631493387,2101
691.0119451279091,2132
693.2926042362834,2149
695.5726406937516,2117
697.8520547196814,2102
700.1308465335215,2009
702.4090163547982,2102
704.6865644031171,2158
706.9634908981619,2184
709.2397960596965,2089
711.5154801075631,2122
713.7905432616823,1980
716.0649857420548,2170
718.3388077687592,2170
720.612009561953,2088
722.8845913418733,2081
725.1565533288352,2085
727.427895743234,2092
729.6986188055427,2048
731.9687227363137,2116
734.238207756178,2037
736.5070740858458,2145
738.7753219461066,2117
741.0429515578281,2065
743.3099631419569,2108
745.5763569195191,2072
747.8421331116193,2112
750.1072919394409,2086
752.3718336242467,2106
754.6357583873777,2122
756.8990664502545,2010
759.1617580343765,2070
761.423833361321,2119
763.6852926527457,2083
765.9461361303862,2157
768.206364016058,2002
770.4659765316536,2129
772.7249738991469,2039
774.9833563405886,2148
777.2411240781092,2138
779.4982773339183,2110
781.7548163303044,2100
784.010741289634,2051
786.2660524343538,2214
788.5207499869881,2102
790.7748341701416,2024
793.0283052064964,2066
795.2811633188143,2150
797.5334087299362,2132
799.7850416627813,2208
802.0360623403484,2145
804.2864709857143,2130
806.5362678220353,2182
808.7854530725468,2183
811.0340269605625,2094
813.2819897094754,2106
815.5293415427581,2046
817.77608268396,2132
820.0222133567116,2166
822.2677337847211,2122
824.5126441917765,2072
826.7569448017433,2116
829.0006358385675,2128
831.2437175262731,2164
833.4861900889629,2134
835.7280537508192,2102
837.9693087361026,2116
840.2099552691533,2161
842.4499935743896,2140
844.689423876309,2141
846.9282463994886,2130
849.1664613685833,2218
851.4040690083276,2150
853.6410695435349,2122
855.877463199097,2176
858.1132501999847,2133
860.3484307712487,2142
862.5830051380175,2147
864.8169735254988,2157
867.0503361589791,2174
869.2830932638243,2161
871.5152450654786,2269
873.7467917894654,2150
875.9777336613873,2179
878.2080709069252,2221
880.4378037518389,2208
882.666932421968,2090
884.8954571432301,2160
887.1233781416219,2269
889.3506956432192,2219
891.5774098741766,2256
893.803521060728,2232
896.0290294291852,2256
898.2539352059397,2175
900.4782386174619,2136
902.7019398903011,2158
904.925039251085,2272
907.147536926521,2197
909.3694331433943,2237
911.59072812857,2252
913.8114221089921,2085
916.0315153116827,2260
918.2510079637437,2212
920.4699002923547,2141
922.6881925247761,2165
924.905884888345,2132
927.1229776104793,2200
929.3394709186747,2183
931.555365040506,2218
933.7706602036275,2174
935.9853566357709,2209
938.1994545647489,2285
940.4129542184515,2310
942.6258558248488,2234
944.8381596119883,2249
947.0498658079974,2300
949.2609746410825,2241
951.4714863395287,2264
953.6814011316998,2244
955.8907192460387,2240
958.0994409110671,2202
960.3075663553858,2275
962.5150958076741,2253
964.7220294966913,2184
966.928367651274,2174
969.1341105003388,2201
971.3392582728806,2141
973.5438111979742,2115
975.747769504772,2161
977.9511334225061,2163
980.153903180487,2118
982.3560790081052,2072
984.5576611348289,2112
986.7586497902058,2062
988.9590452038618,2145
991.158847605503,2113
993.3580572249133,1998
995.5566742919558,1982
997.7546990365728,2007
999.952131688785,1922
1002.1489724786926,1957
1004.3452216364743,1898
1006.5408793923874,1868
1008.7359459767691,1862
1010.9304216200343,1876
1013.1243065526781,1773
1015.3176010052733,1838
1017.510305208472,1820
1019.7024193930064,1800
1021.8939437896848,1854
1024.0848786293977,1800
1026.2752241431122,1868
1028.4649805618747,1847
1030.6541481168115,1763
1032.842727039127,1753
1035.0307175601051,1797
1037.2181199111074,1767
1039.4049343235752,1757
1041.591161029029,1742
1043.7768002590683,1759
1045.9618522453698,1729
1048.1463172196918,1719
1050.3301954138697,1749
1052.513487059818,1777
1054.69619238953,1745
1056.8783116350783,1761
1059.0598450286152,1752
1061.2407928023704,1770
1063.4211551886528,1756
1065.6009324198508,1661
1067.780124728432,1697
1069.9587323469414,1661
1072.1367555080046,1725
1074.314194444325,1718
1076.4910493886855,1649
1078.667320573947,1674
1080.843008233051,1703
1083.0181125990161,1667
1085.1926339049414,1630
1087.3665723840027,1685
1089.5399282694575,1747
1091.7127017946405,1614
1093.8848931929647,1735
1096.0565026979243,1685
1098.2275305430899,1696
1100.3979769621128,1641
1102.567842188722,1639
1104.737126456726,1638
1106.9058300000124,1672
1109.0739530525475,1681
1111.2414958483764,1609
1113.4084586216231,1595
1115.5748416064907,1579
1117.7406450372605,1590
1119.9058691482942,1605
1122.0705141740304,1645
1124.2345803489884,1591
1126.3980679077658,1633
1128.5609770850388,1613
1130.7233081155623,1686
1132.8850612341707,1598
1135.0462366757774,1598
1137.2068346753745,1636
1139.3668554680326,1605
1141.526299288901,1622
1143.68516637321,1646
1145.8434569562655,1588
1148.001171273455,1656
1150.158309560244,1642
1152.3148720521767,1620
1154.470858984876,1616
1156.626270594044,1618
1158.7811071154629,1583
1160.9353687849912,1602
1163.089055838569,1655
1165.242168512213,1607
1167.3947070420209,1618
1169.5466716641677,1587
1171.6980626149075,1579
1173.8488801305748,1607
1175.9991244475814,1648
1178.1487958024186,1629
1180.2978944316555,1589
1182.4464205719428,1644
1184.5943744600072,1601
1186.7417563326567,1593
1188.8885664267755,1573
1191.0348049793297,1585
1193.1804722273619,1621
1195.325568407995,1579
1197.4700937584303,1616
1199.614048515948,1552
1201.7574329179074,1632
1203.900247201746,1608
1206.042491604982,1583
1208.1841663652099,1576
1210.3252717201053,1625
1212.465807907422,1642
1214.6057751649923,1658
1216.7451737307279,1595
1218.8840038426192,1632
1221.0222657387353,1673
1223.1599596572241,1693
1225.2970858363137,1580
1227.4336445143094,1605
1229.5696359295966,1576
1231.705060320639,1685
1233.8399179259786,1625
1235.9742089842384,1665
1238.107933734118,1674
1240.2410924143974,1678
1242.373685263935,1644
1244.5057125216676,1663
1246.6371744266116,1679
1248.7680712178621,1713
1250.898403134593,1692
1253.028170416058,1704
1255.1573733015875,1771
1257.2860120305932,1639
1259.4140868425648,1762
1261.54159797707,1718
1263.6685456737569,1762
1265.7949301723515,1713
1267.9207517126597,1675
1270.046010534565,1690
1272.1707068780306,1781
1274.2948409830983,1765
1276.4184130898889,1728
1278.541423438603,1700
1280.6638722695184,1754
1282.785759822993,1780
1284.9070863394636,1769
1287.0278520594447,1774
1289.1480572235314,1754
1291.2677020723963,1775
1293.3867868467923,1731
1295.5053117875495,1828
1297.623277135579,1802
1299.740683131868,1824
1301.8575300174857,1875
1303.973818033578,1909
1306.0895474213703,1932
1308.2047184221678,1798
1310.3193312773528,1815
1312.4333862283888,1879
1314.5468835168163,1903
1316.659823384255,1853
1318.7722060724045,1857
1320.8840318230418,1880
1322.9953008780249,1847
1325.1060134792888,1938
1327.2161698688478,1852
1329.3257702887959,1892
1331.4348149813054,1863
1333.5433041886276,1872
1335.6512381530933,1866
1337.7586171171101,1891
1339.8654413231675,1808
1341.9717110138317,1819
1344.0774264317488,1861
1346.1825878196432,1817
1348.2871954203192,1855
1350.3912494766587,1860
1352.4947502316231,1845
1354.5976979282532,1841
1356.7000928096686,1809
1358.8019351190665,1870
1360.9032250997243,1853
1363.0039629949988,1891
1365.1041490483235,1838
1367.2037835032133,1828
1369.3028666032606,1857
1371.401398592137,1846
1373.4993797135926,1787
1375.5968102114575,1869
1377.6936903296396,1838
1379.7900203121262,1804
1381.8858004029835,1854
1383.9810308463561,1861
1386.075711886469,1940
1388.1698437676241,1857
1390.2634267342032,1833
1392.356461030667,1860
1394.4489469015557,1832
1396.5408845914872,1853
1398.6322743451592,1857
1400.7231164073469,1936
1402.813411022907,1930
1404.903158436773,1885
1406.9923588939578,1913
1409.0810126395531,1933
1411.1691199187303,1920
1413.2566809767386,1979
1415.343696058907,1956
1417.4301654106425,1965
1419.5160892774315,2014
1421.6014679048399,1985
1423.6863015385125,2026
1425.7705904241707,2050
1427.8543348076178,2032
1429.9375349347342,2092
1432.0201910514802,2099
1434.102303403894,2088
1436.1838722380944,2133
1438.2648978002767,2137
1440.3453803367174,2120
1442.4253200937692,2239
1444.5047173178677,2179
1446.5835722555234,2207
1448.6618851533285,2191
1450.739656257952,2282
1452.8168858161434,2370
1454.8935740747306,2355
1456.96972128062,2361
1459.045327680797,2382
1461.120393522327,2428
1463.1949190523528,2508
1465.2689045180973,2575
1467.3423501668608,2584
1469.415256246024,2617
1471.4876230030463,2619
1473.559450685465,2728
1475.6307395408976,2772
1477.7014898170391,2706
1479.771701761665,2759
1481.8413756226287,2769
1483.9105116478618,2867
1485.9791100853772,2919
1488.0471711832643,2857
1490.1146951896926,2920
1492.1816823529098,3017
1494.2481329212433,3004
1496.3140471430984,3058
1498.3794252669609,3153
1500.4442675413939,3065
1502.5085742150404,3095
1504.572345536622,3187
1506.6355817549388,3245
1508.6982831188702,3207
1510.7604498773744,3271
1512.8220822794883,3267
1514.8831805743293,3381
1516.9437450110909,3357
1519.003775839048,3422
1521.0632733075522,3425
1523.1222376660367,3275
1525.1806691640113,3433
1527.2385680510652,3449
1529.2959345768668,3374
1531.3527689911643,3470
1533.4090715437833,3546
1535.4648424846291,3497
1537.5200820636855,3525
1539.5747905310159,3677
1541.6289681367616,3671
1543.6826151311434,3677
1545.7357317644614,3825
1547.7883182870937,3851
1549.8403749494987,3863
1551.8919020022113,3868
1553.9428996958477,4037
1555.9933682811015,4082
1558.0433080087469,4050
1560.0927191296346,4218
1562.1416018946961,4225
1564.1899565549415,4105
1566.2377833614592,4113
1568.2850825654164,4069
1570.3318544180606,3866
1572.3780991707158,3819
1574.423817074788,3691
1576.4690083817595,3564
1578.5136733431923,3409
1580.5578122107272,3273
1582.601425236085,3182
1584.6445126710646,3113
1586.6870747675434,2969
1588.7291117774776,2851
1590.7706239529034,2737
1592.8116115459347,2602
1594.8520748087658,2562
1596.8920139936686,2521
1598.9314293529933,2373
1600.9703211391711,2286
1603.008689604711,2321
1605.0465350022005,2234
1607.0838575843068,2138
1609.1206576037753,2123
1611.1569353134305,2079
1613.1926909661765,2020
1615.2279248149953,1969
1617.2626371129481,1987
1619.2968281131757,1993
1621.3304980688963,1875
1623.3636472334088,1846
1625.39627586009,1891
1627.428384202396,1876
1629.459972513861,1826
1631.4910410480993,1782
1633.5215900588028,1854
1635.551619799744,1745
1637.5811305247717,1777
1639.6101224878166,1777
1641.6385959428862,1836
1643.6665511440683,1772
1645.693988345528,1842
1647.7209078015112,1746
1649.7473097663405,1664
1651.7731944944203,1756
1653.7985622402307,1768
1655.823413258333,1718
1657.847747803366,1700
1659.8715661300494,1691
1661.8948684931793,1670
1663.9176551476316,1655
1665.9399263483624,1633
1667.9616823504057,1686
1669.982923408873,1662
1672.0036497789574,1654
1674.0238617159293,1723
1676.043559475138,1731
1678.0627433120121,1702
1680.081413482059,1683
1682.0995702408654,1645
1684.117213844096,1719
1686.134344547495,1645
1688.1509626068864,1698
1690.1670682781705,1648
1692.182661817329,1631
1694.1977434804217,1637
1696.2123135235875,1727
1698.226372203043,1712
1700.2399197750851,1668
1702.2529564960905,1685
1704.2654826225112,1648
1706.277498410882,1653
1708.2890041178139,1639
1710.2999999999988,1681
1712.3104863142066,1593
1714.3204633172854,1587
1716.329931266163,1592
1718.3388904178469,1623
1720.3473410294214,1673
1722.3552833580516,1589
1724.3627176609807,1656
1726.3696441955308,1547
1728.3760632191033,1578
1730.3819749891782,1573
1732.3873797633146,1569
1734.3922777991502,1618
1736.3966693544012,1580
1738.4005546868639,1556
1740.4039340544127,1558
1742.406807715001,1580
1744.4091759266616,1582
1746.4110389475054,1548
1748.4123970357223,1595
1750.413250449582,1584
1752.4135994474318,1570
1754.4134442876993,1600
1756.4127852288902,1552
1758.4116225295893,1532
1760.4099564484595,1563
1762.407787244244,1535
1764.405115175764,1515
1766.4019405019203,1537
1768.3982634816916,1487
1770.3940843741357,1607
1772.3894034383907,1512
1774.3842209336717,1482
1776.378537119274,1485
1778.372352254571,1453
1780.3656665990156,1512
1782.3584804121397,1484
1784.3507939535534,1534
1786.3426074829463,1510
1788.3339212600863,1525
1790.3247355448211,1529
1792.3150505970766,1499
1794.3048666768573,1488
1796.2941840442477,1478
1798.2830029594106,1460
1800.2713236825884,1534
1802.2591464741004,1496
1804.2464715943465,1475
1806.2332993038058,1463
1808.2196298630352,1499
1810.2054635326708,1450
1812.190800573428,1462
1814.175641246101,1493
1816.1599858115628,1505
1818.1438345307652,1491
1820.127187664738,1465
1822.1100454745924,1451
1824.092408221516,1465
1826.0742761667766,1443
1828.055649571721,1474
1830.0365286977735,1473
1832.0169138064398,1491
1833.9968051593014,1483
1835.9762030180214,1463
1837.9551076443408,1473
1839.9335193000788,1420
1841.9114382471344,1482
1843.888864747485,1504
1845.8657990631878,1489
1847.842241456378,1482
1849.8181921892697,1475
1851.7936515241558,1435
1853.7686197234098,1461
1855.7430970494815,1431
1857.7170837649014,1501
1859.6905801322787,1501
1861.6635864143004,1509
1863.6361028737338,1520
1865.608129773424,1461
1867.5796673762961,1474
1869.5507159453537,1470
1871.521275743678,1492
1873.4913470344313,1479
1875.4609300808534,1487
1877.4300251462632,1454
1879.3986324940588,1521
1881.366752387717,1478
1883.3343850907936,1554
1885.3015308669228,1505
1887.268189979819,1525
1889.2343626932739,1512
1891.2000492711595,1487
1893.1652499774254,1487
1895.1299650761011,1508
1897.0941948312952,1550
1899.0579395071945,1518
1901.0211993680641,1510
1902.98397467825,1495
1904.9462657021745,1520
1906.9080727043415,1504
1908.869395949332,1510
1910.8302357018065,1499
1912.790592226504,1504
1914.7504657882428,1485
1916.7098566519212,1490
1918.6687650825133,1464
1920.6271913450764,1478
1922.5851357047422,1465
1924.5425984267245,1464
1926.499579776314,1479
1928.4560800188833,1498
1930.4120994198802,1508
1932.367638244833,1567
1934.32269675935,1487
1936.2772752291175,1482
1938.231373919899,1458
1940.1849930975404,1493
1942.1381330279637,1474
1944.0907939771696,1474
1946.0429762112412,1445
1947.9946799963363,1515
1949.9459055986945,1499
1951.896653284633,1428
1953.8469233205478,1472
1955.7967159729142,1459
1957.7460315082863,1496
1959.6948701932974,1480
1961.6432322946594,1446
1963.5911180791632,1452
1965.5385278136787,1479
1967.4854617651545,1483
1969.4319202006182,1534
1971.377903387176,1464
1973.3234115920136,1499
1975.268445082395,1481
1977.2130041256642,1483
1979.1570889892423,1457
1981.1006999406304,1460
1983.04383724741,1446
1984.986501177238,1431
1986.928691997853,1451
1988.8704099770712,1404
1990.811655382789,1440
1992.7524284829801,1501
1994.692729545698,1475
1996.6325588390755,1517
1998.5719166313224,1384
2000.5108031907307,1441
2002.4492187856677,1404
2004.387163684583,1441
2006.3246381560011,1398
2008.2616424685298,1397
2010.1981768908527,1414
2012.1342416917332,1430
2014.069837140014,1439
2016.0049635046162,1427
2017.9396210545406,1416
2019.8738100588666,1385
2021.8075307867502,1431
2023.740783507431,1412
2025.6735684902228,1454
2027.6058860045214,1399
2029.5377363198004,1439
2031.4691197056118,1429
2033.4000364315875,1409
2035.3304867674374,1372
2037.260470982952,1389
2039.189989347998,1426
2041.1190421325232,1396
2043.047629606554,1393
2044.9757520401945,1412
2046.9034097036288,1370
2048.8306028671195,1356
2050.7573318010086,1383
2052.683596775716,1423
2054.609398061742,1355
2056.5347359296647,1433
2058.4596106501403,1397
2060.384022493906,1396
2062.3079717317764,1403
2064.231458634646,1406
2066.1544834734873,1386
2068.077046519352,1408
2069.99914804337,1441
2071.9207883167524,1383
2073.8419676107865,1396
2075.7626861968406,1369
2077.6829443463607,1413
2079.6027423308715,1399
2081.522080421977,1385
2083.440958891362,1406
2085.359378010786,1376
2087.2773380520907,1402
2089.194839287196,1420
2091.111881988101,1470
2093.0284664268825,1458
2094.9445928756973,1384
2096.86026160678,1397
2098.775472892446,1373
2100.690227005088,1396
2102.604524217178,1433
2104.5183648012676,1482
2106.431749029985,1422
2108.34467717604,1391
2110.2571495122206,1440
2112.169166311393,1418
2114.080727846503,1421
2115.9918343905747,1381
2117.902486216711,1450
2119.8126835980956,1392
2121.722426807987,1450
2123.6317161197285,1474
2125.5405518067364,1465
2127.448934142509,1480
2129.356863400624,1447
2131.264339854737,1490
2133.1713637785815,1483
2135.077935445972,1424
2136.9840551308002,1422
2138.889723107037,1498
2140.7949396487334,1415
2142.699705030018,1391
2144.6040195250994,1487
2146.507883408264,1447
2148.4112969538774,1487
2150.3142604363848,1447
2152.2167741303097,1459
2154.1188383102535,1553
2156.0204532508997,1479
2157.9216192270064,1477
2159.822336513414,1436
2161.7226053850413,1531
2163.622426116884,1501
2165.5217989840185,1485
2167.4207242616,1438
2169.319202224862,1467
2171.2172331491165,1489
2173.1148173097563,1433
2175.0119549822507,1544
2176.90864644215,1462
2178.8048919650823,1486
2180.7006918267534,1564
2182.596046302952,1531
2184.4909556695407,1573
2186.3854202024645,1540
2188.279440177746,1447
2190.173015871487,1456
2192.066147559868,1519
2193.958835519149,1481
2195.851080025667,1477
2197.7428813558417,1477
2199.6342397861667,1536
2201.5251555932186,1498
2203.415629053651,1468
2205.3056604441986,1583
2207.19525004167,1539
2209.084398122958,1523
2210.9731049650327,1513
2212.861370844941,1604
2214.749196039812,1562
2216.636580826851,1479
2218.523525483344,1551
2220.410030286655,1488
2222.296095514226,1587
2224.1817214435805,1475
2226.066908352319,1526
2227.951656518121,1543
2229.835966218746,1501
2231.71983773203,1552
2233.6032713358913,1491
2235.486267308324,1541
2237.3688259274036,1552
2239.2509474712824,1534
2241.132632218193,1541
2243.013880446447,1489
2244.8946924344323,1440
2246.7750684606203,1468
2248.6550088035574,1534
2250.534513741871,1549
2252.413583554265,1538
2254.292218519526,1569
2256.170418916517,1534
2258.0481850241786,1483
2259.925517121534,1509
2261.8024154876825,1483
2263.678880401803,1465
2265.5549121431536,1513
2267.430510991071,1520
2269.305677224971,1516
2271.180411124348,1485
2273.0547129687766,1456
2274.9285830379076,1445
2276.8020216114737,1428
2278.6750289692845,1514
2280.5476053912294,1495
2282.4197511572766,1521
2284.2914665474727,1503
2286.162751841943,1562
2288.0336073208937,1561
2289.904033264608,1558
2291.774029953448,1593
2293.6435976678554,1534
2295.5127366883517,1462
2297.381447295534,1427
2299.2497297700825,1484
2301.1175843927526,1380
2302.9850114443825,1386
2304.852011205885,1408
2306.7185839582553,1350
2308.5847299825664,1423
2310.4504495599676,1310
2312.3157429716925,1329
2314.1806104990483,1328
2316.0450524234247,1366
2317.9090690262888,1378
2319.772660589186,1325
2321.635827393742,1290
2323.498569721661,1342
2325.3608878547248,1287
2327.2227820747967,1271
2329.0842526638157,1338
2330.945299903803,1354
2332.805924076857,1333
2334.6661254651535,1373
2336.525904350951,1343
2338.3852610165827,1332
2340.244195744464,1319
2342.102708817088,1319
2343.9608005170253,1321
2345.8184711269287,1321
2347.675720929526,1303
2349.532550207628,1360
2351.38895924412,1313
2353.24494832197,1273
2355.100517724223,1335
2356.955667734004,1339
2358.810398634514,1344
2360.664710709037,1315
2362.5186042409337,1265
2364.3720795136437,1318
2366.225136810686,1331
2368.0777764156583,1385
2369.929998612237,1345
2371.7818036841777,1312
2373.633191915315,1297
2375.484163589562,1337
2377.3347189909114,1313
2379.184858403434,1363
2381.03458211128,1362
2382.8838903986775,1309
2384.732783549936,1328
2386.5812618494406,1395
2388.4293255816588,1398
2390.2769750311327,1394
2392.1242104824883,1321
2393.971032220427,1378
2395.8174405297295,1369
2397.6634356952563,1356
2399.509018001947,1362
2401.3541877348193,1339
2403.1989451789705,1392
2405.043290619576,1350
2406.8872243418905,1386
2408.730746631247,1363
2410.5738577730594,1359
2412.4165580528183,1413
2414.258847756095,1365
2416.100727168537,1330
2417.9421965758734,1297
2419.783256263912,1303
2421.623906518538,1370
2423.4641476257157,1374
2425.303979871491,1352
2427.143403541984,1349
2428.9824189233977,1339
2430.821026302012,1347
2432.6592259641866,1390
2434.497018196361,1432
2436.33440328505,1380
2438.171381516851,1363
2440.00795317844,1394
2441.844118556569,1345
2443.6798779380724,1378
2445.5152316098606,1366
2447.3501798589255,1372
2449.1847229723357,1367
2451.0188612372403,1426
2452.8525949408663,1381
2454.6859243705203,1381
2456.518849813587,1382
2458.3513715575314,1335
2460.183489889895,1428
2462.015205098301,1449
2463.8465174704493,1375
2465.67742729412,1398
2467.5079348571717,1417
2469.338040447542,1392
2471.1677443532476,1373
2472.9970468623833,1371
2474.825948263123,1371
2476.6544488437207,1450
2478.482548892508,1390
2480.310248697896,1361
2482.137548548374,1376
2483.9644487325118,1444
2485.790949538956,1438
2487.617051256433,1389
2489.44275417375,1384
2491.26805857979,1462
2493.0929647635157,1399
2494.917473013971,1457
2496.741583620276,1414
2498.5652968716304,1486
2500.3886130573137,1407
2502.2115324666834,1488
2504.0340553891765,1441
2505.856182114308,1453
2507.6779129316733,1497
2509.499248130945,1441
2511.3201880018764,1424
2513.140732834298,1499
2514.9608829181198,1459
2516.780638543331,1488
2518.6,1420
2520.418967578273,1493
2522.237541568376,1425
2524.0557222606144,1450
2525.8735099453706,1517
2527.6909049131086,1461
2529.507907454368,1496
2531.32451785977,1554
2533.140736420014,1579
2534.9565634258774,1507
2536.771999168218,1529
2538.5870439379714,1568
2540.4016980261526,1539
2542.2159617238544,1546
2544.02983532225,1604
2545.8433191125914,1618
2547.656413386209,1553
2549.4691184345115,1614
2551.2814345489874,1566
2553.093362021204,1600
2554.904901142808,1573
2556.716052205523,1629
2558.526815501153,1587
2560.3371913215824,1637
2562.147179958771,1650
2563.956781704761,1667
2565.7659968516705,1744
2567.5748256916986,1648
2569.3832685171224,1710
2571.1913256202984,1720
2572.9989972936614,1694
2574.806283829725,1712
2576.613185521084,1732
2578.4197026604074,1712
2580.2258355404483,1705
2582.031584454035,1751
2583.836949694077,1767
2585.6419315535613,1739
2587.4465303255533,1776
2589.2507463032002,1815
2591.0545797797245,1797
2592.8580310484303,1750
2594.6611004026995,1764
2596.463788135992,1773
2598.266094541849,1757
2600.0680199138874,1750
2601.869564545807,1781
2603.670728731383,1791
2605.4715127644704,1793
2607.2719169390048,1747
2609.071941548998,1778
2610.8715868885433,1859
2612.670853251811,1825
2614.469740933052,1807
2616.268250226594,1799
2618.0663814268455,1734
2619.864134828292,1742
2621.6615107255006,1644
2623.458509413115,1755
2625.2551311858597,1768
2627.0513763385347,1719
2628.8472451660223,1687
2630.6427379632833,1588
2632.4378550253564,1652
2634.232596647359,1668
2636.026963124488,1620
2637.8209547520187,1694
2639.6145718253065,1739
2641.407814639785,1653
2643.200683490966,1613
2644.9931786744414,1654
2646.7853004858807,1615
2648.577049221034,1637
2650.3684251757277,1633
2652.1594286458712,1614
2653.9500599274484,1572
2655.740319316525,1599
2657.5302071092437,1561
2659.3197236018286,1497
2661.10886909058,1542
2662.8976438718782,1554
2664.686048242183,1567
2666.4740824980327,1567
2668.2617469360443,1450
2670.0490418529134,1480
2671.8359675454153,1503
2673.622524310403,1506
2675.408712444811,1444
2677.1945322456495,1477
2678.979984010009,1383
2680.76506803506,1467
2682.5497846180497,1381
2684.334134056306,1477
2686.1181166472343,1395
2687.9017326883213,1485
2689.6849824771293,1385
2691.4678663113013,1420
2693.2503844885596,1461
2695.032537306705,1395
2696.8143250636167,1397
2698.5957480572542,1372
2700.3768065856534,1339
2702.1575009469316,1382
2703.937831439283,1401
2705.717798360982,1433
2707.4974020103837,1383
2709.276642685917,1365
2711.055520686095,1364
2712.834036309506,1379
2714.612189854819,1360
2716.389981620782,1352
2718.1674119062204,1383
2719.944481010041,1371
2721.721189231226,1350
2723.4975368688415,1340
2725.273524222027,1315
2727.0491515900053,1355
2728.824419272075,1323
2730.5993275676146,1351
2732.3738767760838,1327
2734.148067197016,1377
2735.921899130031,1357
2737.6953728748194,1329
2739.468488731156,1311
2741.2412469988926,1308
2743.0136479779617,1277
2744.785691968372,1314
2746.5573792702116,1300
2748.3287101836504,1311
2750.099685008934,1330
2751.870304046388,1345
2753.640567596418,1340
2755.4104759595057,1314
2757.1800294362156,1389
2758.949228327187,1318
2760.7180729331412,1357
2762.486563554877,1343
2764.254700493272,1294
2766.022484049284,1299
2767.789914523947,1298
2769.5569922183786,1311
2771.3237174337705,1283
2773.090090471394,1312
2774.8561116326036,1261
2776.6217812188274,1309
2778.3870995315756,1269
2780.1520668724356,1282
2781.9166835430747,1296
2783.6809498452394,1269
2785.444866080754,1317
2787.2084325515225,1309
2788.971649559527,1315
2790.73451740683,1298
2792.4970363955713,1235
2794.2592068279705,1300
2796.0210290063264,1265
2797.7825032330147,1287
2799.543629810493,1315
2801.304409041296,1294
2803.0648412280366,1225
2804.8249266734088,1264
2806.5846656801846,1257
2808.344058551212,1274
2810.1031055894246,1266
2811.8618070978273,1282
2813.6201633795085,1273
2815.378174737636,1375
2817.1358414754536,1333
2818.893163896285,1320
2820.6501423035334,1278
2822.4067770006814,1270
2824.1630682912883,1291
2825.9190164789957,1285
2827.6746218675207,1270
2829.429884760661,1271
2831.184805462294,1303
2832.9393842763743,1318
2834.693621506936,1348
2836.4475174580916,1319
2838.201072434034,1283
2839.954286739034,1263
2841.707160677441,1305
2843.459694553685,1286
2845.2118886722724,1285
2846.96374333779,1324
2848.7152588549034,1258
2850.4664355283567,1374
2852.217273662973,1348
2853.9677735636546,1286
2855.7179355353833,1327
2857.4677598832186,1328
2859.217246912299,1266
2860.9663969278427,1254
2862.715210235146,1290
2864.4636871395846,1280
2866.211827946614,1273
2867.9596329617652,1232
2869.7071024906536,1297
2871.4542368389684,1319
2873.20103631248,1267
2874.947501217038,1284
2876.6936318585695,1303
2878.4394285430812,1252
2880.1848915766604,1224
2881.9300212654707,1322
2883.6748179157553,1300
2885.4192818338374,1257
2887.1634133261173,1275
2888.907212699077,1286
2890.6506802592744,1348
2892.393816313348,1263
2894.1366211680142,1232
2895.8790951300693,1269
2897.621238506388,1320
2899.363051603925,1264
2901.1045347297118,1273
2902.8456881908596,1236
2904.58651229456,1284
2906.327007348081,1275
2908.067173658772,1313
2909.8070115340597,1302
2911.5465212814497,1302
2913.285703208527,1310
2915.0245576229563,1249
2916.7630848324807,1249
2918.5012851449196,1240
2920.2391588681758,1285
2921.976706310227,1272
2923.7139277791334,1242
2925.4508235830313,1288
2927.187394030137,1251
2928.923639428745,1314
2930.6595600872306,1295
2932.395156314046,1290
2934.1304284177218,1300
2935.8653767068713,1343
2937.6000014901815,1301
2939.3343030764227,1280
2941.068281774442,1292
2942.8019378931644,1298
2944.5352717415976,1296
2946.2682836288236,1276
2948.0009738640065,1297
2949.7333427563885,1289
2951.465390615289,1286
2953.1971177501086,1282
2954.9285244703265,1270
2956.6596110855,1274
2958.3903779052657,1256
2960.1208252393385,1262
2961.8509533975125,1281
2963.5807626896617,1287
2965.3102534257378,1254
2967.0394259157715,1229
2968.768280469873,1275
2970.496817398232,1312
2972.2250370111146,1317
2973.952939618869,1351
2975.6805255319196,1310
2977.4077950607707,1300
2979.134748516006,1268
2980.861386208289,1323
2982.587708448359,1310
2984.313715547037,1319
2986.039407815222,1293
2987.764785563891,1343
2989.489849104102,1267
2991.2145987469908,1284
2992.9390348037705,1236
2994.6631575857346,1332
2996.3869674042576,1244
2998.1104645707887,1270
2999.83364939686,1312
3001.5565221940783,1244
3003.2790832741334,1204
3005.0013329487924,1247
3006.7232715298996,1256
3008.4448993293804,1252
3010.166216659239,1271
3011.887223831558,1285
3013.607921158498,1284
3015.3283089522993,1231
3017.0483875252826,1248
3018.7681571898443,1240
3020.4876182584626,1242
3022.2067710436927,1274
3023.9256158581707,1291
3025.644153014609,1253
3027.362382825801,1215
3029.0803056046193,1295
3030.797921664012,1269
3032.5152313170106,1272
3034.2322348767225,1273
3035.9489326563353,1216
3037.665324969115,1264
3039.3814121284063,1270
3041.097194447633,1211
3042.812672240299,1306
3044.5278458199855,1285
3046.2427155003525,1280
3047.9572815951406,1246
3049.671544418167,1307
3051.38550428333,1290
3053.0991615046073,1250
3054.812516396051,1238
3056.5255692717974,1235
3058.2383204460575,1283
3059.9507702331257,1312
3061.662918947372,1291
3063.3747669032446,1260
3065.0863144152736,1333
3066.7975617980674,1294
3068.508509366309,1283
3070.219157434767,1273
3071.9295063182844,1286
3073.639556331785,1271
3075.3493077902704,1276
3077.058761008821,1306
3078.7679163025964,1252
3080.476773986837,1356
3082.1853343768594,1277
3083.89359778806,1345
3085.6015645359153,1277
3087.3092349359786,1318
3089.016609303884,1273
3090.7236879553434,1243
3092.4304712061476,1259
3094.136959372166,1271
3095.843152769349,1272
3097.5490517137237,1251
3099.2546565213966,1235
3100.959967508554,1268
3102.66498499146,1263
3104.3697092864577,1275
3106.0741407099695,1241
3107.778279578498,1298
3109.482126208622,1276
3111.1856809170004,1263
3112.8889440203716,1291
3114.5919158355528,1322
3116.294596679439,1312
3117.996986869006,1258
3119.6990867213062,1294
3121.4008965534726,1284
3123.102416682717,1307
3124.803647426329,1270
3126.5045891016784,1283
3128.205242026213,1268
3129.90560651746,1239
3131.605682893025,1276
3133.3054714705922,1273
3135.0049725679282,1256
3136.7041865028714,1269
3138.4031135933465,1272
3140.101754157353,1271
3141.800108512971,1265
3143.498176978357,1237
3145.1959598717494,1299
3146.8934575114636,1315
3148.5906702158954,1256
3150.2875983035183,1241
3151.9842420928853,1283
3153.680601902627,1264
3155.376678051456,1226
3157.07247085816,1221
3158.767980641609,1280
3160.463207720748,1243
3162.158152414606,1254
3163.8528150422862,1268
3165.5471959229726,1311
3167.2412953759303,1272
3168.9351137204976,1265
3170.628651276098,1307
3172.3219083622307,1267
3174.014885298474,1259
3175.707582404485,1276
3177.4000000000005,1273
3179.092138404835,1269
3180.7839979388846,1285
3182.47557892212,1269
3184.166881674594,1256
3185.8579065164386,1244
3187.5486537678626,1274
3189.2391237491547,1244
3190.9293167806827,1237
3192.6192331828934,1214
3194.3088732763117,1262
3195.998237381542,1244
3197.687325819268,1232
3199.376138910251,1181
3201.064676975334,1272
3202.7529403354347,1299
3204.4409293115523,1213
3206.1286442247647,1242
3207.816085396229,1231
3209.5032531471825,1222
3211.190147798936,1206
3212.8767696728846,1247
3214.5631190905015,1211
3216.2491963733373,1191
3217.9350018430214,1169
3219.6205358212637,1214
3221.305798629851,1235
3222.990790590651,1197
3224.6755120256103,1255
3226.359963256751,1233
3228.0441446061795,1179
3229.7280563960758,1226
3231.411698948703,1184
3233.0950725863995,1238
3234.778177631587,1238
3236.461014406761,1205
3238.1435832345005,1209
3239.8258844374595,1203
3241.507918338374,1212
3243.1896852600576,1223
3244.8711855254023,1239
3246.552419457381,1237
3248.233387379042,1205
3249.914089613516,1217
3251.59452648401,1215
3253.274698313813,1244
3254.95460542629,1197
3256.6342481448855,1249
3258.313626793125,1234
3259.9927416946084,1189
3261.6715931730196,1166
3263.3501815521176,1174
3265.0285071557437,1212
3266.706570307815,1199
3268.3843713323286,1232
3270.0619105533615,1276
3271.739188295068,1209
3273.4162048816834,1179
3275.0929606375184,1190
3276.769455886966,1203
3278.445690954498,1197
3280.1216661646613,1214
3281.797381842087,1194
3283.4728383114807,1214
3285.1480358976296,1248
3286.8229749253996,1234
3288.4976557197333,1275
3290.172078605655,1209
3291.846243908266,1243
3293.5201519527463,1159
3295.193803064357,1237
3296.8671975684374,1209
3298.5403357904024,1241
3300.21321805575,1184
3301.8858446900567,1191
3303.558216018975,1230
3305.23033236824,1212
3306.9021940636603,1164
3308.57380143113,1221
3310.2451547966184,1214
3311.916254486174,1250
3313.5871008259246,1270
3315.2576941420766,1217
3316.9280347609147,1226
3318.5981230088046,1205
3320.2679592121895,1168
3321.9375436975924,1202
3323.606876791612,1223
3325.27595882093,1201
3326.944790112305,1211
3328.6133709925753,1230
3330.2817017886573,1209
3331.949782827547,1224
3333.617614436319,1207
3335.2851969421245,1229
3336.952530672199,1254
3338.619615953853,1267
3340.286453114475,1210
3341.9530424815357,1195
3343.619384382583,1211
3345.2854791452437,1184
3346.951327097224,1242
3348.6169285663073,1208
3350.2822838803577,1279
3351.947393367319,1184
3353.61225735521,1228
3355.2768761721345,1197
3356.9412501462693,1242
3358.605379605873,1186
3360.2692648792827,1190
3361.9329062949146,1201
3363.596304181263,1187
