CollectionTime,9/19/2024 11:19:13 AM
ExposureUsed,3
CalibratedSpectrum
-962.7078968117929,730
-959.9714848408522,765
-957.2358232597828,760
-954.5009119013725,727
-951.7667505983302,760
-949.0333391832855,797
-946.3006774887896,748
-943.5687653473143,799
-940.837602591253,774
-938.1071890529199,792
-935.3775245645503,765
-932.6486089583007,778
-929.9204420662485,727
-927.1930237203925,759
-924.4663537526524,768
-921.7404319948689,778
-919.0152582788041,787
-916.2908324361409,792
-913.5671542984834,745
-910.8442236973568,733
-908.1220404642074,746
-905.4006044304027,780
-902.679915427231,779
-899.959973285902,729
-897.2407778375464,757
-894.5223289132158,718
-891.8046263438832,755
-889.0876699604426,726
-886.3714595937089,758
-883.6559950744183,725
-880.9412762332282,716
-878.2273029007168,698
-875.5140749073835,757
-872.8015920836489,745
-870.0898542598545,705
-867.3788612662631,707
-864.6686129330585,731
-861.9591090903457,760
-859.2503495681506,721
-856.5423341964203,720
-853.8350628050229,716
-851.1285352237478,763
-848.4227512823054,703
-845.7177108103272,728
-843.0134136373656,764
-840.3098595928943,735
-837.6070485063082,774
-834.9049802069229,735
-832.2036545239757,724
-829.5030712866244,710
-826.8032303239481,725
-824.1041314649472,686
-821.4057745385428,751
-818.7081593735775,732
-816.0112857988148,726
-813.3151536429393,697
-810.6197627345566,711
-807.9251129021936,726
-805.2312039742981,696
-802.5380357792392,763
-799.8456081453069,720
-797.1539209007124,750
-794.462973873588,783
-791.772766891987,801
-789.083299783884,759
-786.3945723771743,750
-783.7065844996748,761
-781.0193359791231,769
-778.3328266431781,752
-775.6470563194197,721
-772.9620248353489,729
-770.2777320183878,754
-767.5941776958798,780
-764.9113616950891,740
-762.2292838432011,720
-759.5479439673222,781
-756.8673418944801,733
-754.1874774516235,764
-751.5083504656222,758
-748.8299607632671,756
-746.15230817127,782
-743.475392516264,759
-740.7992136248035,753
-738.1237713233636,760
-735.4490654383407,753
-732.7750957960521,766
-730.1018622227365,770
-727.4293645445534,738
-724.7576025875837,763
-722.0865761778291,809
-719.4162851412126,800
-716.7467293035781,754
-714.0779084906909,796
-711.409822528237,813
-708.7424712418238,799
-706.0758544569796,793
-703.4099719991541,820
-700.7448236937178,825
-698.0804093659622,768
-695.4167288411002,796
-692.7537819442656,845
-690.0915685005134,819
-687.4300883348199,791
-684.7693412720819,835
-682.1093271371178,815
-679.4500457546669,830
-676.7914969493897,798
-674.1336805458676,790
-671.4765963686034,807
-668.8202442420206,801
-666.1646239904642,789
-663.5097354382001,776
-660.8555784094151,836
-658.2021527282176,838
-655.5494582186366,803
-652.8974947046223,819
-650.2462620100463,876
-647.5957599587009,828
-644.9459883742998,854
-642.2969470804776,855
-639.6486359007902,931
-637.0010546587141,935
-634.3542031776476,912
-631.7080812809096,856
-629.0626887917401,814
-626.4180255333008,816
-623.7740913286734,968
-621.1308860008619,871
-618.4884093727904,797
-615.8466612673046,899
-613.2056415071715,873
-610.5653499150785,851
-607.9257863136347,888
-605.28695052537,863
-602.6488423727357,873
-600.0114616781036,855
-597.3748082637674,895
-594.7388819519412,991
-592.1036825647604,931
-589.4692099242818,915
-586.8354638524829,877
-584.2024441712624,915
-581.5701507024403,894
-578.9385832677575,894
-576.3077416888759,842
-573.6776257873787,835
-571.0482353847704,867
-568.4195703024757,942
-565.7916303618415,908
-563.164415384135,852
-560.5379251905453,863
-557.9121596021815,885
-555.2871184400748,866
-552.6628015251767,871
-550.0392086783606,939
-547.4163397204204,951
-544.794194472071,959
-542.1727727539491,959
-539.5520743866118,897
-536.9320991905377,958
-534.3128469861261,995
-531.6943175936979,1004
-529.0765108334947,1037
-526.4594265256793,1147
-523.8430644903358,1356
-521.2274245474689,1394
-518.612506517005,1499
-515.9983102187913,1409
-513.3848354725959,1553
-510.77208209810846,1519
-508.16004991493924,1527
-505.5487387426199,1598
-502.9381484006032,1667
-500.3282787082628,1707
-497.71912948489364,1552
-495.1107005497117,1617
-492.5029917218539,1407
-489.8960028203786,1296
-487.28973366426493,1219
-484.68418407241325,1125
-482.07935386364494,1096
-479.47524285670266,1112
-476.87185087025,1092
-474.2691777228715,1061
-471.66722323307334,1083
-469.0659872192821,1081
-466.4654694998459,1087
-463.86566989303384,1086
-461.26658821703614,1055
-458.66822428996414,1088
-456.07057792985,1055
-453.4736489546475,1032
-450.877437182231,1123
-448.28194243039627,1037
-445.68716451686,1008
-443.09310325926003,1054
-440.49975847515555,1035
-437.9071299820263,1070
-435.31521759727354,1082
-432.72402113821954,1105
-430.13354042210767,1071
-427.5437752661022,1101
-424.95472548728867,1129
-422.36639090267386,1105
-419.7787713291855,1163
-417.1918665836721,1120
-414.60567648290385,1197
-412.0202008435715,1176
-409.4354394822874,1203
-406.8513922155845,1181
-404.26805885991723,1169
-401.685439231661,1143
-399.103533147112,1175
-396.522340422488,1139
-393.9418608739278,1121
-391.3620943174908,1158
-388.7830405691583,1037
-386.2046994448317,1036
-383.6270707603344,999
-381.05015433141045,955
-378.473949973725,899
-375.8984575028645,902
-373.32367673433623,790
-370.74960748356875,760
-368.1762495659117,717
-365.60360279663576,659
-363.03166699093265,606
-360.4604419639154,572
-357.8899275306178,569
-355.32012350599507,545
-352.7510297049233,555
-350.1826459421999,579
-347.61497203254316,510
-345.04800779059235,499
-342.4817530309082,523
-339.91620756797226,599
-337.35137121618743,644
-334.7872437898774,569
-332.22382510328725,506
-329.66111497058273,539
-327.09911320585127,565
-324.53781962310075,491
-321.9772340362607,483
-319.4173562591816,472
-316.8581861056348,483
-314.2997233893127,527
-311.7419679238294,501
-309.1849195227194,574
-306.62857799943856,583
-304.0729431673641,585
-301.51801483979375,531
-298.963792829947,519
-296.41027695096386,615
-293.85746701590574,645
-291.3053628377552,640
-288.7539642294155,612
-286.2032710037115,672
-283.65328297338897,731
-281.1039999511146,804
-278.5554217494762,710
-276.007548180983,641
-273.4603790580651,598
-270.9139141930734,611
-268.3681533982807,687
-265.8230964858798,701
-263.27874326798565,819
-260.7350935566336,764
-258.1921471637804,789
-255.6499039013039,839
-253.10836358100266,782
-250.56752601459698,778
-248.02739101372765,801
-245.48795838995704,838
-242.94922795476816,826
-240.41119951956557,839
-237.8738728956746,742
-235.33724789434166,790
-232.80132432673452,809
-230.2661020039418,701
-227.73158073697357,778
-225.19776033676033,856
-222.66464061415422,914
-220.1322213799284,865
-217.60050244477725,800
-215.06948361931552,817
-212.53916471408013,1090
-210.00954553952818,1084
-207.48062590603843,980
-204.9524056239104,924
-202.4248845033651,906
-199.8980623545441,1015
-197.37193898751036,1052
-194.84651421224817,1129
-192.32178783866232,954
-189.79775967657952,1000
-187.27442953574644,1307
-184.7517972258321,1371
-182.2298625564256,1125
-179.7086253370378,1009
-177.18808537710026,960
-174.66824248596583,1155
-172.14909647290835,1188
-169.6306471471229,1130
-167.11289431772548,1068
-164.59583779375328,1119
-162.07947738416453,1289
-159.5638128978386,1592
-157.04884414357605,1824
-154.53457093009854,1579
-152.02099306604828,1146
-149.50811035998936,1164
-146.99592262040665,1457
-144.48442965570587,1639
-141.97363127421409,1911
-139.46352728417958,2077
-136.95411749377126,1864
-134.44540171107985,1450
-131.93737974411636,1197
-129.43005140081357,1376
-126.92341648902493,1770
-124.41747481652521,2392
-121.91222619101006,2929
-119.40767042009657,2835
-116.90380731132257,2322
-114.40063667214702,2528
-111.8981583099503,3195
-109.3963720320337,4797
-106.89527764561933,7714
-104.39487495785067,11241
-101.89516377579241,14970
-99.39614390642998,20593
-96.89781515667039,26540
-94.40017733334128,29557
-91.90323024319173,25779
-89.40697369289148,20396
-86.91140748903172,12026
-84.41653143812482,7366
-81.92234534660395,11964
-79.42884902082358,22279
-76.93604226705907,30541
-74.4439248915071,34966
-71.95249670028534,35401
-69.46175749943245,31348
-66.97170709490854,26129
-64.48234529259423,18713
-61.99367189829195,15207
-59.50568671772464,15303
-57.01838955653636,12679
-54.53178022029283,11770
-52.045858514480074,12527
-49.560624244506016,14798
-47.07607721569923,14471
-44.59221723330904,13425
-42.10904410250669,15370
-39.62655762838392,16702
-37.14475761595372,16273
-34.66364387015028,17770
-32.18321619582866,21295
-29.70347439776515,19772
-27.224418280657005,21560
-24.74604764912317,31526
-22.26836230770266,57538
-19.7913620608565,65035
-17.315046712966478,65035
-14.83941606833514,65035
-12.36446993118659,65035
-9.89020810566592,65035
-7.416630395839093,65035
-4.94373660569363,65035
-2.471526539137585,65035
-6.821210263296962E-13,65035
2.47084320796705,65035
4.941003281093458,65035
7.410480415786196,65035
9.879274808531363,65035
12.347386655893956,65035
14.814816154518212,65035
17.28156350112681,65035
19.74762889252179,65035
22.21301252558385,25435
24.67771459727237,7968
27.141735304626195,8400
29.605074844762612,8929
32.06773341487792,7381
34.52971121224755,7191
36.99100843422559,5931
39.45162527824516,4390
41.91156194181792,4947
44.370818622535126,5968
46.82939551806646,4399
49.287292826160524,7250
51.74451074464503,7949
54.201049471426245,5304
56.65690920448981,3050
59.112090141899785,2169
61.56659248179983,2628
64.02041642241159,3323
66.4735621620365,3500
68.92602989905402,4047
71.37781983192338,4235
73.82893215918205,3134
76.27936707944684,2389
78.72912479141326,2881
81.17820549385567,3202
83.62660938562783,3298
86.07433666566146,2076
88.5213875329681,1441
90.96776218663751,1928
93.41346082583925,2570
95.85848364982041,2774
98.30283085790859,2657
100.7465026495089,2340
103.18949922410604,2140
105.63182078126385,1571
108.07346752062438,1409
110.51443964190923,1309
112.95473734491827,1210
115.39436082953114,1420
117.83331029570547,1572
120.27158594347827,1695
122.7091879729652,1479
125.1461165843615,1382
127.58237197794062,1254
130.01795435405518,1274
132.4528639131364,1315
134.88710085569494,1263
137.32066538231982,1538
139.75355769367923,1629
142.1857779905207,1370
144.61732647366978,1112
147.04820334403132,1137
149.47840880258934,1230
151.90794305040674,1189
154.33680628862487,1364
156.76499871846443,1470
159.19252054122433,1621
161.61937195828352,1559
164.04555317109896,1846
166.47106438120693,2173
168.89590579022217,2241
171.320077599839,2422
173.7435800118302,2425
176.16641322804742,2677
178.58857745042144,2796
181.01007288096173,2832
183.43089972175687,2871
185.85105817497413,2868
188.27054844285988,2895
190.6893707277394,2807
193.10752523201643,2822
195.5250121581745,2847
197.9418317087751,2926
200.3579840864594,2896
202.7734694939469,3109
205.18828813403627,3285
207.6024402096051,3086
210.01592592360964,3067
212.42874547908548,3036
214.84089907914665,2932
217.2523869269868,2958
219.66320922587727,3022
222.0733661791695,2964
224.48285799029293,3065
226.8916848627572,2999
229.29984700014882,3121
231.7073446061355,3073
234.11417788446204,3280
236.520347038953,3337
238.92585227351185,3431
241.33069379212054,3325
243.73487179884035,3406
246.1383864978112,3308
248.541238093252,3483
250.9434267894609,3553
253.34495279081432,3603
255.74581630176783,3545
258.1460175268563,3510
260.54555667069314,3536
262.9444339379703,3451
265.3426495334594,3481
267.7402036620107,3561
270.1370965285529,3405
272.53332833809407,3197
274.9288992957214,3092
277.32380960660055,3095
279.718059475976,3112
282.1116491091717,3085
284.5045787115897,2902
286.89684848871195,2781
289.2884586460981,2895
291.67940938938807,2943
294.0697009242996,3016
296.4593334566299,2858
298.84830719225477,2823
301.23662233712923,2892
303.6242790972866,2829
306.01127767884,2793
308.39761828798066,2690
310.78330113097934,2692
313.16832641418534,2576
315.5526943440269,2562
317.9364051270112,2741
320.3194589697242,2689
322.70185607883093,2656
325.0835966610754,2497
327.4646809232805,2457
329.8451090723478,2516
332.2248813152577,2517
334.6039978590701,2549
336.9824589109231,2480
339.36026467803447,2477
341.7374153677,2413
344.113911187295,2372
346.48975234427337,2432
348.8649390461686,2447
351.2394715005918,2365
353.61334991523415,2426
355.9865744978655,2432
358.35914545633375,2411
360.73106299856715,2445
363.10232733257146,2374
365.47293866643247,2318
367.84289720831396,2357
370.2122031664593,2377
372.5808567491905,2298
374.9488581649083,2282
377.31620762209275,2238
379.6829053293021,2254
382.0489514951745,2277
384.4143463284262,2280
386.7790900378528,2236
389.14318283232853,2240
391.50662492080653,2350
393.86941651231916,2290
396.23155781597745,2282
398.5930490409713,2396
400.9538903965696,2301
403.3140820921202,2200
405.6736243370498,2183
408.03251734086336,2169
410.3907613131465,2179
412.74835646356166,2202
415.10530300185144,2282
417.4616011378372,2201
419.81725108141893,2254
422.1722530425758,2195
424.5266072313656,2145
426.880313857925,2191
429.2333731324701,2197
431.58578526529516,2128
433.9375504667738,2153
436.2886689473588,2179
438.63914091758113,2181
440.9889665880513,2176
443.33814616945835,2133
445.68667987257015,2129
448.03456790823395,2221
450.3818104873759,2103
452.72840782100013,2142
455.07436012019105,2178
457.41966759611057,2136
459.7643304600007,2084
462.10834892318155,2123
464.4517231970525,2051
466.79445349309174,2132
469.1365400228566,2144
471.4779829979826,2116
473.81878263018564,2102
476.15893913125876,2164
478.4984527130747,2193
480.8373235875855,2216
483.17555196682144,2193
485.5131380628919,2294
487.8500820879857,2431
490.1863842543697,2425
492.52204477439034,2642
494.8570638604725,2674
497.1914417251204,2993
499.52517858091653,3280
501.85827464052306,3446
504.19073011668036,3505
506.5225452222086,3531
508.85372017000566,3565
511.18425517304956,3797
513.514150444396,4376
515.8434061971808,5695
518.1720226446176,6511
520.4999999999999,6609
522.8273384766991,6370
525.1540382881666,5933
527.480099647932,5460
529.8055227696037,4206
532.1303078668694,3206
534.454455153496,2692
536.777964843328,2385
539.1008371502907,2306
541.4230722883866,2273
543.744670471698,2301
546.0656319143858,2204
548.3859568306899,2171
550.7056454349294,2207
553.0246979415016,2246
555.3431145648834,2155
557.6608955196306,2200
559.978041020377,2060
562.2945512818363,2106
564.6104265188006,2144
566.9256669461412,2115
569.2402727788082,2047
571.5542442318302,2089
573.8675815203156,2166
576.1802848594508,2138
578.4923544645015,2167
580.8037905508126,2193
583.114593333807,2131
585.4247630289875,2139
587.7342998519354,2064
590.0432040183106,2160
592.3514757438526,2205
594.6591152443794,2195
596.9661227357875,2166
599.2724984340531,2133
601.578242555231,2104
603.8833553154542,2149
606.1878369309362,2137
608.4916876179676,2132
610.7949075929192,2112
613.0974970722403,2093
615.3994562724587,2077
617.7007854101818,2155
620.0014847020951,2156
622.3015543649641,2145
624.6009946156324,2204
626.8998056710224,2135
629.1979877481361,2098
631.4955410640538,2162
633.7924658359349,2143
636.0887622810175,2165
638.3844306166192,2219
640.6794710601358,2230
642.9738838290426,2253
645.2676691408932,2257
647.5608272133207,2325
649.853358264037,2262
652.1452625108324,2187
654.4365401715764,2121
656.7271914642178,2251
659.0172166067838,2277
661.3066158173809,2294
663.5953893141935,2275
665.8835373154867,2175
668.1710600396028,2274
670.4579577049639,2292
672.7442305300709,2205
675.0298787335033,2221
677.3149025339197,2274
679.599302150058,2264
681.8830778007342,2283
684.1662297048437,2260
686.4487580813608,2255
688.7306631493387,2195
691.0119451279091,2221
693.2926042362834,2373
695.5726406937516,2209
697.8520547196814,2298
700.1308465335215,2249
702.4090163547982,2113
704.6865644031171,2194
706.9634908981619,2174
709.2397960596965,2214
711.5154801075631,2206
713.7905432616823,2214
716.0649857420548,2211
718.3388077687592,2216
720.612009561953,2227
722.8845913418733,2178
725.1565533288352,2224
727.427895743234,2264
729.6986188055427,2156
731.9687227363137,2220
734.238207756178,2210
736.5070740858458,2173
738.7753219461066,2256
741.0429515578281,2144
743.3099631419569,2178
745.5763569195191,2180
747.8421331116193,2138
750.1072919394409,2151
752.3718336242467,2096
754.6357583873777,2242
756.8990664502545,2200
759.1617580343765,2207
761.423833361321,2159
763.6852926527457,2241
765.9461361303862,2222
768.206364016058,2270
770.4659765316536,2214
772.7249738991469,2127
774.9833563405886,2190
777.2411240781092,2255
779.4982773339183,2204
781.7548163303044,2204
784.010741289634,2209
786.2660524343538,2271
788.5207499869881,2200
790.7748341701416,2200
793.0283052064964,2224
795.2811633188143,2269
797.5334087299362,2218
799.7850416627813,2241
802.0360623403484,2276
804.2864709857143,2278
806.5362678220353,2267
808.7854530725468,2195
811.0340269605625,2249
813.2819897094754,2221
815.5293415427581,2338
817.77608268396,2302
820.0222133567116,2227
822.2677337847211,2248
824.5126441917765,2183
826.7569448017433,2268
829.0006358385675,2227
831.2437175262731,2197
833.4861900889629,2270
835.7280537508192,2300
837.9693087361026,2216
840.2099552691533,2224
842.4499935743896,2207
844.689423876309,2237
846.9282463994886,2261
849.1664613685833,2282
851.4040690083276,2225
853.6410695435349,2242
855.877463199097,2239
858.1132501999847,2301
860.3484307712487,2303
862.5830051380175,2283
864.8169735254988,2303
867.0503361589791,2297
869.2830932638243,2259
871.5152450654786,2249
873.7467917894654,2235
875.9777336613873,2265
878.2080709069252,2266
880.4378037518389,2335
882.666932421968,2274
884.8954571432301,2327
887.1233781416219,2273
889.3506956432192,2315
891.5774098741766,2324
893.803521060728,2325
896.0290294291852,2323
898.2539352059397,2297
900.4782386174619,2323
902.7019398903011,2311
904.925039251085,2412
907.147536926521,2330
909.3694331433943,2292
911.59072812857,2238
913.8114221089921,2264
916.0315153116827,2283
918.2510079637437,2241
920.4699002923547,2279
922.6881925247761,2269
924.905884888345,2239
927.1229776104793,2284
929.3394709186747,2298
931.555365040506,2237
933.7706602036275,2372
935.9853566357709,2316
938.1994545647489,2271
940.4129542184515,2354
942.6258558248488,2296
944.8381596119883,2355
947.0498658079974,2320
949.2609746410825,2394
951.4714863395287,2384
953.6814011316998,2375
955.8907192460387,2367
958.0994409110671,2314
960.3075663553858,2317
962.5150958076741,2348
964.7220294966913,2339
966.928367651274,2311
969.1341105003388,2240
971.3392582728806,2254
973.5438111979742,2276
975.747769504772,2217
977.9511334225061,2235
980.153903180487,2271
982.3560790081052,2227
984.5576611348289,2199
986.7586497902058,2214
988.9590452038618,2144
991.158847605503,2212
993.3580572249133,2213
995.5566742919558,2080
997.7546990365728,2075
999.952131688785,2052
1002.1489724786926,2042
1004.3452216364743,1966
1006.5408793923874,1987
1008.7359459767691,2020
1010.9304216200343,1978
1013.1243065526781,1961
1015.3176010052733,1994
1017.510305208472,1959
1019.7024193930064,1919
1021.8939437896848,1902
1024.0848786293977,2012
1026.2752241431122,2005
1028.4649805618747,2023
1030.6541481168115,1916
1032.842727039127,1889
1035.0307175601051,1955
1037.2181199111074,1883
1039.4049343235752,1948
1041.591161029029,1893
1043.7768002590683,1810
1045.9618522453698,1866
1048.1463172196918,1943
1050.3301954138697,1913
1052.513487059818,1857
1054.69619238953,1853
1056.8783116350783,1897
1059.0598450286152,1952
1061.2407928023704,1822
1063.4211551886528,1872
1065.6009324198508,1913
1067.780124728432,1879
1069.9587323469414,1838
1072.1367555080046,1881
1074.314194444325,1947
1076.4910493886855,1914
1078.667320573947,1844
1080.843008233051,1856
1083.0181125990161,1851
1085.1926339049414,1780
1087.3665723840027,1799
1089.5399282694575,1800
1091.7127017946405,1812
1093.8848931929647,1798
1096.0565026979243,1846
1098.2275305430899,1833
1100.3979769621128,1829
1102.567842188722,1814
1104.737126456726,1743
1106.9058300000124,1820
1109.0739530525475,1828
1111.2414958483764,1782
1113.4084586216231,1797
1115.5748416064907,1807
1117.7406450372605,1767
1119.9058691482942,1738
1122.0705141740304,1780
1124.2345803489884,1892
1126.3980679077658,1839
1128.5609770850388,1870
1130.7233081155623,1778
1132.8850612341707,1745
1135.0462366757774,1732
1137.2068346753745,1824
1139.3668554680326,1742
1141.526299288901,1743
1143.68516637321,1765
1145.8434569562655,1798
1148.001171273455,1785
1150.158309560244,1760
1152.3148720521767,1760
1154.470858984876,1824
1156.626270594044,1747
1158.7811071154629,1762
1160.9353687849912,1780
1163.089055838569,1713
1165.242168512213,1815
1167.3947070420209,1782
1169.5466716641677,1736
1171.6980626149075,1728
1173.8488801305748,1732
1175.9991244475814,1766
1178.1487958024186,1737
1180.2978944316555,1644
1182.4464205719428,1787
1184.5943744600072,1787
1186.7417563326567,1726
1188.8885664267755,1700
1191.0348049793297,1736
1193.1804722273619,1707
1195.325568407995,1763
1197.4700937584303,1755
1199.614048515948,1720
1201.7574329179074,1667
1203.900247201746,1690
1206.042491604982,1721
1208.1841663652099,1782
1210.3252717201053,1731
1212.465807907422,1772
1214.6057751649923,1827
1216.7451737307279,1820
1218.8840038426192,1832
1221.0222657387353,1825
1223.1599596572241,1815
1225.2970858363137,1781
1227.4336445143094,1763
1229.5696359295966,1811
1231.705060320639,1769
1233.8399179259786,1804
1235.9742089842384,1758
1238.107933734118,1732
1240.2410924143974,1827
1242.373685263935,1875
1244.5057125216676,1800
1246.6371744266116,1824
1248.7680712178621,1856
1250.898403134593,1785
1253.028170416058,1815
1255.1573733015875,1854
1257.2860120305932,1851
1259.4140868425648,1817
1261.54159797707,1876
1263.6685456737569,1901
1265.7949301723515,1864
1267.9207517126597,1868
1270.046010534565,1903
1272.1707068780306,1876
1274.2948409830983,1936
1276.4184130898889,1888
1278.541423438603,1892
1280.6638722695184,1951
1282.785759822993,1908
1284.9070863394636,1915
1287.0278520594447,1967
1289.1480572235314,1929
1291.2677020723963,1965
1293.3867868467923,1987
1295.5053117875495,1958
1297.623277135579,1935
1299.740683131868,2050
1301.8575300174857,2025
1303.973818033578,1963
1306.0895474213703,2080
1308.2047184221678,2004
1310.3193312773528,2008
1312.4333862283888,2040
1314.5468835168163,2094
1316.659823384255,2028
1318.7722060724045,1983
1320.8840318230418,2116
1322.9953008780249,2026
1325.1060134792888,1965
1327.2161698688478,2036
1329.3257702887959,2067
1331.4348149813054,2028
1333.5433041886276,2021
1335.6512381530933,2033
1337.7586171171101,1977
1339.8654413231675,2035
1341.9717110138317,2060
1344.0774264317488,1990
1346.1825878196432,2005
1348.2871954203192,2038
1350.3912494766587,1960
1352.4947502316231,1987
1354.5976979282532,2013
1356.7000928096686,2002
1358.8019351190665,1952
1360.9032250997243,1956
1363.0039629949988,2005
1365.1041490483235,2005
1367.2037835032133,1938
1369.3028666032606,1999
1371.401398592137,1996
1373.4993797135926,1971
1375.5968102114575,2009
1377.6936903296396,2046
1379.7900203121262,1975
1381.8858004029835,2004
1383.9810308463561,1952
1386.075711886469,1968
1388.1698437676241,1988
1390.2634267342032,1982
1392.356461030667,2068
1394.4489469015557,2077
1396.5408845914872,1998
1398.6322743451592,2006
1400.7231164073469,2004
1402.813411022907,2047
1404.903158436773,2018
1406.9923588939578,2021
1409.0810126395531,2145
1411.1691199187303,2090
1413.2566809767386,2137
1415.343696058907,2121
1417.4301654106425,2154
1419.5160892774315,2093
1421.6014679048399,2125
1423.6863015385125,2150
1425.7705904241707,2189
1427.8543348076178,2170
1429.9375349347342,2138
1432.0201910514802,2135
1434.102303403894,2223
1436.1838722380944,2255
1438.2648978002767,2314
1440.3453803367174,2346
1442.4253200937692,2263
1444.5047173178677,2390
1446.5835722555234,2473
1448.6618851533285,2420
1450.739656257952,2401
1452.8168858161434,2484
1454.8935740747306,2529
1456.96972128062,2525
1459.045327680797,2605
1461.120393522327,2578
1463.1949190523528,2708
1465.2689045180973,2781
1467.3423501668608,2772
1469.415256246024,2786
1471.4876230030463,2840
1473.559450685465,2958
1475.6307395408976,2920
1477.7014898170391,2978
1479.771701761665,3066
1481.8413756226287,3031
1483.9105116478618,3068
1485.9791100853772,3148
1488.0471711832643,3199
1490.1146951896926,3201
1492.1816823529098,3231
1494.2481329212433,3288
1496.3140471430984,3298
1498.3794252669609,3412
1500.4442675413939,3343
1502.5085742150404,3435
1504.572345536622,3431
1506.6355817549388,3483
1508.6982831188702,3529
1510.7604498773744,3503
1512.8220822794883,3581
1514.8831805743293,3583
1516.9437450110909,3541
1519.003775839048,3671
1521.0632733075522,3623
1523.1222376660367,3709
1525.1806691640113,3722
1527.2385680510652,3667
1529.2959345768668,3811
1531.3527689911643,3797
1533.4090715437833,3925
1535.4648424846291,3891
1537.5200820636855,4037
1539.5747905310159,3966
1541.6289681367616,3982
1543.6826151311434,4086
1545.7357317644614,4061
1547.7883182870937,4198
1549.8403749494987,4237
1551.8919020022113,4401
1553.9428996958477,4450
1555.9933682811015,4544
1558.0433080087469,4527
1560.0927191296346,4467
1562.1416018946961,4579
1564.1899565549415,4544
1566.2377833614592,4494
1568.2850825654164,4466
1570.3318544180606,4271
1572.3780991707158,4140
1574.423817074788,4050
1576.4690083817595,3841
1578.5136733431923,3599
1580.5578122107272,3482
1582.601425236085,3411
1584.6445126710646,3278
1586.6870747675434,3066
1588.7291117774776,3025
1590.7706239529034,2969
1592.8116115459347,2905
1594.8520748087658,2772
1596.8920139936686,2610
1598.9314293529933,2661
1600.9703211391711,2515
1603.008689604711,2431
1605.0465350022005,2413
1607.0838575843068,2318
1609.1206576037753,2274
1611.1569353134305,2374
1613.1926909661765,2219
1615.2279248149953,2138
1617.2626371129481,2147
1619.2968281131757,2112
1621.3304980688963,2052
1623.3636472334088,2083
1625.39627586009,2040
1627.428384202396,2043
1629.459972513861,1972
1631.4910410480993,2010
1633.5215900588028,1971
1635.551619799744,1899
1637.5811305247717,1916
1639.6101224878166,1890
1641.6385959428862,1908
1643.6665511440683,1901
1645.693988345528,1856
1647.7209078015112,1795
1649.7473097663405,1860
1651.7731944944203,1814
1653.7985622402307,1834
1655.823413258333,1843
1657.847747803366,1877
1659.8715661300494,1795
1661.8948684931793,1850
1663.9176551476316,1785
1665.9399263483624,1787
1667.9616823504057,1811
1669.982923408873,1854
1672.0036497789574,1822
1674.0238617159293,1753
1676.043559475138,1789
1678.0627433120121,1786
1680.081413482059,1707
1682.0995702408654,1758
1684.117213844096,1811
1686.134344547495,1810
1688.1509626068864,1780
1690.1670682781705,1755
1692.182661817329,1733
1694.1977434804217,1808
1696.2123135235875,1840
1698.226372203043,1811
1700.2399197750851,1812
1702.2529564960905,1754
1704.2654826225112,1708
1706.277498410882,1721
1708.2890041178139,1713
1710.2999999999988,1796
1712.3104863142066,1741
1714.3204633172854,1748
1716.329931266163,1707
1718.3388904178469,1773
1720.3473410294214,1718
1722.3552833580516,1697
1724.3627176609807,1689
1726.3696441955308,1707
1728.3760632191033,1710
1730.3819749891782,1751
1732.3873797633146,1733
1734.3922777991502,1725
1736.3966693544012,1711
1738.4005546868639,1683
1740.4039340544127,1699
1742.406807715001,1665
1744.4091759266616,1604
1746.4110389475054,1702
1748.4123970357223,1695
1750.413250449582,1653
1752.4135994474318,1614
1754.4134442876993,1590
1756.4127852288902,1652
1758.4116225295893,1657
1760.4099564484595,1604
1762.407787244244,1664
1764.405115175764,1655
1766.4019405019203,1646
1768.3982634816916,1622
1770.3940843741357,1562
1772.3894034383907,1649
1774.3842209336717,1631
1776.378537119274,1620
1778.372352254571,1627
1780.3656665990156,1553
1782.3584804121397,1602
1784.3507939535534,1610
1786.3426074829463,1661
1788.3339212600863,1506
1790.3247355448211,1581
1792.3150505970766,1636
1794.3048666768573,1596
1796.2941840442477,1617
1798.2830029594106,1613
1800.2713236825884,1618
1802.2591464741004,1562
1804.2464715943465,1550
1806.2332993038058,1568
1808.2196298630352,1616
1810.2054635326708,1638
1812.190800573428,1598
1814.175641246101,1603
1816.1599858115628,1587
1818.1438345307652,1569
1820.127187664738,1569
1822.1100454745924,1556
1824.092408221516,1587
1826.0742761667766,1550
1828.055649571721,1537
1830.0365286977735,1554
1832.0169138064398,1521
1833.9968051593014,1508
1835.9762030180214,1614
1837.9551076443408,1581
1839.9335193000788,1574
1841.9114382471344,1517
1843.888864747485,1557
1845.8657990631878,1534
1847.842241456378,1529
1849.8181921892697,1498
1851.7936515241558,1525
1853.7686197234098,1543
1855.7430970494815,1510
1857.7170837649014,1539
1859.6905801322787,1595
1861.6635864143004,1580
1863.6361028737338,1492
1865.608129773424,1530
1867.5796673762961,1554
1869.5507159453537,1535
1871.521275743678,1563
1873.4913470344313,1565
1875.4609300808534,1552
1877.4300251462632,1583
1879.3986324940588,1571
1881.366752387717,1651
1883.3343850907936,1610
1885.3015308669228,1614
1887.268189979819,1589
1889.2343626932739,1643
1891.2000492711595,1587
1893.1652499774254,1576
1895.1299650761011,1593
1897.0941948312952,1599
1899.0579395071945,1560
1901.0211993680641,1565
1902.98397467825,1601
1904.9462657021745,1646
1906.9080727043415,1628
1908.869395949332,1571
1910.8302357018065,1553
1912.790592226504,1533
1914.7504657882428,1569
1916.7098566519212,1502
1918.6687650825133,1554
1920.6271913450764,1535
1922.5851357047422,1594
1924.5425984267245,1546
1926.499579776314,1605
1928.4560800188833,1631
1930.4120994198802,1578
1932.367638244833,1595
1934.32269675935,1637
1936.2772752291175,1597
1938.231373919899,1590
1940.1849930975404,1536
1942.1381330279637,1557
1944.0907939771696,1497
1946.0429762112412,1540
1947.9946799963363,1535
1949.9459055986945,1599
1951.896653284633,1581
1953.8469233205478,1494
1955.7967159729142,1539
1957.7460315082863,1487
1959.6948701932974,1524
1961.6432322946594,1581
1963.5911180791632,1523
1965.5385278136787,1533
1967.4854617651545,1512
1969.4319202006182,1572
1971.377903387176,1528
1973.3234115920136,1509
1975.268445082395,1488
1977.2130041256642,1526
1979.1570889892423,1490
1981.1006999406304,1570
1983.04383724741,1530
1984.986501177238,1505
1986.928691997853,1518
1988.8704099770712,1584
1990.811655382789,1497
1992.7524284829801,1556
1994.692729545698,1542
1996.6325588390755,1521
1998.5719166313224,1461
2000.5108031907307,1538
2002.4492187856677,1510
2004.387163684583,1508
2006.3246381560011,1465
2008.2616424685298,1498
2010.1981768908527,1462
2012.1342416917332,1525
2014.069837140014,1567
2016.0049635046162,1510
2017.9396210545406,1465
2019.8738100588666,1479
2021.8075307867502,1508
2023.740783507431,1479
2025.6735684902228,1482
2027.6058860045214,1492
2029.5377363198004,1512
2031.4691197056118,1454
2033.4000364315875,1481
2035.3304867674374,1476
2037.260470982952,1518
2039.189989347998,1462
2041.1190421325232,1482
2043.047629606554,1482
2044.9757520401945,1451
2046.9034097036288,1459
2048.8306028671195,1467
2050.7573318010086,1492
2052.683596775716,1475
2054.609398061742,1518
2056.5347359296647,1547
2058.4596106501403,1454
2060.384022493906,1460
2062.3079717317764,1422
2064.231458634646,1472
2066.1544834734873,1485
2068.077046519352,1520
2069.99914804337,1512
2071.9207883167524,1511
2073.8419676107865,1427
2075.7626861968406,1494
2077.6829443463607,1482
2079.6027423308715,1499
2081.522080421977,1443
2083.440958891362,1417
2085.359378010786,1425
2087.2773380520907,1471
2089.194839287196,1450
2091.111881988101,1497
2093.0284664268825,1457
2094.9445928756973,1456
2096.86026160678,1471
2098.775472892446,1534
2100.690227005088,1503
2102.604524217178,1475
2104.5183648012676,1507
2106.431749029985,1446
2108.34467717604,1531
2110.2571495122206,1439
2112.169166311393,1471
2114.080727846503,1537
2115.9918343905747,1458
2117.902486216711,1561
2119.8126835980956,1454
2121.722426807987,1502
2123.6317161197285,1481
2125.5405518067364,1563
2127.448934142509,1486
2129.356863400624,1508
2131.264339854737,1466
2133.1713637785815,1529
2135.077935445972,1526
2136.9840551308002,1506
2138.889723107037,1503
2140.7949396487334,1520
2142.699705030018,1502
2144.6040195250994,1489
2146.507883408264,1572
2148.4112969538774,1529
2150.3142604363848,1545
2152.2167741303097,1535
2154.1188383102535,1563
2156.0204532508997,1575
2157.9216192270064,1538
2159.822336513414,1591
2161.7226053850413,1523
2163.622426116884,1512
2165.5217989840185,1545
2167.4207242616,1563
2169.319202224862,1498
2171.2172331491165,1596
2173.1148173097563,1514
2175.0119549822507,1594
2176.90864644215,1588
2178.8048919650823,1547
2180.7006918267534,1591
2182.596046302952,1561
2184.4909556695407,1540
2186.3854202024645,1628
2188.279440177746,1585
2190.173015871487,1495
2192.066147559868,1506
2193.958835519149,1565
2195.851080025667,1479
2197.7428813558417,1541
2199.6342397861667,1534
2201.5251555932186,1560
2203.415629053651,1601
2205.3056604441986,1625
2207.19525004167,1580
2209.084398122958,1572
2210.9731049650327,1549
2212.861370844941,1518
2214.749196039812,1610
2216.636580826851,1596
2218.523525483344,1580
2220.410030286655,1598
2222.296095514226,1566
2224.1817214435805,1565
2226.066908352319,1549
2227.951656518121,1587
2229.835966218746,1530
2231.71983773203,1545
2233.6032713358913,1474
2235.486267308324,1601
2237.3688259274036,1592
2239.2509474712824,1597
2241.132632218193,1582
2243.013880446447,1596
2244.8946924344323,1561
2246.7750684606203,1602
2248.6550088035574,1571
2250.534513741871,1616
2252.413583554265,1579
2254.292218519526,1566
2256.170418916517,1581
2258.0481850241786,1557
2259.925517121534,1547
2261.8024154876825,1571
2263.678880401803,1582
2265.5549121431536,1564
2267.430510991071,1583
2269.305677224971,1578
2271.180411124348,1517
2273.0547129687766,1592
2274.9285830379076,1509
2276.8020216114737,1521
2278.6750289692845,1522
2280.5476053912294,1538
2282.4197511572766,1592
2284.2914665474727,1599
2286.162751841943,1604
2288.0336073208937,1636
2289.904033264608,1626
2291.774029953448,1602
2293.6435976678554,1609
2295.5127366883517,1581
2297.381447295534,1499
2299.2497297700825,1447
2301.1175843927526,1466
2302.9850114443825,1470
2304.852011205885,1460
2306.7185839582553,1456
2308.5847299825664,1422
2310.4504495599676,1406
2312.3157429716925,1399
2314.1806104990483,1420
2316.0450524234247,1409
2317.9090690262888,1410
2319.772660589186,1433
2321.635827393742,1376
2323.498569721661,1410
2325.3608878547248,1368
2327.2227820747967,1399
2329.0842526638157,1406
2330.945299903803,1438
2332.805924076857,1369
2334.6661254651535,1417
2336.525904350951,1423
2338.3852610165827,1374
2340.244195744464,1345
2342.102708817088,1424
2343.9608005170253,1402
2345.8184711269287,1415
2347.675720929526,1345
2349.532550207628,1346
2351.38895924412,1404
2353.24494832197,1456
2355.100517724223,1505
2356.955667734004,1412
2358.810398634514,1469
2360.664710709037,1472
2362.5186042409337,1421
2364.3720795136437,1439
2366.225136810686,1431
2368.0777764156583,1428
2369.929998612237,1479
2371.7818036841777,1497
2373.633191915315,1398
2375.484163589562,1489
2377.3347189909114,1487
2379.184858403434,1407
2381.03458211128,1424
2382.8838903986775,1465
2384.732783549936,1479
2386.5812618494406,1410
2388.4293255816588,1439
2390.2769750311327,1473
2392.1242104824883,1415
2393.971032220427,1527
2395.8174405297295,1451
2397.6634356952563,1483
2399.509018001947,1473
2401.3541877348193,1426
2403.1989451789705,1422
2405.043290619576,1449
2406.8872243418905,1456
2408.730746631247,1394
2410.5738577730594,1476
2412.4165580528183,1407
2414.258847756095,1457
2416.100727168537,1420
2417.9421965758734,1485
2419.783256263912,1492
2421.623906518538,1519
2423.4641476257157,1453
2425.303979871491,1404
2427.143403541984,1495
2428.9824189233977,1519
2430.821026302012,1415
2432.6592259641866,1475
2434.497018196361,1479
2436.33440328505,1478
2438.171381516851,1496
2440.00795317844,1520
2441.844118556569,1508
2443.6798779380724,1420
2445.5152316098606,1503
2447.3501798589255,1505
2449.1847229723357,1466
2451.0188612372403,1452
2452.8525949408663,1519
2454.6859243705203,1492
2456.518849813587,1494
2458.3513715575314,1443
2460.183489889895,1484
2462.015205098301,1488
2463.8465174704493,1471
2465.67742729412,1457
2467.5079348571717,1470
2469.338040447542,1462
2471.1677443532476,1511
2472.9970468623833,1499
2474.825948263123,1503
2476.6544488437207,1563
2478.482548892508,1553
2480.310248697896,1497
2482.137548548374,1510
2483.9644487325118,1454
2485.790949538956,1457
2487.617051256433,1508
2489.44275417375,1505
2491.26805857979,1493
2493.0929647635157,1543
2494.917473013971,1492
2496.741583620276,1456
2498.5652968716304,1531
2500.3886130573137,1508
2502.2115324666834,1495
2504.0340553891765,1530
2505.856182114308,1580
2507.6779129316733,1526
2509.499248130945,1542
2511.3201880018764,1567
2513.140732834298,1503
2514.9608829181198,1538
2516.780638543331,1543
2518.6,1576
2520.418967578273,1588
2522.237541568376,1584
2524.0557222606144,1550
2525.8735099453706,1636
2527.6909049131086,1582
2529.507907454368,1600
2531.32451785977,1589
2533.140736420014,1570
2534.9565634258774,1573
2536.771999168218,1632
2538.5870439379714,1677
2540.4016980261526,1688
2542.2159617238544,1697
2544.02983532225,1676
2545.8433191125914,1666
2547.656413386209,1741
2549.4691184345115,1749
2551.2814345489874,1742
2553.093362021204,1685
2554.904901142808,1694
2556.716052205523,1780
2558.526815501153,1800
2560.3371913215824,1750
2562.147179958771,1748
2563.956781704761,1757
2565.7659968516705,1786
2567.5748256916986,1811
2569.3832685171224,1770
2571.1913256202984,1754
2572.9989972936614,1848
2574.806283829725,1852
2576.613185521084,1879
2578.4197026604074,1841
2580.2258355404483,1939
2582.031584454035,1880
2583.836949694077,1876
2585.6419315535613,1911
2587.4465303255533,1805
2589.2507463032002,1862
2591.0545797797245,1901
2592.8580310484303,1807
2594.6611004026995,1906
2596.463788135992,1860
2598.266094541849,1903
2600.0680199138874,1909
2601.869564545807,1883
2603.670728731383,1852
2605.4715127644704,1895
2607.2719169390048,1948
2609.071941548998,1917
2610.8715868885433,1942
2612.670853251811,1885
2614.469740933052,1908
2616.268250226594,1923
2618.0663814268455,1866
2619.864134828292,1859
2621.6615107255006,1901
2623.458509413115,1832
2625.2551311858597,1830
2627.0513763385347,1870
2628.8472451660223,1827
2630.6427379632833,1820
2632.4378550253564,1768
2634.232596647359,1736
2636.026963124488,1783
2637.8209547520187,1759
2639.6145718253065,1762
2641.407814639785,1752
2643.200683490966,1712
2644.9931786744414,1751
2646.7853004858807,1672
2648.577049221034,1700
2650.3684251757277,1739
2652.1594286458712,1744
2653.9500599274484,1673
2655.740319316525,1654
2657.5302071092437,1626
2659.3197236018286,1627
2661.10886909058,1659
2662.8976438718782,1617
2664.686048242183,1624
2666.4740824980327,1593
2668.2617469360443,1604
2670.0490418529134,1628
2671.8359675454153,1600
2673.622524310403,1616
2675.408712444811,1566
2677.1945322456495,1573
2678.979984010009,1615
2680.76506803506,1588
2682.5497846180497,1546
2684.334134056306,1492
2686.1181166472343,1515
2687.9017326883213,1477
2689.6849824771293,1527
2691.4678663113013,1534
2693.2503844885596,1473
2695.032537306705,1549
2696.8143250636167,1498
2698.5957480572542,1493
2700.3768065856534,1478
2702.1575009469316,1474
2703.937831439283,1543
2705.717798360982,1467
2707.4974020103837,1483
2709.276642685917,1434
2711.055520686095,1426
2712.834036309506,1485
2714.612189854819,1536
2716.389981620782,1484
2718.1674119062204,1409
2719.944481010041,1481
2721.721189231226,1444
2723.4975368688415,1490
2725.273524222027,1472
2727.0491515900053,1492
2728.824419272075,1430
2730.5993275676146,1423
2732.3738767760838,1477
2734.148067197016,1483
2735.921899130031,1472
2737.6953728748194,1404
2739.468488731156,1436
2741.2412469988926,1477
2743.0136479779617,1461
2744.785691968372,1405
2746.5573792702116,1467
2748.3287101836504,1395
2750.099685008934,1366
2751.870304046388,1410
2753.640567596418,1403
2755.4104759595057,1461
2757.1800294362156,1446
2758.949228327187,1404
2760.7180729331412,1404
2762.486563554877,1382
2764.254700493272,1399
2766.022484049284,1436
2767.789914523947,1413
2769.5569922183786,1362
2771.3237174337705,1398
2773.090090471394,1381
2774.8561116326036,1449
2776.6217812188274,1366
2778.3870995315756,1368
2780.1520668724356,1374
2781.9166835430747,1339
2783.6809498452394,1402
2785.444866080754,1439
2787.2084325515225,1396
2788.971649559527,1446
2790.73451740683,1391
2792.4970363955713,1415
2794.2592068279705,1341
2796.0210290063264,1359
2797.7825032330147,1372
2799.543629810493,1366
2801.304409041296,1359
2803.0648412280366,1374
2804.8249266734088,1408
2806.5846656801846,1431
2808.344058551212,1364
2810.1031055894246,1406
2811.8618070978273,1351
2813.6201633795085,1399
2815.378174737636,1409
2817.1358414754536,1339
2818.893163896285,1382
2820.6501423035334,1378
2822.4067770006814,1380
2824.1630682912883,1381
2825.9190164789957,1339
2827.6746218675207,1357
2829.429884760661,1386
2831.184805462294,1367
2832.9393842763743,1382
2834.693621506936,1358
2836.4475174580916,1369
2838.201072434034,1416
2839.954286739034,1384
2841.707160677441,1440
2843.459694553685,1361
2845.2118886722724,1404
2846.96374333779,1367
2848.7152588549034,1402
2850.4664355283567,1397
2852.217273662973,1362
2853.9677735636546,1387
2855.7179355353833,1356
2857.4677598832186,1374
2859.217246912299,1395
2860.9663969278427,1381
2862.715210235146,1403
2864.4636871395846,1374
2866.211827946614,1414
2867.9596329617652,1351
2869.7071024906536,1334
2871.4542368389684,1379
2873.20103631248,1358
2874.947501217038,1362
2876.6936318585695,1362
2878.4394285430812,1344
2880.1848915766604,1458
2881.9300212654707,1370
2883.6748179157553,1348
2885.4192818338374,1336
2887.1634133261173,1402
2888.907212699077,1382
2890.6506802592744,1406
2892.393816313348,1402
2894.1366211680142,1350
2895.8790951300693,1443
2897.621238506388,1366
2899.363051603925,1426
2901.1045347297118,1372
2902.8456881908596,1415
2904.58651229456,1383
2906.327007348081,1359
2908.067173658772,1382
2909.8070115340597,1428
2911.5465212814497,1337
2913.285703208527,1415
2915.0245576229563,1373
2916.7630848324807,1354
2918.5012851449196,1402
2920.2391588681758,1367
2921.976706310227,1343
2923.7139277791334,1366
2925.4508235830313,1341
2927.187394030137,1360
2928.923639428745,1360
2930.6595600872306,1374
2932.395156314046,1402
2934.1304284177218,1384
2935.8653767068713,1402
2937.6000014901815,1383
2939.3343030764227,1445
2941.068281774442,1343
2942.8019378931644,1357
2944.5352717415976,1369
2946.2682836288236,1360
2948.0009738640065,1343
2949.7333427563885,1388
2951.465390615289,1356
2953.1971177501086,1435
2954.9285244703265,1366
2956.6596110855,1394
2958.3903779052657,1391
2960.1208252393385,1360
2961.8509533975125,1386
2963.5807626896617,1388
2965.3102534257378,1352
2967.0394259157715,1358
2968.768280469873,1402
2970.496817398232,1363
2972.2250370111146,1358
2973.952939618869,1389
2975.6805255319196,1394
2977.4077950607707,1373
2979.134748516006,1377
2980.861386208289,1407
2982.587708448359,1319
2984.313715547037,1434
2986.039407815222,1392
2987.764785563891,1290
2989.489849104102,1414
2991.2145987469908,1386
2992.9390348037705,1432
2994.6631575857346,1443
2996.3869674042576,1402
2998.1104645707887,1398
2999.83364939686,1353
3001.5565221940783,1315
3003.2790832741334,1359
3005.0013329487924,1374
3006.7232715298996,1342
3008.4448993293804,1373
3010.166216659239,1307
3011.887223831558,1365
3013.607921158498,1380
3015.3283089522993,1381
3017.0483875252826,1345
3018.7681571898443,1311
3020.4876182584626,1389
3022.2067710436927,1323
3023.9256158581707,1370
3025.644153014609,1355
3027.362382825801,1361
3029.0803056046193,1431
3030.797921664012,1376
3032.5152313170106,1371
3034.2322348767225,1345
3035.9489326563353,1371
3037.665324969115,1348
3039.3814121284063,1368
3041.097194447633,1413
3042.812672240299,1323
3044.5278458199855,1345
3046.2427155003525,1368
3047.9572815951406,1332
3049.671544418167,1376
3051.38550428333,1374
3053.0991615046073,1373
3054.812516396051,1359
3056.5255692717974,1340
3058.2383204460575,1299
3059.9507702331257,1344
3061.662918947372,1348
3063.3747669032446,1395
3065.0863144152736,1346
3066.7975617980674,1354
3068.508509366309,1392
3070.219157434767,1318
3071.9295063182844,1344
3073.639556331785,1322
3075.3493077902704,1368
3077.058761008821,1317
3078.7679163025964,1325
3080.476773986837,1362
3082.1853343768594,1381
3083.89359778806,1392
3085.6015645359153,1392
3087.3092349359786,1353
3089.016609303884,1408
3090.7236879553434,1446
3092.4304712061476,1342
3094.136959372166,1394
3095.843152769349,1405
3097.5490517137237,1355
3099.2546565213966,1329
3100.959967508554,1347
3102.66498499146,1368
3104.3697092864577,1338
3106.0741407099695,1351
3107.778279578498,1340
3109.482126208622,1369
3111.1856809170004,1391
3112.8889440203716,1401
3114.5919158355528,1358
3116.294596679439,1353
3117.996986869006,1351
3119.6990867213062,1389
3121.4008965534726,1388
3123.102416682717,1396
3124.803647426329,1400
3126.5045891016784,1321
3128.205242026213,1366
3129.90560651746,1332
3131.605682893025,1390
3133.3054714705922,1342
3135.0049725679282,1334
3136.7041865028714,1349
3138.4031135933465,1311
3140.101754157353,1359
3141.800108512971,1400
3143.498176978357,1320
3145.1959598717494,1341
3146.8934575114636,1322
3148.5906702158954,1354
3150.2875983035183,1367
3151.9842420928853,1297
3153.680601902627,1367
3155.376678051456,1354
3157.07247085816,1363
3158.767980641609,1341
3160.463207720748,1379
3162.158152414606,1350
3163.8528150422862,1320
3165.5471959229726,1353
3167.2412953759303,1356
3168.9351137204976,1376
3170.628651276098,1383
3172.3219083622307,1313
3174.014885298474,1300
3175.707582404485,1317
3177.4000000000005,1339
3179.092138404835,1354
3180.7839979388846,1374
3182.47557892212,1385
3184.166881674594,1339
3185.8579065164386,1385
3187.5486537678626,1337
3189.2391237491547,1359
3190.9293167806827,1358
3192.6192331828934,1392
3194.3088732763117,1414
3195.998237381542,1322
3197.687325819268,1327
3199.376138910251,1384
3201.064676975334,1396
3202.7529403354347,1320
3204.4409293115523,1355
3206.1286442247647,1325
3207.816085396229,1282
3209.5032531471825,1280
3211.190147798936,1322
3212.8767696728846,1306
3214.5631190905015,1344
3216.2491963733373,1338
3217.9350018430214,1360
3219.6205358212637,1301
3221.305798629851,1294
3222.990790590651,1335
3224.6755120256103,1346
3226.359963256751,1296
3228.0441446061795,1343
3229.7280563960758,1321
3231.411698948703,1277
3233.0950725863995,1305
3234.778177631587,1312
3236.461014406761,1341
3238.1435832345005,1329
3239.8258844374595,1333
3241.507918338374,1287
3243.1896852600576,1331
3244.8711855254023,1383
3246.552419457381,1355
3248.233387379042,1331
3249.914089613516,1303
3251.59452648401,1348
3253.274698313813,1253
3254.95460542629,1278
3256.6342481448855,1319
3258.313626793125,1309
3259.9927416946084,1310
3261.6715931730196,1305
3263.3501815521176,1291
3265.0285071557437,1320
3266.706570307815,1334
3268.3843713323286,1292
3270.0619105533615,1275
3271.739188295068,1355
3273.4162048816834,1298
3275.0929606375184,1253
3276.769455886966,1314
3278.445690954498,1280
3280.1216661646613,1376
3281.797381842087,1314
3283.4728383114807,1339
3285.1480358976296,1307
3286.8229749253996,1276
3288.4976557197333,1329
3290.172078605655,1308
3291.846243908266,1328
3293.5201519527463,1285
3295.193803064357,1264
3296.8671975684374,1312
3298.5403357904024,1340
3300.21321805575,1337
3301.8858446900567,1313
3303.558216018975,1299
3305.23033236824,1289
3306.9021940636603,1306
3308.57380143113,1320
3310.2451547966184,1288
3311.916254486174,1319
3313.5871008259246,1372
3315.2576941420766,1321
3316.9280347609147,1310
3318.5981230088046,1356
3320.2679592121895,1304
3321.9375436975924,1331
3323.606876791612,1324
3325.27595882093,1279
3326.944790112305,1276
3328.6133709925753,1332
3330.2817017886573,1221
3331.949782827547,1283
3333.617614436319,1290
3335.2851969421245,1299
3336.952530672199,1253
3338.619615953853,1332
3340.286453114475,1344
3341.9530424815357,1281
3343.619384382583,1293
3345.2854791452437,1279
3346.951327097224,1359
3348.6169285663073,1375
3350.2822838803577,1347
3351.947393367319,1300
3353.61225735521,1258
3355.2768761721345,1363
3356.9412501462693,1279
3358.605379605873,1320
3360.2692648792827,1281
3361.9329062949146,1346
3363.596304181263,1255
