CollectionTime,9/19/2024 11:16:35 AM
ExposureUsed,3
CalibratedSpectrum
-962.7078968117929,610
-959.9714848408522,630
-957.2358232597828,684
-954.5009119013725,685
-951.7667505983302,706
-949.0333391832855,701
-946.3006774887896,698
-943.5687653473143,715
-940.837602591253,705
-938.1071890529199,760
-935.3775245645503,711
-932.6486089583007,657
-929.9204420662485,641
-927.1930237203925,677
-924.4663537526524,697
-921.7404319948689,722
-919.0152582788041,713
-916.2908324361409,704
-913.5671542984834,679
-910.8442236973568,666
-908.1220404642074,698
-905.4006044304027,683
-902.679915427231,704
-899.959973285902,652
-897.2407778375464,661
-894.5223289132158,630
-891.8046263438832,695
-889.0876699604426,699
-886.3714595937089,680
-883.6559950744183,625
-880.9412762332282,633
-878.2273029007168,669
-875.5140749073835,672
-872.8015920836489,669
-870.0898542598545,585
-867.3788612662631,628
-864.6686129330585,636
-861.9591090903457,632
-859.2503495681506,659
-856.5423341964203,649
-853.8350628050229,647
-851.1285352237478,636
-848.4227512823054,697
-845.7177108103272,646
-843.0134136373656,637
-840.3098595928943,654
-837.6070485063082,667
-834.9049802069229,661
-832.2036545239757,665
-829.5030712866244,641
-826.8032303239481,661
-824.1041314649472,645
-821.4057745385428,683
-818.7081593735775,693
-816.0112857988148,666
-813.3151536429393,641
-810.6197627345566,651
-807.9251129021936,634
-805.2312039742981,649
-802.5380357792392,658
-799.8456081453069,659
-797.1539209007124,700
-794.462973873588,668
-791.772766891987,696
-789.083299783884,719
-786.3945723771743,700
-783.7065844996748,672
-781.0193359791231,675
-778.3328266431781,648
-775.6470563194197,669
-772.9620248353489,671
-770.2777320183878,673
-767.5941776958798,724
-764.9113616950891,672
-762.2292838432011,658
-759.5479439673222,651
-756.8673418944801,683
-754.1874774516235,685
-751.5083504656222,670
-748.8299607632671,679
-746.15230817127,716
-743.475392516264,663
-740.7992136248035,677
-738.1237713233636,676
-735.4490654383407,704
-732.7750957960521,695
-730.1018622227365,646
-727.4293645445534,707
-724.7576025875837,690
-722.0865761778291,709
-719.4162851412126,742
-716.7467293035781,722
-714.0779084906909,718
-711.409822528237,697
-708.7424712418238,730
-706.0758544569796,734
-703.4099719991541,744
-700.7448236937178,701
-698.0804093659622,721
-695.4167288411002,671
-692.7537819442656,751
-690.0915685005134,750
-687.4300883348199,684
-684.7693412720819,767
-682.1093271371178,767
-679.4500457546669,753
-676.7914969493897,723
-674.1336805458676,744
-671.4765963686034,776
-668.8202442420206,775
-666.1646239904642,751
-663.5097354382001,732
-660.8555784094151,708
-658.2021527282176,765
-655.5494582186366,786
-652.8974947046223,818
-650.2462620100463,763
-647.5957599587009,790
-644.9459883742998,815
-642.2969470804776,807
-639.6486359007902,826
-637.0010546587141,818
-634.3542031776476,822
-631.7080812809096,816
-629.0626887917401,757
-626.4180255333008,820
-623.7740913286734,836
-621.1308860008619,854
-618.4884093727904,814
-615.8466612673046,782
-613.2056415071715,783
-610.5653499150785,787
-607.9257863136347,854
-605.28695052537,837
-602.6488423727357,802
-600.0114616781036,817
-597.3748082637674,838
-594.7388819519412,903
-592.1036825647604,872
-589.4692099242818,832
-586.8354638524829,837
-584.2024441712624,862
-581.5701507024403,829
-578.9385832677575,846
-576.3077416888759,804
-573.6776257873787,809
-571.0482353847704,792
-568.4195703024757,841
-565.7916303618415,784
-563.164415384135,818
-560.5379251905453,834
-557.9121596021815,812
-555.2871184400748,818
-552.6628015251767,850
-550.0392086783606,889
-547.4163397204204,902
-544.794194472071,933
-542.1727727539491,903
-539.5520743866118,896
-536.9320991905377,875
-534.3128469861261,912
-531.6943175936979,979
-529.0765108334947,931
-526.4594265256793,1080
-523.8430644903358,1275
-521.2274245474689,1431
-518.612506517005,1490
-515.9983102187913,1533
-513.3848354725959,1553
-510.77208209810846,1586
-508.16004991493924,1697
-505.5487387426199,1796
-502.9381484006032,1785
-500.3282787082628,1715
-497.71912948489364,1720
-495.1107005497117,1640
-492.5029917218539,1445
-489.8960028203786,1298
-487.28973366426493,1235
-484.68418407241325,1126
-482.07935386364494,1074
-479.47524285670266,994
-476.87185087025,993
-474.2691777228715,1017
-471.66722323307334,1003
-469.0659872192821,1059
-466.4654694998459,1062
-463.86566989303384,996
-461.26658821703614,1046
-458.66822428996414,1086
-456.07057792985,1057
-453.4736489546475,1008
-450.877437182231,975
-448.28194243039627,956
-445.68716451686,1009
-443.09310325926003,948
-440.49975847515555,985
-437.9071299820263,972
-435.31521759727354,1023
-432.72402113821954,1028
-430.13354042210767,1005
-427.5437752661022,1069
-424.95472548728867,1049
-422.36639090267386,1090
-419.7787713291855,1142
-417.1918665836721,1040
-414.60567648290385,1099
-412.0202008435715,1036
-409.4354394822874,1049
-406.8513922155845,1062
-404.26805885991723,1125
-401.685439231661,1117
-399.103533147112,1096
-396.522340422488,1081
-393.9418608739278,1052
-391.3620943174908,1012
-388.7830405691583,971
-386.2046994448317,993
-383.6270707603344,955
-381.05015433141045,946
-378.473949973725,890
-375.8984575028645,835
-373.32367673433623,791
-370.74960748356875,736
-368.1762495659117,763
-365.60360279663576,634
-363.03166699093265,571
-360.4604419639154,597
-357.8899275306178,527
-355.32012350599507,575
-352.7510297049233,538
-350.1826459421999,560
-347.61497203254316,531
-345.04800779059235,517
-342.4817530309082,509
-339.91620756797226,607
-337.35137121618743,647
-334.7872437898774,579
-332.22382510328725,518
-329.66111497058273,529
-327.09911320585127,587
-324.53781962310075,523
-321.9772340362607,520
-319.4173562591816,509
-316.8581861056348,517
-314.2997233893127,527
-311.7419679238294,596
-309.1849195227194,593
-306.62857799943856,621
-304.0729431673641,549
-301.51801483979375,564
-298.963792829947,543
-296.41027695096386,565
-293.85746701590574,599
-291.3053628377552,598
-288.7539642294155,641
-286.2032710037115,749
-283.65328297338897,665
-281.1039999511146,686
-278.5554217494762,610
-276.007548180983,614
-273.4603790580651,597
-270.9139141930734,666
-268.3681533982807,661
-265.8230964858798,703
-263.27874326798565,785
-260.7350935566336,788
-258.1921471637804,783
-255.6499039013039,797
-253.10836358100266,801
-250.56752601459698,772
-248.02739101372765,830
-245.48795838995704,847
-242.94922795476816,887
-240.41119951956557,810
-237.8738728956746,715
-235.33724789434166,768
-232.80132432673452,819
-230.2661020039418,749
-227.73158073697357,814
-225.19776033676033,862
-222.66464061415422,1015
-220.1322213799284,975
-217.60050244477725,904
-215.06948361931552,878
-212.53916471408013,1056
-210.00954553952818,1039
-207.48062590603843,913
-204.9524056239104,838
-202.4248845033651,920
-199.8980623545441,977
-197.37193898751036,1061
-194.84651421224817,1169
-192.32178783866232,924
-189.79775967657952,931
-187.27442953574644,1194
-184.7517972258321,1175
-182.2298625564256,1092
-179.7086253370378,931
-177.18808537710026,961
-174.66824248596583,1162
-172.14909647290835,1232
-169.6306471471229,1304
-167.11289431772548,1185
-164.59583779375328,1198
-162.07947738416453,1269
-159.5638128978386,1546
-157.04884414357605,1661
-154.53457093009854,1520
-152.02099306604828,1176
-149.50811035998936,1162
-146.99592262040665,1466
-144.48442965570587,1665
-141.97363127421409,1860
-139.46352728417958,1979
-136.95411749377126,1853
-134.44540171107985,1533
-131.93737974411636,1225
-129.43005140081357,1230
-126.92341648902493,1695
-124.41747481652521,2259
-121.91222619101006,2827
-119.40767042009657,2853
-116.90380731132257,2591
-114.40063667214702,2993
-111.8981583099503,4054
-109.3963720320337,5726
-106.89527764561933,8823
-104.39487495785067,11047
-101.89516377579241,14205
-99.39614390642998,18203
-96.89781515667039,25149
-94.40017733334128,30227
-91.90323024319173,26196
-89.40697369289148,17086
-86.91140748903172,10170
-84.41653143812482,7378
-81.92234534660395,12489
-79.42884902082358,20427
-76.93604226705907,25368
-74.4439248915071,23522
-71.95249670028534,19119
-69.46175749943245,15238
-66.97170709490854,11781
-64.48234529259423,8728
-61.99367189829195,7049
-59.50568671772464,8080
-57.01838955653636,10061
-54.53178022029283,12123
-52.045858514480074,13433
-49.560624244506016,16268
-47.07607721569923,17601
-44.59221723330904,19018
-42.10904410250669,20454
-39.62655762838392,20617
-37.14475761595372,21429
-34.66364387015028,22070
-32.18321619582866,27529
-29.70347439776515,29143
-27.224418280657005,26243
-24.74604764912317,34381
-22.26836230770266,58765
-19.7913620608565,65034
-17.315046712966478,65034
-14.83941606833514,65034
-12.36446993118659,65034
-9.89020810566592,65034
-7.416630395839093,65034
-4.94373660569363,65034
-2.471526539137585,65034
-6.821210263296962E-13,65034
2.47084320796705,65034
4.941003281093458,65034
7.410480415786196,65034
9.879274808531363,65034
12.347386655893956,65034
14.814816154518212,65034
17.28156350112681,65034
19.74762889252179,65034
22.21301252558385,26342
24.67771459727237,8701
27.141735304626195,9175
29.605074844762612,8610
32.06773341487792,6935
34.52971121224755,5907
36.99100843422559,5396
39.45162527824516,4477
41.91156194181792,4780
44.370818622535126,5197
46.82939551806646,4507
49.287292826160524,7440
51.74451074464503,7584
54.201049471426245,5014
56.65690920448981,3089
59.112090141899785,2705
61.56659248179983,2822
64.02041642241159,3499
66.4735621620365,3781
68.92602989905402,4699
71.37781983192338,4512
73.82893215918205,3053
76.27936707944684,2622
78.72912479141326,2705
81.17820549385567,2903
83.62660938562783,2555
86.07433666566146,1790
88.5213875329681,1682
90.96776218663751,2256
93.41346082583925,2553
95.85848364982041,2786
98.30283085790859,2468
100.7465026495089,2008
103.18949922410604,1731
105.63182078126385,1515
108.07346752062438,1463
110.51443964190923,1366
112.95473734491827,1281
115.39436082953114,1530
117.83331029570547,1651
120.27158594347827,1765
122.7091879729652,1564
125.1461165843615,1513
127.58237197794062,1316
130.01795435405518,1378
132.4528639131364,1408
134.88710085569494,1416
137.32066538231982,1621
139.75355769367923,1640
142.1857779905207,1447
144.61732647366978,1221
147.04820334403132,1150
149.47840880258934,1249
151.90794305040674,1307
154.33680628862487,1457
156.76499871846443,1598
159.19252054122433,1804
161.61937195828352,1785
164.04555317109896,1858
166.47106438120693,2139
168.89590579022217,2281
171.320077599839,2556
173.7435800118302,2483
176.16641322804742,2771
178.58857745042144,2767
181.01007288096173,2800
183.43089972175687,2760
185.85105817497413,2722
188.27054844285988,2711
190.6893707277394,2843
193.10752523201643,2855
195.5250121581745,2906
197.9418317087751,2838
200.3579840864594,2949
202.7734694939469,3069
205.18828813403627,3175
207.6024402096051,3052
210.01592592360964,3000
212.42874547908548,3060
214.84089907914665,3029
217.2523869269868,2926
219.66320922587727,3037
222.0733661791695,2942
224.48285799029293,2910
226.8916848627572,3084
229.29984700014882,3170
231.7073446061355,3035
234.11417788446204,3140
236.520347038953,3278
238.92585227351185,3241
241.33069379212054,3481
243.73487179884035,3431
246.1383864978112,3322
248.541238093252,3443
250.9434267894609,3564
253.34495279081432,3526
255.74581630176783,3464
258.1460175268563,3524
260.54555667069314,3490
262.9444339379703,3578
265.3426495334594,3616
267.7402036620107,3482
270.1370965285529,3313
272.53332833809407,3225
274.9288992957214,3111
277.32380960660055,3005
279.718059475976,2970
282.1116491091717,3025
284.5045787115897,2913
286.89684848871195,2817
289.2884586460981,2845
291.67940938938807,3005
294.0697009242996,3047
296.4593334566299,2916
298.84830719225477,2899
301.23662233712923,2824
303.6242790972866,2756
306.01127767884,2726
308.39761828798066,2735
310.78330113097934,2699
313.16832641418534,2587
315.5526943440269,2525
317.9364051270112,2663
320.3194589697242,2705
322.70185607883093,2637
325.0835966610754,2559
327.4646809232805,2529
329.8451090723478,2510
332.2248813152577,2469
334.6039978590701,2459
336.9824589109231,2408
339.36026467803447,2555
341.7374153677,2385
344.113911187295,2383
346.48975234427337,2327
348.8649390461686,2363
351.2394715005918,2364
353.61334991523415,2452
355.9865744978655,2359
358.35914545633375,2434
360.73106299856715,2366
363.10232733257146,2261
365.47293866643247,2348
367.84289720831396,2278
370.2122031664593,2217
372.5808567491905,2250
374.9488581649083,2222
377.31620762209275,2246
379.6829053293021,2359
382.0489514951745,2297
384.4143463284262,2146
386.7790900378528,2240
389.14318283232853,2210
391.50662492080653,2214
393.86941651231916,2251
396.23155781597745,2170
398.5930490409713,2236
400.9538903965696,2237
403.3140820921202,2222
405.6736243370498,2199
408.03251734086336,2092
410.3907613131465,2138
412.74835646356166,2162
415.10530300185144,2122
417.4616011378372,2168
419.81725108141893,2185
422.1722530425758,2086
424.5266072313656,2116
426.880313857925,2164
429.2333731324701,2146
431.58578526529516,2053
433.9375504667738,2166
436.2886689473588,2056
438.63914091758113,1963
440.9889665880513,2045
443.33814616945835,2033
445.68667987257015,2107
448.03456790823395,2082
450.3818104873759,1995
452.72840782100013,2047
455.07436012019105,2074
457.41966759611057,2124
459.7643304600007,1968
462.10834892318155,2007
464.4517231970525,2057
466.79445349309174,2054
469.1365400228566,2123
471.4779829979826,2162
473.81878263018564,2051
476.15893913125876,2101
478.4984527130747,2160
480.8373235875855,2250
483.17555196682144,2229
485.5131380628919,2242
487.8500820879857,2337
490.1863842543697,2487
492.52204477439034,2709
494.8570638604725,2884
497.1914417251204,3086
499.52517858091653,3488
501.85827464052306,3771
504.19073011668036,3801
506.5225452222086,3984
508.85372017000566,3944
511.18425517304956,4114
513.514150444396,4783
515.8434061971808,6083
518.1720226446176,6833
520.4999999999999,7032
522.8273384766991,6785
525.1540382881666,6417
527.480099647932,5561
529.8055227696037,4449
532.1303078668694,3325
534.454455153496,2638
536.777964843328,2339
539.1008371502907,2246
541.4230722883866,2277
543.744670471698,2236
546.0656319143858,2207
548.3859568306899,2142
550.7056454349294,2217
553.0246979415016,2255
555.3431145648834,2116
557.6608955196306,2053
559.978041020377,2093
562.2945512818363,2089
564.6104265188006,2141
566.9256669461412,2089
569.2402727788082,2090
571.5542442318302,2140
573.8675815203156,2163
576.1802848594508,2138
578.4923544645015,2178
580.8037905508126,2146
583.114593333807,2156
585.4247630289875,2193
587.7342998519354,2123
590.0432040183106,2200
592.3514757438526,2151
594.6591152443794,2194
596.9661227357875,2123
599.2724984340531,2093
601.578242555231,2182
603.8833553154542,2089
606.1878369309362,2113
608.4916876179676,2196
610.7949075929192,2163
613.0974970722403,2175
615.3994562724587,2112
617.7007854101818,2079
620.0014847020951,2251
622.3015543649641,2145
624.6009946156324,2201
626.8998056710224,2160
629.1979877481361,2077
631.4955410640538,2114
633.7924658359349,2138
636.0887622810175,2232
638.3844306166192,2162
640.6794710601358,2197
642.9738838290426,2216
645.2676691408932,2215
647.5608272133207,2188
649.853358264037,2167
652.1452625108324,2225
654.4365401715764,2228
656.7271914642178,2188
659.0172166067838,2210
661.3066158173809,2245
663.5953893141935,2181
665.8835373154867,2220
668.1710600396028,2168
670.4579577049639,2239
672.7442305300709,2178
675.0298787335033,2259
677.3149025339197,2160
679.599302150058,2203
681.8830778007342,2207
684.1662297048437,2211
686.4487580813608,2158
688.7306631493387,2177
691.0119451279091,2115
693.2926042362834,2236
695.5726406937516,2202
697.8520547196814,2206
700.1308465335215,2267
702.4090163547982,2197
704.6865644031171,2138
706.9634908981619,2077
709.2397960596965,2206
711.5154801075631,2203
713.7905432616823,2152
716.0649857420548,2151
718.3388077687592,2076
720.612009561953,2186
722.8845913418733,2110
725.1565533288352,2098
727.427895743234,2166
729.6986188055427,2087
731.9687227363137,2124
734.238207756178,2145
736.5070740858458,2114
738.7753219461066,2094
741.0429515578281,2159
743.3099631419569,2210
745.5763569195191,2098
747.8421331116193,2021
750.1072919394409,2125
752.3718336242467,2197
754.6357583873777,2124
756.8990664502545,2125
759.1617580343765,2108
761.423833361321,2122
763.6852926527457,2142
765.9461361303862,2124
768.206364016058,2194
770.4659765316536,2201
772.7249738991469,2160
774.9833563405886,2066
777.2411240781092,2141
779.4982773339183,2111
781.7548163303044,2245
784.010741289634,2219
786.2660524343538,2313
788.5207499869881,2166
790.7748341701416,2230
793.0283052064964,2184
795.2811633188143,2194
797.5334087299362,2200
799.7850416627813,2164
802.0360623403484,2234
804.2864709857143,2223
806.5362678220353,2163
808.7854530725468,2132
811.0340269605625,2160
813.2819897094754,2138
815.5293415427581,2259
817.77608268396,2250
820.0222133567116,2154
822.2677337847211,2074
824.5126441917765,2105
826.7569448017433,2174
829.0006358385675,2223
831.2437175262731,2183
833.4861900889629,2129
835.7280537508192,2087
837.9693087361026,2254
840.2099552691533,2226
842.4499935743896,2263
844.689423876309,2227
846.9282463994886,2195
849.1664613685833,2191
851.4040690083276,2192
853.6410695435349,2240
855.877463199097,2174
858.1132501999847,2277
860.3484307712487,2260
862.5830051380175,2305
864.8169735254988,2150
867.0503361589791,2206
869.2830932638243,2247
871.5152450654786,2243
873.7467917894654,2263
875.9777336613873,2252
878.2080709069252,2266
880.4378037518389,2232
882.666932421968,2298
884.8954571432301,2318
887.1233781416219,2270
889.3506956432192,2258
891.5774098741766,2218
893.803521060728,2249
896.0290294291852,2275
898.2539352059397,2185
900.4782386174619,2276
902.7019398903011,2167
904.925039251085,2264
907.147536926521,2210
909.3694331433943,2195
911.59072812857,2310
913.8114221089921,2267
916.0315153116827,2243
918.2510079637437,2307
920.4699002923547,2230
922.6881925247761,2231
924.905884888345,2171
927.1229776104793,2278
929.3394709186747,2204
931.555365040506,2249
933.7706602036275,2190
935.9853566357709,2285
938.1994545647489,2227
940.4129542184515,2214
942.6258558248488,2269
944.8381596119883,2292
947.0498658079974,2323
949.2609746410825,2287
951.4714863395287,2334
953.6814011316998,2311
955.8907192460387,2352
958.0994409110671,2231
960.3075663553858,2324
962.5150958076741,2288
964.7220294966913,2248
966.928367651274,2229
969.1341105003388,2208
971.3392582728806,2182
973.5438111979742,2196
975.747769504772,2200
977.9511334225061,2149
980.153903180487,2138
982.3560790081052,2147
984.5576611348289,2052
986.7586497902058,2153
988.9590452038618,2076
991.158847605503,2077
993.3580572249133,2060
995.5566742919558,2003
997.7546990365728,1986
999.952131688785,1993
1002.1489724786926,1896
1004.3452216364743,1903
1006.5408793923874,1902
1008.7359459767691,1903
1010.9304216200343,1898
1013.1243065526781,1905
1015.3176010052733,1860
1017.510305208472,1889
1019.7024193930064,1898
1021.8939437896848,1868
1024.0848786293977,1775
1026.2752241431122,1921
1028.4649805618747,1843
1030.6541481168115,1804
1032.842727039127,1852
1035.0307175601051,1800
1037.2181199111074,1795
1039.4049343235752,1805
1041.591161029029,1721
1043.7768002590683,1842
1045.9618522453698,1771
1048.1463172196918,1719
1050.3301954138697,1795
1052.513487059818,1799
1054.69619238953,1747
1056.8783116350783,1746
1059.0598450286152,1783
1061.2407928023704,1756
1063.4211551886528,1735
1065.6009324198508,1740
1067.780124728432,1770
1069.9587323469414,1800
1072.1367555080046,1768
1074.314194444325,1698
1076.4910493886855,1802
1078.667320573947,1760
1080.843008233051,1689
1083.0181125990161,1730
1085.1926339049414,1740
1087.3665723840027,1679
1089.5399282694575,1714
1091.7127017946405,1750
1093.8848931929647,1763
1096.0565026979243,1726
1098.2275305430899,1759
1100.3979769621128,1709
1102.567842188722,1647
1104.737126456726,1679
1106.9058300000124,1671
1109.0739530525475,1711
1111.2414958483764,1733
1113.4084586216231,1643
1115.5748416064907,1643
1117.7406450372605,1699
1119.9058691482942,1649
1122.0705141740304,1739
1124.2345803489884,1693
1126.3980679077658,1700
1128.5609770850388,1701
1130.7233081155623,1639
1132.8850612341707,1633
1135.0462366757774,1657
1137.2068346753745,1729
1139.3668554680326,1661
1141.526299288901,1598
1143.68516637321,1724
1145.8434569562655,1643
1148.001171273455,1678
1150.158309560244,1623
1152.3148720521767,1602
1154.470858984876,1628
1156.626270594044,1697
1158.7811071154629,1596
1160.9353687849912,1636
1163.089055838569,1661
1165.242168512213,1634
1167.3947070420209,1584
1169.5466716641677,1607
1171.6980626149075,1589
1173.8488801305748,1654
1175.9991244475814,1706
1178.1487958024186,1681
1180.2978944316555,1622
1182.4464205719428,1566
1184.5943744600072,1584
1186.7417563326567,1636
1188.8885664267755,1643
1191.0348049793297,1643
1193.1804722273619,1672
1195.325568407995,1565
1197.4700937584303,1597
1199.614048515948,1623
1201.7574329179074,1670
1203.900247201746,1579
1206.042491604982,1619
1208.1841663652099,1615
1210.3252717201053,1584
1212.465807907422,1680
1214.6057751649923,1621
1216.7451737307279,1618
1218.8840038426192,1653
1221.0222657387353,1690
1223.1599596572241,1678
1225.2970858363137,1708
1227.4336445143094,1676
1229.5696359295966,1654
1231.705060320639,1694
1233.8399179259786,1658
1235.9742089842384,1666
1238.107933734118,1653
1240.2410924143974,1724
1242.373685263935,1688
1244.5057125216676,1755
1246.6371744266116,1699
1248.7680712178621,1651
1250.898403134593,1701
1253.028170416058,1675
1255.1573733015875,1777
1257.2860120305932,1695
1259.4140868425648,1721
1261.54159797707,1676
1263.6685456737569,1741
1265.7949301723515,1712
1267.9207517126597,1723
1270.046010534565,1713
1272.1707068780306,1729
1274.2948409830983,1755
1276.4184130898889,1734
1278.541423438603,1770
1280.6638722695184,1749
1282.785759822993,1667
1284.9070863394636,1739
1287.0278520594447,1758
1289.1480572235314,1782
1291.2677020723963,1756
1293.3867868467923,1697
1295.5053117875495,1848
1297.623277135579,1802
1299.740683131868,1821
1301.8575300174857,1870
1303.973818033578,1906
1306.0895474213703,1848
1308.2047184221678,1859
1310.3193312773528,1868
1312.4333862283888,1887
1314.5468835168163,1914
1316.659823384255,1964
1318.7722060724045,1906
1320.8840318230418,1879
1322.9953008780249,1893
1325.1060134792888,1903
1327.2161698688478,1923
1329.3257702887959,1945
1331.4348149813054,1828
1333.5433041886276,1912
1335.6512381530933,1869
1337.7586171171101,1775
1339.8654413231675,1853
1341.9717110138317,1891
1344.0774264317488,1798
1346.1825878196432,1834
1348.2871954203192,1870
1350.3912494766587,1892
1352.4947502316231,1853
1354.5976979282532,1840
1356.7000928096686,1838
1358.8019351190665,1852
1360.9032250997243,1812
1363.0039629949988,1771
1365.1041490483235,1804
1367.2037835032133,1832
1369.3028666032606,1838
1371.401398592137,1846
1373.4993797135926,1862
1375.5968102114575,1839
1377.6936903296396,1865
1379.7900203121262,1847
1381.8858004029835,1895
1383.9810308463561,1837
1386.075711886469,1884
1388.1698437676241,1858
1390.2634267342032,1863
1392.356461030667,1843
1394.4489469015557,1910
1396.5408845914872,1879
1398.6322743451592,1829
1400.7231164073469,1906
1402.813411022907,1895
1404.903158436773,1875
1406.9923588939578,1895
1409.0810126395531,1895
1411.1691199187303,1933
1413.2566809767386,2027
1415.343696058907,2022
1417.4301654106425,2028
1419.5160892774315,2010
1421.6014679048399,2012
1423.6863015385125,2004
1425.7705904241707,2045
1427.8543348076178,2037
1429.9375349347342,1991
1432.0201910514802,2036
1434.102303403894,2134
1436.1838722380944,2103
1438.2648978002767,2128
1440.3453803367174,2163
1442.4253200937692,2141
1444.5047173178677,2172
1446.5835722555234,2200
1448.6618851533285,2230
1450.739656257952,2313
1452.8168858161434,2362
1454.8935740747306,2333
1456.96972128062,2439
1459.045327680797,2379
1461.120393522327,2484
1463.1949190523528,2383
1465.2689045180973,2528
1467.3423501668608,2547
1469.415256246024,2620
1471.4876230030463,2634
1473.559450685465,2636
1475.6307395408976,2633
1477.7014898170391,2730
1479.771701761665,2739
1481.8413756226287,2817
1483.9105116478618,2797
1485.9791100853772,2858
1488.0471711832643,2905
1490.1146951896926,2859
1492.1816823529098,2869
1494.2481329212433,2913
1496.3140471430984,3007
1498.3794252669609,3029
1500.4442675413939,3032
1502.5085742150404,3047
1504.572345536622,3072
1506.6355817549388,3124
1508.6982831188702,3110
1510.7604498773744,3125
1512.8220822794883,3197
1514.8831805743293,3282
1516.9437450110909,3253
1519.003775839048,3271
1521.0632733075522,3219
1523.1222376660367,3342
1525.1806691640113,3325
1527.2385680510652,3299
1529.2959345768668,3315
1531.3527689911643,3308
1533.4090715437833,3397
1535.4648424846291,3453
1537.5200820636855,3353
1539.5747905310159,3503
1541.6289681367616,3588
1543.6826151311434,3630
1545.7357317644614,3613
1547.7883182870937,3643
1549.8403749494987,3744
1551.8919020022113,3760
1553.9428996958477,3799
1555.9933682811015,3821
1558.0433080087469,3957
1560.0927191296346,3951
1562.1416018946961,3934
1564.1899565549415,3960
1566.2377833614592,3959
1568.2850825654164,3954
1570.3318544180606,3794
1572.3780991707158,3707
1574.423817074788,3682
1576.4690083817595,3469
1578.5136733431923,3365
1580.5578122107272,3184
1582.601425236085,3146
1584.6445126710646,2998
1586.6870747675434,2851
1588.7291117774776,2798
1590.7706239529034,2678
1592.8116115459347,2562
1594.8520748087658,2549
1596.8920139936686,2410
1598.9314293529933,2423
1600.9703211391711,2306
1603.008689604711,2233
1605.0465350022005,2218
1607.0838575843068,2145
1609.1206576037753,2091
1611.1569353134305,2011
1613.1926909661765,1982
1615.2279248149953,2030
1617.2626371129481,2033
1619.2968281131757,1901
1621.3304980688963,1899
1623.3636472334088,1955
1625.39627586009,1895
1627.428384202396,1841
1629.459972513861,1839
1631.4910410480993,1806
1633.5215900588028,1827
1635.551619799744,1813
1637.5811305247717,1781
1639.6101224878166,1778
1641.6385959428862,1811
1643.6665511440683,1750
1645.693988345528,1672
1647.7209078015112,1720
1649.7473097663405,1759
1651.7731944944203,1690
1653.7985622402307,1735
1655.823413258333,1702
1657.847747803366,1790
1659.8715661300494,1689
1661.8948684931793,1751
1663.9176551476316,1751
1665.9399263483624,1712
1667.9616823504057,1701
1669.982923408873,1656
1672.0036497789574,1712
1674.0238617159293,1647
1676.043559475138,1702
1678.0627433120121,1701
1680.081413482059,1749
1682.0995702408654,1660
1684.117213844096,1709
1686.134344547495,1679
1688.1509626068864,1598
1690.1670682781705,1691
1692.182661817329,1679
1694.1977434804217,1705
1696.2123135235875,1681
1698.226372203043,1630
1700.2399197750851,1655
1702.2529564960905,1737
1704.2654826225112,1750
1706.277498410882,1631
1708.2890041178139,1600
1710.2999999999988,1666
1712.3104863142066,1691
1714.3204633172854,1629
1716.329931266163,1688
1718.3388904178469,1551
1720.3473410294214,1607
1722.3552833580516,1577
1724.3627176609807,1629
1726.3696441955308,1634
1728.3760632191033,1654
1730.3819749891782,1612
1732.3873797633146,1660
1734.3922777991502,1600
1736.3966693544012,1566
1738.4005546868639,1557
1740.4039340544127,1648
1742.406807715001,1651
1744.4091759266616,1684
1746.4110389475054,1560
1748.4123970357223,1608
1750.413250449582,1570
1752.4135994474318,1605
1754.4134442876993,1622
1756.4127852288902,1517
1758.4116225295893,1597
1760.4099564484595,1605
1762.407787244244,1596
1764.405115175764,1539
1766.4019405019203,1634
1768.3982634816916,1522
1770.3940843741357,1544
1772.3894034383907,1576
1774.3842209336717,1543
1776.378537119274,1553
1778.372352254571,1545
1780.3656665990156,1554
1782.3584804121397,1520
1784.3507939535534,1529
1786.3426074829463,1510
1788.3339212600863,1501
1790.3247355448211,1534
1792.3150505970766,1543
1794.3048666768573,1497
1796.2941840442477,1448
1798.2830029594106,1504
1800.2713236825884,1471
1802.2591464741004,1576
1804.2464715943465,1527
1806.2332993038058,1482
1808.2196298630352,1535
1810.2054635326708,1537
1812.190800573428,1493
1814.175641246101,1482
1816.1599858115628,1525
1818.1438345307652,1546
1820.127187664738,1503
1822.1100454745924,1488
1824.092408221516,1553
1826.0742761667766,1548
1828.055649571721,1512
1830.0365286977735,1525
1832.0169138064398,1518
1833.9968051593014,1562
1835.9762030180214,1503
1837.9551076443408,1524
1839.9335193000788,1553
1841.9114382471344,1532
1843.888864747485,1573
1845.8657990631878,1550
1847.842241456378,1534
1849.8181921892697,1515
1851.7936515241558,1488
1853.7686197234098,1507
1855.7430970494815,1524
1857.7170837649014,1493
1859.6905801322787,1556
1861.6635864143004,1523
1863.6361028737338,1526
1865.608129773424,1495
1867.5796673762961,1536
1869.5507159453537,1534
1871.521275743678,1582
1873.4913470344313,1562
1875.4609300808534,1533
1877.4300251462632,1602
1879.3986324940588,1561
1881.366752387717,1571
1883.3343850907936,1551
1885.3015308669228,1626
1887.268189979819,1570
1889.2343626932739,1519
1891.2000492711595,1526
1893.1652499774254,1533
1895.1299650761011,1562
1897.0941948312952,1608
1899.0579395071945,1563
1901.0211993680641,1628
1902.98397467825,1555
1904.9462657021745,1579
1906.9080727043415,1606
1908.869395949332,1598
1910.8302357018065,1574
1912.790592226504,1544
1914.7504657882428,1578
1916.7098566519212,1513
1918.6687650825133,1536
1920.6271913450764,1565
1922.5851357047422,1619
1924.5425984267245,1558
1926.499579776314,1538
1928.4560800188833,1534
1930.4120994198802,1617
1932.367638244833,1552
1934.32269675935,1608
1936.2772752291175,1520
1938.231373919899,1522
1940.1849930975404,1556
1942.1381330279637,1566
1944.0907939771696,1515
1946.0429762112412,1476
1947.9946799963363,1416
1949.9459055986945,1499
1951.896653284633,1461
1953.8469233205478,1502
1955.7967159729142,1470
1957.7460315082863,1503
1959.6948701932974,1522
1961.6432322946594,1528
1963.5911180791632,1544
1965.5385278136787,1504
1967.4854617651545,1445
1969.4319202006182,1530
1971.377903387176,1496
1973.3234115920136,1499
1975.268445082395,1549
1977.2130041256642,1514
1979.1570889892423,1516
1981.1006999406304,1500
1983.04383724741,1482
1984.986501177238,1519
1986.928691997853,1482
1988.8704099770712,1514
1990.811655382789,1515
1992.7524284829801,1541
1994.692729545698,1445
1996.6325588390755,1432
1998.5719166313224,1459
2000.5108031907307,1464
2002.4492187856677,1486
2004.387163684583,1484
2006.3246381560011,1505
2008.2616424685298,1487
2010.1981768908527,1482
2012.1342416917332,1435
2014.069837140014,1420
2016.0049635046162,1460
2017.9396210545406,1499
2019.8738100588666,1477
2021.8075307867502,1469
2023.740783507431,1451
2025.6735684902228,1384
2027.6058860045214,1434
2029.5377363198004,1468
2031.4691197056118,1443
2033.4000364315875,1494
2035.3304867674374,1480
2037.260470982952,1422
2039.189989347998,1420
2041.1190421325232,1397
2043.047629606554,1452
2044.9757520401945,1396
2046.9034097036288,1418
2048.8306028671195,1503
2050.7573318010086,1517
2052.683596775716,1484
2054.609398061742,1452
2056.5347359296647,1442
2058.4596106501403,1438
2060.384022493906,1457
2062.3079717317764,1433
2064.231458634646,1454
2066.1544834734873,1485
2068.077046519352,1418
2069.99914804337,1376
2071.9207883167524,1431
2073.8419676107865,1378
2075.7626861968406,1502
2077.6829443463607,1503
2079.6027423308715,1415
2081.522080421977,1403
2083.440958891362,1415
2085.359378010786,1461
2087.2773380520907,1429
2089.194839287196,1464
2091.111881988101,1469
2093.0284664268825,1392
2094.9445928756973,1458
2096.86026160678,1479
2098.775472892446,1471
2100.690227005088,1459
2102.604524217178,1459
2104.5183648012676,1459
2106.431749029985,1480
2108.34467717604,1419
2110.2571495122206,1458
2112.169166311393,1473
2114.080727846503,1447
2115.9918343905747,1507
2117.902486216711,1439
2119.8126835980956,1442
2121.722426807987,1507
2123.6317161197285,1470
2125.5405518067364,1456
2127.448934142509,1489
2129.356863400624,1507
2131.264339854737,1537
2133.1713637785815,1519
2135.077935445972,1566
2136.9840551308002,1510
2138.889723107037,1567
2140.7949396487334,1548
2142.699705030018,1463
2144.6040195250994,1486
2146.507883408264,1515
2148.4112969538774,1490
2150.3142604363848,1531
2152.2167741303097,1502
2154.1188383102535,1521
2156.0204532508997,1504
2157.9216192270064,1565
2159.822336513414,1464
2161.7226053850413,1514
2163.622426116884,1500
2165.5217989840185,1504
2167.4207242616,1571
2169.319202224862,1493
2171.2172331491165,1461
2173.1148173097563,1548
2175.0119549822507,1502
2176.90864644215,1425
2178.8048919650823,1517
2180.7006918267534,1504
2182.596046302952,1488
2184.4909556695407,1521
2186.3854202024645,1551
2188.279440177746,1540
2190.173015871487,1546
2192.066147559868,1525
2193.958835519149,1540
2195.851080025667,1487
2197.7428813558417,1601
2199.6342397861667,1527
2201.5251555932186,1574
2203.415629053651,1613
2205.3056604441986,1573
2207.19525004167,1625
2209.084398122958,1630
2210.9731049650327,1643
2212.861370844941,1585
2214.749196039812,1615
2216.636580826851,1600
2218.523525483344,1589
2220.410030286655,1582
2222.296095514226,1595
2224.1817214435805,1472
2226.066908352319,1570
2227.951656518121,1573
2229.835966218746,1547
2231.71983773203,1570
2233.6032713358913,1554
2235.486267308324,1596
2237.3688259274036,1563
2239.2509474712824,1575
2241.132632218193,1566
2243.013880446447,1565
2244.8946924344323,1548
2246.7750684606203,1511
2248.6550088035574,1595
2250.534513741871,1640
2252.413583554265,1563
2254.292218519526,1601
2256.170418916517,1579
2258.0481850241786,1577
2259.925517121534,1558
2261.8024154876825,1554
2263.678880401803,1605
2265.5549121431536,1534
2267.430510991071,1558
2269.305677224971,1546
2271.180411124348,1569
2273.0547129687766,1550
2274.9285830379076,1549
2276.8020216114737,1529
2278.6750289692845,1547
2280.5476053912294,1513
2282.4197511572766,1579
2284.2914665474727,1624
2286.162751841943,1590
2288.0336073208937,1543
2289.904033264608,1581
2291.774029953448,1625
2293.6435976678554,1597
2295.5127366883517,1612
2297.381447295534,1527
2299.2497297700825,1460
2301.1175843927526,1469
2302.9850114443825,1415
2304.852011205885,1435
2306.7185839582553,1360
2308.5847299825664,1331
2310.4504495599676,1347
2312.3157429716925,1354
2314.1806104990483,1356
2316.0450524234247,1342
2317.9090690262888,1346
2319.772660589186,1331
2321.635827393742,1340
2323.498569721661,1299
2325.3608878547248,1334
2327.2227820747967,1343
2329.0842526638157,1317
2330.945299903803,1328
2332.805924076857,1354
2334.6661254651535,1314
2336.525904350951,1393
2338.3852610165827,1357
2340.244195744464,1299
2342.102708817088,1334
2343.9608005170253,1343
2345.8184711269287,1316
2347.675720929526,1358
2349.532550207628,1383
2351.38895924412,1333
2353.24494832197,1343
2355.100517724223,1349
2356.955667734004,1384
2358.810398634514,1315
2360.664710709037,1393
2362.5186042409337,1409
2364.3720795136437,1372
2366.225136810686,1385
2368.0777764156583,1319
2369.929998612237,1379
2371.7818036841777,1371
2373.633191915315,1322
2375.484163589562,1377
2377.3347189909114,1355
2379.184858403434,1409
2381.03458211128,1358
2382.8838903986775,1418
2384.732783549936,1350
2386.5812618494406,1383
2388.4293255816588,1346
2390.2769750311327,1373
2392.1242104824883,1381
2393.971032220427,1323
2395.8174405297295,1374
2397.6634356952563,1385
2399.509018001947,1381
2401.3541877348193,1362
2403.1989451789705,1367
2405.043290619576,1443
2406.8872243418905,1335
2408.730746631247,1381
2410.5738577730594,1294
2412.4165580528183,1363
2414.258847756095,1381
2416.100727168537,1335
2417.9421965758734,1383
2419.783256263912,1367
2421.623906518538,1435
2423.4641476257157,1385
2425.303979871491,1414
2427.143403541984,1399
2428.9824189233977,1428
2430.821026302012,1336
2432.6592259641866,1334
2434.497018196361,1394
2436.33440328505,1413
2438.171381516851,1408
2440.00795317844,1338
2441.844118556569,1409
2443.6798779380724,1404
2445.5152316098606,1400
2447.3501798589255,1406
2449.1847229723357,1334
2451.0188612372403,1378
2452.8525949408663,1384
2454.6859243705203,1377
2456.518849813587,1425
2458.3513715575314,1426
2460.183489889895,1397
2462.015205098301,1379
2463.8465174704493,1446
2465.67742729412,1441
2467.5079348571717,1435
2469.338040447542,1483
2471.1677443532476,1425
2472.9970468623833,1414
2474.825948263123,1405
2476.6544488437207,1381
2478.482548892508,1456
2480.310248697896,1438
2482.137548548374,1395
2483.9644487325118,1412
2485.790949538956,1446
2487.617051256433,1414
2489.44275417375,1412
2491.26805857979,1424
2493.0929647635157,1455
2494.917473013971,1495
2496.741583620276,1464
2498.5652968716304,1470
2500.3886130573137,1494
2502.2115324666834,1480
2504.0340553891765,1518
2505.856182114308,1493
2507.6779129316733,1466
2509.499248130945,1407
2511.3201880018764,1473
2513.140732834298,1497
2514.9608829181198,1420
2516.780638543331,1445
2518.6,1524
2520.418967578273,1522
2522.237541568376,1415
2524.0557222606144,1447
2525.8735099453706,1506
2527.6909049131086,1549
2529.507907454368,1449
2531.32451785977,1486
2533.140736420014,1528
2534.9565634258774,1508
2536.771999168218,1565
2538.5870439379714,1501
2540.4016980261526,1534
2542.2159617238544,1590
2544.02983532225,1591
2545.8433191125914,1601
2547.656413386209,1605
2549.4691184345115,1677
2551.2814345489874,1618
2553.093362021204,1580
2554.904901142808,1688
2556.716052205523,1685
2558.526815501153,1609
2560.3371913215824,1630
2562.147179958771,1699
2563.956781704761,1682
2565.7659968516705,1615
2567.5748256916986,1674
2569.3832685171224,1684
2571.1913256202984,1715
2572.9989972936614,1682
2574.806283829725,1705
2576.613185521084,1692
2578.4197026604074,1714
2580.2258355404483,1739
2582.031584454035,1743
2583.836949694077,1776
2585.6419315535613,1717
2587.4465303255533,1783
2589.2507463032002,1742
2591.0545797797245,1743
2592.8580310484303,1789
2594.6611004026995,1793
2596.463788135992,1769
2598.266094541849,1832
2600.0680199138874,1756
2601.869564545807,1742
2603.670728731383,1750
2605.4715127644704,1727
2607.2719169390048,1777
2609.071941548998,1765
2610.8715868885433,1807
2612.670853251811,1793
2614.469740933052,1779
2616.268250226594,1777
2618.0663814268455,1734
2619.864134828292,1691
2621.6615107255006,1721
2623.458509413115,1735
2625.2551311858597,1725
2627.0513763385347,1730
2628.8472451660223,1668
2630.6427379632833,1636
2632.4378550253564,1618
2634.232596647359,1583
2636.026963124488,1651
2637.8209547520187,1712
2639.6145718253065,1635
2641.407814639785,1597
2643.200683490966,1636
2644.9931786744414,1659
2646.7853004858807,1609
2648.577049221034,1593
2650.3684251757277,1541
2652.1594286458712,1562
2653.9500599274484,1606
2655.740319316525,1573
2657.5302071092437,1540
2659.3197236018286,1557
2661.10886909058,1559
2662.8976438718782,1494
2664.686048242183,1516
2666.4740824980327,1483
2668.2617469360443,1479
2670.0490418529134,1504
2671.8359675454153,1434
2673.622524310403,1447
2675.408712444811,1470
2677.1945322456495,1424
2678.979984010009,1446
2680.76506803506,1472
2682.5497846180497,1467
2684.334134056306,1439
2686.1181166472343,1486
2687.9017326883213,1398
2689.6849824771293,1488
2691.4678663113013,1360
2693.2503844885596,1365
2695.032537306705,1447
2696.8143250636167,1403
2698.5957480572542,1398
2700.3768065856534,1391
2702.1575009469316,1435
2703.937831439283,1371
2705.717798360982,1399
2707.4974020103837,1358
2709.276642685917,1334
2711.055520686095,1378
2712.834036309506,1356
2714.612189854819,1378
2716.389981620782,1367
2718.1674119062204,1409
2719.944481010041,1383
2721.721189231226,1436
2723.4975368688415,1341
2725.273524222027,1372
2727.0491515900053,1420
2728.824419272075,1396
2730.5993275676146,1375
2732.3738767760838,1398
2734.148067197016,1331
2735.921899130031,1300
2737.6953728748194,1308
2739.468488731156,1343
2741.2412469988926,1291
2743.0136479779617,1396
2744.785691968372,1378
2746.5573792702116,1342
2748.3287101836504,1303
2750.099685008934,1325
2751.870304046388,1342
2753.640567596418,1285
2755.4104759595057,1344
2757.1800294362156,1310
2758.949228327187,1291
2760.7180729331412,1336
2762.486563554877,1312
2764.254700493272,1303
2766.022484049284,1349
2767.789914523947,1298
2769.5569922183786,1323
2771.3237174337705,1394
2773.090090471394,1343
2774.8561116326036,1314
2776.6217812188274,1274
2778.3870995315756,1281
2780.1520668724356,1263
2781.9166835430747,1342
2783.6809498452394,1265
2785.444866080754,1345
2787.2084325515225,1328
2788.971649559527,1301
2790.73451740683,1257
2792.4970363955713,1321
2794.2592068279705,1292
2796.0210290063264,1301
2797.7825032330147,1282
2799.543629810493,1299
2801.304409041296,1363
2803.0648412280366,1395
2804.8249266734088,1281
2806.5846656801846,1320
2808.344058551212,1419
2810.1031055894246,1338
2811.8618070978273,1284
2813.6201633795085,1308
2815.378174737636,1325
2817.1358414754536,1270
2818.893163896285,1315
2820.6501423035334,1307
2822.4067770006814,1244
2824.1630682912883,1299
2825.9190164789957,1332
2827.6746218675207,1270
2829.429884760661,1349
2831.184805462294,1302
2832.9393842763743,1335
2834.693621506936,1267
2836.4475174580916,1253
2838.201072434034,1305
2839.954286739034,1331
2841.707160677441,1266
2843.459694553685,1357
2845.2118886722724,1323
2846.96374333779,1325
2848.7152588549034,1283
2850.4664355283567,1333
2852.217273662973,1355
2853.9677735636546,1313
2855.7179355353833,1261
2857.4677598832186,1342
2859.217246912299,1278
2860.9663969278427,1318
2862.715210235146,1296
2864.4636871395846,1306
2866.211827946614,1328
2867.9596329617652,1326
2869.7071024906536,1295
2871.4542368389684,1315
2873.20103631248,1292
2874.947501217038,1298
2876.6936318585695,1268
2878.4394285430812,1284
2880.1848915766604,1336
2881.9300212654707,1283
2883.6748179157553,1285
2885.4192818338374,1302
2887.1634133261173,1326
2888.907212699077,1362
2890.6506802592744,1359
2892.393816313348,1281
2894.1366211680142,1319
2895.8790951300693,1311
2897.621238506388,1341
2899.363051603925,1303
2901.1045347297118,1322
2902.8456881908596,1257
2904.58651229456,1236
2906.327007348081,1330
2908.067173658772,1339
2909.8070115340597,1336
2911.5465212814497,1324
2913.285703208527,1359
2915.0245576229563,1250
2916.7630848324807,1262
2918.5012851449196,1294
2920.2391588681758,1294
2921.976706310227,1252
2923.7139277791334,1294
2925.4508235830313,1252
2927.187394030137,1323
2928.923639428745,1259
2930.6595600872306,1319
2932.395156314046,1313
2934.1304284177218,1323
2935.8653767068713,1342
2937.6000014901815,1275
2939.3343030764227,1269
2941.068281774442,1316
2942.8019378931644,1313
2944.5352717415976,1300
2946.2682836288236,1345
2948.0009738640065,1331
2949.7333427563885,1282
2951.465390615289,1308
2953.1971177501086,1327
2954.9285244703265,1329
2956.6596110855,1285
2958.3903779052657,1297
2960.1208252393385,1302
2961.8509533975125,1288
2963.5807626896617,1318
2965.3102534257378,1343
2967.0394259157715,1297
2968.768280469873,1323
2970.496817398232,1314
2972.2250370111146,1344
2973.952939618869,1294
2975.6805255319196,1285
2977.4077950607707,1378
2979.134748516006,1338
2980.861386208289,1266
2982.587708448359,1322
2984.313715547037,1323
2986.039407815222,1277
2987.764785563891,1353
2989.489849104102,1315
2991.2145987469908,1324
2992.9390348037705,1258
2994.6631575857346,1305
2996.3869674042576,1363
2998.1104645707887,1319
2999.83364939686,1289
3001.5565221940783,1299
3003.2790832741334,1253
3005.0013329487924,1280
3006.7232715298996,1341
3008.4448993293804,1299
3010.166216659239,1331
3011.887223831558,1260
3013.607921158498,1270
3015.3283089522993,1302
3017.0483875252826,1279
3018.7681571898443,1312
3020.4876182584626,1336
3022.2067710436927,1278
3023.9256158581707,1275
3025.644153014609,1303
3027.362382825801,1322
3029.0803056046193,1305
3030.797921664012,1299
3032.5152313170106,1337
3034.2322348767225,1271
3035.9489326563353,1262
3037.665324969115,1234
3039.3814121284063,1280
3041.097194447633,1272
3042.812672240299,1292
3044.5278458199855,1284
3046.2427155003525,1281
3047.9572815951406,1264
3049.671544418167,1266
3051.38550428333,1296
3053.0991615046073,1279
3054.812516396051,1285
3056.5255692717974,1332
3058.2383204460575,1298
3059.9507702331257,1323
3061.662918947372,1306
3063.3747669032446,1286
3065.0863144152736,1264
3066.7975617980674,1243
3068.508509366309,1286
3070.219157434767,1297
3071.9295063182844,1281
3073.639556331785,1327
3075.3493077902704,1260
3077.058761008821,1272
3078.7679163025964,1315
3080.476773986837,1310
3082.1853343768594,1284
3083.89359778806,1255
3085.6015645359153,1252
3087.3092349359786,1327
3089.016609303884,1283
3090.7236879553434,1359
3092.4304712061476,1251
3094.136959372166,1279
3095.843152769349,1291
3097.5490517137237,1256
3099.2546565213966,1346
3100.959967508554,1293
3102.66498499146,1246
3104.3697092864577,1265
3106.0741407099695,1277
3107.778279578498,1251
3109.482126208622,1297
3111.1856809170004,1310
3112.8889440203716,1338
3114.5919158355528,1377
3116.294596679439,1319
3117.996986869006,1339
3119.6990867213062,1274
3121.4008965534726,1338
3123.102416682717,1322
3124.803647426329,1260
3126.5045891016784,1340
3128.205242026213,1352
3129.90560651746,1336
3131.605682893025,1333
3133.3054714705922,1271
3135.0049725679282,1285
3136.7041865028714,1338
3138.4031135933465,1263
3140.101754157353,1252
3141.800108512971,1318
3143.498176978357,1292
3145.1959598717494,1275
3146.8934575114636,1303
3148.5906702158954,1313
3150.2875983035183,1300
3151.9842420928853,1236
3153.680601902627,1283
3155.376678051456,1298
3157.07247085816,1238
3158.767980641609,1295
3160.463207720748,1285
3162.158152414606,1279
3163.8528150422862,1297
3165.5471959229726,1310
3167.2412953759303,1263
3168.9351137204976,1291
3170.628651276098,1204
3172.3219083622307,1279
3174.014885298474,1255
3175.707582404485,1265
3177.4000000000005,1309
3179.092138404835,1317
3180.7839979388846,1261
3182.47557892212,1263
3184.166881674594,1288
3185.8579065164386,1276
3187.5486537678626,1294
3189.2391237491547,1284
3190.9293167806827,1334
3192.6192331828934,1231
3194.3088732763117,1260
3195.998237381542,1278
3197.687325819268,1239
3199.376138910251,1264
3201.064676975334,1212
3202.7529403354347,1262
3204.4409293115523,1239
3206.1286442247647,1287
3207.816085396229,1288
3209.5032531471825,1260
3211.190147798936,1252
3212.8767696728846,1253
3214.5631190905015,1229
3216.2491963733373,1245
3217.9350018430214,1276
3219.6205358212637,1230
3221.305798629851,1255
3222.990790590651,1197
3224.6755120256103,1194
3226.359963256751,1205
3228.0441446061795,1177
3229.7280563960758,1180
3231.411698948703,1222
3233.0950725863995,1248
3234.778177631587,1249
3236.461014406761,1297
3238.1435832345005,1262
3239.8258844374595,1294
3241.507918338374,1255
3243.1896852600576,1243
3244.8711855254023,1263
3246.552419457381,1263
3248.233387379042,1257
3249.914089613516,1322
3251.59452648401,1257
3253.274698313813,1249
3254.95460542629,1246
3256.6342481448855,1241
3258.313626793125,1235
3259.9927416946084,1248
3261.6715931730196,1236
3263.3501815521176,1252
3265.0285071557437,1244
3266.706570307815,1205
3268.3843713323286,1218
3270.0619105533615,1237
3271.739188295068,1266
3273.4162048816834,1259
3275.0929606375184,1302
3276.769455886966,1252
3278.445690954498,1301
3280.1216661646613,1222
3281.797381842087,1302
3283.4728383114807,1331
3285.1480358976296,1306
3286.8229749253996,1260
3288.4976557197333,1228
3290.172078605655,1243
3291.846243908266,1215
3293.5201519527463,1256
3295.193803064357,1266
3296.8671975684374,1232
3298.5403357904024,1204
3300.21321805575,1202
3301.8858446900567,1231
3303.558216018975,1234
3305.23033236824,1283
3306.9021940636603,1270
3308.57380143113,1247
3310.2451547966184,1234
3311.916254486174,1224
3313.5871008259246,1321
3315.2576941420766,1245
3316.9280347609147,1202
3318.5981230088046,1212
3320.2679592121895,1187
3321.9375436975924,1247
3323.606876791612,1240
3325.27595882093,1230
3326.944790112305,1280
3328.6133709925753,1239
3330.2817017886573,1238
3331.949782827547,1249
3333.617614436319,1238
3335.2851969421245,1235
3336.952530672199,1219
3338.619615953853,1244
3340.286453114475,1247
3341.9530424815357,1251
3343.619384382583,1248
3345.2854791452437,1227
3346.951327097224,1268
3348.6169285663073,1298
3350.2822838803577,1271
3351.947393367319,1250
3353.61225735521,1215
3355.2768761721345,1222
3356.9412501462693,1262
3358.605379605873,1239
3360.2692648792827,1236
3361.9329062949146,1218
3363.596304181263,1239
