CollectionTime,9/19/2024 11:16:38 AM
ExposureUsed,3
CalibratedSpectrum
-962.7078968117929,627
-959.9714848408522,671
-957.2358232597828,649
-954.5009119013725,700
-951.7667505983302,680
-949.0333391832855,673
-946.3006774887896,700
-943.5687653473143,694
-940.837602591253,705
-938.1071890529199,669
-935.3775245645503,678
-932.6486089583007,742
-929.9204420662485,657
-927.1930237203925,641
-924.4663537526524,704
-921.7404319948689,681
-919.0152582788041,682
-916.2908324361409,708
-913.5671542984834,673
-910.8442236973568,710
-908.1220404642074,657
-905.4006044304027,691
-902.679915427231,690
-899.959973285902,674
-897.2407778375464,642
-894.5223289132158,653
-891.8046263438832,657
-889.0876699604426,646
-886.3714595937089,645
-883.6559950744183,618
-880.9412762332282,625
-878.2273029007168,663
-875.5140749073835,671
-872.8015920836489,673
-870.0898542598545,598
-867.3788612662631,620
-864.6686129330585,598
-861.9591090903457,649
-859.2503495681506,651
-856.5423341964203,616
-853.8350628050229,633
-851.1285352237478,672
-848.4227512823054,663
-845.7177108103272,683
-843.0134136373656,644
-840.3098595928943,628
-837.6070485063082,658
-834.9049802069229,652
-832.2036545239757,659
-829.5030712866244,626
-826.8032303239481,633
-824.1041314649472,654
-821.4057745385428,610
-818.7081593735775,673
-816.0112857988148,635
-813.3151536429393,649
-810.6197627345566,666
-807.9251129021936,629
-805.2312039742981,615
-802.5380357792392,655
-799.8456081453069,667
-797.1539209007124,666
-794.462973873588,663
-791.772766891987,709
-789.083299783884,674
-786.3945723771743,711
-783.7065844996748,715
-781.0193359791231,688
-778.3328266431781,678
-775.6470563194197,652
-772.9620248353489,656
-770.2777320183878,660
-767.5941776958798,694
-764.9113616950891,688
-762.2292838432011,676
-759.5479439673222,662
-756.8673418944801,669
-754.1874774516235,640
-751.5083504656222,675
-748.8299607632671,697
-746.15230817127,676
-743.475392516264,651
-740.7992136248035,655
-738.1237713233636,682
-735.4490654383407,683
-732.7750957960521,685
-730.1018622227365,690
-727.4293645445534,679
-724.7576025875837,721
-722.0865761778291,725
-719.4162851412126,723
-716.7467293035781,694
-714.0779084906909,731
-711.409822528237,720
-708.7424712418238,719
-706.0758544569796,729
-703.4099719991541,727
-700.7448236937178,726
-698.0804093659622,734
-695.4167288411002,720
-692.7537819442656,714
-690.0915685005134,695
-687.4300883348199,716
-684.7693412720819,739
-682.1093271371178,765
-679.4500457546669,759
-676.7914969493897,763
-674.1336805458676,739
-671.4765963686034,738
-668.8202442420206,757
-666.1646239904642,757
-663.5097354382001,755
-660.8555784094151,711
-658.2021527282176,738
-655.5494582186366,758
-652.8974947046223,771
-650.2462620100463,810
-647.5957599587009,776
-644.9459883742998,810
-642.2969470804776,811
-639.6486359007902,790
-637.0010546587141,867
-634.3542031776476,848
-631.7080812809096,785
-629.0626887917401,740
-626.4180255333008,770
-623.7740913286734,858
-621.1308860008619,845
-618.4884093727904,793
-615.8466612673046,817
-613.2056415071715,803
-610.5653499150785,795
-607.9257863136347,850
-605.28695052537,852
-602.6488423727357,834
-600.0114616781036,801
-597.3748082637674,832
-594.7388819519412,859
-592.1036825647604,886
-589.4692099242818,820
-586.8354638524829,805
-584.2024441712624,861
-581.5701507024403,848
-578.9385832677575,861
-576.3077416888759,832
-573.6776257873787,784
-571.0482353847704,788
-568.4195703024757,820
-565.7916303618415,813
-563.164415384135,782
-560.5379251905453,819
-557.9121596021815,834
-555.2871184400748,805
-552.6628015251767,843
-550.0392086783606,823
-547.4163397204204,884
-544.794194472071,910
-542.1727727539491,942
-539.5520743866118,881
-536.9320991905377,875
-534.3128469861261,973
-531.6943175936979,965
-529.0765108334947,973
-526.4594265256793,1070
-523.8430644903358,1246
-521.2274245474689,1366
-518.612506517005,1456
-515.9983102187913,1468
-513.3848354725959,1595
-510.77208209810846,1625
-508.16004991493924,1663
-505.5487387426199,1729
-502.9381484006032,1825
-500.3282787082628,1759
-497.71912948489364,1724
-495.1107005497117,1658
-492.5029917218539,1448
-489.8960028203786,1269
-487.28973366426493,1210
-484.68418407241325,1092
-482.07935386364494,1032
-479.47524285670266,991
-476.87185087025,1035
-474.2691777228715,1025
-471.66722323307334,1032
-469.0659872192821,992
-466.4654694998459,1001
-463.86566989303384,1070
-461.26658821703614,1008
-458.66822428996414,999
-456.07057792985,1024
-453.4736489546475,1004
-450.877437182231,970
-448.28194243039627,987
-445.68716451686,1002
-443.09310325926003,923
-440.49975847515555,998
-437.9071299820263,1002
-435.31521759727354,969
-432.72402113821954,1048
-430.13354042210767,1035
-427.5437752661022,1004
-424.95472548728867,1050
-422.36639090267386,1081
-419.7787713291855,1087
-417.1918665836721,1123
-414.60567648290385,1044
-412.0202008435715,1048
-409.4354394822874,1097
-406.8513922155845,1080
-404.26805885991723,1084
-401.685439231661,1116
-399.103533147112,1118
-396.522340422488,1052
-393.9418608739278,1085
-391.3620943174908,1020
-388.7830405691583,1010
-386.2046994448317,1009
-383.6270707603344,949
-381.05015433141045,846
-378.473949973725,874
-375.8984575028645,844
-373.32367673433623,755
-370.74960748356875,761
-368.1762495659117,734
-365.60360279663576,643
-363.03166699093265,589
-360.4604419639154,611
-357.8899275306178,559
-355.32012350599507,568
-352.7510297049233,599
-350.1826459421999,576
-347.61497203254316,550
-345.04800779059235,516
-342.4817530309082,531
-339.91620756797226,589
-337.35137121618743,622
-334.7872437898774,584
-332.22382510328725,507
-329.66111497058273,532
-327.09911320585127,521
-324.53781962310075,541
-321.9772340362607,499
-319.4173562591816,520
-316.8581861056348,519
-314.2997233893127,537
-311.7419679238294,579
-309.1849195227194,593
-306.62857799943856,581
-304.0729431673641,526
-301.51801483979375,559
-298.963792829947,509
-296.41027695096386,579
-293.85746701590574,588
-291.3053628377552,611
-288.7539642294155,654
-286.2032710037115,694
-283.65328297338897,629
-281.1039999511146,683
-278.5554217494762,635
-276.007548180983,584
-273.4603790580651,632
-270.9139141930734,635
-268.3681533982807,684
-265.8230964858798,728
-263.27874326798565,821
-260.7350935566336,803
-258.1921471637804,753
-255.6499039013039,810
-253.10836358100266,847
-250.56752601459698,776
-248.02739101372765,760
-245.48795838995704,788
-242.94922795476816,873
-240.41119951956557,781
-237.8738728956746,749
-235.33724789434166,786
-232.80132432673452,791
-230.2661020039418,713
-227.73158073697357,796
-225.19776033676033,810
-222.66464061415422,942
-220.1322213799284,930
-217.60050244477725,848
-215.06948361931552,906
-212.53916471408013,1058
-210.00954553952818,1067
-207.48062590603843,926
-204.9524056239104,851
-202.4248845033651,943
-199.8980623545441,956
-197.37193898751036,1067
-194.84651421224817,1106
-192.32178783866232,964
-189.79775967657952,934
-187.27442953574644,1161
-184.7517972258321,1075
-182.2298625564256,1026
-179.7086253370378,886
-177.18808537710026,929
-174.66824248596583,1145
-172.14909647290835,1282
-169.6306471471229,1220
-167.11289431772548,1149
-164.59583779375328,1158
-162.07947738416453,1328
-159.5638128978386,1564
-157.04884414357605,1793
-154.53457093009854,1501
-152.02099306604828,1158
-149.50811035998936,1192
-146.99592262040665,1436
-144.48442965570587,1628
-141.97363127421409,1870
-139.46352728417958,2069
-136.95411749377126,1967
-134.44540171107985,1491
-131.93737974411636,1240
-129.43005140081357,1231
-126.92341648902493,1733
-124.41747481652521,2171
-121.91222619101006,2797
-119.40767042009657,2900
-116.90380731132257,2713
-114.40063667214702,2964
-111.8981583099503,4083
-109.3963720320337,5785
-106.89527764561933,8517
-104.39487495785067,10590
-101.89516377579241,13992
-99.39614390642998,18281
-96.89781515667039,25230
-94.40017733334128,29392
-91.90323024319173,24687
-89.40697369289148,15937
-86.91140748903172,9593
-84.41653143812482,7168
-81.92234534660395,12415
-79.42884902082358,20222
-76.93604226705907,24579
-74.4439248915071,23084
-71.95249670028534,18968
-69.46175749943245,15544
-66.97170709490854,12026
-64.48234529259423,9201
-61.99367189829195,7330
-59.50568671772464,8433
-57.01838955653636,10571
-54.53178022029283,12764
-52.045858514480074,14407
-49.560624244506016,17689
-47.07607721569923,18162
-44.59221723330904,19506
-42.10904410250669,21326
-39.62655762838392,20841
-37.14475761595372,21602
-34.66364387015028,21373
-32.18321619582866,27122
-29.70347439776515,28588
-27.224418280657005,25323
-24.74604764912317,33746
-22.26836230770266,57469
-19.7913620608565,65034
-17.315046712966478,65034
-14.83941606833514,65034
-12.36446993118659,65034
-9.89020810566592,65034
-7.416630395839093,65034
-4.94373660569363,65034
-2.471526539137585,65034
-6.821210263296962E-13,65034
2.47084320796705,65034
4.941003281093458,65034
7.410480415786196,65034
9.879274808531363,65034
12.347386655893956,65034
14.814816154518212,65034
17.28156350112681,65034
19.74762889252179,65034
22.21301252558385,26221
24.67771459727237,8158
27.141735304626195,8867
29.605074844762612,8465
32.06773341487792,6919
34.52971121224755,6053
36.99100843422559,5502
39.45162527824516,4429
41.91156194181792,4686
44.370818622535126,5244
46.82939551806646,4601
49.287292826160524,7587
51.74451074464503,7706
54.201049471426245,5214
56.65690920448981,3256
59.112090141899785,2669
61.56659248179983,2710
64.02041642241159,3361
66.4735621620365,3740
68.92602989905402,4438
71.37781983192338,4462
73.82893215918205,2966
76.27936707944684,2488
78.72912479141326,2684
81.17820549385567,2755
83.62660938562783,2414
86.07433666566146,1696
88.5213875329681,1662
90.96776218663751,2240
93.41346082583925,2476
95.85848364982041,2763
98.30283085790859,2390
100.7465026495089,1986
103.18949922410604,1765
105.63182078126385,1548
108.07346752062438,1569
110.51443964190923,1405
112.95473734491827,1322
115.39436082953114,1583
117.83331029570547,1639
120.27158594347827,1688
122.7091879729652,1588
125.1461165843615,1640
127.58237197794062,1402
130.01795435405518,1405
132.4528639131364,1382
134.88710085569494,1372
137.32066538231982,1551
139.75355769367923,1636
142.1857779905207,1420
144.61732647366978,1180
147.04820334403132,1196
149.47840880258934,1243
151.90794305040674,1302
154.33680628862487,1505
156.76499871846443,1666
159.19252054122433,1794
161.61937195828352,1794
164.04555317109896,1971
166.47106438120693,2199
168.89590579022217,2317
171.320077599839,2430
173.7435800118302,2554
176.16641322804742,2766
178.58857745042144,2796
181.01007288096173,2859
183.43089972175687,2822
185.85105817497413,2796
188.27054844285988,2782
190.6893707277394,2718
193.10752523201643,2820
195.5250121581745,2898
197.9418317087751,2889
200.3579840864594,2883
202.7734694939469,3016
205.18828813403627,3119
207.6024402096051,2998
210.01592592360964,3028
212.42874547908548,2966
214.84089907914665,2921
217.2523869269868,2950
219.66320922587727,2950
222.0733661791695,2898
224.48285799029293,2898
226.8916848627572,2981
229.29984700014882,3009
231.7073446061355,3046
234.11417788446204,3073
236.520347038953,3250
238.92585227351185,3160
241.33069379212054,3378
243.73487179884035,3449
246.1383864978112,3330
248.541238093252,3502
250.9434267894609,3511
253.34495279081432,3439
255.74581630176783,3458
258.1460175268563,3524
260.54555667069314,3649
262.9444339379703,3550
265.3426495334594,3518
267.7402036620107,3447
270.1370965285529,3377
272.53332833809407,3186
274.9288992957214,3017
277.32380960660055,2992
279.718059475976,2910
282.1116491091717,2946
284.5045787115897,2823
286.89684848871195,2815
289.2884586460981,2830
291.67940938938807,2955
294.0697009242996,2979
296.4593334566299,2914
298.84830719225477,2824
301.23662233712923,2757
303.6242790972866,2799
306.01127767884,2703
308.39761828798066,2667
310.78330113097934,2669
313.16832641418534,2568
315.5526943440269,2558
317.9364051270112,2662
320.3194589697242,2599
322.70185607883093,2555
325.0835966610754,2508
327.4646809232805,2496
329.8451090723478,2483
332.2248813152577,2423
334.6039978590701,2453
336.9824589109231,2452
339.36026467803447,2324
341.7374153677,2344
344.113911187295,2347
346.48975234427337,2302
348.8649390461686,2293
351.2394715005918,2309
353.61334991523415,2303
355.9865744978655,2385
358.35914545633375,2436
360.73106299856715,2393
363.10232733257146,2338
365.47293866643247,2325
367.84289720831396,2335
370.2122031664593,2175
372.5808567491905,2199
374.9488581649083,2221
377.31620762209275,2265
379.6829053293021,2227
382.0489514951745,2203
384.4143463284262,2101
386.7790900378528,2173
389.14318283232853,2200
391.50662492080653,2173
393.86941651231916,2239
396.23155781597745,2224
398.5930490409713,2286
400.9538903965696,2248
403.3140820921202,2146
405.6736243370498,2193
408.03251734086336,2130
410.3907613131465,2137
412.74835646356166,2241
415.10530300185144,2198
417.4616011378372,2236
419.81725108141893,2117
422.1722530425758,2092
424.5266072313656,2125
426.880313857925,2112
429.2333731324701,2087
431.58578526529516,2099
433.9375504667738,2117
436.2886689473588,2121
438.63914091758113,2018
440.9889665880513,2033
443.33814616945835,2136
445.68667987257015,2044
448.03456790823395,2052
450.3818104873759,2006
452.72840782100013,2034
455.07436012019105,2060
457.41966759611057,1993
459.7643304600007,2061
462.10834892318155,2093
464.4517231970525,1990
466.79445349309174,1989
469.1365400228566,2059
471.4779829979826,2102
473.81878263018564,2082
476.15893913125876,2095
478.4984527130747,2076
480.8373235875855,2167
483.17555196682144,2248
485.5131380628919,2245
487.8500820879857,2331
490.1863842543697,2583
492.52204477439034,2632
494.8570638604725,2811
497.1914417251204,3072
499.52517858091653,3336
501.85827464052306,3651
504.19073011668036,3872
506.5225452222086,3904
508.85372017000566,3870
511.18425517304956,4013
513.514150444396,4775
515.8434061971808,6064
518.1720226446176,6892
520.4999999999999,6968
522.8273384766991,6675
525.1540382881666,6300
527.480099647932,5674
529.8055227696037,4351
532.1303078668694,3254
534.454455153496,2639
536.777964843328,2440
539.1008371502907,2271
541.4230722883866,2349
543.744670471698,2255
546.0656319143858,2315
548.3859568306899,2192
550.7056454349294,2065
553.0246979415016,2093
555.3431145648834,2109
557.6608955196306,2060
559.978041020377,2128
562.2945512818363,2151
564.6104265188006,2111
566.9256669461412,2117
569.2402727788082,2122
571.5542442318302,2183
573.8675815203156,2147
576.1802848594508,2173
578.4923544645015,2146
580.8037905508126,2135
583.114593333807,2112
585.4247630289875,2204
587.7342998519354,2131
590.0432040183106,2200
592.3514757438526,2217
594.6591152443794,2162
596.9661227357875,2162
599.2724984340531,2039
601.578242555231,2085
603.8833553154542,2042
606.1878369309362,2164
608.4916876179676,2155
610.7949075929192,2190
613.0974970722403,2121
615.3994562724587,2100
617.7007854101818,2099
620.0014847020951,2162
622.3015543649641,2145
624.6009946156324,2231
626.8998056710224,2147
629.1979877481361,2119
631.4955410640538,2053
633.7924658359349,2119
636.0887622810175,2149
638.3844306166192,2131
640.6794710601358,2177
642.9738838290426,2131
645.2676691408932,2196
647.5608272133207,2224
649.853358264037,2198
652.1452625108324,2237
654.4365401715764,2261
656.7271914642178,2229
659.0172166067838,2143
661.3066158173809,2226
663.5953893141935,2136
665.8835373154867,2205
668.1710600396028,2168
670.4579577049639,2220
672.7442305300709,2189
675.0298787335033,2169
677.3149025339197,2238
679.599302150058,2157
681.8830778007342,2211
684.1662297048437,2111
686.4487580813608,2151
688.7306631493387,2190
691.0119451279091,2116
693.2926042362834,2194
695.5726406937516,2114
697.8520547196814,2120
700.1308465335215,2101
702.4090163547982,2097
704.6865644031171,2196
706.9634908981619,2224
709.2397960596965,2107
711.5154801075631,2073
713.7905432616823,2210
716.0649857420548,2104
718.3388077687592,2116
720.612009561953,2127
722.8845913418733,2100
725.1565533288352,2118
727.427895743234,2158
729.6986188055427,2142
731.9687227363137,2082
734.238207756178,2092
736.5070740858458,2167
738.7753219461066,2136
741.0429515578281,2149
743.3099631419569,2132
745.5763569195191,2177
747.8421331116193,2076
750.1072919394409,2098
752.3718336242467,2184
754.6357583873777,2171
756.8990664502545,2180
759.1617580343765,2143
761.423833361321,2176
763.6852926527457,2121
765.9461361303862,2128
768.206364016058,2080
770.4659765316536,2170
772.7249738991469,2152
774.9833563405886,2113
777.2411240781092,2177
779.4982773339183,2149
781.7548163303044,2101
784.010741289634,2166
786.2660524343538,2194
788.5207499869881,2250
790.7748341701416,2139
793.0283052064964,2190
795.2811633188143,2127
797.5334087299362,2138
799.7850416627813,2140
802.0360623403484,2191
804.2864709857143,2222
806.5362678220353,2105
808.7854530725468,2228
811.0340269605625,2121
813.2819897094754,2169
815.5293415427581,2200
817.77608268396,2198
820.0222133567116,2222
822.2677337847211,2185
824.5126441917765,2124
826.7569448017433,2155
829.0006358385675,2135
831.2437175262731,2219
833.4861900889629,2117
835.7280537508192,2163
837.9693087361026,2195
840.2099552691533,2197
842.4499935743896,2208
844.689423876309,2202
846.9282463994886,2152
849.1664613685833,2183
851.4040690083276,2135
853.6410695435349,2271
855.877463199097,2185
858.1132501999847,2238
860.3484307712487,2254
862.5830051380175,2159
864.8169735254988,2175
867.0503361589791,2221
869.2830932638243,2292
871.5152450654786,2131
873.7467917894654,2206
875.9777336613873,2273
878.2080709069252,2258
880.4378037518389,2200
882.666932421968,2221
884.8954571432301,2324
887.1233781416219,2288
889.3506956432192,2308
891.5774098741766,2261
893.803521060728,2204
896.0290294291852,2234
898.2539352059397,2286
900.4782386174619,2234
902.7019398903011,2248
904.925039251085,2135
907.147536926521,2217
909.3694331433943,2266
911.59072812857,2256
913.8114221089921,2159
916.0315153116827,2194
918.2510079637437,2295
920.4699002923547,2264
922.6881925247761,2240
924.905884888345,2232
927.1229776104793,2213
929.3394709186747,2273
931.555365040506,2274
933.7706602036275,2268
935.9853566357709,2263
938.1994545647489,2286
940.4129542184515,2278
942.6258558248488,2330
944.8381596119883,2298
947.0498658079974,2280
949.2609746410825,2313
951.4714863395287,2291
953.6814011316998,2289
955.8907192460387,2258
958.0994409110671,2301
960.3075663553858,2290
962.5150958076741,2271
964.7220294966913,2298
966.928367651274,2264
969.1341105003388,2245
971.3392582728806,2147
973.5438111979742,2205
975.747769504772,2151
977.9511334225061,2188
980.153903180487,2125
982.3560790081052,2128
984.5576611348289,2108
986.7586497902058,2078
988.9590452038618,2065
991.158847605503,2115
993.3580572249133,2033
995.5566742919558,2001
997.7546990365728,1949
999.952131688785,1957
1002.1489724786926,1870
1004.3452216364743,1957
1006.5408793923874,1869
1008.7359459767691,1958
1010.9304216200343,1923
1013.1243065526781,1901
1015.3176010052733,1911
1017.510305208472,1895
1019.7024193930064,1817
1021.8939437896848,1883
1024.0848786293977,1840
1026.2752241431122,1936
1028.4649805618747,1826
1030.6541481168115,1820
1032.842727039127,1804
1035.0307175601051,1759
1037.2181199111074,1830
1039.4049343235752,1740
1041.591161029029,1830
1043.7768002590683,1871
1045.9618522453698,1793
1048.1463172196918,1783
1050.3301954138697,1811
1052.513487059818,1824
1054.69619238953,1745
1056.8783116350783,1732
1059.0598450286152,1709
1061.2407928023704,1732
1063.4211551886528,1737
1065.6009324198508,1802
1067.780124728432,1742
1069.9587323469414,1687
1072.1367555080046,1707
1074.314194444325,1739
1076.4910493886855,1729
1078.667320573947,1640
1080.843008233051,1722
1083.0181125990161,1707
1085.1926339049414,1718
1087.3665723840027,1726
1089.5399282694575,1687
1091.7127017946405,1739
1093.8848931929647,1793
1096.0565026979243,1713
1098.2275305430899,1676
1100.3979769621128,1668
1102.567842188722,1681
1104.737126456726,1712
1106.9058300000124,1671
1109.0739530525475,1664
1111.2414958483764,1654
1113.4084586216231,1686
1115.5748416064907,1653
1117.7406450372605,1614
1119.9058691482942,1683
1122.0705141740304,1682
1124.2345803489884,1700
1126.3980679077658,1711
1128.5609770850388,1630
1130.7233081155623,1667
1132.8850612341707,1671
1135.0462366757774,1652
1137.2068346753745,1715
1139.3668554680326,1694
1141.526299288901,1614
1143.68516637321,1671
1145.8434569562655,1734
1148.001171273455,1715
1150.158309560244,1641
1152.3148720521767,1586
1154.470858984876,1641
1156.626270594044,1703
1158.7811071154629,1645
1160.9353687849912,1612
1163.089055838569,1650
1165.242168512213,1651
1167.3947070420209,1695
1169.5466716641677,1604
1171.6980626149075,1676
1173.8488801305748,1621
1175.9991244475814,1596
1178.1487958024186,1711
1180.2978944316555,1651
1182.4464205719428,1649
1184.5943744600072,1644
1186.7417563326567,1654
1188.8885664267755,1607
1191.0348049793297,1656
1193.1804722273619,1621
1195.325568407995,1637
1197.4700937584303,1679
1199.614048515948,1646
1201.7574329179074,1613
1203.900247201746,1619
1206.042491604982,1634
1208.1841663652099,1617
1210.3252717201053,1643
1212.465807907422,1647
1214.6057751649923,1663
1216.7451737307279,1669
1218.8840038426192,1723
1221.0222657387353,1678
1223.1599596572241,1655
1225.2970858363137,1645
1227.4336445143094,1618
1229.5696359295966,1698
1231.705060320639,1656
1233.8399179259786,1656
1235.9742089842384,1732
1238.107933734118,1735
1240.2410924143974,1675
1242.373685263935,1681
1244.5057125216676,1766
1246.6371744266116,1745
1248.7680712178621,1671
1250.898403134593,1678
1253.028170416058,1694
1255.1573733015875,1745
1257.2860120305932,1713
1259.4140868425648,1729
1261.54159797707,1699
1263.6685456737569,1720
1265.7949301723515,1643
1267.9207517126597,1614
1270.046010534565,1768
1272.1707068780306,1765
1274.2948409830983,1776
1276.4184130898889,1744
1278.541423438603,1742
1280.6638722695184,1774
1282.785759822993,1743
1284.9070863394636,1793
1287.0278520594447,1742
1289.1480572235314,1765
1291.2677020723963,1829
1293.3867868467923,1796
1295.5053117875495,1768
1297.623277135579,1815
1299.740683131868,1817
1301.8575300174857,1818
1303.973818033578,1836
1306.0895474213703,1889
1308.2047184221678,1842
1310.3193312773528,1874
1312.4333862283888,1900
1314.5468835168163,1862
1316.659823384255,1911
1318.7722060724045,1904
1320.8840318230418,1859
1322.9953008780249,1858
1325.1060134792888,1917
1327.2161698688478,1870
1329.3257702887959,1870
1331.4348149813054,1903
1333.5433041886276,1888
1335.6512381530933,1855
1337.7586171171101,1889
1339.8654413231675,1805
1341.9717110138317,1814
1344.0774264317488,1869
1346.1825878196432,1926
1348.2871954203192,1892
1350.3912494766587,1873
1352.4947502316231,1891
1354.5976979282532,1852
1356.7000928096686,1835
1358.8019351190665,1818
1360.9032250997243,1870
1363.0039629949988,1850
1365.1041490483235,1806
1367.2037835032133,1796
1369.3028666032606,1854
1371.401398592137,1825
1373.4993797135926,1916
1375.5968102114575,1795
1377.6936903296396,1924
1379.7900203121262,1848
1381.8858004029835,1846
1383.9810308463561,1776
1386.075711886469,1897
1388.1698437676241,1843
1390.2634267342032,1848
1392.356461030667,1873
1394.4489469015557,1983
1396.5408845914872,1949
1398.6322743451592,1850
1400.7231164073469,1885
1402.813411022907,1927
1404.903158436773,1938
1406.9923588939578,1917
1409.0810126395531,1990
1411.1691199187303,1941
1413.2566809767386,1928
1415.343696058907,2006
1417.4301654106425,2034
1419.5160892774315,2036
1421.6014679048399,2000
1423.6863015385125,2091
1425.7705904241707,2022
1427.8543348076178,2042
1429.9375349347342,2077
1432.0201910514802,2102
1434.102303403894,2118
1436.1838722380944,2150
1438.2648978002767,2101
1440.3453803367174,2159
1442.4253200937692,2153
1444.5047173178677,2190
1446.5835722555234,2159
1448.6618851533285,2193
1450.739656257952,2258
1452.8168858161434,2331
1454.8935740747306,2327
1456.96972128062,2387
1459.045327680797,2441
1461.120393522327,2445
1463.1949190523528,2425
1465.2689045180973,2494
1467.3423501668608,2616
1469.415256246024,2575
1471.4876230030463,2578
1473.559450685465,2727
1475.6307395408976,2796
1477.7014898170391,2725
1479.771701761665,2759
1481.8413756226287,2707
1483.9105116478618,2771
1485.9791100853772,2868
1488.0471711832643,2974
1490.1146951896926,2846
1492.1816823529098,2988
1494.2481329212433,2983
1496.3140471430984,3014
1498.3794252669609,3060
1500.4442675413939,3112
1502.5085742150404,3130
1504.572345536622,3101
1506.6355817549388,3184
1508.6982831188702,3244
1510.7604498773744,3188
1512.8220822794883,3157
1514.8831805743293,3211
1516.9437450110909,3182
1519.003775839048,3250
1521.0632733075522,3215
1523.1222376660367,3304
1525.1806691640113,3347
1527.2385680510652,3336
1529.2959345768668,3386
1531.3527689911643,3518
1533.4090715437833,3393
1535.4648424846291,3411
1537.5200820636855,3461
1539.5747905310159,3457
1541.6289681367616,3506
1543.6826151311434,3592
1545.7357317644614,3668
1547.7883182870937,3699
1549.8403749494987,3747
1551.8919020022113,3899
1553.9428996958477,3875
1555.9933682811015,4005
1558.0433080087469,4018
1560.0927191296346,4049
1562.1416018946961,4042
1564.1899565549415,4040
1566.2377833614592,4122
1568.2850825654164,3892
1570.3318544180606,3815
1572.3780991707158,3785
1574.423817074788,3652
1576.4690083817595,3589
1578.5136733431923,3330
1580.5578122107272,3219
1582.601425236085,3145
1584.6445126710646,2936
1586.6870747675434,2940
1588.7291117774776,2868
1590.7706239529034,2641
1592.8116115459347,2572
1594.8520748087658,2613
1596.8920139936686,2530
1598.9314293529933,2444
1600.9703211391711,2384
1603.008689604711,2229
1605.0465350022005,2222
1607.0838575843068,2166
1609.1206576037753,2068
1611.1569353134305,2019
1613.1926909661765,2041
1615.2279248149953,1994
1617.2626371129481,1973
1619.2968281131757,1958
1621.3304980688963,2034
1623.3636472334088,1906
1625.39627586009,1901
1627.428384202396,1841
1629.459972513861,1849
1631.4910410480993,1823
1633.5215900588028,1787
1635.551619799744,1740
1637.5811305247717,1802
1639.6101224878166,1731
1641.6385959428862,1804
1643.6665511440683,1739
1645.693988345528,1773
1647.7209078015112,1718
1649.7473097663405,1729
1651.7731944944203,1748
1653.7985622402307,1639
1655.823413258333,1747
1657.847747803366,1662
1659.8715661300494,1737
1661.8948684931793,1714
1663.9176551476316,1685
1665.9399263483624,1677
1667.9616823504057,1737
1669.982923408873,1625
1672.0036497789574,1662
1674.0238617159293,1675
1676.043559475138,1669
1678.0627433120121,1706
1680.081413482059,1644
1682.0995702408654,1737
1684.117213844096,1682
1686.134344547495,1723
1688.1509626068864,1631
1690.1670682781705,1675
1692.182661817329,1680
1694.1977434804217,1689
1696.2123135235875,1717
1698.226372203043,1737
1700.2399197750851,1736
1702.2529564960905,1659
1704.2654826225112,1646
1706.277498410882,1565
1708.2890041178139,1599
1710.2999999999988,1627
1712.3104863142066,1681
1714.3204633172854,1654
1716.329931266163,1634
1718.3388904178469,1604
1720.3473410294214,1619
1722.3552833580516,1630
1724.3627176609807,1614
1726.3696441955308,1645
1728.3760632191033,1696
1730.3819749891782,1638
1732.3873797633146,1591
1734.3922777991502,1610
1736.3966693544012,1611
1738.4005546868639,1668
1740.4039340544127,1599
1742.406807715001,1532
1744.4091759266616,1638
1746.4110389475054,1598
1748.4123970357223,1607
1750.413250449582,1616
1752.4135994474318,1582
1754.4134442876993,1582
1756.4127852288902,1526
1758.4116225295893,1579
1760.4099564484595,1585
1762.407787244244,1590
1764.405115175764,1570
1766.4019405019203,1558
1768.3982634816916,1541
1770.3940843741357,1554
1772.3894034383907,1517
1774.3842209336717,1556
1776.378537119274,1497
1778.372352254571,1550
1780.3656665990156,1515
1782.3584804121397,1569
1784.3507939535534,1550
1786.3426074829463,1588
1788.3339212600863,1514
1790.3247355448211,1564
1792.3150505970766,1554
1794.3048666768573,1493
1796.2941840442477,1539
1798.2830029594106,1524
1800.2713236825884,1559
1802.2591464741004,1527
1804.2464715943465,1529
1806.2332993038058,1517
1808.2196298630352,1510
1810.2054635326708,1512
1812.190800573428,1532
1814.175641246101,1559
1816.1599858115628,1464
1818.1438345307652,1524
1820.127187664738,1489
1822.1100454745924,1518
1824.092408221516,1507
1826.0742761667766,1556
1828.055649571721,1525
1830.0365286977735,1531
1832.0169138064398,1532
1833.9968051593014,1518
1835.9762030180214,1537
1837.9551076443408,1523
1839.9335193000788,1553
1841.9114382471344,1519
1843.888864747485,1541
1845.8657990631878,1527
1847.842241456378,1500
1849.8181921892697,1534
1851.7936515241558,1458
1853.7686197234098,1478
1855.7430970494815,1504
1857.7170837649014,1573
1859.6905801322787,1526
1861.6635864143004,1448
1863.6361028737338,1555
1865.608129773424,1530
1867.5796673762961,1563
1869.5507159453537,1490
1871.521275743678,1565
1873.4913470344313,1540
1875.4609300808534,1534
1877.4300251462632,1530
1879.3986324940588,1531
1881.366752387717,1574
1883.3343850907936,1569
1885.3015308669228,1584
1887.268189979819,1607
1889.2343626932739,1573
1891.2000492711595,1557
1893.1652499774254,1509
1895.1299650761011,1550
1897.0941948312952,1546
1899.0579395071945,1541
1901.0211993680641,1562
1902.98397467825,1588
1904.9462657021745,1522
1906.9080727043415,1543
1908.869395949332,1534
1910.8302357018065,1517
1912.790592226504,1571
1914.7504657882428,1511
1916.7098566519212,1532
1918.6687650825133,1536
1920.6271913450764,1494
1922.5851357047422,1570
1924.5425984267245,1500
1926.499579776314,1564
1928.4560800188833,1552
1930.4120994198802,1506
1932.367638244833,1504
1934.32269675935,1611
1936.2772752291175,1537
1938.231373919899,1508
1940.1849930975404,1583
1942.1381330279637,1527
1944.0907939771696,1499
1946.0429762112412,1546
1947.9946799963363,1521
1949.9459055986945,1493
1951.896653284633,1481
1953.8469233205478,1514
1955.7967159729142,1487
1957.7460315082863,1540
1959.6948701932974,1427
1961.6432322946594,1551
1963.5911180791632,1446
1965.5385278136787,1512
1967.4854617651545,1503
1969.4319202006182,1538
1971.377903387176,1544
1973.3234115920136,1531
1975.268445082395,1544
1977.2130041256642,1495
1979.1570889892423,1466
1981.1006999406304,1453
1983.04383724741,1519
1984.986501177238,1469
1986.928691997853,1473
1988.8704099770712,1390
1990.811655382789,1456
1992.7524284829801,1446
1994.692729545698,1458
1996.6325588390755,1442
1998.5719166313224,1427
2000.5108031907307,1425
2002.4492187856677,1501
2004.387163684583,1438
2006.3246381560011,1474
2008.2616424685298,1406
2010.1981768908527,1501
2012.1342416917332,1477
2014.069837140014,1438
2016.0049635046162,1425
2017.9396210545406,1509
2019.8738100588666,1497
2021.8075307867502,1476
2023.740783507431,1415
2025.6735684902228,1395
2027.6058860045214,1425
2029.5377363198004,1414
2031.4691197056118,1389
2033.4000364315875,1435
2035.3304867674374,1459
2037.260470982952,1428
2039.189989347998,1490
2041.1190421325232,1457
2043.047629606554,1453
2044.9757520401945,1500
2046.9034097036288,1441
2048.8306028671195,1425
2050.7573318010086,1414
2052.683596775716,1479
2054.609398061742,1432
2056.5347359296647,1409
2058.4596106501403,1420
2060.384022493906,1431
2062.3079717317764,1424
2064.231458634646,1417
2066.1544834734873,1410
2068.077046519352,1469
2069.99914804337,1438
2071.9207883167524,1467
2073.8419676107865,1442
2075.7626861968406,1432
2077.6829443463607,1373
2079.6027423308715,1413
2081.522080421977,1401
2083.440958891362,1400
2085.359378010786,1468
2087.2773380520907,1434
2089.194839287196,1434
2091.111881988101,1434
2093.0284664268825,1439
2094.9445928756973,1434
2096.86026160678,1415
2098.775472892446,1411
2100.690227005088,1511
2102.604524217178,1424
2104.5183648012676,1438
2106.431749029985,1444
2108.34467717604,1458
2110.2571495122206,1444
2112.169166311393,1403
2114.080727846503,1467
2115.9918343905747,1443
2117.902486216711,1475
2119.8126835980956,1503
2121.722426807987,1488
2123.6317161197285,1516
2125.5405518067364,1448
2127.448934142509,1468
2129.356863400624,1520
2131.264339854737,1520
2133.1713637785815,1508
2135.077935445972,1467
2136.9840551308002,1427
2138.889723107037,1536
2140.7949396487334,1479
2142.699705030018,1499
2144.6040195250994,1467
2146.507883408264,1476
2148.4112969538774,1462
2150.3142604363848,1463
2152.2167741303097,1472
2154.1188383102535,1480
2156.0204532508997,1520
2157.9216192270064,1488
2159.822336513414,1484
2161.7226053850413,1556
2163.622426116884,1563
2165.5217989840185,1551
2167.4207242616,1533
2169.319202224862,1534
2171.2172331491165,1509
2173.1148173097563,1495
2175.0119549822507,1557
2176.90864644215,1501
2178.8048919650823,1534
2180.7006918267534,1536
2182.596046302952,1449
2184.4909556695407,1488
2186.3854202024645,1459
2188.279440177746,1516
2190.173015871487,1503
2192.066147559868,1586
2193.958835519149,1514
2195.851080025667,1518
2197.7428813558417,1541
2199.6342397861667,1547
2201.5251555932186,1571
2203.415629053651,1566
2205.3056604441986,1570
2207.19525004167,1619
2209.084398122958,1514
2210.9731049650327,1577
2212.861370844941,1534
2214.749196039812,1556
2216.636580826851,1624
2218.523525483344,1591
2220.410030286655,1624
2222.296095514226,1520
2224.1817214435805,1574
2226.066908352319,1552
2227.951656518121,1523
2229.835966218746,1552
2231.71983773203,1545
2233.6032713358913,1527
2235.486267308324,1530
2237.3688259274036,1535
2239.2509474712824,1548
2241.132632218193,1628
2243.013880446447,1576
2244.8946924344323,1513
2246.7750684606203,1503
2248.6550088035574,1573
2250.534513741871,1580
2252.413583554265,1572
2254.292218519526,1588
2256.170418916517,1506
2258.0481850241786,1593
2259.925517121534,1593
2261.8024154876825,1524
2263.678880401803,1517
2265.5549121431536,1524
2267.430510991071,1542
2269.305677224971,1532
2271.180411124348,1481
2273.0547129687766,1496
2274.9285830379076,1505
2276.8020216114737,1490
2278.6750289692845,1565
2280.5476053912294,1642
2282.4197511572766,1583
2284.2914665474727,1574
2286.162751841943,1601
2288.0336073208937,1604
2289.904033264608,1632
2291.774029953448,1556
2293.6435976678554,1552
2295.5127366883517,1473
2297.381447295534,1475
2299.2497297700825,1478
2301.1175843927526,1454
2302.9850114443825,1408
2304.852011205885,1387
2306.7185839582553,1368
2308.5847299825664,1366
2310.4504495599676,1415
2312.3157429716925,1389
2314.1806104990483,1348
2316.0450524234247,1391
2317.9090690262888,1343
2319.772660589186,1333
2321.635827393742,1379
2323.498569721661,1363
2325.3608878547248,1315
2327.2227820747967,1336
2329.0842526638157,1350
2330.945299903803,1316
2332.805924076857,1382
2334.6661254651535,1335
2336.525904350951,1362
2338.3852610165827,1365
2340.244195744464,1322
2342.102708817088,1306
2343.9608005170253,1318
2345.8184711269287,1378
2347.675720929526,1288
2349.532550207628,1322
2351.38895924412,1301
2353.24494832197,1367
2355.100517724223,1279
2356.955667734004,1338
2358.810398634514,1353
2360.664710709037,1348
2362.5186042409337,1352
2364.3720795136437,1362
2366.225136810686,1361
2368.0777764156583,1382
2369.929998612237,1323
2371.7818036841777,1424
2373.633191915315,1369
2375.484163589562,1404
2377.3347189909114,1387
2379.184858403434,1399
2381.03458211128,1383
2382.8838903986775,1418
2384.732783549936,1383
2386.5812618494406,1432
2388.4293255816588,1400
2390.2769750311327,1415
2392.1242104824883,1354
2393.971032220427,1377
2395.8174405297295,1372
2397.6634356952563,1449
2399.509018001947,1394
2401.3541877348193,1407
2403.1989451789705,1318
2405.043290619576,1356
2406.8872243418905,1371
2408.730746631247,1383
2410.5738577730594,1350
2412.4165580528183,1391
2414.258847756095,1404
2416.100727168537,1384
2417.9421965758734,1362
2419.783256263912,1373
2421.623906518538,1338
2423.4641476257157,1413
2425.303979871491,1396
2427.143403541984,1359
2428.9824189233977,1361
2430.821026302012,1378
2432.6592259641866,1349
2434.497018196361,1378
2436.33440328505,1331
2438.171381516851,1364
2440.00795317844,1403
2441.844118556569,1432
2443.6798779380724,1406
2445.5152316098606,1394
2447.3501798589255,1382
2449.1847229723357,1367
2451.0188612372403,1399
2452.8525949408663,1363
2454.6859243705203,1409
2456.518849813587,1428
2458.3513715575314,1459
2460.183489889895,1389
2462.015205098301,1426
2463.8465174704493,1384
2465.67742729412,1336
2467.5079348571717,1421
2469.338040447542,1443
2471.1677443532476,1373
2472.9970468623833,1405
2474.825948263123,1427
2476.6544488437207,1407
2478.482548892508,1378
2480.310248697896,1385
2482.137548548374,1403
2483.9644487325118,1393
2485.790949538956,1378
2487.617051256433,1385
2489.44275417375,1380
2491.26805857979,1357
2493.0929647635157,1432
2494.917473013971,1428
2496.741583620276,1467
2498.5652968716304,1448
2500.3886130573137,1456
2502.2115324666834,1454
2504.0340553891765,1431
2505.856182114308,1444
2507.6779129316733,1393
2509.499248130945,1475
2511.3201880018764,1485
2513.140732834298,1474
2514.9608829181198,1450
2516.780638543331,1430
2518.6,1511
2520.418967578273,1502
2522.237541568376,1490
2524.0557222606144,1498
2525.8735099453706,1460
2527.6909049131086,1479
2529.507907454368,1473
2531.32451785977,1498
2533.140736420014,1495
2534.9565634258774,1517
2536.771999168218,1544
2538.5870439379714,1499
2540.4016980261526,1581
2542.2159617238544,1611
2544.02983532225,1597
2545.8433191125914,1599
2547.656413386209,1602
2549.4691184345115,1596
2551.2814345489874,1578
2553.093362021204,1658
2554.904901142808,1615
2556.716052205523,1667
2558.526815501153,1614
2560.3371913215824,1665
2562.147179958771,1700
2563.956781704761,1609
2565.7659968516705,1639
2567.5748256916986,1690
2569.3832685171224,1626
2571.1913256202984,1701
2572.9989972936614,1736
2574.806283829725,1690
2576.613185521084,1697
2578.4197026604074,1700
2580.2258355404483,1686
2582.031584454035,1716
2583.836949694077,1713
2585.6419315535613,1742
2587.4465303255533,1760
2589.2507463032002,1758
2591.0545797797245,1718
2592.8580310484303,1764
2594.6611004026995,1698
2596.463788135992,1758
2598.266094541849,1718
2600.0680199138874,1781
2601.869564545807,1756
2603.670728731383,1758
2605.4715127644704,1784
2607.2719169390048,1758
2609.071941548998,1774
2610.8715868885433,1743
2612.670853251811,1728
2614.469740933052,1712
2616.268250226594,1719
2618.0663814268455,1783
2619.864134828292,1707
2621.6615107255006,1725
2623.458509413115,1806
2625.2551311858597,1698
2627.0513763385347,1699
2628.8472451660223,1706
2630.6427379632833,1642
2632.4378550253564,1644
2634.232596647359,1626
2636.026963124488,1728
2637.8209547520187,1587
2639.6145718253065,1611
2641.407814639785,1626
2643.200683490966,1658
2644.9931786744414,1611
2646.7853004858807,1595
2648.577049221034,1573
2650.3684251757277,1595
2652.1594286458712,1519
2653.9500599274484,1606
2655.740319316525,1482
2657.5302071092437,1537
2659.3197236018286,1542
2661.10886909058,1500
2662.8976438718782,1534
2664.686048242183,1524
2666.4740824980327,1524
2668.2617469360443,1495
2670.0490418529134,1440
2671.8359675454153,1432
2673.622524310403,1492
2675.408712444811,1419
2677.1945322456495,1449
2678.979984010009,1479
2680.76506803506,1432
2682.5497846180497,1441
2684.334134056306,1428
2686.1181166472343,1433
2687.9017326883213,1453
2689.6849824771293,1487
2691.4678663113013,1450
2693.2503844885596,1429
2695.032537306705,1461
2696.8143250636167,1470
2698.5957480572542,1405
2700.3768065856534,1406
2702.1575009469316,1355
2703.937831439283,1459
2705.717798360982,1340
2707.4974020103837,1359
2709.276642685917,1298
2711.055520686095,1366
2712.834036309506,1351
2714.612189854819,1363
2716.389981620782,1357
2718.1674119062204,1385
2719.944481010041,1397
2721.721189231226,1414
2723.4975368688415,1395
2725.273524222027,1327
2727.0491515900053,1289
2728.824419272075,1337
2730.5993275676146,1360
2732.3738767760838,1356
2734.148067197016,1336
2735.921899130031,1298
2737.6953728748194,1362
2739.468488731156,1364
2741.2412469988926,1323
2743.0136479779617,1311
2744.785691968372,1303
2746.5573792702116,1291
2748.3287101836504,1293
2750.099685008934,1343
2751.870304046388,1311
2753.640567596418,1332
2755.4104759595057,1315
2757.1800294362156,1367
2758.949228327187,1355
2760.7180729331412,1305
2762.486563554877,1276
2764.254700493272,1323
2766.022484049284,1406
2767.789914523947,1309
2769.5569922183786,1323
2771.3237174337705,1310
2773.090090471394,1325
2774.8561116326036,1332
2776.6217812188274,1281
2778.3870995315756,1276
2780.1520668724356,1318
2781.9166835430747,1361
2783.6809498452394,1317
2785.444866080754,1330
2787.2084325515225,1310
2788.971649559527,1315
2790.73451740683,1301
2792.4970363955713,1307
2794.2592068279705,1279
2796.0210290063264,1310
2797.7825032330147,1261
2799.543629810493,1333
2801.304409041296,1331
2803.0648412280366,1257
2804.8249266734088,1335
2806.5846656801846,1298
2808.344058551212,1332
2810.1031055894246,1337
2811.8618070978273,1361
2813.6201633795085,1288
2815.378174737636,1302
2817.1358414754536,1291
2818.893163896285,1331
2820.6501423035334,1293
2822.4067770006814,1313
2824.1630682912883,1293
2825.9190164789957,1314
2827.6746218675207,1296
2829.429884760661,1294
2831.184805462294,1298
2832.9393842763743,1306
2834.693621506936,1341
2836.4475174580916,1328
2838.201072434034,1293
2839.954286739034,1293
2841.707160677441,1247
2843.459694553685,1335
2845.2118886722724,1322
2846.96374333779,1346
2848.7152588549034,1380
2850.4664355283567,1362
2852.217273662973,1282
2853.9677735636546,1266
2855.7179355353833,1359
2857.4677598832186,1334
2859.217246912299,1317
2860.9663969278427,1321
2862.715210235146,1290
2864.4636871395846,1287
2866.211827946614,1223
2867.9596329617652,1317
2869.7071024906536,1266
2871.4542368389684,1279
2873.20103631248,1299
2874.947501217038,1329
2876.6936318585695,1268
2878.4394285430812,1308
2880.1848915766604,1339
2881.9300212654707,1320
2883.6748179157553,1257
2885.4192818338374,1342
2887.1634133261173,1272
2888.907212699077,1236
2890.6506802592744,1299
2892.393816313348,1356
2894.1366211680142,1298
2895.8790951300693,1307
2897.621238506388,1294
2899.363051603925,1272
2901.1045347297118,1295
2902.8456881908596,1274
2904.58651229456,1341
2906.327007348081,1302
2908.067173658772,1262
2909.8070115340597,1312
2911.5465212814497,1317
2913.285703208527,1249
2915.0245576229563,1313
2916.7630848324807,1312
2918.5012851449196,1267
2920.2391588681758,1273
2921.976706310227,1295
2923.7139277791334,1307
2925.4508235830313,1368
2927.187394030137,1283
2928.923639428745,1297
2930.6595600872306,1289
2932.395156314046,1304
2934.1304284177218,1320
2935.8653767068713,1301
2937.6000014901815,1275
2939.3343030764227,1256
2941.068281774442,1343
2942.8019378931644,1317
2944.5352717415976,1305
2946.2682836288236,1327
2948.0009738640065,1310
2949.7333427563885,1322
2951.465390615289,1303
2953.1971177501086,1315
2954.9285244703265,1277
2956.6596110855,1300
2958.3903779052657,1311
2960.1208252393385,1330
2961.8509533975125,1265
2963.5807626896617,1247
2965.3102534257378,1314
2967.0394259157715,1342
2968.768280469873,1306
2970.496817398232,1290
2972.2250370111146,1252
2973.952939618869,1279
2975.6805255319196,1383
2977.4077950607707,1346
2979.134748516006,1310
2980.861386208289,1272
2982.587708448359,1305
2984.313715547037,1230
2986.039407815222,1281
2987.764785563891,1277
2989.489849104102,1265
2991.2145987469908,1221
2992.9390348037705,1322
2994.6631575857346,1305
2996.3869674042576,1288
2998.1104645707887,1239
2999.83364939686,1244
3001.5565221940783,1265
3003.2790832741334,1290
3005.0013329487924,1248
3006.7232715298996,1232
3008.4448993293804,1273
3010.166216659239,1266
3011.887223831558,1276
3013.607921158498,1253
3015.3283089522993,1315
3017.0483875252826,1313
3018.7681571898443,1326
3020.4876182584626,1272
3022.2067710436927,1303
3023.9256158581707,1275
3025.644153014609,1274
3027.362382825801,1333
3029.0803056046193,1282
3030.797921664012,1269
3032.5152313170106,1275
3034.2322348767225,1283
3035.9489326563353,1247
3037.665324969115,1267
3039.3814121284063,1263
3041.097194447633,1251
3042.812672240299,1278
3044.5278458199855,1313
3046.2427155003525,1336
3047.9572815951406,1306
3049.671544418167,1304
3051.38550428333,1276
3053.0991615046073,1300
3054.812516396051,1300
3056.5255692717974,1271
3058.2383204460575,1244
3059.9507702331257,1304
3061.662918947372,1259
3063.3747669032446,1295
3065.0863144152736,1262
3066.7975617980674,1315
3068.508509366309,1270
3070.219157434767,1318
3071.9295063182844,1251
3073.639556331785,1250
3075.3493077902704,1303
3077.058761008821,1258
3078.7679163025964,1305
3080.476773986837,1238
3082.1853343768594,1234
3083.89359778806,1294
3085.6015645359153,1297
3087.3092349359786,1271
3089.016609303884,1295
3090.7236879553434,1258
3092.4304712061476,1274
3094.136959372166,1285
3095.843152769349,1285
3097.5490517137237,1261
3099.2546565213966,1274
3100.959967508554,1195
3102.66498499146,1272
3104.3697092864577,1264
3106.0741407099695,1327
3107.778279578498,1277
3109.482126208622,1311
3111.1856809170004,1303
3112.8889440203716,1292
3114.5919158355528,1332
3116.294596679439,1256
3117.996986869006,1244
3119.6990867213062,1278
3121.4008965534726,1290
3123.102416682717,1301
3124.803647426329,1304
3126.5045891016784,1288
3128.205242026213,1298
3129.90560651746,1318
3131.605682893025,1275
3133.3054714705922,1319
3135.0049725679282,1287
3136.7041865028714,1291
3138.4031135933465,1253
3140.101754157353,1299
3141.800108512971,1278
3143.498176978357,1240
3145.1959598717494,1302
3146.8934575114636,1317
3148.5906702158954,1276
3150.2875983035183,1250
3151.9842420928853,1277
3153.680601902627,1331
3155.376678051456,1261
3157.07247085816,1287
3158.767980641609,1217
3160.463207720748,1305
3162.158152414606,1271
3163.8528150422862,1278
3165.5471959229726,1306
3167.2412953759303,1265
3168.9351137204976,1295
3170.628651276098,1314
3172.3219083622307,1309
3174.014885298474,1255
3175.707582404485,1218
3177.4000000000005,1269
3179.092138404835,1269
3180.7839979388846,1250
3182.47557892212,1293
3184.166881674594,1276
3185.8579065164386,1256
3187.5486537678626,1227
3189.2391237491547,1303
3190.9293167806827,1262
3192.6192331828934,1274
3194.3088732763117,1255
3195.998237381542,1219
3197.687325819268,1267
3199.376138910251,1248
3201.064676975334,1249
3202.7529403354347,1232
3204.4409293115523,1242
3206.1286442247647,1271
3207.816085396229,1259
3209.5032531471825,1261
3211.190147798936,1284
3212.8767696728846,1239
3214.5631190905015,1276
3216.2491963733373,1217
3217.9350018430214,1231
3219.6205358212637,1232
3221.305798629851,1208
3222.990790590651,1226
3224.6755120256103,1179
3226.359963256751,1256
3228.0441446061795,1241
3229.7280563960758,1233
3231.411698948703,1232
3233.0950725863995,1253
3234.778177631587,1220
3236.461014406761,1234
3238.1435832345005,1262
3239.8258844374595,1257
3241.507918338374,1223
3243.1896852600576,1260
3244.8711855254023,1292
3246.552419457381,1247
3248.233387379042,1252
3249.914089613516,1288
3251.59452648401,1264
3253.274698313813,1263
3254.95460542629,1261
3256.6342481448855,1238
3258.313626793125,1255
3259.9927416946084,1229
3261.6715931730196,1183
3263.3501815521176,1201
3265.0285071557437,1244
3266.706570307815,1270
3268.3843713323286,1214
3270.0619105533615,1243
3271.739188295068,1241
3273.4162048816834,1294
3275.0929606375184,1259
3276.769455886966,1275
3278.445690954498,1255
3280.1216661646613,1264
3281.797381842087,1265
3283.4728383114807,1250
3285.1480358976296,1274
3286.8229749253996,1277
3288.4976557197333,1197
3290.172078605655,1237
3291.846243908266,1250
3293.5201519527463,1223
3295.193803064357,1248
3296.8671975684374,1238
3298.5403357904024,1254
3300.21321805575,1254
3301.8858446900567,1246
3303.558216018975,1227
3305.23033236824,1213
3306.9021940636603,1234
3308.57380143113,1224
3310.2451547966184,1277
3311.916254486174,1246
3313.5871008259246,1207
3315.2576941420766,1228
3316.9280347609147,1198
3318.5981230088046,1277
3320.2679592121895,1220
3321.9375436975924,1215
3323.606876791612,1210
3325.27595882093,1245
3326.944790112305,1224
3328.6133709925753,1248
3330.2817017886573,1202
3331.949782827547,1236
3333.617614436319,1243
3335.2851969421245,1250
3336.952530672199,1221
3338.619615953853,1295
3340.286453114475,1199
3341.9530424815357,1259
3343.619384382583,1229
3345.2854791452437,1225
3346.951327097224,1290
3348.6169285663073,1251
3350.2822838803577,1251
3351.947393367319,1250
3353.61225735521,1234
3355.2768761721345,1227
3356.9412501462693,1292
3358.605379605873,1248
3360.2692648792827,1220
3361.9329062949146,1223
3363.596304181263,1209
