CollectionTime,9/19/2024 11:15:46 AM
ExposureUsed,3
CalibratedSpectrum
-962.7078968117929,504
-959.9714848408522,523
-957.2358232597828,559
-954.5009119013725,570
-951.7667505983302,644
-949.0333391832855,608
-946.3006774887896,593
-943.5687653473143,606
-940.837602591253,604
-938.1071890529199,581
-935.3775245645503,596
-932.6486089583007,596
-929.9204420662485,561
-927.1930237203925,573
-924.4663537526524,604
-921.7404319948689,596
-919.0152582788041,593
-916.2908324361409,626
-913.5671542984834,596
-910.8442236973568,592
-908.1220404642074,575
-905.4006044304027,593
-902.679915427231,586
-899.959973285902,564
-897.2407778375464,589
-894.5223289132158,590
-891.8046263438832,558
-889.0876699604426,580
-886.3714595937089,549
-883.6559950744183,538
-880.9412762332282,532
-878.2273029007168,531
-875.5140749073835,570
-872.8015920836489,527
-870.0898542598545,526
-867.3788612662631,512
-864.6686129330585,515
-861.9591090903457,557
-859.2503495681506,555
-856.5423341964203,541
-853.8350628050229,554
-851.1285352237478,557
-848.4227512823054,573
-845.7177108103272,562
-843.0134136373656,584
-840.3098595928943,550
-837.6070485063082,540
-834.9049802069229,580
-832.2036545239757,560
-829.5030712866244,560
-826.8032303239481,542
-824.1041314649472,500
-821.4057745385428,532
-818.7081593735775,566
-816.0112857988148,559
-813.3151536429393,549
-810.6197627345566,544
-807.9251129021936,547
-805.2312039742981,557
-802.5380357792392,581
-799.8456081453069,591
-797.1539209007124,581
-794.462973873588,607
-791.772766891987,628
-789.083299783884,606
-786.3945723771743,574
-783.7065844996748,546
-781.0193359791231,537
-778.3328266431781,565
-775.6470563194197,552
-772.9620248353489,561
-770.2777320183878,561
-767.5941776958798,581
-764.9113616950891,566
-762.2292838432011,584
-759.5479439673222,547
-756.8673418944801,574
-754.1874774516235,610
-751.5083504656222,588
-748.8299607632671,564
-746.15230817127,589
-743.475392516264,571
-740.7992136248035,567
-738.1237713233636,584
-735.4490654383407,574
-732.7750957960521,561
-730.1018622227365,583
-727.4293645445534,593
-724.7576025875837,582
-722.0865761778291,582
-719.4162851412126,619
-716.7467293035781,618
-714.0779084906909,593
-711.409822528237,622
-708.7424712418238,575
-706.0758544569796,590
-703.4099719991541,623
-700.7448236937178,576
-698.0804093659622,596
-695.4167288411002,590
-692.7537819442656,633
-690.0915685005134,604
-687.4300883348199,634
-684.7693412720819,633
-682.1093271371178,629
-679.4500457546669,628
-676.7914969493897,627
-674.1336805458676,633
-671.4765963686034,622
-668.8202442420206,647
-666.1646239904642,649
-663.5097354382001,630
-660.8555784094151,642
-658.2021527282176,610
-655.5494582186366,633
-652.8974947046223,642
-650.2462620100463,676
-647.5957599587009,661
-644.9459883742998,670
-642.2969470804776,691
-639.6486359007902,674
-637.0010546587141,679
-634.3542031776476,706
-631.7080812809096,659
-629.0626887917401,643
-626.4180255333008,680
-623.7740913286734,747
-621.1308860008619,722
-618.4884093727904,689
-615.8466612673046,674
-613.2056415071715,692
-610.5653499150785,675
-607.9257863136347,747
-605.28695052537,746
-602.6488423727357,712
-600.0114616781036,735
-597.3748082637674,740
-594.7388819519412,741
-592.1036825647604,736
-589.4692099242818,699
-586.8354638524829,736
-584.2024441712624,755
-581.5701507024403,721
-578.9385832677575,717
-576.3077416888759,719
-573.6776257873787,752
-571.0482353847704,720
-568.4195703024757,711
-565.7916303618415,717
-563.164415384135,744
-560.5379251905453,728
-557.9121596021815,690
-555.2871184400748,714
-552.6628015251767,760
-550.0392086783606,834
-547.4163397204204,855
-544.794194472071,862
-542.1727727539491,830
-539.5520743866118,817
-536.9320991905377,818
-534.3128469861261,827
-531.6943175936979,888
-529.0765108334947,941
-526.4594265256793,1017
-523.8430644903358,1255
-521.2274245474689,1394
-518.612506517005,1546
-515.9983102187913,1492
-513.3848354725959,1640
-510.77208209810846,1733
-508.16004991493924,1944
-505.5487387426199,2021
-502.9381484006032,2147
-500.3282787082628,2106
-497.71912948489364,2019
-495.1107005497117,1807
-492.5029917218539,1563
-489.8960028203786,1275
-487.28973366426493,1183
-484.68418407241325,1056
-482.07935386364494,973
-479.47524285670266,924
-476.87185087025,894
-474.2691777228715,977
-471.66722323307334,969
-469.0659872192821,960
-466.4654694998459,970
-463.86566989303384,958
-461.26658821703614,958
-458.66822428996414,922
-456.07057792985,951
-453.4736489546475,887
-450.877437182231,875
-448.28194243039627,867
-445.68716451686,862
-443.09310325926003,880
-440.49975847515555,906
-437.9071299820263,886
-435.31521759727354,886
-432.72402113821954,879
-430.13354042210767,967
-427.5437752661022,950
-424.95472548728867,958
-422.36639090267386,958
-419.7787713291855,1005
-417.1918665836721,960
-414.60567648290385,986
-412.0202008435715,958
-409.4354394822874,1009
-406.8513922155845,976
-404.26805885991723,1005
-401.685439231661,1056
-399.103533147112,1054
-396.522340422488,1014
-393.9418608739278,982
-391.3620943174908,943
-388.7830405691583,889
-386.2046994448317,933
-383.6270707603344,882
-381.05015433141045,838
-378.473949973725,880
-375.8984575028645,820
-373.32367673433623,770
-370.74960748356875,829
-368.1762495659117,708
-365.60360279663576,686
-363.03166699093265,665
-360.4604419639154,611
-357.8899275306178,597
-355.32012350599507,605
-352.7510297049233,608
-350.1826459421999,619
-347.61497203254316,588
-345.04800779059235,574
-342.4817530309082,597
-339.91620756797226,674
-337.35137121618743,640
-334.7872437898774,599
-332.22382510328725,577
-329.66111497058273,550
-327.09911320585127,595
-324.53781962310075,599
-321.9772340362607,561
-319.4173562591816,588
-316.8581861056348,570
-314.2997233893127,577
-311.7419679238294,631
-309.1849195227194,603
-306.62857799943856,654
-304.0729431673641,592
-301.51801483979375,621
-298.963792829947,580
-296.41027695096386,612
-293.85746701590574,656
-291.3053628377552,676
-288.7539642294155,709
-286.2032710037115,753
-283.65328297338897,687
-281.1039999511146,766
-278.5554217494762,691
-276.007548180983,722
-273.4603790580651,751
-270.9139141930734,774
-268.3681533982807,867
-265.8230964858798,906
-263.27874326798565,940
-260.7350935566336,905
-258.1921471637804,918
-255.6499039013039,987
-253.10836358100266,943
-250.56752601459698,876
-248.02739101372765,996
-245.48795838995704,1010
-242.94922795476816,974
-240.41119951956557,936
-237.8738728956746,898
-235.33724789434166,965
-232.80132432673452,977
-230.2661020039418,898
-227.73158073697357,898
-225.19776033676033,979
-222.66464061415422,1124
-220.1322213799284,1075
-217.60050244477725,996
-215.06948361931552,1100
-212.53916471408013,1313
-210.00954553952818,1306
-207.48062590603843,1100
-204.9524056239104,881
-202.4248845033651,1037
-199.8980623545441,1122
-197.37193898751036,1221
-194.84651421224817,1213
-192.32178783866232,1094
-189.79775967657952,1023
-187.27442953574644,1351
-184.7517972258321,1257
-182.2298625564256,1076
-179.7086253370378,920
-177.18808537710026,1018
-174.66824248596583,1398
-172.14909647290835,1420
-169.6306471471229,1511
-167.11289431772548,1191
-164.59583779375328,1298
-162.07947738416453,1493
-159.5638128978386,1803
-157.04884414357605,2170
-154.53457093009854,2040
-152.02099306604828,1522
-149.50811035998936,1467
-146.99592262040665,1593
-144.48442965570587,2078
-141.97363127421409,2291
-139.46352728417958,2442
-136.95411749377126,2324
-134.44540171107985,1760
-131.93737974411636,1507
-129.43005140081357,1595
-126.92341648902493,2151
-124.41747481652521,2532
-121.91222619101006,3160
-119.40767042009657,3502
-116.90380731132257,3430
-114.40063667214702,3770
-111.8981583099503,4889
-109.3963720320337,7946
-106.89527764561933,11988
-104.39487495785067,13825
-101.89516377579241,17247
-99.39614390642998,22539
-96.89781515667039,31385
-94.40017733334128,39129
-91.90323024319173,35668
-89.40697369289148,24277
-86.91140748903172,15787
-84.41653143812482,11094
-81.92234534660395,15401
-79.42884902082358,22904
-76.93604226705907,26858
-74.4439248915071,23176
-71.95249670028534,16272
-69.46175749943245,10355
-66.97170709490854,7061
-64.48234529259423,6863
-61.99367189829195,8532
-59.50568671772464,10459
-57.01838955653636,13350
-54.53178022029283,15099
-52.045858514480074,18861
-49.560624244506016,23717
-47.07607721569923,23070
-44.59221723330904,22133
-42.10904410250669,24458
-39.62655762838392,24936
-37.14475761595372,26268
-34.66364387015028,26998
-32.18321619582866,34001
-29.70347439776515,36469
-27.224418280657005,36625
-24.74604764912317,45736
-22.26836230770266,65033
-19.7913620608565,65033
-17.315046712966478,65033
-14.83941606833514,65033
-12.36446993118659,65033
-9.89020810566592,65033
-7.416630395839093,65033
-4.94373660569363,65033
-2.471526539137585,65033
-6.821210263296962E-13,65033
2.47084320796705,65033
4.941003281093458,65033
7.410480415786196,65033
9.879274808531363,65033
12.347386655893956,65033
14.814816154518212,65033
17.28156350112681,65033
19.74762889252179,65033
22.21301252558385,65033
24.67771459727237,25302
27.141735304626195,10643
29.605074844762612,11022
32.06773341487792,9458
34.52971121224755,7829
36.99100843422559,7232
39.45162527824516,5666
41.91156194181792,6264
44.370818622535126,6690
46.82939551806646,6400
49.287292826160524,10445
51.74451074464503,8546
54.201049471426245,5738
56.65690920448981,3748
59.112090141899785,3085
61.56659248179983,3533
64.02041642241159,3834
66.4735621620365,4946
68.92602989905402,5779
71.37781983192338,5997
73.82893215918205,4269
76.27936707944684,3487
78.72912479141326,2993
81.17820549385567,2740
83.62660938562783,2634
86.07433666566146,2480
88.5213875329681,2381
90.96776218663751,2742
93.41346082583925,3034
95.85848364982041,3339
98.30283085790859,2924
100.7465026495089,2463
103.18949922410604,2229
105.63182078126385,1902
108.07346752062438,1602
110.51443964190923,1581
112.95473734491827,1589
115.39436082953114,1785
117.83331029570547,2018
120.27158594347827,2186
122.7091879729652,1947
125.1461165843615,1886
127.58237197794062,1591
130.01795435405518,1810
132.4528639131364,1642
134.88710085569494,1643
137.32066538231982,1749
139.75355769367923,1969
142.1857779905207,1764
144.61732647366978,1499
147.04820334403132,1474
149.47840880258934,1497
151.90794305040674,1506
154.33680628862487,1647
156.76499871846443,1751
159.19252054122433,1791
161.61937195828352,1790
164.04555317109896,1980
166.47106438120693,2157
168.89590579022217,2305
171.320077599839,2442
173.7435800118302,2430
176.16641322804742,2529
178.58857745042144,2636
181.01007288096173,2674
183.43089972175687,2528
185.85105817497413,2602
188.27054844285988,2557
190.6893707277394,2545
193.10752523201643,2647
195.5250121581745,2539
197.9418317087751,2580
200.3579840864594,2602
202.7734694939469,2815
205.18828813403627,2821
207.6024402096051,2783
210.01592592360964,2834
212.42874547908548,2803
214.84089907914665,2728
217.2523869269868,2760
219.66320922587727,2757
222.0733661791695,2674
224.48285799029293,2741
226.8916848627572,2863
229.29984700014882,2831
231.7073446061355,2762
234.11417788446204,2923
236.520347038953,2955
238.92585227351185,2860
241.33069379212054,3018
243.73487179884035,3015
246.1383864978112,2914
248.541238093252,2896
250.9434267894609,2954
253.34495279081432,2857
255.74581630176783,2900
258.1460175268563,2818
260.54555667069314,2732
262.9444339379703,2899
265.3426495334594,2921
267.7402036620107,3065
270.1370965285529,2926
272.53332833809407,2877
274.9288992957214,2774
277.32380960660055,2766
279.718059475976,2734
282.1116491091717,2779
284.5045787115897,2781
286.89684848871195,2735
289.2884586460981,2842
291.67940938938807,2903
294.0697009242996,2841
296.4593334566299,2823
298.84830719225477,2854
301.23662233712923,2808
303.6242790972866,2737
306.01127767884,2625
308.39761828798066,2682
310.78330113097934,2527
313.16832641418534,2558
315.5526943440269,2533
317.9364051270112,2567
320.3194589697242,2565
322.70185607883093,2560
325.0835966610754,2507
327.4646809232805,2424
329.8451090723478,2530
332.2248813152577,2518
334.6039978590701,2477
336.9824589109231,2447
339.36026467803447,2358
341.7374153677,2349
344.113911187295,2241
346.48975234427337,2314
348.8649390461686,2400
351.2394715005918,2355
353.61334991523415,2389
355.9865744978655,2316
358.35914545633375,2404
360.73106299856715,2394
363.10232733257146,2266
365.47293866643247,2283
367.84289720831396,2256
370.2122031664593,2265
372.5808567491905,2297
374.9488581649083,2202
377.31620762209275,2242
379.6829053293021,2221
382.0489514951745,2223
384.4143463284262,2160
386.7790900378528,2132
389.14318283232853,2154
391.50662492080653,2142
393.86941651231916,2181
396.23155781597745,2227
398.5930490409713,2265
400.9538903965696,2203
403.3140820921202,2114
405.6736243370498,2149
408.03251734086336,2130
410.3907613131465,2092
412.74835646356166,2110
415.10530300185144,2094
417.4616011378372,2120
419.81725108141893,2144
422.1722530425758,2165
424.5266072313656,2114
426.880313857925,2091
429.2333731324701,2086
431.58578526529516,2155
433.9375504667738,2093
436.2886689473588,2103
438.63914091758113,2046
440.9889665880513,1977
443.33814616945835,1981
445.68667987257015,2060
448.03456790823395,1998
450.3818104873759,1942
452.72840782100013,2040
455.07436012019105,2045
457.41966759611057,2067
459.7643304600007,2013
462.10834892318155,2033
464.4517231970525,2004
466.79445349309174,2078
469.1365400228566,2022
471.4779829979826,2057
473.81878263018564,2083
476.15893913125876,2135
478.4984527130747,2160
480.8373235875855,2128
483.17555196682144,2280
485.5131380628919,2327
487.8500820879857,2497
490.1863842543697,2619
492.52204477439034,2765
494.8570638604725,2986
497.1914417251204,3393
499.52517858091653,4022
501.85827464052306,4452
504.19073011668036,4711
506.5225452222086,4788
508.85372017000566,4771
511.18425517304956,4829
513.514150444396,5501
515.8434061971808,6837
518.1720226446176,7633
520.4999999999999,7831
522.8273384766991,7304
525.1540382881666,6947
527.480099647932,6044
529.8055227696037,4703
532.1303078668694,3324
534.454455153496,2739
536.777964843328,2500
539.1008371502907,2343
541.4230722883866,2322
543.744670471698,2301
546.0656319143858,2306
548.3859568306899,2229
550.7056454349294,2213
553.0246979415016,2220
555.3431145648834,2130
557.6608955196306,2071
559.978041020377,2039
562.2945512818363,2116
564.6104265188006,2137
566.9256669461412,2076
569.2402727788082,2114
571.5542442318302,2136
573.8675815203156,2186
576.1802848594508,2163
578.4923544645015,2165
580.8037905508126,2201
583.114593333807,2191
585.4247630289875,2047
587.7342998519354,2101
590.0432040183106,2160
592.3514757438526,2125
594.6591152443794,2170
596.9661227357875,2159
599.2724984340531,2139
601.578242555231,2133
603.8833553154542,2092
606.1878369309362,1969
608.4916876179676,2006
610.7949075929192,2080
613.0974970722403,2079
615.3994562724587,2152
617.7007854101818,2111
620.0014847020951,2117
622.3015543649641,2176
624.6009946156324,2056
626.8998056710224,2101
629.1979877481361,2091
631.4955410640538,2112
633.7924658359349,2046
636.0887622810175,2065
638.3844306166192,2179
640.6794710601358,2144
642.9738838290426,2168
645.2676691408932,2126
647.5608272133207,2066
649.853358264037,2085
652.1452625108324,2116
654.4365401715764,2170
656.7271914642178,2216
659.0172166067838,2181
661.3066158173809,2197
663.5953893141935,2128
665.8835373154867,2197
668.1710600396028,2128
670.4579577049639,2128
672.7442305300709,2110
675.0298787335033,2199
677.3149025339197,2096
679.599302150058,2059
681.8830778007342,2057
684.1662297048437,2064
686.4487580813608,2138
688.7306631493387,2127
691.0119451279091,2130
693.2926042362834,2098
695.5726406937516,2070
697.8520547196814,2085
700.1308465335215,2031
702.4090163547982,2084
704.6865644031171,2124
706.9634908981619,2043
709.2397960596965,2045
711.5154801075631,2077
713.7905432616823,2126
716.0649857420548,2129
718.3388077687592,2151
720.612009561953,2135
722.8845913418733,2163
725.1565533288352,2016
727.427895743234,2022
729.6986188055427,2102
731.9687227363137,2016
734.238207756178,2108
736.5070740858458,1999
738.7753219461066,2125
741.0429515578281,2133
743.3099631419569,2059
745.5763569195191,2096
747.8421331116193,2129
750.1072919394409,2145
752.3718336242467,2114
754.6357583873777,2096
756.8990664502545,2129
759.1617580343765,2158
761.423833361321,2126
763.6852926527457,2120
765.9461361303862,2030
768.206364016058,2109
770.4659765316536,2121
772.7249738991469,2101
774.9833563405886,2198
777.2411240781092,2151
779.4982773339183,2157
781.7548163303044,2085
784.010741289634,2240
786.2660524343538,2278
788.5207499869881,2135
790.7748341701416,2122
793.0283052064964,2162
795.2811633188143,2161
797.5334087299362,2148
799.7850416627813,2107
802.0360623403484,2164
804.2864709857143,2194
806.5362678220353,2131
808.7854530725468,2121
811.0340269605625,2073
813.2819897094754,2240
815.5293415427581,2189
817.77608268396,2191
820.0222133567116,2119
822.2677337847211,2214
824.5126441917765,2187
826.7569448017433,2186
829.0006358385675,2199
831.2437175262731,2191
833.4861900889629,2142
835.7280537508192,2157
837.9693087361026,2198
840.2099552691533,2173
842.4499935743896,2205
844.689423876309,2242
846.9282463994886,2162
849.1664613685833,2159
851.4040690083276,2201
853.6410695435349,2162
855.877463199097,2178
858.1132501999847,2235
860.3484307712487,2198
862.5830051380175,2226
864.8169735254988,2232
867.0503361589791,2244
869.2830932638243,2209
871.5152450654786,2156
873.7467917894654,2114
875.9777336613873,2169
878.2080709069252,2221
880.4378037518389,2177
882.666932421968,2162
884.8954571432301,2221
887.1233781416219,2294
889.3506956432192,2222
891.5774098741766,2223
893.803521060728,2172
896.0290294291852,2191
898.2539352059397,2194
900.4782386174619,2219
902.7019398903011,2154
904.925039251085,2215
907.147536926521,2171
909.3694331433943,2250
911.59072812857,2172
913.8114221089921,2257
916.0315153116827,2190
918.2510079637437,2226
920.4699002923547,2230
922.6881925247761,2208
924.905884888345,2187
927.1229776104793,2241
929.3394709186747,2155
931.555365040506,2161
933.7706602036275,2235
935.9853566357709,2287
938.1994545647489,2241
940.4129542184515,2240
942.6258558248488,2290
944.8381596119883,2289
947.0498658079974,2335
949.2609746410825,2243
951.4714863395287,2228
953.6814011316998,2243
955.8907192460387,2236
958.0994409110671,2197
960.3075663553858,2300
962.5150958076741,2256
964.7220294966913,2194
966.928367651274,2134
969.1341105003388,2142
971.3392582728806,2131
973.5438111979742,2214
975.747769504772,2095
977.9511334225061,2078
980.153903180487,2064
982.3560790081052,2111
984.5576611348289,2025
986.7586497902058,2010
988.9590452038618,2027
991.158847605503,1962
993.3580572249133,1959
995.5566742919558,1930
997.7546990365728,1878
999.952131688785,1879
1002.1489724786926,1797
1004.3452216364743,1844
1006.5408793923874,1852
1008.7359459767691,1795
1010.9304216200343,1817
1013.1243065526781,1816
1015.3176010052733,1732
1017.510305208472,1690
1019.7024193930064,1688
1021.8939437896848,1797
1024.0848786293977,1755
1026.2752241431122,1755
1028.4649805618747,1757
1030.6541481168115,1742
1032.842727039127,1712
1035.0307175601051,1680
1037.2181199111074,1677
1039.4049343235752,1719
1041.591161029029,1694
1043.7768002590683,1767
1045.9618522453698,1680
1048.1463172196918,1653
1050.3301954138697,1688
1052.513487059818,1640
1054.69619238953,1708
1056.8783116350783,1600
1059.0598450286152,1637
1061.2407928023704,1703
1063.4211551886528,1645
1065.6009324198508,1718
1067.780124728432,1610
1069.9587323469414,1648
1072.1367555080046,1665
1074.314194444325,1649
1076.4910493886855,1590
1078.667320573947,1633
1080.843008233051,1570
1083.0181125990161,1622
1085.1926339049414,1609
1087.3665723840027,1675
1089.5399282694575,1630
1091.7127017946405,1624
1093.8848931929647,1592
1096.0565026979243,1606
1098.2275305430899,1586
1100.3979769621128,1578
1102.567842188722,1585
1104.737126456726,1581
1106.9058300000124,1594
1109.0739530525475,1565
1111.2414958483764,1566
1113.4084586216231,1564
1115.5748416064907,1580
1117.7406450372605,1531
1119.9058691482942,1563
1122.0705141740304,1613
1124.2345803489884,1594
1126.3980679077658,1606
1128.5609770850388,1588
1130.7233081155623,1555
1132.8850612341707,1548
1135.0462366757774,1637
1137.2068346753745,1548
1139.3668554680326,1527
1141.526299288901,1473
1143.68516637321,1525
1145.8434569562655,1585
1148.001171273455,1463
1150.158309560244,1463
1152.3148720521767,1586
1154.470858984876,1544
1156.626270594044,1533
1158.7811071154629,1544
1160.9353687849912,1564
1163.089055838569,1539
1165.242168512213,1571
1167.3947070420209,1554
1169.5466716641677,1533
1171.6980626149075,1533
1173.8488801305748,1540
1175.9991244475814,1536
1178.1487958024186,1528
1180.2978944316555,1536
1182.4464205719428,1460
1184.5943744600072,1518
1186.7417563326567,1459
1188.8885664267755,1485
1191.0348049793297,1512
1193.1804722273619,1511
1195.325568407995,1490
1197.4700937584303,1493
1199.614048515948,1470
1201.7574329179074,1559
1203.900247201746,1471
1206.042491604982,1525
1208.1841663652099,1505
1210.3252717201053,1546
1212.465807907422,1453
1214.6057751649923,1564
1216.7451737307279,1586
1218.8840038426192,1558
1221.0222657387353,1495
1223.1599596572241,1519
1225.2970858363137,1545
1227.4336445143094,1581
1229.5696359295966,1565
1231.705060320639,1554
1233.8399179259786,1511
1235.9742089842384,1598
1238.107933734118,1548
1240.2410924143974,1529
1242.373685263935,1575
1244.5057125216676,1545
1246.6371744266116,1541
1248.7680712178621,1548
1250.898403134593,1606
1253.028170416058,1613
1255.1573733015875,1581
1257.2860120305932,1575
1259.4140868425648,1537
1261.54159797707,1562
1263.6685456737569,1651
1265.7949301723515,1532
1267.9207517126597,1557
1270.046010534565,1619
1272.1707068780306,1686
1274.2948409830983,1653
1276.4184130898889,1596
1278.541423438603,1666
1280.6638722695184,1621
1282.785759822993,1593
1284.9070863394636,1604
1287.0278520594447,1633
1289.1480572235314,1636
1291.2677020723963,1623
1293.3867868467923,1699
1295.5053117875495,1616
1297.623277135579,1637
1299.740683131868,1645
1301.8575300174857,1705
1303.973818033578,1671
1306.0895474213703,1731
1308.2047184221678,1645
1310.3193312773528,1708
1312.4333862283888,1682
1314.5468835168163,1643
1316.659823384255,1657
1318.7722060724045,1699
1320.8840318230418,1626
1322.9953008780249,1639
1325.1060134792888,1640
1327.2161698688478,1671
1329.3257702887959,1637
1331.4348149813054,1634
1333.5433041886276,1598
1335.6512381530933,1658
1337.7586171171101,1642
1339.8654413231675,1611
1341.9717110138317,1610
1344.0774264317488,1684
1346.1825878196432,1700
1348.2871954203192,1715
1350.3912494766587,1661
1352.4947502316231,1700
1354.5976979282532,1627
1356.7000928096686,1658
1358.8019351190665,1622
1360.9032250997243,1607
1363.0039629949988,1625
1365.1041490483235,1682
1367.2037835032133,1612
1369.3028666032606,1705
1371.401398592137,1686
1373.4993797135926,1694
1375.5968102114575,1620
1377.6936903296396,1609
1379.7900203121262,1665
1381.8858004029835,1657
1383.9810308463561,1623
1386.075711886469,1625
1388.1698437676241,1656
1390.2634267342032,1605
1392.356461030667,1630
1394.4489469015557,1626
1396.5408845914872,1672
1398.6322743451592,1657
1400.7231164073469,1627
1402.813411022907,1678
1404.903158436773,1653
1406.9923588939578,1717
1409.0810126395531,1679
1411.1691199187303,1746
1413.2566809767386,1693
1415.343696058907,1710
1417.4301654106425,1706
1419.5160892774315,1723
1421.6014679048399,1705
1423.6863015385125,1739
1425.7705904241707,1683
1427.8543348076178,1688
1429.9375349347342,1697
1432.0201910514802,1648
1434.102303403894,1642
1436.1838722380944,1638
1438.2648978002767,1689
1440.3453803367174,1727
1442.4253200937692,1757
1444.5047173178677,1716
1446.5835722555234,1698
1448.6618851533285,1785
1450.739656257952,1761
1452.8168858161434,1755
1454.8935740747306,1739
1456.96972128062,1735
1459.045327680797,1758
1461.120393522327,1750
1463.1949190523528,1837
1465.2689045180973,1828
1467.3423501668608,1792
1469.415256246024,1829
1471.4876230030463,1811
1473.559450685465,1855
1475.6307395408976,1850
1477.7014898170391,1836
1479.771701761665,1881
1481.8413756226287,1803
1483.9105116478618,1806
1485.9791100853772,1817
1488.0471711832643,1903
1490.1146951896926,1856
1492.1816823529098,1837
1494.2481329212433,1889
1496.3140471430984,1881
1498.3794252669609,1885
1500.4442675413939,1953
1502.5085742150404,1960
1504.572345536622,1983
1506.6355817549388,1960
1508.6982831188702,1961
1510.7604498773744,1939
1512.8220822794883,1928
1514.8831805743293,1977
1516.9437450110909,2000
1519.003775839048,1965
1521.0632733075522,2002
1523.1222376660367,1943
1525.1806691640113,1948
1527.2385680510652,1953
1529.2959345768668,2022
1531.3527689911643,2009
1533.4090715437833,1989
1535.4648424846291,2042
1537.5200820636855,2007
1539.5747905310159,1996
1541.6289681367616,2026
1543.6826151311434,2106
1545.7357317644614,2121
1547.7883182870937,2180
1549.8403749494987,2193
1551.8919020022113,2175
1553.9428996958477,2097
1555.9933682811015,2110
1558.0433080087469,2190
1560.0927191296346,2204
1562.1416018946961,2193
1564.1899565549415,2267
1566.2377833614592,2296
1568.2850825654164,2277
1570.3318544180606,2272
1572.3780991707158,2272
1574.423817074788,2265
1576.4690083817595,2229
1578.5136733431923,2231
1580.5578122107272,2134
1582.601425236085,2060
1584.6445126710646,2066
1586.6870747675434,2012
1588.7291117774776,1962
1590.7706239529034,1950
1592.8116115459347,1916
1594.8520748087658,1806
1596.8920139936686,1800
1598.9314293529933,1843
1600.9703211391711,1802
1603.008689604711,1785
1605.0465350022005,1774
1607.0838575843068,1772
1609.1206576037753,1739
1611.1569353134305,1694
1613.1926909661765,1714
1615.2279248149953,1682
1617.2626371129481,1612
1619.2968281131757,1620
1621.3304980688963,1650
1623.3636472334088,1627
1625.39627586009,1667
1627.428384202396,1592
1629.459972513861,1607
1631.4910410480993,1642
1633.5215900588028,1644
1635.551619799744,1657
1637.5811305247717,1591
1639.6101224878166,1622
1641.6385959428862,1599
1643.6665511440683,1639
1645.693988345528,1576
1647.7209078015112,1499
1649.7473097663405,1528
1651.7731944944203,1593
1653.7985622402307,1566
1655.823413258333,1574
1657.847747803366,1547
1659.8715661300494,1515
1661.8948684931793,1540
1663.9176551476316,1530
1665.9399263483624,1580
1667.9616823504057,1570
1669.982923408873,1546
1672.0036497789574,1545
1674.0238617159293,1535
1676.043559475138,1525
1678.0627433120121,1519
1680.081413482059,1573
1682.0995702408654,1589
1684.117213844096,1572
1686.134344547495,1589
1688.1509626068864,1586
1690.1670682781705,1590
1692.182661817329,1560
1694.1977434804217,1508
1696.2123135235875,1569
1698.226372203043,1604
1700.2399197750851,1588
1702.2529564960905,1538
1704.2654826225112,1583
1706.277498410882,1580
1708.2890041178139,1521
1710.2999999999988,1605
1712.3104863142066,1533
1714.3204633172854,1482
1716.329931266163,1498
1718.3388904178469,1470
1720.3473410294214,1570
1722.3552833580516,1547
1724.3627176609807,1589
1726.3696441955308,1597
1728.3760632191033,1604
1730.3819749891782,1520
1732.3873797633146,1586
1734.3922777991502,1581
1736.3966693544012,1559
1738.4005546868639,1503
1740.4039340544127,1514
1742.406807715001,1491
1744.4091759266616,1530
1746.4110389475054,1611
1748.4123970357223,1578
1750.413250449582,1549
1752.4135994474318,1549
1754.4134442876993,1557
1756.4127852288902,1489
1758.4116225295893,1561
1760.4099564484595,1542
1762.407787244244,1586
1764.405115175764,1577
1766.4019405019203,1528
1768.3982634816916,1554
1770.3940843741357,1600
1772.3894034383907,1581
1774.3842209336717,1581
1776.378537119274,1520
1778.372352254571,1572
1780.3656665990156,1544
1782.3584804121397,1606
1784.3507939535534,1569
1786.3426074829463,1455
1788.3339212600863,1581
1790.3247355448211,1582
1792.3150505970766,1596
1794.3048666768573,1550
1796.2941840442477,1591
1798.2830029594106,1487
1800.2713236825884,1573
1802.2591464741004,1538
1804.2464715943465,1507
1806.2332993038058,1603
1808.2196298630352,1543
1810.2054635326708,1585
1812.190800573428,1596
1814.175641246101,1578
1816.1599858115628,1609
1818.1438345307652,1604
1820.127187664738,1607
1822.1100454745924,1553
1824.092408221516,1588
1826.0742761667766,1508
1828.055649571721,1518
1830.0365286977735,1577
1832.0169138064398,1557
1833.9968051593014,1557
1835.9762030180214,1572
1837.9551076443408,1571
1839.9335193000788,1552
1841.9114382471344,1544
1843.888864747485,1572
1845.8657990631878,1528
1847.842241456378,1514
1849.8181921892697,1488
1851.7936515241558,1554
1853.7686197234098,1503
1855.7430970494815,1515
1857.7170837649014,1493
1859.6905801322787,1522
1861.6635864143004,1554
1863.6361028737338,1518
1865.608129773424,1563
1867.5796673762961,1521
1869.5507159453537,1542
1871.521275743678,1572
1873.4913470344313,1536
1875.4609300808534,1574
1877.4300251462632,1574
1879.3986324940588,1581
1881.366752387717,1511
1883.3343850907936,1561
1885.3015308669228,1579
1887.268189979819,1622
1889.2343626932739,1496
1891.2000492711595,1501
1893.1652499774254,1573
1895.1299650761011,1567
1897.0941948312952,1521
1899.0579395071945,1576
1901.0211993680641,1601
1902.98397467825,1610
1904.9462657021745,1545
1906.9080727043415,1629
1908.869395949332,1604
1910.8302357018065,1543
1912.790592226504,1542
1914.7504657882428,1532
1916.7098566519212,1558
1918.6687650825133,1542
1920.6271913450764,1500
1922.5851357047422,1605
1924.5425984267245,1660
1926.499579776314,1570
1928.4560800188833,1559
1930.4120994198802,1496
1932.367638244833,1559
1934.32269675935,1541
1936.2772752291175,1596
1938.231373919899,1591
1940.1849930975404,1517
1942.1381330279637,1529
1944.0907939771696,1580
1946.0429762112412,1527
1947.9946799963363,1571
1949.9459055986945,1543
1951.896653284633,1510
1953.8469233205478,1554
1955.7967159729142,1529
1957.7460315082863,1544
1959.6948701932974,1577
1961.6432322946594,1531
1963.5911180791632,1505
1965.5385278136787,1525
1967.4854617651545,1561
1969.4319202006182,1544
1971.377903387176,1524
1973.3234115920136,1569
1975.268445082395,1506
1977.2130041256642,1481
1979.1570889892423,1580
1981.1006999406304,1533
1983.04383724741,1508
1984.986501177238,1525
1986.928691997853,1477
1988.8704099770712,1446
1990.811655382789,1513
1992.7524284829801,1534
1994.692729545698,1503
1996.6325588390755,1533
1998.5719166313224,1509
2000.5108031907307,1514
2002.4492187856677,1487
2004.387163684583,1518
2006.3246381560011,1499
2008.2616424685298,1544
2010.1981768908527,1482
2012.1342416917332,1489
2014.069837140014,1558
2016.0049635046162,1514
2017.9396210545406,1561
2019.8738100588666,1523
2021.8075307867502,1546
2023.740783507431,1501
2025.6735684902228,1557
2027.6058860045214,1504
2029.5377363198004,1524
2031.4691197056118,1490
2033.4000364315875,1529
2035.3304867674374,1486
2037.260470982952,1537
2039.189989347998,1504
2041.1190421325232,1581
2043.047629606554,1501
2044.9757520401945,1609
2046.9034097036288,1602
2048.8306028671195,1528
2050.7573318010086,1495
2052.683596775716,1489
2054.609398061742,1524
2056.5347359296647,1505
2058.4596106501403,1470
2060.384022493906,1539
2062.3079717317764,1471
2064.231458634646,1501
2066.1544834734873,1519
2068.077046519352,1483
2069.99914804337,1480
2071.9207883167524,1495
2073.8419676107865,1489
2075.7626861968406,1518
2077.6829443463607,1467
2079.6027423308715,1518
2081.522080421977,1519
2083.440958891362,1457
2085.359378010786,1475
2087.2773380520907,1486
2089.194839287196,1491
2091.111881988101,1480
2093.0284664268825,1473
2094.9445928756973,1577
2096.86026160678,1570
2098.775472892446,1484
2100.690227005088,1538
2102.604524217178,1488
2104.5183648012676,1501
2106.431749029985,1527
2108.34467717604,1447
2110.2571495122206,1522
2112.169166311393,1553
2114.080727846503,1513
2115.9918343905747,1517
2117.902486216711,1540
2119.8126835980956,1536
2121.722426807987,1536
2123.6317161197285,1564
2125.5405518067364,1535
2127.448934142509,1608
2129.356863400624,1537
2131.264339854737,1597
2133.1713637785815,1540
2135.077935445972,1605
2136.9840551308002,1574
2138.889723107037,1581
2140.7949396487334,1559
2142.699705030018,1519
2144.6040195250994,1656
2146.507883408264,1584
2148.4112969538774,1561
2150.3142604363848,1586
2152.2167741303097,1618
2154.1188383102535,1635
2156.0204532508997,1645
2157.9216192270064,1609
2159.822336513414,1637
2161.7226053850413,1577
2163.622426116884,1625
2165.5217989840185,1624
2167.4207242616,1606
2169.319202224862,1602
2171.2172331491165,1625
2173.1148173097563,1620
2175.0119549822507,1595
2176.90864644215,1606
2178.8048919650823,1639
2180.7006918267534,1649
2182.596046302952,1629
2184.4909556695407,1623
2186.3854202024645,1597
2188.279440177746,1666
2190.173015871487,1676
2192.066147559868,1636
2193.958835519149,1624
2195.851080025667,1640
2197.7428813558417,1618
2199.6342397861667,1700
2201.5251555932186,1618
2203.415629053651,1679
2205.3056604441986,1654
2207.19525004167,1618
2209.084398122958,1679
2210.9731049650327,1642
2212.861370844941,1729
2214.749196039812,1728
2216.636580826851,1699
2218.523525483344,1671
2220.410030286655,1678
2222.296095514226,1712
2224.1817214435805,1663
2226.066908352319,1622
2227.951656518121,1638
2229.835966218746,1624
2231.71983773203,1637
2233.6032713358913,1622
2235.486267308324,1644
2237.3688259274036,1674
2239.2509474712824,1644
2241.132632218193,1708
2243.013880446447,1663
2244.8946924344323,1677
2246.7750684606203,1602
2248.6550088035574,1619
2250.534513741871,1676
2252.413583554265,1623
2254.292218519526,1668
2256.170418916517,1680
2258.0481850241786,1542
2259.925517121534,1644
2261.8024154876825,1605
2263.678880401803,1602
2265.5549121431536,1675
2267.430510991071,1615
2269.305677224971,1619
2271.180411124348,1611
2273.0547129687766,1618
2274.9285830379076,1541
2276.8020216114737,1593
2278.6750289692845,1604
2280.5476053912294,1585
2282.4197511572766,1704
2284.2914665474727,1692
2286.162751841943,1641
2288.0336073208937,1730
2289.904033264608,1698
2291.774029953448,1730
2293.6435976678554,1726
2295.5127366883517,1660
2297.381447295534,1596
2299.2497297700825,1511
2301.1175843927526,1499
2302.9850114443825,1469
2304.852011205885,1412
2306.7185839582553,1400
2308.5847299825664,1373
2310.4504495599676,1384
2312.3157429716925,1374
2314.1806104990483,1383
2316.0450524234247,1383
2317.9090690262888,1370
2319.772660589186,1346
2321.635827393742,1373
2323.498569721661,1373
2325.3608878547248,1345
2327.2227820747967,1357
2329.0842526638157,1300
2330.945299903803,1345
2332.805924076857,1347
2334.6661254651535,1357
2336.525904350951,1317
2338.3852610165827,1320
2340.244195744464,1290
2342.102708817088,1339
2343.9608005170253,1341
2345.8184711269287,1409
2347.675720929526,1336
2349.532550207628,1361
2351.38895924412,1345
2353.24494832197,1335
2355.100517724223,1389
2356.955667734004,1349
2358.810398634514,1330
2360.664710709037,1322
2362.5186042409337,1397
2364.3720795136437,1328
2366.225136810686,1356
2368.0777764156583,1333
2369.929998612237,1313
2371.7818036841777,1348
2373.633191915315,1394
2375.484163589562,1349
2377.3347189909114,1396
2379.184858403434,1343
2381.03458211128,1303
2382.8838903986775,1363
2384.732783549936,1312
2386.5812618494406,1328
2388.4293255816588,1376
2390.2769750311327,1369
2392.1242104824883,1384
2393.971032220427,1413
2395.8174405297295,1354
2397.6634356952563,1375
2399.509018001947,1346
2401.3541877348193,1392
2403.1989451789705,1336
2405.043290619576,1315
2406.8872243418905,1371
2408.730746631247,1385
2410.5738577730594,1325
2412.4165580528183,1403
2414.258847756095,1393
2416.100727168537,1393
2417.9421965758734,1392
2419.783256263912,1373
2421.623906518538,1421
2423.4641476257157,1378
2425.303979871491,1424
2427.143403541984,1344
2428.9824189233977,1431
2430.821026302012,1376
2432.6592259641866,1407
2434.497018196361,1304
2436.33440328505,1398
2438.171381516851,1366
2440.00795317844,1421
2441.844118556569,1381
2443.6798779380724,1337
2445.5152316098606,1372
2447.3501798589255,1359
2449.1847229723357,1345
2451.0188612372403,1316
2452.8525949408663,1361
2454.6859243705203,1357
2456.518849813587,1374
2458.3513715575314,1386
2460.183489889895,1378
2462.015205098301,1378
2463.8465174704493,1379
2465.67742729412,1286
2467.5079348571717,1353
2469.338040447542,1378
2471.1677443532476,1435
2472.9970468623833,1408
2474.825948263123,1406
2476.6544488437207,1366
2478.482548892508,1411
2480.310248697896,1403
2482.137548548374,1338
2483.9644487325118,1418
2485.790949538956,1420
2487.617051256433,1413
2489.44275417375,1393
2491.26805857979,1389
2493.0929647635157,1350
2494.917473013971,1377
2496.741583620276,1416
2498.5652968716304,1401
2500.3886130573137,1358
2502.2115324666834,1401
2504.0340553891765,1420
2505.856182114308,1361
2507.6779129316733,1450
2509.499248130945,1345
2511.3201880018764,1408
2513.140732834298,1398
2514.9608829181198,1381
2516.780638543331,1379
2518.6,1391
2520.418967578273,1391
2522.237541568376,1431
2524.0557222606144,1416
2525.8735099453706,1402
2527.6909049131086,1476
2529.507907454368,1404
2531.32451785977,1368
2533.140736420014,1381
2534.9565634258774,1353
2536.771999168218,1447
2538.5870439379714,1407
2540.4016980261526,1442
2542.2159617238544,1425
2544.02983532225,1416
2545.8433191125914,1427
2547.656413386209,1404
2549.4691184345115,1463
2551.2814345489874,1470
2553.093362021204,1480
2554.904901142808,1493
2556.716052205523,1481
2558.526815501153,1493
2560.3371913215824,1506
2562.147179958771,1528
2563.956781704761,1472
2565.7659968516705,1489
2567.5748256916986,1460
2569.3832685171224,1451
2571.1913256202984,1471
2572.9989972936614,1469
2574.806283829725,1480
2576.613185521084,1519
2578.4197026604074,1521
2580.2258355404483,1517
2582.031584454035,1518
2583.836949694077,1561
2585.6419315535613,1596
2587.4465303255533,1529
2589.2507463032002,1589
2591.0545797797245,1528
2592.8580310484303,1548
2594.6611004026995,1538
2596.463788135992,1552
2598.266094541849,1547
2600.0680199138874,1513
2601.869564545807,1547
2603.670728731383,1516
2605.4715127644704,1517
2607.2719169390048,1566
2609.071941548998,1516
2610.8715868885433,1512
2612.670853251811,1553
2614.469740933052,1563
2616.268250226594,1559
2618.0663814268455,1543
2619.864134828292,1441
2621.6615107255006,1557
2623.458509413115,1472
2625.2551311858597,1498
2627.0513763385347,1485
2628.8472451660223,1498
2630.6427379632833,1454
2632.4378550253564,1475
2634.232596647359,1494
2636.026963124488,1515
2637.8209547520187,1520
2639.6145718253065,1475
2641.407814639785,1459
2643.200683490966,1454
2644.9931786744414,1465
2646.7853004858807,1514
2648.577049221034,1446
2650.3684251757277,1473
2652.1594286458712,1465
2653.9500599274484,1440
2655.740319316525,1435
2657.5302071092437,1440
2659.3197236018286,1455
2661.10886909058,1477
2662.8976438718782,1450
2664.686048242183,1361
2666.4740824980327,1376
2668.2617469360443,1439
2670.0490418529134,1421
2671.8359675454153,1393
2673.622524310403,1417
2675.408712444811,1422
2677.1945322456495,1382
2678.979984010009,1387
2680.76506803506,1384
2682.5497846180497,1347
2684.334134056306,1375
2686.1181166472343,1353
2687.9017326883213,1405
2689.6849824771293,1366
2691.4678663113013,1336
2693.2503844885596,1381
2695.032537306705,1378
2696.8143250636167,1321
2698.5957480572542,1373
2700.3768065856534,1402
2702.1575009469316,1407
2703.937831439283,1380
2705.717798360982,1380
2707.4974020103837,1341
2709.276642685917,1329
2711.055520686095,1399
2712.834036309506,1373
2714.612189854819,1406
2716.389981620782,1393
2718.1674119062204,1351
2719.944481010041,1411
2721.721189231226,1364
2723.4975368688415,1405
2725.273524222027,1354
2727.0491515900053,1421
2728.824419272075,1375
2730.5993275676146,1355
2732.3738767760838,1318
2734.148067197016,1355
2735.921899130031,1271
2737.6953728748194,1302
2739.468488731156,1229
2741.2412469988926,1267
2743.0136479779617,1384
2744.785691968372,1379
2746.5573792702116,1364
2748.3287101836504,1374
2750.099685008934,1380
2751.870304046388,1359
2753.640567596418,1357
2755.4104759595057,1271
2757.1800294362156,1348
2758.949228327187,1346
2760.7180729331412,1347
2762.486563554877,1358
2764.254700493272,1302
2766.022484049284,1377
2767.789914523947,1392
2769.5569922183786,1330
2771.3237174337705,1364
2773.090090471394,1350
2774.8561116326036,1349
2776.6217812188274,1401
2778.3870995315756,1336
2780.1520668724356,1317
2781.9166835430747,1309
2783.6809498452394,1313
2785.444866080754,1374
2787.2084325515225,1315
2788.971649559527,1313
2790.73451740683,1277
2792.4970363955713,1341
2794.2592068279705,1288
2796.0210290063264,1378
2797.7825032330147,1284
2799.543629810493,1344
2801.304409041296,1360
2803.0648412280366,1341
2804.8249266734088,1357
2806.5846656801846,1397
2808.344058551212,1380
2810.1031055894246,1313
2811.8618070978273,1342
2813.6201633795085,1334
2815.378174737636,1342
2817.1358414754536,1342
2818.893163896285,1361
2820.6501423035334,1380
2822.4067770006814,1333
2824.1630682912883,1310
2825.9190164789957,1346
2827.6746218675207,1363
2829.429884760661,1345
2831.184805462294,1413
2832.9393842763743,1381
2834.693621506936,1319
2836.4475174580916,1389
2838.201072434034,1354
2839.954286739034,1365
2841.707160677441,1352
2843.459694553685,1385
2845.2118886722724,1380
2846.96374333779,1380
2848.7152588549034,1400
2850.4664355283567,1393
2852.217273662973,1441
2853.9677735636546,1426
2855.7179355353833,1367
2857.4677598832186,1365
2859.217246912299,1336
2860.9663969278427,1346
2862.715210235146,1317
2864.4636871395846,1365
2866.211827946614,1379
2867.9596329617652,1334
2869.7071024906536,1310
2871.4542368389684,1366
2873.20103631248,1390
2874.947501217038,1341
2876.6936318585695,1402
2878.4394285430812,1415
2880.1848915766604,1381
2881.9300212654707,1377
2883.6748179157553,1367
2885.4192818338374,1338
2887.1634133261173,1346
2888.907212699077,1415
2890.6506802592744,1384
2892.393816313348,1333
2894.1366211680142,1370
2895.8790951300693,1391
2897.621238506388,1371
2899.363051603925,1339
2901.1045347297118,1367
2902.8456881908596,1312
2904.58651229456,1312
2906.327007348081,1334
2908.067173658772,1402
2909.8070115340597,1365
2911.5465212814497,1270
2913.285703208527,1373
2915.0245576229563,1319
2916.7630848324807,1385
2918.5012851449196,1289
2920.2391588681758,1372
2921.976706310227,1410
2923.7139277791334,1344
2925.4508235830313,1357
2927.187394030137,1368
2928.923639428745,1367
2930.6595600872306,1377
2932.395156314046,1326
2934.1304284177218,1325
2935.8653767068713,1257
2937.6000014901815,1355
2939.3343030764227,1346
2941.068281774442,1333
2942.8019378931644,1340
2944.5352717415976,1414
2946.2682836288236,1395
2948.0009738640065,1384
2949.7333427563885,1343
2951.465390615289,1315
2953.1971177501086,1388
2954.9285244703265,1378
2956.6596110855,1389
2958.3903779052657,1330
2960.1208252393385,1388
2961.8509533975125,1367
2963.5807626896617,1281
2965.3102534257378,1313
2967.0394259157715,1344
2968.768280469873,1302
2970.496817398232,1384
2972.2250370111146,1345
2973.952939618869,1390
2975.6805255319196,1398
2977.4077950607707,1336
2979.134748516006,1372
2980.861386208289,1382
2982.587708448359,1351
2984.313715547037,1369
2986.039407815222,1386
2987.764785563891,1386
2989.489849104102,1413
2991.2145987469908,1316
2992.9390348037705,1346
2994.6631575857346,1349
2996.3869674042576,1336
2998.1104645707887,1322
2999.83364939686,1361
3001.5565221940783,1336
3003.2790832741334,1339
3005.0013329487924,1299
3006.7232715298996,1346
3008.4448993293804,1342
3010.166216659239,1354
3011.887223831558,1324
3013.607921158498,1324
3015.3283089522993,1311
3017.0483875252826,1396
3018.7681571898443,1291
3020.4876182584626,1342
3022.2067710436927,1404
3023.9256158581707,1342
3025.644153014609,1337
3027.362382825801,1343
3029.0803056046193,1315
3030.797921664012,1275
3032.5152313170106,1297
3034.2322348767225,1346
3035.9489326563353,1265
3037.665324969115,1336
3039.3814121284063,1338
3041.097194447633,1317
3042.812672240299,1339
3044.5278458199855,1330
3046.2427155003525,1341
3047.9572815951406,1335
3049.671544418167,1332
3051.38550428333,1322
3053.0991615046073,1352
3054.812516396051,1282
3056.5255692717974,1334
3058.2383204460575,1304
3059.9507702331257,1310
3061.662918947372,1337
3063.3747669032446,1357
3065.0863144152736,1355
3066.7975617980674,1306
3068.508509366309,1324
3070.219157434767,1332
3071.9295063182844,1355
3073.639556331785,1349
3075.3493077902704,1305
3077.058761008821,1306
3078.7679163025964,1335
3080.476773986837,1351
3082.1853343768594,1353
3083.89359778806,1347
3085.6015645359153,1316
3087.3092349359786,1346
3089.016609303884,1284
3090.7236879553434,1354
3092.4304712061476,1321
3094.136959372166,1342
3095.843152769349,1386
3097.5490517137237,1344
3099.2546565213966,1289
3100.959967508554,1346
3102.66498499146,1272
3104.3697092864577,1309
3106.0741407099695,1334
3107.778279578498,1314
3109.482126208622,1330
3111.1856809170004,1325
3112.8889440203716,1312
3114.5919158355528,1403
3116.294596679439,1326
3117.996986869006,1359
3119.6990867213062,1312
3121.4008965534726,1353
3123.102416682717,1329
3124.803647426329,1293
3126.5045891016784,1315
3128.205242026213,1337
3129.90560651746,1285
3131.605682893025,1315
3133.3054714705922,1326
3135.0049725679282,1391
3136.7041865028714,1375
3138.4031135933465,1328
3140.101754157353,1257
3141.800108512971,1309
3143.498176978357,1320
3145.1959598717494,1376
3146.8934575114636,1315
3148.5906702158954,1329
3150.2875983035183,1319
3151.9842420928853,1338
3153.680601902627,1382
3155.376678051456,1265
3157.07247085816,1268
3158.767980641609,1336
3160.463207720748,1352
3162.158152414606,1336
3163.8528150422862,1319
3165.5471959229726,1298
3167.2412953759303,1311
3168.9351137204976,1298
3170.628651276098,1276
3172.3219083622307,1343
3174.014885298474,1313
3175.707582404485,1357
3177.4000000000005,1334
3179.092138404835,1329
3180.7839979388846,1346
3182.47557892212,1301
3184.166881674594,1351
3185.8579065164386,1315
3187.5486537678626,1322
3189.2391237491547,1343
3190.9293167806827,1340
3192.6192331828934,1294
3194.3088732763117,1371
3195.998237381542,1361
3197.687325819268,1298
3199.376138910251,1297
3201.064676975334,1275
3202.7529403354347,1286
3204.4409293115523,1296
3206.1286442247647,1345
3207.816085396229,1363
3209.5032531471825,1293
3211.190147798936,1257
3212.8767696728846,1289
3214.5631190905015,1354
3216.2491963733373,1319
3217.9350018430214,1241
3219.6205358212637,1254
3221.305798629851,1285
3222.990790590651,1255
3224.6755120256103,1276
3226.359963256751,1252
3228.0441446061795,1306
3229.7280563960758,1303
3231.411698948703,1331
3233.0950725863995,1354
3234.778177631587,1311
3236.461014406761,1329
3238.1435832345005,1294
3239.8258844374595,1285
3241.507918338374,1293
3243.1896852600576,1313
3244.8711855254023,1360
3246.552419457381,1307
3248.233387379042,1302
3249.914089613516,1302
3251.59452648401,1280
3253.274698313813,1288
3254.95460542629,1276
3256.6342481448855,1248
3258.313626793125,1313
3259.9927416946084,1216
3261.6715931730196,1321
3263.3501815521176,1312
3265.0285071557437,1250
3266.706570307815,1231
3268.3843713323286,1303
3270.0619105533615,1305
3271.739188295068,1320
3273.4162048816834,1334
3275.0929606375184,1325
3276.769455886966,1266
3278.445690954498,1294
3280.1216661646613,1256
3281.797381842087,1325
3283.4728383114807,1343
3285.1480358976296,1348
3286.8229749253996,1341
3288.4976557197333,1333
3290.172078605655,1314
3291.846243908266,1266
3293.5201519527463,1231
3295.193803064357,1287
3296.8671975684374,1272
3298.5403357904024,1284
3300.21321805575,1321
3301.8858446900567,1306
3303.558216018975,1322
3305.23033236824,1302
3306.9021940636603,1325
3308.57380143113,1265
3310.2451547966184,1291
3311.916254486174,1299
3313.5871008259246,1316
3315.2576941420766,1301
3316.9280347609147,1306
3318.5981230088046,1306
3320.2679592121895,1353
3321.9375436975924,1277
3323.606876791612,1235
3325.27595882093,1314
3326.944790112305,1293
3328.6133709925753,1306
3330.2817017886573,1279
3331.949782827547,1261
3333.617614436319,1354
3335.2851969421245,1368
3336.952530672199,1290
3338.619615953853,1294
3340.286453114475,1299
3341.9530424815357,1287
3343.619384382583,1328
3345.2854791452437,1322
3346.951327097224,1292
3348.6169285663073,1318
3350.2822838803577,1297
3351.947393367319,1336
3353.61225735521,1326
3355.2768761721345,1313
3356.9412501462693,1346
3358.605379605873,1271
3360.2692648792827,1290
3361.9329062949146,1265
3363.596304181263,1271
