CollectionTime,9/19/2024 11:18:14 AM
ExposureUsed,3
CalibratedSpectrum
-962.7078968117929,610
-959.9714848408522,666
-957.2358232597828,707
-954.5009119013725,627
-951.7667505983302,716
-949.0333391832855,734
-946.3006774887896,711
-943.5687653473143,711
-940.837602591253,696
-938.1071890529199,731
-935.3775245645503,714
-932.6486089583007,702
-929.9204420662485,693
-927.1930237203925,695
-924.4663537526524,710
-921.7404319948689,736
-919.0152582788041,767
-916.2908324361409,770
-913.5671542984834,684
-910.8442236973568,696
-908.1220404642074,702
-905.4006044304027,686
-902.679915427231,675
-899.959973285902,652
-897.2407778375464,657
-894.5223289132158,710
-891.8046263438832,691
-889.0876699604426,703
-886.3714595937089,688
-883.6559950744183,641
-880.9412762332282,639
-878.2273029007168,679
-875.5140749073835,700
-872.8015920836489,667
-870.0898542598545,655
-867.3788612662631,628
-864.6686129330585,652
-861.9591090903457,664
-859.2503495681506,678
-856.5423341964203,674
-853.8350628050229,689
-851.1285352237478,702
-848.4227512823054,641
-845.7177108103272,664
-843.0134136373656,693
-840.3098595928943,689
-837.6070485063082,666
-834.9049802069229,706
-832.2036545239757,686
-829.5030712866244,676
-826.8032303239481,653
-824.1041314649472,708
-821.4057745385428,678
-818.7081593735775,644
-816.0112857988148,691
-813.3151536429393,673
-810.6197627345566,663
-807.9251129021936,661
-805.2312039742981,667
-802.5380357792392,705
-799.8456081453069,686
-797.1539209007124,696
-794.462973873588,744
-791.772766891987,722
-789.083299783884,736
-786.3945723771743,731
-783.7065844996748,700
-781.0193359791231,691
-778.3328266431781,708
-775.6470563194197,708
-772.9620248353489,654
-770.2777320183878,684
-767.5941776958798,738
-764.9113616950891,694
-762.2292838432011,714
-759.5479439673222,665
-756.8673418944801,675
-754.1874774516235,676
-751.5083504656222,720
-748.8299607632671,702
-746.15230817127,734
-743.475392516264,720
-740.7992136248035,706
-738.1237713233636,700
-735.4490654383407,702
-732.7750957960521,707
-730.1018622227365,735
-727.4293645445534,709
-724.7576025875837,712
-722.0865761778291,703
-719.4162851412126,744
-716.7467293035781,763
-714.0779084906909,717
-711.409822528237,745
-708.7424712418238,722
-706.0758544569796,756
-703.4099719991541,760
-700.7448236937178,736
-698.0804093659622,763
-695.4167288411002,767
-692.7537819442656,740
-690.0915685005134,760
-687.4300883348199,801
-684.7693412720819,790
-682.1093271371178,797
-679.4500457546669,780
-676.7914969493897,711
-674.1336805458676,792
-671.4765963686034,819
-668.8202442420206,791
-666.1646239904642,761
-663.5097354382001,786
-660.8555784094151,784
-658.2021527282176,775
-655.5494582186366,789
-652.8974947046223,804
-650.2462620100463,804
-647.5957599587009,812
-644.9459883742998,870
-642.2969470804776,842
-639.6486359007902,903
-637.0010546587141,825
-634.3542031776476,868
-631.7080812809096,831
-629.0626887917401,787
-626.4180255333008,831
-623.7740913286734,886
-621.1308860008619,826
-618.4884093727904,813
-615.8466612673046,831
-613.2056415071715,771
-610.5653499150785,822
-607.9257863136347,856
-605.28695052537,827
-602.6488423727357,784
-600.0114616781036,837
-597.3748082637674,836
-594.7388819519412,864
-592.1036825647604,902
-589.4692099242818,809
-586.8354638524829,893
-584.2024441712624,896
-581.5701507024403,858
-578.9385832677575,855
-576.3077416888759,886
-573.6776257873787,798
-571.0482353847704,805
-568.4195703024757,862
-565.7916303618415,851
-563.164415384135,873
-560.5379251905453,847
-557.9121596021815,799
-555.2871184400748,790
-552.6628015251767,842
-550.0392086783606,877
-547.4163397204204,921
-544.794194472071,904
-542.1727727539491,987
-539.5520743866118,897
-536.9320991905377,920
-534.3128469861261,941
-531.6943175936979,923
-529.0765108334947,953
-526.4594265256793,1037
-523.8430644903358,1267
-521.2274245474689,1311
-518.612506517005,1406
-515.9983102187913,1419
-513.3848354725959,1465
-510.77208209810846,1503
-508.16004991493924,1549
-505.5487387426199,1651
-502.9381484006032,1656
-500.3282787082628,1608
-497.71912948489364,1648
-495.1107005497117,1459
-492.5029917218539,1393
-489.8960028203786,1265
-487.28973366426493,1170
-484.68418407241325,1094
-482.07935386364494,1019
-479.47524285670266,1017
-476.87185087025,1011
-474.2691777228715,1064
-471.66722323307334,1020
-469.0659872192821,1019
-466.4654694998459,1005
-463.86566989303384,987
-461.26658821703614,1007
-458.66822428996414,1016
-456.07057792985,1063
-453.4736489546475,1019
-450.877437182231,975
-448.28194243039627,1013
-445.68716451686,976
-443.09310325926003,997
-440.49975847515555,1023
-437.9071299820263,1043
-435.31521759727354,1069
-432.72402113821954,1069
-430.13354042210767,1051
-427.5437752661022,1071
-424.95472548728867,1062
-422.36639090267386,1087
-419.7787713291855,1072
-417.1918665836721,1069
-414.60567648290385,1096
-412.0202008435715,1095
-409.4354394822874,1166
-406.8513922155845,1120
-404.26805885991723,1119
-401.685439231661,1143
-399.103533147112,1118
-396.522340422488,1039
-393.9418608739278,1048
-391.3620943174908,1025
-388.7830405691583,988
-386.2046994448317,935
-383.6270707603344,1019
-381.05015433141045,896
-378.473949973725,886
-375.8984575028645,799
-373.32367673433623,743
-370.74960748356875,801
-368.1762495659117,733
-365.60360279663576,663
-363.03166699093265,579
-360.4604419639154,566
-357.8899275306178,549
-355.32012350599507,562
-352.7510297049233,525
-350.1826459421999,558
-347.61497203254316,505
-345.04800779059235,498
-342.4817530309082,520
-339.91620756797226,621
-337.35137121618743,644
-334.7872437898774,544
-332.22382510328725,499
-329.66111497058273,510
-327.09911320585127,519
-324.53781962310075,511
-321.9772340362607,476
-319.4173562591816,515
-316.8581861056348,499
-314.2997233893127,518
-311.7419679238294,523
-309.1849195227194,543
-306.62857799943856,572
-304.0729431673641,563
-301.51801483979375,517
-298.963792829947,528
-296.41027695096386,576
-293.85746701590574,563
-291.3053628377552,542
-288.7539642294155,608
-286.2032710037115,647
-283.65328297338897,664
-281.1039999511146,708
-278.5554217494762,726
-276.007548180983,697
-273.4603790580651,635
-270.9139141930734,717
-268.3681533982807,711
-265.8230964858798,784
-263.27874326798565,786
-260.7350935566336,769
-258.1921471637804,678
-255.6499039013039,755
-253.10836358100266,799
-250.56752601459698,738
-248.02739101372765,799
-245.48795838995704,865
-242.94922795476816,779
-240.41119951956557,793
-237.8738728956746,739
-235.33724789434166,759
-232.80132432673452,773
-230.2661020039418,725
-227.73158073697357,792
-225.19776033676033,800
-222.66464061415422,898
-220.1322213799284,851
-217.60050244477725,794
-215.06948361931552,834
-212.53916471408013,1099
-210.00954553952818,1141
-207.48062590603843,937
-204.9524056239104,789
-202.4248845033651,902
-199.8980623545441,912
-197.37193898751036,1041
-194.84651421224817,1057
-192.32178783866232,977
-189.79775967657952,941
-187.27442953574644,1113
-184.7517972258321,1153
-182.2298625564256,1084
-179.7086253370378,833
-177.18808537710026,852
-174.66824248596583,1139
-172.14909647290835,1169
-169.6306471471229,1104
-167.11289431772548,998
-164.59583779375328,1065
-162.07947738416453,1317
-159.5638128978386,1486
-157.04884414357605,1638
-154.53457093009854,1489
-152.02099306604828,1114
-149.50811035998936,1233
-146.99592262040665,1474
-144.48442965570587,1603
-141.97363127421409,1794
-139.46352728417958,1930
-136.95411749377126,1657
-134.44540171107985,1299
-131.93737974411636,1088
-129.43005140081357,1131
-126.92341648902493,1579
-124.41747481652521,2157
-121.91222619101006,2776
-119.40767042009657,2741
-116.90380731132257,2339
-114.40063667214702,2766
-111.8981583099503,3365
-109.3963720320337,4801
-106.89527764561933,7448
-104.39487495785067,10312
-101.89516377579241,13591
-99.39614390642998,18474
-96.89781515667039,23955
-94.40017733334128,27112
-91.90323024319173,21808
-89.40697369289148,14936
-86.91140748903172,9010
-84.41653143812482,6490
-81.92234534660395,11628
-79.42884902082358,20148
-76.93604226705907,25654
-74.4439248915071,26970
-71.95249670028534,26009
-69.46175749943245,23199
-66.97170709490854,19583
-64.48234529259423,15260
-61.99367189829195,12126
-59.50568671772464,12960
-57.01838955653636,12824
-54.53178022029283,13717
-52.045858514480074,14848
-49.560624244506016,17817
-47.07607721569923,17850
-44.59221723330904,19349
-42.10904410250669,19957
-39.62655762838392,19695
-37.14475761595372,18137
-34.66364387015028,19049
-32.18321619582866,23592
-29.70347439776515,23175
-27.224418280657005,22504
-24.74604764912317,29629
-22.26836230770266,48204
-19.7913620608565,65035
-17.315046712966478,65035
-14.83941606833514,65035
-12.36446993118659,65035
-9.89020810566592,65035
-7.416630395839093,65035
-4.94373660569363,65035
-2.471526539137585,65035
-6.821210263296962E-13,65035
2.47084320796705,65035
4.941003281093458,65035
7.410480415786196,65035
9.879274808531363,65035
12.347386655893956,65035
14.814816154518212,65035
17.28156350112681,65035
19.74762889252179,65035
22.21301252558385,25472
24.67771459727237,7072
27.141735304626195,8648
29.605074844762612,9190
32.06773341487792,6865
34.52971121224755,7091
36.99100843422559,6468
39.45162527824516,4262
41.91156194181792,4542
44.370818622535126,5870
46.82939551806646,4707
49.287292826160524,7723
51.74451074464503,7540
54.201049471426245,5066
56.65690920448981,3268
59.112090141899785,2646
61.56659248179983,2768
64.02041642241159,2964
66.4735621620365,3251
68.92602989905402,3886
71.37781983192338,4201
73.82893215918205,2957
76.27936707944684,2379
78.72912479141326,2625
81.17820549385567,2696
83.62660938562783,2671
86.07433666566146,1863
88.5213875329681,1623
90.96776218663751,2106
93.41346082583925,2597
95.85848364982041,2800
98.30283085790859,2352
100.7465026495089,2252
103.18949922410604,1871
105.63182078126385,1485
108.07346752062438,1378
110.51443964190923,1238
112.95473734491827,1307
115.39436082953114,1604
117.83331029570547,1684
120.27158594347827,1932
122.7091879729652,1833
125.1461165843615,1764
127.58237197794062,1528
130.01795435405518,1441
132.4528639131364,1283
134.88710085569494,1324
137.32066538231982,1468
139.75355769367923,1566
142.1857779905207,1372
144.61732647366978,1162
147.04820334403132,1199
149.47840880258934,1224
151.90794305040674,1238
154.33680628862487,1397
156.76499871846443,1525
159.19252054122433,1677
161.61937195828352,1725
164.04555317109896,1935
166.47106438120693,2222
168.89590579022217,2293
171.320077599839,2479
173.7435800118302,2704
176.16641322804742,2793
178.58857745042144,2747
181.01007288096173,2827
183.43089972175687,2798
185.85105817497413,2794
188.27054844285988,2828
190.6893707277394,2826
193.10752523201643,2735
195.5250121581745,2859
197.9418317087751,2877
200.3579840864594,2866
202.7734694939469,3010
205.18828813403627,3194
207.6024402096051,3041
210.01592592360964,2935
212.42874547908548,3016
214.84089907914665,2985
217.2523869269868,2978
219.66320922587727,2907
222.0733661791695,2945
224.48285799029293,2896
226.8916848627572,3005
229.29984700014882,3065
231.7073446061355,3043
234.11417788446204,3152
236.520347038953,3322
238.92585227351185,3316
241.33069379212054,3487
243.73487179884035,3531
246.1383864978112,3518
248.541238093252,3303
250.9434267894609,3541
253.34495279081432,3539
255.74581630176783,3570
258.1460175268563,3599
260.54555667069314,3568
262.9444339379703,3543
265.3426495334594,3575
267.7402036620107,3525
270.1370965285529,3331
272.53332833809407,3126
274.9288992957214,3033
277.32380960660055,2988
279.718059475976,2855
282.1116491091717,2916
284.5045787115897,2781
286.89684848871195,2731
289.2884586460981,2729
291.67940938938807,2840
294.0697009242996,2906
296.4593334566299,2903
298.84830719225477,2836
301.23662233712923,2770
303.6242790972866,2789
306.01127767884,2680
308.39761828798066,2735
310.78330113097934,2668
313.16832641418534,2556
315.5526943440269,2557
317.9364051270112,2547
320.3194589697242,2539
322.70185607883093,2600
325.0835966610754,2482
327.4646809232805,2458
329.8451090723478,2416
332.2248813152577,2414
334.6039978590701,2512
336.9824589109231,2397
339.36026467803447,2336
341.7374153677,2363
344.113911187295,2270
346.48975234427337,2277
348.8649390461686,2339
351.2394715005918,2338
353.61334991523415,2325
355.9865744978655,2310
358.35914545633375,2323
360.73106299856715,2325
363.10232733257146,2227
365.47293866643247,2252
367.84289720831396,2302
370.2122031664593,2199
372.5808567491905,2245
374.9488581649083,2252
377.31620762209275,2213
379.6829053293021,2192
382.0489514951745,2209
384.4143463284262,2138
386.7790900378528,2218
389.14318283232853,2139
391.50662492080653,2183
393.86941651231916,2246
396.23155781597745,2147
398.5930490409713,2271
400.9538903965696,2178
403.3140820921202,2168
405.6736243370498,2132
408.03251734086336,2097
410.3907613131465,2099
412.74835646356166,2072
415.10530300185144,2094
417.4616011378372,2165
419.81725108141893,2140
422.1722530425758,2138
424.5266072313656,2193
426.880313857925,2023
429.2333731324701,2105
431.58578526529516,2072
433.9375504667738,2079
436.2886689473588,2106
438.63914091758113,2104
440.9889665880513,1983
443.33814616945835,2065
445.68667987257015,1962
448.03456790823395,2011
450.3818104873759,2003
452.72840782100013,2035
455.07436012019105,2098
457.41966759611057,2014
459.7643304600007,2017
462.10834892318155,2021
464.4517231970525,2013
466.79445349309174,2060
469.1365400228566,2095
471.4779829979826,2071
473.81878263018564,2115
476.15893913125876,2066
478.4984527130747,2109
480.8373235875855,2107
483.17555196682144,2167
485.5131380628919,2210
487.8500820879857,2300
490.1863842543697,2405
492.52204477439034,2537
494.8570638604725,2824
497.1914417251204,2921
499.52517858091653,3176
501.85827464052306,3351
504.19073011668036,3550
506.5225452222086,3534
508.85372017000566,3474
511.18425517304956,3878
513.514150444396,4373
515.8434061971808,5775
518.1720226446176,6508
520.4999999999999,6631
522.8273384766991,6402
525.1540382881666,6005
527.480099647932,5455
529.8055227696037,4196
532.1303078668694,3067
534.454455153496,2598
536.777964843328,2333
539.1008371502907,2263
541.4230722883866,2214
543.744670471698,2189
546.0656319143858,2139
548.3859568306899,2056
550.7056454349294,2096
553.0246979415016,2205
555.3431145648834,2127
557.6608955196306,2077
559.978041020377,2023
562.2945512818363,2052
564.6104265188006,2044
566.9256669461412,2085
569.2402727788082,2072
571.5542442318302,2044
573.8675815203156,2136
576.1802848594508,2075
578.4923544645015,2106
580.8037905508126,2090
583.114593333807,2140
585.4247630289875,2093
587.7342998519354,2042
590.0432040183106,2021
592.3514757438526,2129
594.6591152443794,2043
596.9661227357875,2127
599.2724984340531,2053
601.578242555231,2037
603.8833553154542,2058
606.1878369309362,2130
608.4916876179676,2045
610.7949075929192,2034
613.0974970722403,2037
615.3994562724587,2050
617.7007854101818,2118
620.0014847020951,2125
622.3015543649641,2201
624.6009946156324,2049
626.8998056710224,2102
629.1979877481361,2087
631.4955410640538,2030
633.7924658359349,2037
636.0887622810175,2101
638.3844306166192,2083
640.6794710601358,2175
642.9738838290426,2107
645.2676691408932,2175
647.5608272133207,2142
649.853358264037,2160
652.1452625108324,2213
654.4365401715764,2175
656.7271914642178,2192
659.0172166067838,2246
661.3066158173809,2048
663.5953893141935,2170
665.8835373154867,2208
668.1710600396028,2135
670.4579577049639,2180
672.7442305300709,2139
675.0298787335033,2143
677.3149025339197,2194
679.599302150058,2071
681.8830778007342,2129
684.1662297048437,2198
686.4487580813608,2102
688.7306631493387,2139
691.0119451279091,2120
693.2926042362834,2118
695.5726406937516,2136
697.8520547196814,2088
700.1308465335215,2087
702.4090163547982,2116
704.6865644031171,2164
706.9634908981619,2135
709.2397960596965,2144
711.5154801075631,2107
713.7905432616823,2073
716.0649857420548,2151
718.3388077687592,2153
720.612009561953,2041
722.8845913418733,2069
725.1565533288352,2113
727.427895743234,2116
729.6986188055427,2150
731.9687227363137,2043
734.238207756178,2031
736.5070740858458,2023
738.7753219461066,2108
741.0429515578281,2158
743.3099631419569,2159
745.5763569195191,2051
747.8421331116193,2150
750.1072919394409,2071
752.3718336242467,2107
754.6357583873777,2167
756.8990664502545,2151
759.1617580343765,2114
761.423833361321,2098
763.6852926527457,2088
765.9461361303862,2099
768.206364016058,2087
770.4659765316536,2061
772.7249738991469,2089
774.9833563405886,2135
777.2411240781092,2158
779.4982773339183,2120
781.7548163303044,2108
784.010741289634,2083
786.2660524343538,2213
788.5207499869881,2145
790.7748341701416,2103
793.0283052064964,2140
795.2811633188143,2166
797.5334087299362,2197
799.7850416627813,2129
802.0360623403484,2164
804.2864709857143,2177
806.5362678220353,2190
808.7854530725468,2096
811.0340269605625,2150
813.2819897094754,2117
815.5293415427581,2142
817.77608268396,2157
820.0222133567116,2170
822.2677337847211,2089
824.5126441917765,2110
826.7569448017433,2170
829.0006358385675,2173
831.2437175262731,2122
833.4861900889629,2134
835.7280537508192,2036
837.9693087361026,2047
840.2099552691533,2115
842.4499935743896,2146
844.689423876309,2188
846.9282463994886,2143
849.1664613685833,2100
851.4040690083276,2169
853.6410695435349,2086
855.877463199097,2092
858.1132501999847,2241
860.3484307712487,2176
862.5830051380175,2217
864.8169735254988,2179
867.0503361589791,2197
869.2830932638243,2138
871.5152450654786,2179
873.7467917894654,2228
875.9777336613873,2230
878.2080709069252,2160
880.4378037518389,2169
882.666932421968,2147
884.8954571432301,2221
887.1233781416219,2220
889.3506956432192,2267
891.5774098741766,2195
893.803521060728,2254
896.0290294291852,2245
898.2539352059397,2220
900.4782386174619,2200
902.7019398903011,2195
904.925039251085,2193
907.147536926521,2226
909.3694331433943,2201
911.59072812857,2146
913.8114221089921,2227
916.0315153116827,2246
918.2510079637437,2218
920.4699002923547,2145
922.6881925247761,2119
924.905884888345,2177
927.1229776104793,2173
929.3394709186747,2201
931.555365040506,2180
933.7706602036275,2165
935.9853566357709,2253
938.1994545647489,2233
940.4129542184515,2287
942.6258558248488,2274
944.8381596119883,2213
947.0498658079974,2157
949.2609746410825,2187
951.4714863395287,2117
953.6814011316998,2341
955.8907192460387,2278
958.0994409110671,2267
960.3075663553858,2236
962.5150958076741,2265
964.7220294966913,2226
966.928367651274,2195
969.1341105003388,2171
971.3392582728806,2155
973.5438111979742,2201
975.747769504772,2151
977.9511334225061,2125
980.153903180487,2084
982.3560790081052,2048
984.5576611348289,2086
986.7586497902058,2138
988.9590452038618,1989
991.158847605503,2116
993.3580572249133,2012
995.5566742919558,2007
997.7546990365728,1931
999.952131688785,1910
1002.1489724786926,1945
1004.3452216364743,1845
1006.5408793923874,1869
1008.7359459767691,1875
1010.9304216200343,1856
1013.1243065526781,1820
1015.3176010052733,1865
1017.510305208472,1758
1019.7024193930064,1893
1021.8939437896848,1844
1024.0848786293977,1797
1026.2752241431122,1848
1028.4649805618747,1848
1030.6541481168115,1826
1032.842727039127,1815
1035.0307175601051,1776
1037.2181199111074,1760
1039.4049343235752,1768
1041.591161029029,1872
1043.7768002590683,1824
1045.9618522453698,1822
1048.1463172196918,1787
1050.3301954138697,1809
1052.513487059818,1759
1054.69619238953,1800
1056.8783116350783,1791
1059.0598450286152,1731
1061.2407928023704,1753
1063.4211551886528,1708
1065.6009324198508,1805
1067.780124728432,1692
1069.9587323469414,1728
1072.1367555080046,1824
1074.314194444325,1758
1076.4910493886855,1740
1078.667320573947,1733
1080.843008233051,1712
1083.0181125990161,1672
1085.1926339049414,1657
1087.3665723840027,1719
1089.5399282694575,1821
1091.7127017946405,1701
1093.8848931929647,1728
1096.0565026979243,1821
1098.2275305430899,1700
1100.3979769621128,1652
1102.567842188722,1650
1104.737126456726,1684
1106.9058300000124,1674
1109.0739530525475,1664
1111.2414958483764,1705
1113.4084586216231,1682
1115.5748416064907,1702
1117.7406450372605,1682
1119.9058691482942,1606
1122.0705141740304,1718
1124.2345803489884,1662
1126.3980679077658,1644
1128.5609770850388,1700
1130.7233081155623,1719
1132.8850612341707,1667
1135.0462366757774,1559
1137.2068346753745,1661
1139.3668554680326,1682
1141.526299288901,1615
1143.68516637321,1621
1145.8434569562655,1695
1148.001171273455,1668
1150.158309560244,1652
1152.3148720521767,1654
1154.470858984876,1689
1156.626270594044,1664
1158.7811071154629,1645
1160.9353687849912,1658
1163.089055838569,1672
1165.242168512213,1661
1167.3947070420209,1620
1169.5466716641677,1671
1171.6980626149075,1639
1173.8488801305748,1708
1175.9991244475814,1612
1178.1487958024186,1703
1180.2978944316555,1634
1182.4464205719428,1631
1184.5943744600072,1633
1186.7417563326567,1599
1188.8885664267755,1619
1191.0348049793297,1635
1193.1804722273619,1644
1195.325568407995,1618
1197.4700937584303,1686
1199.614048515948,1642
1201.7574329179074,1631
1203.900247201746,1580
1206.042491604982,1598
1208.1841663652099,1664
1210.3252717201053,1642
1212.465807907422,1665
1214.6057751649923,1692
1216.7451737307279,1746
1218.8840038426192,1658
1221.0222657387353,1600
1223.1599596572241,1616
1225.2970858363137,1699
1227.4336445143094,1696
1229.5696359295966,1676
1231.705060320639,1668
1233.8399179259786,1603
1235.9742089842384,1664
1238.107933734118,1659
1240.2410924143974,1706
1242.373685263935,1730
1244.5057125216676,1702
1246.6371744266116,1597
1248.7680712178621,1665
1250.898403134593,1719
1253.028170416058,1741
1255.1573733015875,1752
1257.2860120305932,1696
1259.4140868425648,1711
1261.54159797707,1750
1263.6685456737569,1679
1265.7949301723515,1756
1267.9207517126597,1758
1270.046010534565,1746
1272.1707068780306,1816
1274.2948409830983,1807
1276.4184130898889,1797
1278.541423438603,1846
1280.6638722695184,1760
1282.785759822993,1779
1284.9070863394636,1760
1287.0278520594447,1823
1289.1480572235314,1801
1291.2677020723963,1793
1293.3867868467923,1834
1295.5053117875495,1826
1297.623277135579,1836
1299.740683131868,1868
1301.8575300174857,1846
1303.973818033578,1897
1306.0895474213703,1953
1308.2047184221678,1947
1310.3193312773528,1901
1312.4333862283888,1951
1314.5468835168163,1929
1316.659823384255,1904
1318.7722060724045,1916
1320.8840318230418,1828
1322.9953008780249,1876
1325.1060134792888,1878
1327.2161698688478,1963
1329.3257702887959,1913
1331.4348149813054,1981
1333.5433041886276,1871
1335.6512381530933,1898
1337.7586171171101,1897
1339.8654413231675,1898
1341.9717110138317,1868
1344.0774264317488,1895
1346.1825878196432,1857
1348.2871954203192,1915
1350.3912494766587,1864
1352.4947502316231,1935
1354.5976979282532,1919
1356.7000928096686,1840
1358.8019351190665,1907
1360.9032250997243,1861
1363.0039629949988,1879
1365.1041490483235,1980
1367.2037835032133,1873
1369.3028666032606,1916
1371.401398592137,1875
1373.4993797135926,1892
1375.5968102114575,1865
1377.6936903296396,1912
1379.7900203121262,1933
1381.8858004029835,1927
1383.9810308463561,1848
1386.075711886469,1870
1388.1698437676241,1909
1390.2634267342032,1960
1392.356461030667,1917
1394.4489469015557,1964
1396.5408845914872,1975
1398.6322743451592,1954
1400.7231164073469,1950
1402.813411022907,1936
1404.903158436773,2054
1406.9923588939578,2038
1409.0810126395531,2063
1411.1691199187303,1978
1413.2566809767386,2015
1415.343696058907,2009
1417.4301654106425,2020
1419.5160892774315,2070
1421.6014679048399,2116
1423.6863015385125,2058
1425.7705904241707,2090
1427.8543348076178,2101
1429.9375349347342,2117
1432.0201910514802,2169
1434.102303403894,2139
1436.1838722380944,2108
1438.2648978002767,2216
1440.3453803367174,2219
1442.4253200937692,2261
1444.5047173178677,2329
1446.5835722555234,2314
1448.6618851533285,2328
1450.739656257952,2378
1452.8168858161434,2333
1454.8935740747306,2449
1456.96972128062,2533
1459.045327680797,2527
1461.120393522327,2546
1463.1949190523528,2592
1465.2689045180973,2675
1467.3423501668608,2748
1469.415256246024,2637
1471.4876230030463,2793
1473.559450685465,2830
1475.6307395408976,2751
1477.7014898170391,2975
1479.771701761665,2837
1481.8413756226287,2946
1483.9105116478618,3058
1485.9791100853772,3031
1488.0471711832643,3055
1490.1146951896926,3110
1492.1816823529098,3220
1494.2481329212433,3127
1496.3140471430984,3186
1498.3794252669609,3230
1500.4442675413939,3212
1502.5085742150404,3344
1504.572345536622,3387
1506.6355817549388,3515
1508.6982831188702,3506
1510.7604498773744,3447
1512.8220822794883,3410
1514.8831805743293,3433
1516.9437450110909,3367
1519.003775839048,3530
1521.0632733075522,3474
1523.1222376660367,3559
1525.1806691640113,3574
1527.2385680510652,3638
1529.2959345768668,3703
1531.3527689911643,3668
1533.4090715437833,3755
1535.4648424846291,3681
1537.5200820636855,3817
1539.5747905310159,3800
1541.6289681367616,3896
1543.6826151311434,3852
1545.7357317644614,3962
1547.7883182870937,3944
1549.8403749494987,4074
1551.8919020022113,4181
1553.9428996958477,4244
1555.9933682811015,4262
1558.0433080087469,4340
1560.0927191296346,4404
1562.1416018946961,4494
1564.1899565549415,4525
1566.2377833614592,4395
1568.2850825654164,4281
1570.3318544180606,4187
1572.3780991707158,4130
1574.423817074788,4013
1576.4690083817595,3697
1578.5136733431923,3725
1580.5578122107272,3505
1582.601425236085,3324
1584.6445126710646,3227
1586.6870747675434,3055
1588.7291117774776,3038
1590.7706239529034,2850
1592.8116115459347,2707
1594.8520748087658,2694
1596.8920139936686,2550
1598.9314293529933,2468
1600.9703211391711,2374
1603.008689604711,2343
1605.0465350022005,2261
1607.0838575843068,2229
1609.1206576037753,2198
1611.1569353134305,2083
1613.1926909661765,2037
1615.2279248149953,2112
1617.2626371129481,2029
1619.2968281131757,2072
1621.3304980688963,1979
1623.3636472334088,2000
1625.39627586009,1954
1627.428384202396,1922
1629.459972513861,1818
1631.4910410480993,1936
1633.5215900588028,1888
1635.551619799744,1814
1637.5811305247717,1849
1639.6101224878166,1793
1641.6385959428862,1780
1643.6665511440683,1814
1645.693988345528,1722
1647.7209078015112,1674
1649.7473097663405,1805
1651.7731944944203,1735
1653.7985622402307,1725
1655.823413258333,1716
1657.847747803366,1745
1659.8715661300494,1767
1661.8948684931793,1684
1663.9176551476316,1783
1665.9399263483624,1803
1667.9616823504057,1698
1669.982923408873,1780
1672.0036497789574,1685
1674.0238617159293,1716
1676.043559475138,1680
1678.0627433120121,1668
1680.081413482059,1670
1682.0995702408654,1704
1684.117213844096,1735
1686.134344547495,1768
1688.1509626068864,1721
1690.1670682781705,1763
1692.182661817329,1662
1694.1977434804217,1728
1696.2123135235875,1759
1698.226372203043,1733
1700.2399197750851,1761
1702.2529564960905,1736
1704.2654826225112,1653
1706.277498410882,1721
1708.2890041178139,1658
1710.2999999999988,1636
1712.3104863142066,1650
1714.3204633172854,1707
1716.329931266163,1633
1718.3388904178469,1670
1720.3473410294214,1680
1722.3552833580516,1727
1724.3627176609807,1663
1726.3696441955308,1687
1728.3760632191033,1573
1730.3819749891782,1617
1732.3873797633146,1564
1734.3922777991502,1644
1736.3966693544012,1631
1738.4005546868639,1607
1740.4039340544127,1634
1742.406807715001,1631
1744.4091759266616,1672
1746.4110389475054,1603
1748.4123970357223,1624
1750.413250449582,1585
1752.4135994474318,1579
1754.4134442876993,1523
1756.4127852288902,1634
1758.4116225295893,1576
1760.4099564484595,1588
1762.407787244244,1562
1764.405115175764,1618
1766.4019405019203,1593
1768.3982634816916,1531
1770.3940843741357,1608
1772.3894034383907,1582
1774.3842209336717,1576
1776.378537119274,1590
1778.372352254571,1563
1780.3656665990156,1573
1782.3584804121397,1475
1784.3507939535534,1551
1786.3426074829463,1554
1788.3339212600863,1503
1790.3247355448211,1616
1792.3150505970766,1544
1794.3048666768573,1544
1796.2941840442477,1552
1798.2830029594106,1548
1800.2713236825884,1583
1802.2591464741004,1528
1804.2464715943465,1532
1806.2332993038058,1495
1808.2196298630352,1519
1810.2054635326708,1525
1812.190800573428,1571
1814.175641246101,1494
1816.1599858115628,1547
1818.1438345307652,1508
1820.127187664738,1489
1822.1100454745924,1534
1824.092408221516,1542
1826.0742761667766,1496
1828.055649571721,1462
1830.0365286977735,1491
1832.0169138064398,1529
1833.9968051593014,1517
1835.9762030180214,1453
1837.9551076443408,1506
1839.9335193000788,1496
1841.9114382471344,1542
1843.888864747485,1530
1845.8657990631878,1483
1847.842241456378,1468
1849.8181921892697,1536
1851.7936515241558,1551
1853.7686197234098,1485
1855.7430970494815,1508
1857.7170837649014,1470
1859.6905801322787,1503
1861.6635864143004,1600
1863.6361028737338,1499
1865.608129773424,1453
1867.5796673762961,1485
1869.5507159453537,1554
1871.521275743678,1541
1873.4913470344313,1600
1875.4609300808534,1507
1877.4300251462632,1549
1879.3986324940588,1578
1881.366752387717,1562
1883.3343850907936,1480
1885.3015308669228,1546
1887.268189979819,1503
1889.2343626932739,1551
1891.2000492711595,1571
1893.1652499774254,1506
1895.1299650761011,1475
1897.0941948312952,1539
1899.0579395071945,1521
1901.0211993680641,1581
1902.98397467825,1528
1904.9462657021745,1530
1906.9080727043415,1571
1908.869395949332,1534
1910.8302357018065,1539
1912.790592226504,1475
1914.7504657882428,1518
1916.7098566519212,1552
1918.6687650825133,1579
1920.6271913450764,1564
1922.5851357047422,1542
1924.5425984267245,1504
1926.499579776314,1493
1928.4560800188833,1556
1930.4120994198802,1495
1932.367638244833,1604
1934.32269675935,1604
1936.2772752291175,1523
1938.231373919899,1514
1940.1849930975404,1527
1942.1381330279637,1584
1944.0907939771696,1509
1946.0429762112412,1461
1947.9946799963363,1531
1949.9459055986945,1480
1951.896653284633,1522
1953.8469233205478,1440
1955.7967159729142,1513
1957.7460315082863,1474
1959.6948701932974,1521
1961.6432322946594,1452
1963.5911180791632,1415
1965.5385278136787,1476
1967.4854617651545,1501
1969.4319202006182,1514
1971.377903387176,1529
1973.3234115920136,1483
1975.268445082395,1462
1977.2130041256642,1495
1979.1570889892423,1449
1981.1006999406304,1510
1983.04383724741,1460
1984.986501177238,1440
1986.928691997853,1475
1988.8704099770712,1540
1990.811655382789,1468
1992.7524284829801,1521
1994.692729545698,1467
1996.6325588390755,1434
1998.5719166313224,1428
2000.5108031907307,1432
2002.4492187856677,1442
2004.387163684583,1404
2006.3246381560011,1467
2008.2616424685298,1467
2010.1981768908527,1500
2012.1342416917332,1440
2014.069837140014,1470
2016.0049635046162,1434
2017.9396210545406,1452
2019.8738100588666,1443
2021.8075307867502,1462
2023.740783507431,1417
2025.6735684902228,1449
2027.6058860045214,1461
2029.5377363198004,1471
2031.4691197056118,1459
2033.4000364315875,1436
2035.3304867674374,1423
2037.260470982952,1448
2039.189989347998,1445
2041.1190421325232,1449
2043.047629606554,1453
2044.9757520401945,1506
2046.9034097036288,1394
2048.8306028671195,1456
2050.7573318010086,1463
2052.683596775716,1425
2054.609398061742,1463
2056.5347359296647,1412
2058.4596106501403,1407
2060.384022493906,1464
2062.3079717317764,1458
2064.231458634646,1397
2066.1544834734873,1447
2068.077046519352,1412
2069.99914804337,1400
2071.9207883167524,1482
2073.8419676107865,1364
2075.7626861968406,1422
2077.6829443463607,1393
2079.6027423308715,1424
2081.522080421977,1415
2083.440958891362,1405
2085.359378010786,1464
2087.2773380520907,1478
2089.194839287196,1459
2091.111881988101,1457
2093.0284664268825,1436
2094.9445928756973,1455
2096.86026160678,1424
2098.775472892446,1406
2100.690227005088,1407
2102.604524217178,1368
2104.5183648012676,1423
2106.431749029985,1447
2108.34467717604,1413
2110.2571495122206,1517
2112.169166311393,1509
2114.080727846503,1449
2115.9918343905747,1435
2117.902486216711,1464
2119.8126835980956,1502
2121.722426807987,1476
2123.6317161197285,1457
2125.5405518067364,1453
2127.448934142509,1447
2129.356863400624,1463
2131.264339854737,1465
2133.1713637785815,1450
2135.077935445972,1480
2136.9840551308002,1466
2138.889723107037,1420
2140.7949396487334,1452
2142.699705030018,1459
2144.6040195250994,1478
2146.507883408264,1499
2148.4112969538774,1487
2150.3142604363848,1486
2152.2167741303097,1454
2154.1188383102535,1505
2156.0204532508997,1491
2157.9216192270064,1477
2159.822336513414,1462
2161.7226053850413,1495
2163.622426116884,1510
2165.5217989840185,1442
2167.4207242616,1432
2169.319202224862,1500
2171.2172331491165,1505
2173.1148173097563,1494
2175.0119549822507,1464
2176.90864644215,1460
2178.8048919650823,1447
2180.7006918267534,1514
2182.596046302952,1495
2184.4909556695407,1545
2186.3854202024645,1525
2188.279440177746,1496
2190.173015871487,1517
2192.066147559868,1496
2193.958835519149,1490
2195.851080025667,1491
2197.7428813558417,1512
2199.6342397861667,1473
2201.5251555932186,1514
2203.415629053651,1494
2205.3056604441986,1564
2207.19525004167,1517
2209.084398122958,1565
2210.9731049650327,1585
2212.861370844941,1521
2214.749196039812,1567
2216.636580826851,1495
2218.523525483344,1536
2220.410030286655,1472
2222.296095514226,1485
2224.1817214435805,1516
2226.066908352319,1517
2227.951656518121,1584
2229.835966218746,1508
2231.71983773203,1493
2233.6032713358913,1519
2235.486267308324,1561
2237.3688259274036,1495
2239.2509474712824,1524
2241.132632218193,1555
2243.013880446447,1505
2244.8946924344323,1517
2246.7750684606203,1470
2248.6550088035574,1555
2250.534513741871,1509
2252.413583554265,1566
2254.292218519526,1529
2256.170418916517,1495
2258.0481850241786,1468
2259.925517121534,1511
2261.8024154876825,1511
2263.678880401803,1564
2265.5549121431536,1527
2267.430510991071,1535
2269.305677224971,1499
2271.180411124348,1460
2273.0547129687766,1472
2274.9285830379076,1487
2276.8020216114737,1510
2278.6750289692845,1517
2280.5476053912294,1598
2282.4197511572766,1567
2284.2914665474727,1592
2286.162751841943,1583
2288.0336073208937,1607
2289.904033264608,1587
2291.774029953448,1545
2293.6435976678554,1538
2295.5127366883517,1541
2297.381447295534,1437
2299.2497297700825,1481
2301.1175843927526,1445
2302.9850114443825,1378
2304.852011205885,1462
2306.7185839582553,1374
2308.5847299825664,1369
2310.4504495599676,1351
2312.3157429716925,1356
2314.1806104990483,1316
2316.0450524234247,1364
2317.9090690262888,1404
2319.772660589186,1359
2321.635827393742,1426
2323.498569721661,1298
2325.3608878547248,1342
2327.2227820747967,1342
2329.0842526638157,1312
2330.945299903803,1305
2332.805924076857,1404
2334.6661254651535,1346
2336.525904350951,1317
2338.3852610165827,1323
2340.244195744464,1345
2342.102708817088,1378
2343.9608005170253,1357
2345.8184711269287,1373
2347.675720929526,1381
2349.532550207628,1352
2351.38895924412,1373
2353.24494832197,1413
2355.100517724223,1343
2356.955667734004,1383
2358.810398634514,1403
2360.664710709037,1390
2362.5186042409337,1356
2364.3720795136437,1303
2366.225136810686,1367
2368.0777764156583,1360
2369.929998612237,1375
2371.7818036841777,1350
2373.633191915315,1362
2375.484163589562,1375
2377.3347189909114,1355
2379.184858403434,1404
2381.03458211128,1390
2382.8838903986775,1367
2384.732783549936,1397
2386.5812618494406,1390
2388.4293255816588,1379
2390.2769750311327,1343
2392.1242104824883,1385
2393.971032220427,1423
2395.8174405297295,1408
2397.6634356952563,1348
2399.509018001947,1394
2401.3541877348193,1392
2403.1989451789705,1404
2405.043290619576,1349
2406.8872243418905,1335
2408.730746631247,1386
2410.5738577730594,1374
2412.4165580528183,1397
2414.258847756095,1379
2416.100727168537,1406
2417.9421965758734,1351
2419.783256263912,1441
2421.623906518538,1416
2423.4641476257157,1369
2425.303979871491,1411
2427.143403541984,1398
2428.9824189233977,1391
2430.821026302012,1341
2432.6592259641866,1398
2434.497018196361,1415
2436.33440328505,1378
2438.171381516851,1436
2440.00795317844,1438
2441.844118556569,1434
2443.6798779380724,1431
2445.5152316098606,1398
2447.3501798589255,1394
2449.1847229723357,1358
2451.0188612372403,1375
2452.8525949408663,1449
2454.6859243705203,1359
2456.518849813587,1392
2458.3513715575314,1377
2460.183489889895,1391
2462.015205098301,1463
2463.8465174704493,1443
2465.67742729412,1384
2467.5079348571717,1409
2469.338040447542,1389
2471.1677443532476,1430
2472.9970468623833,1460
2474.825948263123,1454
2476.6544488437207,1440
2478.482548892508,1435
2480.310248697896,1438
2482.137548548374,1419
2483.9644487325118,1394
2485.790949538956,1401
2487.617051256433,1406
2489.44275417375,1397
2491.26805857979,1481
2493.0929647635157,1404
2494.917473013971,1486
2496.741583620276,1546
2498.5652968716304,1494
2500.3886130573137,1496
2502.2115324666834,1439
2504.0340553891765,1514
2505.856182114308,1459
2507.6779129316733,1472
2509.499248130945,1531
2511.3201880018764,1505
2513.140732834298,1489
2514.9608829181198,1465
2516.780638543331,1464
2518.6,1558
2520.418967578273,1453
2522.237541568376,1487
2524.0557222606144,1499
2525.8735099453706,1534
2527.6909049131086,1551
2529.507907454368,1521
2531.32451785977,1550
2533.140736420014,1550
2534.9565634258774,1548
2536.771999168218,1574
2538.5870439379714,1563
2540.4016980261526,1612
2542.2159617238544,1639
2544.02983532225,1583
2545.8433191125914,1612
2547.656413386209,1597
2549.4691184345115,1645
2551.2814345489874,1621
2553.093362021204,1634
2554.904901142808,1645
2556.716052205523,1697
2558.526815501153,1700
2560.3371913215824,1778
2562.147179958771,1709
2563.956781704761,1746
2565.7659968516705,1716
2567.5748256916986,1738
2569.3832685171224,1725
2571.1913256202984,1755
2572.9989972936614,1715
2574.806283829725,1765
2576.613185521084,1788
2578.4197026604074,1739
2580.2258355404483,1804
2582.031584454035,1782
2583.836949694077,1795
2585.6419315535613,1794
2587.4465303255533,1774
2589.2507463032002,1791
2591.0545797797245,1846
2592.8580310484303,1781
2594.6611004026995,1888
2596.463788135992,1804
2598.266094541849,1839
2600.0680199138874,1828
2601.869564545807,1817
2603.670728731383,1851
2605.4715127644704,1795
2607.2719169390048,1796
2609.071941548998,1787
2610.8715868885433,1767
2612.670853251811,1849
2614.469740933052,1807
2616.268250226594,1794
2618.0663814268455,1791
2619.864134828292,1833
2621.6615107255006,1795
2623.458509413115,1784
2625.2551311858597,1775
2627.0513763385347,1744
2628.8472451660223,1755
2630.6427379632833,1725
2632.4378550253564,1735
2634.232596647359,1742
2636.026963124488,1691
2637.8209547520187,1676
2639.6145718253065,1668
2641.407814639785,1691
2643.200683490966,1691
2644.9931786744414,1664
2646.7853004858807,1604
2648.577049221034,1692
2650.3684251757277,1593
2652.1594286458712,1637
2653.9500599274484,1629
2655.740319316525,1565
2657.5302071092437,1563
2659.3197236018286,1578
2661.10886909058,1609
2662.8976438718782,1519
2664.686048242183,1481
2666.4740824980327,1525
2668.2617469360443,1525
2670.0490418529134,1569
2671.8359675454153,1529
2673.622524310403,1567
2675.408712444811,1587
2677.1945322456495,1525
2678.979984010009,1418
2680.76506803506,1467
2682.5497846180497,1502
2684.334134056306,1454
2686.1181166472343,1490
2687.9017326883213,1485
2689.6849824771293,1498
2691.4678663113013,1426
2693.2503844885596,1444
2695.032537306705,1479
2696.8143250636167,1405
2698.5957480572542,1421
2700.3768065856534,1402
2702.1575009469316,1370
2703.937831439283,1458
2705.717798360982,1346
2707.4974020103837,1442
2709.276642685917,1402
2711.055520686095,1365
2712.834036309506,1363
2714.612189854819,1367
2716.389981620782,1352
2718.1674119062204,1367
2719.944481010041,1400
2721.721189231226,1320
2723.4975368688415,1408
2725.273524222027,1336
2727.0491515900053,1343
2728.824419272075,1371
2730.5993275676146,1307
2732.3738767760838,1375
2734.148067197016,1318
2735.921899130031,1333
2737.6953728748194,1319
2739.468488731156,1326
2741.2412469988926,1319
2743.0136479779617,1324
2744.785691968372,1402
2746.5573792702116,1339
2748.3287101836504,1355
2750.099685008934,1363
2751.870304046388,1289
2753.640567596418,1294
2755.4104759595057,1302
2757.1800294362156,1351
2758.949228327187,1325
2760.7180729331412,1299
2762.486563554877,1298
2764.254700493272,1267
2766.022484049284,1331
2767.789914523947,1336
2769.5569922183786,1281
2771.3237174337705,1324
2773.090090471394,1313
2774.8561116326036,1295
2776.6217812188274,1291
2778.3870995315756,1279
2780.1520668724356,1299
2781.9166835430747,1336
2783.6809498452394,1316
2785.444866080754,1295
2787.2084325515225,1330
2788.971649559527,1247
2790.73451740683,1278
2792.4970363955713,1308
2794.2592068279705,1294
2796.0210290063264,1317
2797.7825032330147,1275
2799.543629810493,1317
2801.304409041296,1328
2803.0648412280366,1314
2804.8249266734088,1308
2806.5846656801846,1278
2808.344058551212,1295
2810.1031055894246,1283
2811.8618070978273,1286
2813.6201633795085,1302
2815.378174737636,1341
2817.1358414754536,1306
2818.893163896285,1266
2820.6501423035334,1290
2822.4067770006814,1305
2824.1630682912883,1284
2825.9190164789957,1263
2827.6746218675207,1264
2829.429884760661,1283
2831.184805462294,1315
2832.9393842763743,1321
2834.693621506936,1333
2836.4475174580916,1311
2838.201072434034,1283
2839.954286739034,1302
2841.707160677441,1319
2843.459694553685,1377
2845.2118886722724,1366
2846.96374333779,1314
2848.7152588549034,1322
2850.4664355283567,1300
2852.217273662973,1276
2853.9677735636546,1250
2855.7179355353833,1296
2857.4677598832186,1320
2859.217246912299,1306
2860.9663969278427,1331
2862.715210235146,1347
2864.4636871395846,1307
2866.211827946614,1293
2867.9596329617652,1281
2869.7071024906536,1286
2871.4542368389684,1237
2873.20103631248,1224
2874.947501217038,1293
2876.6936318585695,1314
2878.4394285430812,1271
2880.1848915766604,1264
2881.9300212654707,1250
2883.6748179157553,1282
2885.4192818338374,1294
2887.1634133261173,1328
2888.907212699077,1278
2890.6506802592744,1305
2892.393816313348,1283
2894.1366211680142,1332
2895.8790951300693,1333
2897.621238506388,1279
2899.363051603925,1291
2901.1045347297118,1254
2902.8456881908596,1342
2904.58651229456,1274
2906.327007348081,1277
2908.067173658772,1285
2909.8070115340597,1288
2911.5465212814497,1311
2913.285703208527,1255
2915.0245576229563,1282
2916.7630848324807,1248
2918.5012851449196,1270
2920.2391588681758,1318
2921.976706310227,1272
2923.7139277791334,1195
2925.4508235830313,1267
2927.187394030137,1300
2928.923639428745,1260
2930.6595600872306,1299
2932.395156314046,1264
2934.1304284177218,1261
2935.8653767068713,1273
2937.6000014901815,1267
2939.3343030764227,1326
2941.068281774442,1263
2942.8019378931644,1285
2944.5352717415976,1294
2946.2682836288236,1276
2948.0009738640065,1276
2949.7333427563885,1297
2951.465390615289,1321
2953.1971177501086,1253
2954.9285244703265,1262
2956.6596110855,1286
2958.3903779052657,1272
2960.1208252393385,1342
2961.8509533975125,1297
2963.5807626896617,1271
2965.3102534257378,1277
2967.0394259157715,1291
2968.768280469873,1300
2970.496817398232,1308
2972.2250370111146,1325
2973.952939618869,1279
2975.6805255319196,1291
2977.4077950607707,1331
2979.134748516006,1289
2980.861386208289,1309
2982.587708448359,1251
2984.313715547037,1252
2986.039407815222,1286
2987.764785563891,1271
2989.489849104102,1271
2991.2145987469908,1289
2992.9390348037705,1295
2994.6631575857346,1285
2996.3869674042576,1287
2998.1104645707887,1283
2999.83364939686,1271
3001.5565221940783,1242
3003.2790832741334,1280
3005.0013329487924,1239
3006.7232715298996,1237
3008.4448993293804,1247
3010.166216659239,1294
3011.887223831558,1249
3013.607921158498,1299
3015.3283089522993,1321
3017.0483875252826,1293
3018.7681571898443,1278
3020.4876182584626,1220
3022.2067710436927,1320
3023.9256158581707,1314
3025.644153014609,1264
3027.362382825801,1269
3029.0803056046193,1257
3030.797921664012,1232
3032.5152313170106,1266
3034.2322348767225,1273
3035.9489326563353,1267
3037.665324969115,1277
3039.3814121284063,1198
3041.097194447633,1293
3042.812672240299,1255
3044.5278458199855,1297
3046.2427155003525,1274
3047.9572815951406,1282
3049.671544418167,1268
3051.38550428333,1287
3053.0991615046073,1296
3054.812516396051,1291
3056.5255692717974,1302
3058.2383204460575,1299
3059.9507702331257,1242
3061.662918947372,1243
3063.3747669032446,1268
3065.0863144152736,1293
3066.7975617980674,1291
3068.508509366309,1268
3070.219157434767,1292
3071.9295063182844,1270
3073.639556331785,1264
3075.3493077902704,1238
3077.058761008821,1277
3078.7679163025964,1305
3080.476773986837,1277
3082.1853343768594,1248
3083.89359778806,1247
3085.6015645359153,1267
3087.3092349359786,1231
3089.016609303884,1244
3090.7236879553434,1307
3092.4304712061476,1254
3094.136959372166,1240
3095.843152769349,1276
3097.5490517137237,1300
3099.2546565213966,1276
3100.959967508554,1290
3102.66498499146,1273
3104.3697092864577,1221
3106.0741407099695,1259
3107.778279578498,1258
3109.482126208622,1289
3111.1856809170004,1295
3112.8889440203716,1246
3114.5919158355528,1314
3116.294596679439,1272
3117.996986869006,1249
3119.6990867213062,1244
3121.4008965534726,1273
3123.102416682717,1273
3124.803647426329,1316
3126.5045891016784,1253
3128.205242026213,1291
3129.90560651746,1281
3131.605682893025,1309
3133.3054714705922,1339
3135.0049725679282,1310
3136.7041865028714,1271
3138.4031135933465,1258
3140.101754157353,1233
3141.800108512971,1322
3143.498176978357,1323
3145.1959598717494,1321
3146.8934575114636,1271
3148.5906702158954,1292
3150.2875983035183,1306
3151.9842420928853,1289
3153.680601902627,1254
3155.376678051456,1204
3157.07247085816,1285
3158.767980641609,1283
3160.463207720748,1259
3162.158152414606,1256
3163.8528150422862,1283
3165.5471959229726,1296
3167.2412953759303,1304
3168.9351137204976,1292
3170.628651276098,1244
3172.3219083622307,1268
3174.014885298474,1251
3175.707582404485,1279
3177.4000000000005,1256
3179.092138404835,1244
3180.7839979388846,1297
3182.47557892212,1289
3184.166881674594,1276
3185.8579065164386,1287
3187.5486537678626,1328
3189.2391237491547,1265
3190.9293167806827,1250
3192.6192331828934,1220
3194.3088732763117,1230
3195.998237381542,1250
3197.687325819268,1239
3199.376138910251,1242
3201.064676975334,1267
3202.7529403354347,1219
3204.4409293115523,1252
3206.1286442247647,1219
3207.816085396229,1271
3209.5032531471825,1239
3211.190147798936,1217
3212.8767696728846,1193
3214.5631190905015,1253
3216.2491963733373,1208
3217.9350018430214,1239
3219.6205358212637,1209
3221.305798629851,1227
3222.990790590651,1216
3224.6755120256103,1201
3226.359963256751,1250
3228.0441446061795,1261
3229.7280563960758,1238
3231.411698948703,1221
3233.0950725863995,1232
3234.778177631587,1223
3236.461014406761,1285
3238.1435832345005,1227
3239.8258844374595,1248
3241.507918338374,1267
3243.1896852600576,1247
3244.8711855254023,1239
3246.552419457381,1255
3248.233387379042,1220
3249.914089613516,1238
3251.59452648401,1224
3253.274698313813,1243
3254.95460542629,1279
3256.6342481448855,1225
3258.313626793125,1221
3259.9927416946084,1204
3261.6715931730196,1204
3263.3501815521176,1234
3265.0285071557437,1211
3266.706570307815,1174
3268.3843713323286,1229
3270.0619105533615,1225
3271.739188295068,1160
3273.4162048816834,1200
3275.0929606375184,1240
3276.769455886966,1209
3278.445690954498,1234
3280.1216661646613,1172
3281.797381842087,1256
3283.4728383114807,1263
3285.1480358976296,1308
3286.8229749253996,1268
3288.4976557197333,1254
3290.172078605655,1309
3291.846243908266,1215
3293.5201519527463,1190
3295.193803064357,1214
3296.8671975684374,1219
3298.5403357904024,1237
3300.21321805575,1174
3301.8858446900567,1175
3303.558216018975,1194
3305.23033236824,1220
3306.9021940636603,1235
3308.57380143113,1221
3310.2451547966184,1218
3311.916254486174,1220
3313.5871008259246,1204
3315.2576941420766,1194
3316.9280347609147,1218
3318.5981230088046,1215
3320.2679592121895,1242
3321.9375436975924,1215
3323.606876791612,1225
3325.27595882093,1225
3326.944790112305,1262
3328.6133709925753,1186
3330.2817017886573,1228
3331.949782827547,1209
3333.617614436319,1208
3335.2851969421245,1209
3336.952530672199,1242
3338.619615953853,1239
3340.286453114475,1248
3341.9530424815357,1238
3343.619384382583,1226
3345.2854791452437,1234
3346.951327097224,1175
3348.6169285663073,1203
3350.2822838803577,1228
3351.947393367319,1241
3353.61225735521,1227
3355.2768761721345,1232
3356.9412501462693,1267
3358.605379605873,1224
3360.2692648792827,1188
3361.9329062949146,1243
3363.596304181263,1198
