CollectionTime,9/19/2024 11:20:16 AM
ExposureUsed,3
CalibratedSpectrum
-962.7078968117929,2401
-959.9714848408522,2614
-957.2358232597828,2578
-954.5009119013725,2573
-951.7667505983302,2526
-949.0333391832855,2610
-946.3006774887896,2587
-943.5687653473143,2627
-940.837602591253,2630
-938.1071890529199,2597
-935.3775245645503,2541
-932.6486089583007,2587
-929.9204420662485,2589
-927.1930237203925,2629
-924.4663537526524,2607
-921.7404319948689,2566
-919.0152582788041,2637
-916.2908324361409,2604
-913.5671542984834,2617
-910.8442236973568,2558
-908.1220404642074,2536
-905.4006044304027,2606
-902.679915427231,2570
-899.959973285902,2566
-897.2407778375464,2519
-894.5223289132158,2487
-891.8046263438832,2539
-889.0876699604426,2568
-886.3714595937089,2653
-883.6559950744183,2655
-880.9412762332282,2580
-878.2273029007168,2681
-875.5140749073835,2552
-872.8015920836489,2621
-870.0898542598545,2582
-867.3788612662631,2564
-864.6686129330585,2569
-861.9591090903457,2507
-859.2503495681506,2627
-856.5423341964203,2580
-853.8350628050229,2557
-851.1285352237478,2630
-848.4227512823054,2654
-845.7177108103272,2649
-843.0134136373656,2692
-840.3098595928943,2646
-837.6070485063082,2610
-834.9049802069229,2620
-832.2036545239757,2625
-829.5030712866244,2632
-826.8032303239481,2648
-824.1041314649472,2601
-821.4057745385428,2658
-818.7081593735775,2654
-816.0112857988148,2631
-813.3151536429393,2714
-810.6197627345566,2683
-807.9251129021936,2712
-805.2312039742981,2672
-802.5380357792392,2728
-799.8456081453069,2695
-797.1539209007124,2734
-794.462973873588,2764
-791.772766891987,2672
-789.083299783884,2810
-786.3945723771743,2689
-783.7065844996748,2692
-781.0193359791231,2729
-778.3328266431781,2738
-775.6470563194197,2666
-772.9620248353489,2641
-770.2777320183878,2695
-767.5941776958798,2751
-764.9113616950891,2801
-762.2292838432011,2692
-759.5479439673222,2752
-756.8673418944801,2699
-754.1874774516235,2692
-751.5083504656222,2717
-748.8299607632671,2817
-746.15230817127,2714
-743.475392516264,2776
-740.7992136248035,2717
-738.1237713233636,2821
-735.4490654383407,2737
-732.7750957960521,2779
-730.1018622227365,2704
-727.4293645445534,2734
-724.7576025875837,2783
-722.0865761778291,2759
-719.4162851412126,2861
-716.7467293035781,2866
-714.0779084906909,2766
-711.409822528237,2788
-708.7424712418238,2799
-706.0758544569796,2897
-703.4099719991541,2863
-700.7448236937178,2813
-698.0804093659622,2942
-695.4167288411002,2854
-692.7537819442656,2824
-690.0915685005134,2880
-687.4300883348199,2807
-684.7693412720819,2846
-682.1093271371178,2919
-679.4500457546669,2829
-676.7914969493897,2869
-674.1336805458676,2923
-671.4765963686034,2971
-668.8202442420206,2927
-666.1646239904642,2879
-663.5097354382001,2889
-660.8555784094151,2887
-658.2021527282176,2895
-655.5494582186366,2911
-652.8974947046223,2938
-650.2462620100463,2955
-647.5957599587009,3023
-644.9459883742998,2956
-642.2969470804776,2975
-639.6486359007902,3025
-637.0010546587141,3012
-634.3542031776476,2969
-631.7080812809096,2960
-629.0626887917401,3028
-626.4180255333008,2972
-623.7740913286734,3039
-621.1308860008619,2939
-618.4884093727904,2940
-615.8466612673046,2931
-613.2056415071715,2940
-610.5653499150785,2988
-607.9257863136347,2966
-605.28695052537,3030
-602.6488423727357,3030
-600.0114616781036,3027
-597.3748082637674,3114
-594.7388819519412,3129
-592.1036825647604,3111
-589.4692099242818,3014
-586.8354638524829,3169
-584.2024441712624,3058
-581.5701507024403,3072
-578.9385832677575,3044
-576.3077416888759,3038
-573.6776257873787,3101
-571.0482353847704,3021
-568.4195703024757,3066
-565.7916303618415,3062
-563.164415384135,3062
-560.5379251905453,3148
-557.9121596021815,3061
-555.2871184400748,3097
-552.6628015251767,3076
-550.0392086783606,3141
-547.4163397204204,3157
-544.794194472071,3215
-542.1727727539491,3331
-539.5520743866118,3158
-536.9320991905377,3149
-534.3128469861261,3179
-531.6943175936979,3242
-529.0765108334947,3259
-526.4594265256793,3358
-523.8430644903358,3438
-521.2274245474689,3721
-518.612506517005,3824
-515.9983102187913,3669
-513.3848354725959,3721
-510.77208209810846,3649
-508.16004991493924,3690
-505.5487387426199,3872
-502.9381484006032,3882
-500.3282787082628,3948
-497.71912948489364,3860
-495.1107005497117,3826
-492.5029917218539,3788
-489.8960028203786,3606
-487.28973366426493,3493
-484.68418407241325,3304
-482.07935386364494,3325
-479.47524285670266,3313
-476.87185087025,3299
-474.2691777228715,3370
-471.66722323307334,3461
-469.0659872192821,3408
-466.4654694998459,3509
-463.86566989303384,3354
-461.26658821703614,3338
-458.66822428996414,3407
-456.07057792985,3401
-453.4736489546475,3367
-450.877437182231,3338
-448.28194243039627,3267
-445.68716451686,3268
-443.09310325926003,3278
-440.49975847515555,3344
-437.9071299820263,3299
-435.31521759727354,3389
-432.72402113821954,3335
-430.13354042210767,3323
-427.5437752661022,3293
-424.95472548728867,3356
-422.36639090267386,3361
-419.7787713291855,3337
-417.1918665836721,3537
-414.60567648290385,3449
-412.0202008435715,3475
-409.4354394822874,3460
-406.8513922155845,3504
-404.26805885991723,3390
-401.685439231661,3442
-399.103533147112,3501
-396.522340422488,3396
-393.9418608739278,3397
-391.3620943174908,3327
-388.7830405691583,3165
-386.2046994448317,3089
-383.6270707603344,2961
-381.05015433141045,2774
-378.473949973725,2468
-375.8984575028645,2330
-373.32367673433623,2087
-370.74960748356875,1799
-368.1762495659117,1597
-365.60360279663576,1337
-363.03166699093265,1173
-360.4604419639154,947
-357.8899275306178,866
-355.32012350599507,741
-352.7510297049233,659
-350.1826459421999,658
-347.61497203254316,589
-345.04800779059235,581
-342.4817530309082,555
-339.91620756797226,615
-337.35137121618743,678
-334.7872437898774,631
-332.22382510328725,534
-329.66111497058273,539
-327.09911320585127,557
-324.53781962310075,565
-321.9772340362607,523
-319.4173562591816,529
-316.8581861056348,524
-314.2997233893127,531
-311.7419679238294,536
-309.1849195227194,562
-306.62857799943856,661
-304.0729431673641,588
-301.51801483979375,516
-298.963792829947,557
-296.41027695096386,584
-293.85746701590574,607
-291.3053628377552,612
-288.7539642294155,642
-286.2032710037115,650
-283.65328297338897,712
-281.1039999511146,824
-278.5554217494762,837
-276.007548180983,756
-273.4603790580651,663
-270.9139141930734,647
-268.3681533982807,746
-265.8230964858798,847
-263.27874326798565,812
-260.7350935566336,816
-258.1921471637804,763
-255.6499039013039,838
-253.10836358100266,875
-250.56752601459698,800
-248.02739101372765,837
-245.48795838995704,844
-242.94922795476816,820
-240.41119951956557,886
-237.8738728956746,815
-235.33724789434166,877
-232.80132432673452,784
-230.2661020039418,739
-227.73158073697357,837
-225.19776033676033,911
-222.66464061415422,914
-220.1322213799284,871
-217.60050244477725,788
-215.06948361931552,858
-212.53916471408013,1237
-210.00954553952818,1272
-207.48062590603843,945
-204.9524056239104,830
-202.4248845033651,996
-199.8980623545441,1090
-197.37193898751036,1101
-194.84651421224817,1149
-192.32178783866232,1015
-189.79775967657952,1048
-187.27442953574644,1206
-184.7517972258321,1381
-182.2298625564256,1122
-179.7086253370378,946
-177.18808537710026,933
-174.66824248596583,1232
-172.14909647290835,1200
-169.6306471471229,1195
-167.11289431772548,1108
-164.59583779375328,1152
-162.07947738416453,1395
-159.5638128978386,1674
-157.04884414357605,1987
-154.53457093009854,1835
-152.02099306604828,1279
-149.50811035998936,1337
-146.99592262040665,1681
-144.48442965570587,1834
-141.97363127421409,1827
-139.46352728417958,2022
-136.95411749377126,1821
-134.44540171107985,1402
-131.93737974411636,1182
-129.43005140081357,1178
-126.92341648902493,1532
-124.41747481652521,2148
-121.91222619101006,2814
-119.40767042009657,3093
-116.90380731132257,2504
-114.40063667214702,2713
-111.8981583099503,3176
-109.3963720320337,4432
-106.89527764561933,6918
-104.39487495785067,10510
-101.89516377579241,15038
-99.39614390642998,21753
-96.89781515667039,27724
-94.40017733334128,30608
-91.90323024319173,26991
-89.40697369289148,24226
-86.91140748903172,15955
-84.41653143812482,8355
-81.92234534660395,10292
-79.42884902082358,19091
-76.93604226705907,28590
-74.4439248915071,35443
-71.95249670028534,35702
-69.46175749943245,30162
-66.97170709490854,23599
-64.48234529259423,18384
-61.99367189829195,16254
-59.50568671772464,17954
-57.01838955653636,16052
-54.53178022029283,15622
-52.045858514480074,17113
-49.560624244506016,19310
-47.07607721569923,20291
-44.59221723330904,21877
-42.10904410250669,22801
-39.62655762838392,23984
-37.14475761595372,21221
-34.66364387015028,22558
-32.18321619582866,23743
-29.70347439776515,21592
-27.224418280657005,21672
-24.74604764912317,27560
-22.26836230770266,46546
-19.7913620608565,65035
-17.315046712966478,65035
-14.83941606833514,65035
-12.36446993118659,65035
-9.89020810566592,65035
-7.416630395839093,65035
-4.94373660569363,65035
-2.471526539137585,65035
-6.821210263296962E-13,65035
2.47084320796705,65035
4.941003281093458,65035
7.410480415786196,65035
9.879274808531363,65035
12.347386655893956,65035
14.814816154518212,65035
17.28156350112681,65035
19.74762889252179,65035
22.21301252558385,29316
24.67771459727237,7278
27.141735304626195,8369
29.605074844762612,10311
32.06773341487792,8162
34.52971121224755,9247
36.99100843422559,8163
39.45162527824516,5108
41.91156194181792,4981
44.370818622535126,6708
46.82939551806646,5592
49.287292826160524,8422
51.74451074464503,8496
54.201049471426245,5593
56.65690920448981,3265
59.112090141899785,2568
61.56659248179983,2995
64.02041642241159,3021
66.4735621620365,3175
68.92602989905402,3886
71.37781983192338,4767
73.82893215918205,3672
76.27936707944684,2731
78.72912479141326,2821
81.17820549385567,3142
83.62660938562783,3132
86.07433666566146,2106
88.5213875329681,1598
90.96776218663751,1997
93.41346082583925,2603
95.85848364982041,2886
98.30283085790859,2695
100.7465026495089,2360
103.18949922410604,2077
105.63182078126385,1491
108.07346752062438,1423
110.51443964190923,1307
112.95473734491827,1393
115.39436082953114,1828
117.83331029570547,1877
120.27158594347827,1943
122.7091879729652,1880
125.1461165843615,1741
127.58237197794062,1651
130.01795435405518,1539
132.4528639131364,1401
134.88710085569494,1330
137.32066538231982,1550
139.75355769367923,1804
142.1857779905207,1535
144.61732647366978,1388
147.04820334403132,1422
149.47840880258934,1448
151.90794305040674,1550
154.33680628862487,1741
156.76499871846443,1902
159.19252054122433,2142
161.61937195828352,2417
164.04555317109896,2898
166.47106438120693,3363
168.89590579022217,3396
171.320077599839,3722
173.7435800118302,4199
176.16641322804742,4373
178.58857745042144,4432
181.01007288096173,4665
183.43089972175687,4764
185.85105817497413,4842
188.27054844285988,5144
190.6893707277394,5270
193.10752523201643,5187
195.5250121581745,5413
197.9418317087751,5604
200.3579840864594,5597
202.7734694939469,5725
205.18828813403627,5944
207.6024402096051,5859
210.01592592360964,5882
212.42874547908548,5925
214.84089907914665,5818
217.2523869269868,5927
219.66320922587727,5788
222.0733661791695,5697
224.48285799029293,6028
226.8916848627572,6047
229.29984700014882,5966
231.7073446061355,5891
234.11417788446204,6036
236.520347038953,6123
238.92585227351185,6400
241.33069379212054,6335
243.73487179884035,6358
246.1383864978112,6332
248.541238093252,6269
250.9434267894609,6603
253.34495279081432,6330
255.74581630176783,6474
258.1460175268563,6290
260.54555667069314,6169
262.9444339379703,6372
265.3426495334594,6265
267.7402036620107,6409
270.1370965285529,6200
272.53332833809407,6069
274.9288992957214,5863
277.32380960660055,5989
279.718059475976,5992
282.1116491091717,5976
284.5045787115897,5764
286.89684848871195,5742
289.2884586460981,5747
291.67940938938807,5800
294.0697009242996,5990
296.4593334566299,5882
298.84830719225477,5857
301.23662233712923,5813
303.6242790972866,5703
306.01127767884,5790
308.39761828798066,5795
310.78330113097934,5715
313.16832641418534,5654
315.5526943440269,5658
317.9364051270112,5672
320.3194589697242,5606
322.70185607883093,5552
325.0835966610754,5514
327.4646809232805,5366
329.8451090723478,5494
332.2248813152577,5433
334.6039978590701,5531
336.9824589109231,5401
339.36026467803447,5389
341.7374153677,5313
344.113911187295,5367
346.48975234427337,5309
348.8649390461686,5437
351.2394715005918,5453
353.61334991523415,5450
355.9865744978655,5373
358.35914545633375,5395
360.73106299856715,5527
363.10232733257146,5392
365.47293866643247,5242
367.84289720831396,5233
370.2122031664593,5502
372.5808567491905,5450
374.9488581649083,5380
377.31620762209275,5313
379.6829053293021,5331
382.0489514951745,5312
384.4143463284262,5241
386.7790900378528,5223
389.14318283232853,5165
391.50662492080653,5396
393.86941651231916,5420
396.23155781597745,5204
398.5930490409713,5372
400.9538903965696,5497
403.3140820921202,5330
405.6736243370498,5232
408.03251734086336,5154
410.3907613131465,5221
412.74835646356166,5288
415.10530300185144,5323
417.4616011378372,5162
419.81725108141893,5366
422.1722530425758,5342
424.5266072313656,5273
426.880313857925,5287
429.2333731324701,5194
431.58578526529516,5300
433.9375504667738,5274
436.2886689473588,5296
438.63914091758113,5358
440.9889665880513,5407
443.33814616945835,5282
445.68667987257015,5354
448.03456790823395,5265
450.3818104873759,5196
452.72840782100013,5287
455.07436012019105,5187
457.41966759611057,5191
459.7643304600007,5189
462.10834892318155,5363
464.4517231970525,5150
466.79445349309174,5156
469.1365400228566,5366
471.4779829979826,5282
473.81878263018564,5254
476.15893913125876,5208
478.4984527130747,5287
480.8373235875855,5331
483.17555196682144,5407
485.5131380628919,5499
487.8500820879857,5564
490.1863842543697,5652
492.52204477439034,5708
494.8570638604725,5853
497.1914417251204,6094
499.52517858091653,6441
501.85827464052306,6487
504.19073011668036,6550
506.5225452222086,6559
508.85372017000566,6638
511.18425517304956,6899
513.514150444396,7300
515.8434061971808,8802
518.1720226446176,9643
520.4999999999999,9859
522.8273384766991,9552
525.1540382881666,9174
527.480099647932,8502
529.8055227696037,7453
532.1303078668694,6294
534.454455153496,5844
536.777964843328,5696
539.1008371502907,5549
541.4230722883866,5462
543.744670471698,5486
546.0656319143858,5449
548.3859568306899,5345
550.7056454349294,5462
553.0246979415016,5300
555.3431145648834,5354
557.6608955196306,5344
559.978041020377,5256
562.2945512818363,5300
564.6104265188006,5340
566.9256669461412,5308
569.2402727788082,5412
571.5542442318302,5375
573.8675815203156,5335
576.1802848594508,5332
578.4923544645015,5320
580.8037905508126,5545
583.114593333807,5383
585.4247630289875,5364
587.7342998519354,5450
590.0432040183106,5443
592.3514757438526,5342
594.6591152443794,5540
596.9661227357875,5489
599.2724984340531,5304
601.578242555231,5275
603.8833553154542,5258
606.1878369309362,5364
608.4916876179676,5317
610.7949075929192,5292
613.0974970722403,5387
615.3994562724587,5410
617.7007854101818,5430
620.0014847020951,5434
622.3015543649641,5371
624.6009946156324,5416
626.8998056710224,5410
629.1979877481361,5338
631.4955410640538,5422
633.7924658359349,5290
636.0887622810175,5448
638.3844306166192,5500
640.6794710601358,5506
642.9738838290426,5510
645.2676691408932,5454
647.5608272133207,5447
649.853358264037,5521
652.1452625108324,5547
654.4365401715764,5545
656.7271914642178,5456
659.0172166067838,5623
661.3066158173809,5491
663.5953893141935,5598
665.8835373154867,5588
668.1710600396028,5626
670.4579577049639,5642
672.7442305300709,5647
675.0298787335033,5527
677.3149025339197,5559
679.599302150058,5576
681.8830778007342,5490
684.1662297048437,5499
686.4487580813608,5505
688.7306631493387,5611
691.0119451279091,5590
693.2926042362834,5559
695.5726406937516,5532
697.8520547196814,5548
700.1308465335215,5490
702.4090163547982,5487
704.6865644031171,5553
706.9634908981619,5477
709.2397960596965,5551
711.5154801075631,5559
713.7905432616823,5469
716.0649857420548,5522
718.3388077687592,5729
720.612009561953,5592
722.8845913418733,5652
725.1565533288352,5627
727.427895743234,5544
729.6986188055427,5519
731.9687227363137,5499
734.238207756178,5677
736.5070740858458,5536
738.7753219461066,5572
741.0429515578281,5623
743.3099631419569,5583
745.5763569195191,5670
747.8421331116193,5502
750.1072919394409,5597
752.3718336242467,5690
754.6357583873777,5747
756.8990664502545,5673
759.1617580343765,5516
761.423833361321,5594
763.6852926527457,5554
765.9461361303862,5628
768.206364016058,5547
770.4659765316536,5572
772.7249738991469,5670
774.9833563405886,5658
777.2411240781092,5587
779.4982773339183,5710
781.7548163303044,5629
784.010741289634,5569
786.2660524343538,5719
788.5207499869881,5666
790.7748341701416,5632
793.0283052064964,5595
795.2811633188143,5684
797.5334087299362,5766
799.7850416627813,5527
802.0360623403484,5631
804.2864709857143,5709
806.5362678220353,5698
808.7854530725468,5700
811.0340269605625,5585
813.2819897094754,5757
815.5293415427581,5749
817.77608268396,5738
820.0222133567116,5627
822.2677337847211,5716
824.5126441917765,5592
826.7569448017433,5670
829.0006358385675,5738
831.2437175262731,5733
833.4861900889629,5795
835.7280537508192,5737
837.9693087361026,5690
840.2099552691533,5632
842.4499935743896,5699
844.689423876309,5684
846.9282463994886,5705
849.1664613685833,5731
851.4040690083276,5756
853.6410695435349,5690
855.877463199097,5845
858.1132501999847,5816
860.3484307712487,5754
862.5830051380175,5734
864.8169735254988,5702
867.0503361589791,5762
869.2830932638243,5846
871.5152450654786,5847
873.7467917894654,5748
875.9777336613873,5834
878.2080709069252,5838
880.4378037518389,5623
882.666932421968,5838
884.8954571432301,5883
887.1233781416219,5862
889.3506956432192,5783
891.5774098741766,5945
893.803521060728,5773
896.0290294291852,5887
898.2539352059397,5820
900.4782386174619,5814
902.7019398903011,5840
904.925039251085,5935
907.147536926521,5822
909.3694331433943,5677
911.59072812857,5895
913.8114221089921,5893
916.0315153116827,5839
918.2510079637437,5870
920.4699002923547,5836
922.6881925247761,5831
924.905884888345,5896
927.1229776104793,5805
929.3394709186747,5834
931.555365040506,5675
933.7706602036275,5755
935.9853566357709,5730
938.1994545647489,5767
940.4129542184515,5848
942.6258558248488,5901
944.8381596119883,5861
947.0498658079974,5848
949.2609746410825,5892
951.4714863395287,5818
953.6814011316998,5757
955.8907192460387,5954
958.0994409110671,5916
960.3075663553858,5881
962.5150958076741,5945
964.7220294966913,5884
966.928367651274,5899
969.1341105003388,5861
971.3392582728806,5887
973.5438111979742,5826
975.747769504772,5751
977.9511334225061,5704
980.153903180487,5785
982.3560790081052,5819
984.5576611348289,5923
986.7586497902058,5819
988.9590452038618,5821
991.158847605503,5957
993.3580572249133,5961
995.5566742919558,5644
997.7546990365728,5717
999.952131688785,5683
1002.1489724786926,5696
1004.3452216364743,5613
1006.5408793923874,5550
1008.7359459767691,5694
1010.9304216200343,5601
1013.1243065526781,5578
1015.3176010052733,5439
1017.510305208472,5547
1019.7024193930064,5573
1021.8939437896848,5539
1024.0848786293977,5525
1026.2752241431122,5553
1028.4649805618747,5538
1030.6541481168115,5558
1032.842727039127,5596
1035.0307175601051,5584
1037.2181199111074,5580
1039.4049343235752,5591
1041.591161029029,5536
1043.7768002590683,5519
1045.9618522453698,5426
1048.1463172196918,5658
1050.3301954138697,5531
1052.513487059818,5624
1054.69619238953,5545
1056.8783116350783,5550
1059.0598450286152,5531
1061.2407928023704,5567
1063.4211551886528,5618
1065.6009324198508,5644
1067.780124728432,5622
1069.9587323469414,5602
1072.1367555080046,5561
1074.314194444325,5684
1076.4910493886855,5675
1078.667320573947,5607
1080.843008233051,5494
1083.0181125990161,5555
1085.1926339049414,5469
1087.3665723840027,5474
1089.5399282694575,5444
1091.7127017946405,5565
1093.8848931929647,5590
1096.0565026979243,5526
1098.2275305430899,5509
1100.3979769621128,5382
1102.567842188722,5513
1104.737126456726,5472
1106.9058300000124,5480
1109.0739530525475,5405
1111.2414958483764,5538
1113.4084586216231,5439
1115.5748416064907,5600
1117.7406450372605,5588
1119.9058691482942,5413
1122.0705141740304,5331
1124.2345803489884,5366
1126.3980679077658,5556
1128.5609770850388,5627
1130.7233081155623,5588
1132.8850612341707,5541
1135.0462366757774,5524
1137.2068346753745,5626
1139.3668554680326,5429
1141.526299288901,5454
1143.68516637321,5525
1145.8434569562655,5553
1148.001171273455,5418
1150.158309560244,5543
1152.3148720521767,5425
1154.470858984876,5490
1156.626270594044,5531
1158.7811071154629,5610
1160.9353687849912,5505
1163.089055838569,5537
1165.242168512213,5472
1167.3947070420209,5604
1169.5466716641677,5580
1171.6980626149075,5414
1173.8488801305748,5489
1175.9991244475814,5531
1178.1487958024186,5471
1180.2978944316555,5500
1182.4464205719428,5514
1184.5943744600072,5497
1186.7417563326567,5477
1188.8885664267755,5421
1191.0348049793297,5439
1193.1804722273619,5433
1195.325568407995,5564
1197.4700937584303,5467
1199.614048515948,5579
1201.7574329179074,5612
1203.900247201746,5473
1206.042491604982,5603
1208.1841663652099,5523
1210.3252717201053,5573
1212.465807907422,5653
1214.6057751649923,5756
1216.7451737307279,5693
1218.8840038426192,5757
1221.0222657387353,5600
1223.1599596572241,5642
1225.2970858363137,5801
1227.4336445143094,5505
1229.5696359295966,5629
1231.705060320639,5538
1233.8399179259786,5563
1235.9742089842384,5708
1238.107933734118,5711
1240.2410924143974,5687
1242.373685263935,5596
1244.5057125216676,5718
1246.6371744266116,5763
1248.7680712178621,5704
1250.898403134593,5733
1253.028170416058,5686
1255.1573733015875,5728
1257.2860120305932,5625
1259.4140868425648,5654
1261.54159797707,5763
1263.6685456737569,5803
1265.7949301723515,5791
1267.9207517126597,5687
1270.046010534565,5624
1272.1707068780306,5673
1274.2948409830983,5752
1276.4184130898889,5591
1278.541423438603,5705
1280.6638722695184,5801
1282.785759822993,5730
1284.9070863394636,5721
1287.0278520594447,5721
1289.1480572235314,5767
1291.2677020723963,5789
1293.3867868467923,5951
1295.5053117875495,5864
1297.623277135579,5951
1299.740683131868,5967
1301.8575300174857,5782
1303.973818033578,5884
1306.0895474213703,6006
1308.2047184221678,5983
1310.3193312773528,5999
1312.4333862283888,5987
1314.5468835168163,5958
1316.659823384255,6029
1318.7722060724045,6088
1320.8840318230418,6021
1322.9953008780249,5786
1325.1060134792888,6011
1327.2161698688478,5915
1329.3257702887959,6016
1331.4348149813054,6000
1333.5433041886276,5974
1335.6512381530933,5924
1337.7586171171101,5752
1339.8654413231675,5886
1341.9717110138317,5896
1344.0774264317488,5978
1346.1825878196432,5924
1348.2871954203192,6073
1350.3912494766587,5860
1352.4947502316231,5955
1354.5976979282532,5861
1356.7000928096686,5921
1358.8019351190665,5870
1360.9032250997243,5883
1363.0039629949988,5843
1365.1041490483235,5963
1367.2037835032133,5991
1369.3028666032606,5880
1371.401398592137,5894
1373.4993797135926,5911
1375.5968102114575,6022
1377.6936903296396,6088
1379.7900203121262,6036
1381.8858004029835,6103
1383.9810308463561,6082
1386.075711886469,6127
1388.1698437676241,5845
1390.2634267342032,6037
1392.356461030667,6022
1394.4489469015557,6032
1396.5408845914872,6065
1398.6322743451592,6162
1400.7231164073469,6070
1402.813411022907,6026
1404.903158436773,6180
1406.9923588939578,6148
1409.0810126395531,6094
1411.1691199187303,6128
1413.2566809767386,6055
1415.343696058907,6192
1417.4301654106425,6132
1419.5160892774315,6056
1421.6014679048399,6126
1423.6863015385125,6331
1425.7705904241707,6181
1427.8543348076178,6198
1429.9375349347342,6239
1432.0201910514802,6310
1434.102303403894,6173
1436.1838722380944,6299
1438.2648978002767,6234
1440.3453803367174,6229
1442.4253200937692,6369
1444.5047173178677,6427
1446.5835722555234,6452
1448.6618851533285,6438
1450.739656257952,6411
1452.8168858161434,6682
1454.8935740747306,6587
1456.96972128062,6636
1459.045327680797,6551
1461.120393522327,6687
1463.1949190523528,6703
1465.2689045180973,6929
1467.3423501668608,6827
1469.415256246024,6972
1471.4876230030463,6811
1473.559450685465,6840
1475.6307395408976,7023
1477.7014898170391,7226
1479.771701761665,7255
1481.8413756226287,7181
1483.9105116478618,7191
1485.9791100853772,7286
1488.0471711832643,7140
1490.1146951896926,7225
1492.1816823529098,7421
1494.2481329212433,7287
1496.3140471430984,7337
1498.3794252669609,7512
1500.4442675413939,7423
1502.5085742150404,7491
1504.572345536622,7538
1506.6355817549388,7603
1508.6982831188702,7472
1510.7604498773744,7671
1512.8220822794883,7596
1514.8831805743293,7628
1516.9437450110909,7703
1519.003775839048,7577
1521.0632733075522,7744
1523.1222376660367,7874
1525.1806691640113,7833
1527.2385680510652,7804
1529.2959345768668,7946
1531.3527689911643,7920
1533.4090715437833,8044
1535.4648424846291,8001
1537.5200820636855,8036
1539.5747905310159,8167
1541.6289681367616,8282
1543.6826151311434,8149
1545.7357317644614,8340
1547.7883182870937,8274
1549.8403749494987,8324
1551.8919020022113,8481
1553.9428996958477,8544
1555.9933682811015,8586
1558.0433080087469,8648
1560.0927191296346,8714
1562.1416018946961,8683
1564.1899565549415,8578
1566.2377833614592,8493
1568.2850825654164,8450
1570.3318544180606,8234
1572.3780991707158,8150
1574.423817074788,8072
1576.4690083817595,7905
1578.5136733431923,7468
1580.5578122107272,7505
1582.601425236085,7470
1584.6445126710646,7436
1586.6870747675434,7332
1588.7291117774776,7071
1590.7706239529034,7121
1592.8116115459347,6807
1594.8520748087658,6871
1596.8920139936686,6749
1598.9314293529933,6714
1600.9703211391711,6656
1603.008689604711,6581
1605.0465350022005,6483
1607.0838575843068,6410
1609.1206576037753,6425
1611.1569353134305,6369
1613.1926909661765,6310
1615.2279248149953,6207
1617.2626371129481,6292
1619.2968281131757,6268
1621.3304980688963,6178
1623.3636472334088,6185
1625.39627586009,6122
1627.428384202396,6123
1629.459972513861,6110
1631.4910410480993,6187
1633.5215900588028,6139
1635.551619799744,6068
1637.5811305247717,5988
1639.6101224878166,6051
1641.6385959428862,6113
1643.6665511440683,6106
1645.693988345528,6120
1647.7209078015112,5996
1649.7473097663405,6200
1651.7731944944203,6051
1653.7985622402307,6042
1655.823413258333,6105
1657.847747803366,5982
1659.8715661300494,6022
1661.8948684931793,6007
1663.9176551476316,5993
1665.9399263483624,5979
1667.9616823504057,6014
1669.982923408873,6003
1672.0036497789574,6016
1674.0238617159293,6003
1676.043559475138,5892
1678.0627433120121,5828
1680.081413482059,5960
1682.0995702408654,5932
1684.117213844096,5977
1686.134344547495,5947
1688.1509626068864,5990
1690.1670682781705,5811
1692.182661817329,6008
1694.1977434804217,5868
1696.2123135235875,6073
1698.226372203043,5998
1700.2399197750851,6014
1702.2529564960905,5982
1704.2654826225112,5935
1706.277498410882,5914
1708.2890041178139,5903
1710.2999999999988,5934
1712.3104863142066,6088
1714.3204633172854,5959
1716.329931266163,5997
1718.3388904178469,6031
1720.3473410294214,6049
1722.3552833580516,6018
1724.3627176609807,5955
1726.3696441955308,6050
1728.3760632191033,6036
1730.3819749891782,5957
1732.3873797633146,5927
1734.3922777991502,5889
1736.3966693544012,5863
1738.4005546868639,6006
1740.4039340544127,5968
1742.406807715001,5881
1744.4091759266616,5925
1746.4110389475054,5959
1748.4123970357223,5839
1750.413250449582,5978
1752.4135994474318,5988
1754.4134442876993,5874
1756.4127852288902,5821
1758.4116225295893,5959
1760.4099564484595,5916
1762.407787244244,5835
1764.405115175764,5811
1766.4019405019203,5789
1768.3982634816916,5819
1770.3940843741357,5805
1772.3894034383907,5750
1774.3842209336717,5765
1776.378537119274,5857
1778.372352254571,5898
1780.3656665990156,5800
1782.3584804121397,5837
1784.3507939535534,5851
1786.3426074829463,5815
1788.3339212600863,5941
1790.3247355448211,5808
1792.3150505970766,5819
1794.3048666768573,5788
1796.2941840442477,5777
1798.2830029594106,5833
1800.2713236825884,5934
1802.2591464741004,5790
1804.2464715943465,5802
1806.2332993038058,5792
1808.2196298630352,5770
1810.2054635326708,5818
1812.190800573428,5945
1814.175641246101,5743
1816.1599858115628,5983
1818.1438345307652,5939
1820.127187664738,5836
1822.1100454745924,5887
1824.092408221516,5908
1826.0742761667766,5905
1828.055649571721,5875
1830.0365286977735,5935
1832.0169138064398,5874
1833.9968051593014,5829
1835.9762030180214,5923
1837.9551076443408,5818
1839.9335193000788,5783
1841.9114382471344,5662
1843.888864747485,5950
1845.8657990631878,5713
1847.842241456378,5887
1849.8181921892697,5841
1851.7936515241558,5735
1853.7686197234098,5907
1855.7430970494815,5706
1857.7170837649014,5717
1859.6905801322787,5706
1861.6635864143004,5799
1863.6361028737338,5890
1865.608129773424,5803
1867.5796673762961,5851
1869.5507159453537,5871
1871.521275743678,5895
1873.4913470344313,5805
1875.4609300808534,5793
1877.4300251462632,5916
1879.3986324940588,5890
1881.366752387717,5954
1883.3343850907936,5756
1885.3015308669228,5818
1887.268189979819,5933
1889.2343626932739,5816
1891.2000492711595,5848
1893.1652499774254,5871
1895.1299650761011,6013
1897.0941948312952,5927
1899.0579395071945,6022
1901.0211993680641,6032
1902.98397467825,5871
1904.9462657021745,5886
1906.9080727043415,5854
1908.869395949332,5827
1910.8302357018065,5981
1912.790592226504,5984
1914.7504657882428,6002
1916.7098566519212,6009
1918.6687650825133,5960
1920.6271913450764,5905
1922.5851357047422,5762
1924.5425984267245,5840
1926.499579776314,5908
1928.4560800188833,5817
1930.4120994198802,5803
1932.367638244833,5867
1934.32269675935,5829
1936.2772752291175,5926
1938.231373919899,5831
1940.1849930975404,5859
1942.1381330279637,5887
1944.0907939771696,5958
1946.0429762112412,6074
1947.9946799963363,5986
1949.9459055986945,5850
1951.896653284633,5875
1953.8469233205478,5864
1955.7967159729142,5877
1957.7460315082863,5850
1959.6948701932974,5926
1961.6432322946594,5804
1963.5911180791632,5748
1965.5385278136787,5959
1967.4854617651545,5885
1969.4319202006182,5911
1971.377903387176,6032
1973.3234115920136,5917
1975.268445082395,5892
1977.2130041256642,5900
1979.1570889892423,5960
1981.1006999406304,5822
1983.04383724741,5868
1984.986501177238,5806
1986.928691997853,5811
1988.8704099770712,5991
1990.811655382789,5912
1992.7524284829801,5880
1994.692729545698,5854
1996.6325588390755,6042
1998.5719166313224,5812
2000.5108031907307,5957
2002.4492187856677,5767
2004.387163684583,5868
2006.3246381560011,5812
2008.2616424685298,5721
2010.1981768908527,5843
2012.1342416917332,5842
2014.069837140014,5835
2016.0049635046162,5863
2017.9396210545406,5693
2019.8738100588666,5838
2021.8075307867502,5757
2023.740783507431,5795
2025.6735684902228,5809
2027.6058860045214,5770
2029.5377363198004,5770
2031.4691197056118,5770
2033.4000364315875,5852
2035.3304867674374,5634
2037.260470982952,5879
2039.189989347998,5612
2041.1190421325232,5806
2043.047629606554,5880
2044.9757520401945,5814
2046.9034097036288,5835
2048.8306028671195,5911
2050.7573318010086,5839
2052.683596775716,5879
2054.609398061742,5918
2056.5347359296647,5943
2058.4596106501403,5890
2060.384022493906,5810
2062.3079717317764,5912
2064.231458634646,5794
2066.1544834734873,5900
2068.077046519352,5865
2069.99914804337,5817
2071.9207883167524,5795
2073.8419676107865,5745
2075.7626861968406,5861
2077.6829443463607,5912
2079.6027423308715,5869
2081.522080421977,5816
2083.440958891362,5683
2085.359378010786,5861
2087.2773380520907,5917
2089.194839287196,5891
2091.111881988101,5914
2093.0284664268825,5733
2094.9445928756973,5850
2096.86026160678,5787
2098.775472892446,5881
2100.690227005088,5839
2102.604524217178,5767
2104.5183648012676,5883
2106.431749029985,5853
2108.34467717604,5828
2110.2571495122206,5785
2112.169166311393,5858
2114.080727846503,5927
2115.9918343905747,5857
2117.902486216711,5859
2119.8126835980956,5915
2121.722426807987,5825
2123.6317161197285,5884
2125.5405518067364,5859
2127.448934142509,5820
2129.356863400624,5988
2131.264339854737,5911
2133.1713637785815,5855
2135.077935445972,5960
2136.9840551308002,5968
2138.889723107037,5855
2140.7949396487334,5878
2142.699705030018,5912
2144.6040195250994,5870
2146.507883408264,5852
2148.4112969538774,5934
2150.3142604363848,5980
2152.2167741303097,5991
2154.1188383102535,5898
2156.0204532508997,5824
2157.9216192270064,6001
2159.822336513414,5965
2161.7226053850413,5928
2163.622426116884,5929
2165.5217989840185,6005
2167.4207242616,5845
2169.319202224862,5866
2171.2172331491165,5838
2173.1148173097563,5982
2175.0119549822507,5942
2176.90864644215,5786
2178.8048919650823,5973
2180.7006918267534,5890
2182.596046302952,5897
2184.4909556695407,5864
2186.3854202024645,5976
2188.279440177746,5918
2190.173015871487,5877
2192.066147559868,5906
2193.958835519149,5924
2195.851080025667,5881
2197.7428813558417,5774
2199.6342397861667,5868
2201.5251555932186,5960
2203.415629053651,6030
2205.3056604441986,5894
2207.19525004167,5947
2209.084398122958,6004
2210.9731049650327,6061
2212.861370844941,5996
2214.749196039812,5926
2216.636580826851,6064
2218.523525483344,6013
2220.410030286655,5996
2222.296095514226,6004
2224.1817214435805,5928
2226.066908352319,5896
2227.951656518121,6023
2229.835966218746,5921
2231.71983773203,5860
2233.6032713358913,6069
2235.486267308324,6006
2237.3688259274036,6082
2239.2509474712824,6097
2241.132632218193,5945
2243.013880446447,6056
2244.8946924344323,6128
2246.7750684606203,5896
2248.6550088035574,5952
2250.534513741871,5943
2252.413583554265,6037
2254.292218519526,5937
2256.170418916517,6007
2258.0481850241786,5807
2259.925517121534,5855
2261.8024154876825,5964
2263.678880401803,5885
2265.5549121431536,5932
2267.430510991071,5901
2269.305677224971,5825
2271.180411124348,5925
2273.0547129687766,5806
2274.9285830379076,5851
2276.8020216114737,5732
2278.6750289692845,5897
2280.5476053912294,6008
2282.4197511572766,6005
2284.2914665474727,5994
2286.162751841943,5867
2288.0336073208937,6024
2289.904033264608,5937
2291.774029953448,5956
2293.6435976678554,6048
2295.5127366883517,5877
2297.381447295534,5943
2299.2497297700825,5906
2301.1175843927526,6025
2302.9850114443825,5872
2304.852011205885,5777
2306.7185839582553,5842
2308.5847299825664,5808
2310.4504495599676,5777
2312.3157429716925,5731
2314.1806104990483,5752
2316.0450524234247,5781
2317.9090690262888,5775
2319.772660589186,5773
2321.635827393742,5865
2323.498569721661,5699
2325.3608878547248,5753
2327.2227820747967,5873
2329.0842526638157,5857
2330.945299903803,5780
2332.805924076857,5846
2334.6661254651535,5746
2336.525904350951,5794
2338.3852610165827,5834
2340.244195744464,5760
2342.102708817088,5789
2343.9608005170253,5887
2345.8184711269287,5727
2347.675720929526,5815
2349.532550207628,5769
2351.38895924412,5775
2353.24494832197,5755
2355.100517724223,5680
2356.955667734004,5835
2358.810398634514,5743
2360.664710709037,5715
2362.5186042409337,5760
2364.3720795136437,5907
2366.225136810686,5834
2368.0777764156583,5836
2369.929998612237,5745
2371.7818036841777,5729
2373.633191915315,5797
2375.484163589562,5859
2377.3347189909114,5782
2379.184858403434,5821
2381.03458211128,5817
2382.8838903986775,5738
2384.732783549936,5781
2386.5812618494406,5768
2388.4293255816588,5833
2390.2769750311327,5753
2392.1242104824883,5780
2393.971032220427,5846
2395.8174405297295,5734
2397.6634356952563,5736
2399.509018001947,5793
2401.3541877348193,5659
2403.1989451789705,5796
2405.043290619576,5725
2406.8872243418905,5720
2408.730746631247,5797
2410.5738577730594,5809
2412.4165580528183,5756
2414.258847756095,5688
2416.100727168537,5643
2417.9421965758734,5684
2419.783256263912,5738
2421.623906518538,5755
2423.4641476257157,5782
2425.303979871491,5760
2427.143403541984,5700
2428.9824189233977,5734
2430.821026302012,5624
2432.6592259641866,5780
2434.497018196361,5912
2436.33440328505,5803
2438.171381516851,5653
2440.00795317844,5755
2441.844118556569,5711
2443.6798779380724,5721
2445.5152316098606,5702
2447.3501798589255,5733
2449.1847229723357,5716
2451.0188612372403,5790
2452.8525949408663,5885
2454.6859243705203,5740
2456.518849813587,5728
2458.3513715575314,5796
2460.183489889895,5760
2462.015205098301,5706
2463.8465174704493,5735
2465.67742729412,5673
2467.5079348571717,5833
2469.338040447542,5877
2471.1677443532476,5819
2472.9970468623833,5817
2474.825948263123,5776
2476.6544488437207,5854
2478.482548892508,5715
2480.310248697896,5856
2482.137548548374,5790
2483.9644487325118,5917
2485.790949538956,5867
2487.617051256433,5837
2489.44275417375,5780
2491.26805857979,5857
2493.0929647635157,5890
2494.917473013971,5758
2496.741583620276,5822
2498.5652968716304,5813
2500.3886130573137,5797
2502.2115324666834,5892
2504.0340553891765,5821
2505.856182114308,5747
2507.6779129316733,5723
2509.499248130945,5780
2511.3201880018764,5723
2513.140732834298,5693
2514.9608829181198,5779
2516.780638543331,5789
2518.6,5687
2520.418967578273,5936
2522.237541568376,5786
2524.0557222606144,5800
2525.8735099453706,5771
2527.6909049131086,5744
2529.507907454368,5820
2531.32451785977,5861
2533.140736420014,5943
2534.9565634258774,5895
2536.771999168218,5924
2538.5870439379714,5832
2540.4016980261526,5959
2542.2159617238544,5925
2544.02983532225,5935
2545.8433191125914,5826
2547.656413386209,5988
2549.4691184345115,5883
2551.2814345489874,5879
2553.093362021204,6040
2554.904901142808,5971
2556.716052205523,5900
2558.526815501153,6066
2560.3371913215824,6083
2562.147179958771,6026
2563.956781704761,6023
2565.7659968516705,5994
2567.5748256916986,6093
2569.3832685171224,6018
2571.1913256202984,6000
2572.9989972936614,5933
2574.806283829725,5966
2576.613185521084,5964
2578.4197026604074,5936
2580.2258355404483,6120
2582.031584454035,6085
2583.836949694077,6022
2585.6419315535613,5924
2587.4465303255533,6146
2589.2507463032002,6007
2591.0545797797245,6074
2592.8580310484303,6041
2594.6611004026995,5975
2596.463788135992,6019
2598.266094541849,6111
2600.0680199138874,6035
2601.869564545807,6068
2603.670728731383,6089
2605.4715127644704,5947
2607.2719169390048,6022
2609.071941548998,6032
2610.8715868885433,6056
2612.670853251811,6038
2614.469740933052,6112
2616.268250226594,6015
2618.0663814268455,6151
2619.864134828292,6034
2621.6615107255006,5934
2623.458509413115,5918
2625.2551311858597,5926
2627.0513763385347,6016
2628.8472451660223,6003
2630.6427379632833,5879
2632.4378550253564,5948
2634.232596647359,5869
2636.026963124488,5941
2637.8209547520187,5924
2639.6145718253065,5966
2641.407814639785,5998
2643.200683490966,5848
2644.9931786744414,5839
2646.7853004858807,5716
2648.577049221034,5732
2650.3684251757277,5657
2652.1594286458712,5763
2653.9500599274484,5794
2655.740319316525,5743
2657.5302071092437,5798
2659.3197236018286,5705
2661.10886909058,5749
2662.8976438718782,5865
2664.686048242183,5772
2666.4740824980327,5720
2668.2617469360443,5794
2670.0490418529134,5820
2671.8359675454153,5768
2673.622524310403,5797
2675.408712444811,5716
2677.1945322456495,5745
2678.979984010009,5619
2680.76506803506,5613
2682.5497846180497,5657
2684.334134056306,5744
2686.1181166472343,5678
2687.9017326883213,5595
2689.6849824771293,5679
2691.4678663113013,5569
2693.2503844885596,5590
2695.032537306705,5633
2696.8143250636167,5602
2698.5957480572542,5496
2700.3768065856534,5628
2702.1575009469316,5577
2703.937831439283,5543
2705.717798360982,5663
2707.4974020103837,5527
2709.276642685917,5651
2711.055520686095,5544
2712.834036309506,5568
2714.612189854819,5467
2716.389981620782,5499
2718.1674119062204,5566
2719.944481010041,5533
2721.721189231226,5562
2723.4975368688415,5498
2725.273524222027,5507
2727.0491515900053,5550
2728.824419272075,5480
2730.5993275676146,5508
2732.3738767760838,5522
2734.148067197016,5522
2735.921899130031,5438
2737.6953728748194,5499
2739.468488731156,5451
2741.2412469988926,5486
2743.0136479779617,5515
2744.785691968372,5536
2746.5573792702116,5484
2748.3287101836504,5491
2750.099685008934,5438
2751.870304046388,5375
2753.640567596418,5527
2755.4104759595057,5482
2757.1800294362156,5506
2758.949228327187,5492
2760.7180729331412,5484
2762.486563554877,5585
2764.254700493272,5500
2766.022484049284,5458
2767.789914523947,5501
2769.5569922183786,5440
2771.3237174337705,5492
2773.090090471394,5307
2774.8561116326036,5417
2776.6217812188274,5376
2778.3870995315756,5385
2780.1520668724356,5605
2781.9166835430747,5399
2783.6809498452394,5526
2785.444866080754,5469
2787.2084325515225,5477
2788.971649559527,5369
2790.73451740683,5449
2792.4970363955713,5287
2794.2592068279705,5530
2796.0210290063264,5554
2797.7825032330147,5468
2799.543629810493,5358
2801.304409041296,5480
2803.0648412280366,5354
2804.8249266734088,5503
2806.5846656801846,5500
2808.344058551212,5450
2810.1031055894246,5556
2811.8618070978273,5505
2813.6201633795085,5482
2815.378174737636,5483
2817.1358414754536,5399
2818.893163896285,5420
2820.6501423035334,5447
2822.4067770006814,5505
2824.1630682912883,5484
2825.9190164789957,5614
2827.6746218675207,5561
2829.429884760661,5534
2831.184805462294,5428
2832.9393842763743,5551
2834.693621506936,5507
2836.4475174580916,5530
2838.201072434034,5520
2839.954286739034,5554
2841.707160677441,5417
2843.459694553685,5593
2845.2118886722724,5483
2846.96374333779,5489
2848.7152588549034,5437
2850.4664355283567,5407
2852.217273662973,5537
2853.9677735636546,5412
2855.7179355353833,5386
2857.4677598832186,5395
2859.217246912299,5440
2860.9663969278427,5543
2862.715210235146,5464
2864.4636871395846,5369
2866.211827946614,5441
2867.9596329617652,5398
2869.7071024906536,5463
2871.4542368389684,5405
2873.20103631248,5372
2874.947501217038,5370
2876.6936318585695,5392
2878.4394285430812,5295
2880.1848915766604,5408
2881.9300212654707,5462
2883.6748179157553,5429
2885.4192818338374,5381
2887.1634133261173,5327
2888.907212699077,5389
2890.6506802592744,5366
2892.393816313348,5383
2894.1366211680142,5365
2895.8790951300693,5417
2897.621238506388,5346
2899.363051603925,5295
2901.1045347297118,5478
2902.8456881908596,5374
2904.58651229456,5347
2906.327007348081,5348
2908.067173658772,5472
2909.8070115340597,5258
2911.5465212814497,5363
2913.285703208527,5322
2915.0245576229563,5367
2916.7630848324807,5323
2918.5012851449196,5285
2920.2391588681758,5218
2921.976706310227,5206
2923.7139277791334,5296
2925.4508235830313,5434
2927.187394030137,5438
2928.923639428745,5206
2930.6595600872306,5397
2932.395156314046,5242
2934.1304284177218,5394
2935.8653767068713,5386
2937.6000014901815,5386
2939.3343030764227,5344
2941.068281774442,5359
2942.8019378931644,5428
2944.5352717415976,5370
2946.2682836288236,5520
2948.0009738640065,5332
2949.7333427563885,5368
2951.465390615289,5331
2953.1971177501086,5382
2954.9285244703265,5412
2956.6596110855,5339
2958.3903779052657,5368
2960.1208252393385,5276
2961.8509533975125,5368
2963.5807626896617,5404
2965.3102534257378,5272
2967.0394259157715,5332
2968.768280469873,5299
2970.496817398232,5378
2972.2250370111146,5318
2973.952939618869,5442
2975.6805255319196,5393
2977.4077950607707,5413
2979.134748516006,5351
2980.861386208289,5435
2982.587708448359,5243
2984.313715547037,5519
2986.039407815222,5408
2987.764785563891,5371
2989.489849104102,5456
2991.2145987469908,5298
2992.9390348037705,5346
2994.6631575857346,5299
2996.3869674042576,5323
2998.1104645707887,5343
2999.83364939686,5283
3001.5565221940783,5270
3003.2790832741334,5257
3005.0013329487924,5292
3006.7232715298996,5231
3008.4448993293804,5231
3010.166216659239,5307
3011.887223831558,5388
3013.607921158498,5270
3015.3283089522993,5186
3017.0483875252826,5229
3018.7681571898443,5186
3020.4876182584626,5163
3022.2067710436927,5200
3023.9256158581707,5183
3025.644153014609,5268
3027.362382825801,5277
3029.0803056046193,5258
3030.797921664012,5262
3032.5152313170106,5144
3034.2322348767225,5258
3035.9489326563353,5300
3037.665324969115,5359
3039.3814121284063,5260
3041.097194447633,5253
3042.812672240299,5280
3044.5278458199855,5266
3046.2427155003525,5294
3047.9572815951406,5248
3049.671544418167,5158
3051.38550428333,5309
3053.0991615046073,5360
3054.812516396051,5255
3056.5255692717974,5215
3058.2383204460575,5217
3059.9507702331257,5234
3061.662918947372,5152
3063.3747669032446,5224
3065.0863144152736,5143
3066.7975617980674,5150
3068.508509366309,5172
3070.219157434767,5306
3071.9295063182844,5210
3073.639556331785,5185
3075.3493077902704,5252
3077.058761008821,5204
3078.7679163025964,5235
3080.476773986837,5243
3082.1853343768594,5220
3083.89359778806,5253
3085.6015645359153,5169
3087.3092349359786,5241
3089.016609303884,5112
3090.7236879553434,5226
3092.4304712061476,5176
3094.136959372166,5089
3095.843152769349,5155
3097.5490517137237,5243
3099.2546565213966,5206
3100.959967508554,5078
3102.66498499146,5232
3104.3697092864577,5290
3106.0741407099695,5246
3107.778279578498,5272
3109.482126208622,5245
3111.1856809170004,5200
3112.8889440203716,5285
3114.5919158355528,5167
3116.294596679439,5143
3117.996986869006,5298
3119.6990867213062,5230
3121.4008965534726,5137
3123.102416682717,5212
3124.803647426329,5267
3126.5045891016784,5213
3128.205242026213,5114
3129.90560651746,5149
3131.605682893025,5242
3133.3054714705922,5241
3135.0049725679282,5151
3136.7041865028714,5197
3138.4031135933465,5187
3140.101754157353,5109
3141.800108512971,5209
3143.498176978357,5159
3145.1959598717494,5276
3146.8934575114636,5162
3148.5906702158954,5145
3150.2875983035183,5120
3151.9842420928853,5191
3153.680601902627,5183
3155.376678051456,5184
3157.07247085816,5138
3158.767980641609,5179
3160.463207720748,5031
3162.158152414606,5096
3163.8528150422862,5206
3165.5471959229726,5081
3167.2412953759303,5146
3168.9351137204976,5128
3170.628651276098,5125
3172.3219083622307,5117
3174.014885298474,5224
3175.707582404485,5229
3177.4000000000005,5133
3179.092138404835,5167
3180.7839979388846,5241
3182.47557892212,5175
3184.166881674594,5184
3185.8579065164386,5267
3187.5486537678626,5258
3189.2391237491547,5212
3190.9293167806827,5154
3192.6192331828934,5098
3194.3088732763117,5134
3195.998237381542,5078
3197.687325819268,5257
3199.376138910251,4975
3201.064676975334,5038
3202.7529403354347,5146
3204.4409293115523,5109
3206.1286442247647,5225
3207.816085396229,5120
3209.5032531471825,5101
3211.190147798936,4860
3212.8767696728846,4976
3214.5631190905015,5048
3216.2491963733373,5046
3217.9350018430214,5002
3219.6205358212637,5031
3221.305798629851,5004
3222.990790590651,5020
3224.6755120256103,5001
3226.359963256751,4935
3228.0441446061795,4975
3229.7280563960758,5007
3231.411698948703,4934
3233.0950725863995,5032
3234.778177631587,4923
3236.461014406761,5048
3238.1435832345005,5005
3239.8258844374595,5058
3241.507918338374,5080
3243.1896852600576,4963
3244.8711855254023,4952
3246.552419457381,5130
3248.233387379042,5038
3249.914089613516,5025
3251.59452648401,4972
3253.274698313813,4995
3254.95460542629,5049
3256.6342481448855,5009
3258.313626793125,4978
3259.9927416946084,5048
3261.6715931730196,4976
3263.3501815521176,5024
3265.0285071557437,4991
3266.706570307815,5006
3268.3843713323286,4942
3270.0619105533615,5025
3271.739188295068,4975
3273.4162048816834,4978
3275.0929606375184,4940
3276.769455886966,5063
3278.445690954498,5000
3280.1216661646613,5117
3281.797381842087,5057
3283.4728383114807,4970
3285.1480358976296,5095
3286.8229749253996,4921
3288.4976557197333,4975
3290.172078605655,4948
3291.846243908266,4895
3293.5201519527463,5052
3295.193803064357,4908
3296.8671975684374,5023
3298.5403357904024,4964
3300.21321805575,4905
3301.8858446900567,4973
3303.558216018975,4972
3305.23033236824,5060
3306.9021940636603,4952
3308.57380143113,4963
3310.2451547966184,5019
3311.916254486174,4963
3313.5871008259246,5003
3315.2576941420766,5004
3316.9280347609147,5044
3318.5981230088046,4855
3320.2679592121895,4940
3321.9375436975924,4936
3323.606876791612,4939
3325.27595882093,4903
3326.944790112305,4951
3328.6133709925753,4936
3330.2817017886573,4985
3331.949782827547,4914
3333.617614436319,4926
3335.2851969421245,5060
3336.952530672199,4979
3338.619615953853,4903
3340.286453114475,5061
3341.9530424815357,5003
3343.619384382583,5080
3345.2854791452437,4989
3346.951327097224,4944
3348.6169285663073,5068
3350.2822838803577,4926
3351.947393367319,5020
3353.61225735521,5000
3355.2768761721345,5097
3356.9412501462693,5025
3358.605379605873,5050
3360.2692648792827,5006
3361.9329062949146,5000
3363.596304181263,4981
