CollectionTime,9/19/2024 11:20:32 AM
ExposureUsed,3
CalibratedSpectrum
-962.7078968117929,1119
-959.9714848408522,1234
-957.2358232597828,1187
-954.5009119013725,1198
-951.7667505983302,1214
-949.0333391832855,1267
-946.3006774887896,1206
-943.5687653473143,1199
-940.837602591253,1255
-938.1071890529199,1239
-935.3775245645503,1167
-932.6486089583007,1234
-929.9204420662485,1213
-927.1930237203925,1197
-924.4663537526524,1205
-921.7404319948689,1182
-919.0152582788041,1298
-916.2908324361409,1299
-913.5671542984834,1183
-910.8442236973568,1197
-908.1220404642074,1209
-905.4006044304027,1164
-902.679915427231,1191
-899.959973285902,1178
-897.2407778375464,1118
-894.5223289132158,1163
-891.8046263438832,1161
-889.0876699604426,1172
-886.3714595937089,1146
-883.6559950744183,1179
-880.9412762332282,1167
-878.2273029007168,1182
-875.5140749073835,1208
-872.8015920836489,1176
-870.0898542598545,1135
-867.3788612662631,1170
-864.6686129330585,1214
-861.9591090903457,1240
-859.2503495681506,1203
-856.5423341964203,1188
-853.8350628050229,1206
-851.1285352237478,1155
-848.4227512823054,1195
-845.7177108103272,1234
-843.0134136373656,1315
-840.3098595928943,1274
-837.6070485063082,1184
-834.9049802069229,1152
-832.2036545239757,1208
-829.5030712866244,1220
-826.8032303239481,1220
-824.1041314649472,1217
-821.4057745385428,1212
-818.7081593735775,1249
-816.0112857988148,1195
-813.3151536429393,1187
-810.6197627345566,1210
-807.9251129021936,1305
-805.2312039742981,1193
-802.5380357792392,1207
-799.8456081453069,1256
-797.1539209007124,1245
-794.462973873588,1233
-791.772766891987,1151
-789.083299783884,1252
-786.3945723771743,1275
-783.7065844996748,1255
-781.0193359791231,1259
-778.3328266431781,1248
-775.6470563194197,1255
-772.9620248353489,1266
-770.2777320183878,1221
-767.5941776958798,1301
-764.9113616950891,1249
-762.2292838432011,1265
-759.5479439673222,1215
-756.8673418944801,1213
-754.1874774516235,1218
-751.5083504656222,1240
-748.8299607632671,1275
-746.15230817127,1288
-743.475392516264,1282
-740.7992136248035,1274
-738.1237713233636,1252
-735.4490654383407,1257
-732.7750957960521,1223
-730.1018622227365,1201
-727.4293645445534,1265
-724.7576025875837,1256
-722.0865761778291,1261
-719.4162851412126,1293
-716.7467293035781,1283
-714.0779084906909,1250
-711.409822528237,1272
-708.7424712418238,1248
-706.0758544569796,1292
-703.4099719991541,1357
-700.7448236937178,1335
-698.0804093659622,1355
-695.4167288411002,1351
-692.7537819442656,1290
-690.0915685005134,1333
-687.4300883348199,1301
-684.7693412720819,1386
-682.1093271371178,1374
-679.4500457546669,1263
-676.7914969493897,1358
-674.1336805458676,1334
-671.4765963686034,1373
-668.8202442420206,1362
-666.1646239904642,1289
-663.5097354382001,1286
-660.8555784094151,1302
-658.2021527282176,1287
-655.5494582186366,1342
-652.8974947046223,1336
-650.2462620100463,1345
-647.5957599587009,1323
-644.9459883742998,1364
-642.2969470804776,1369
-639.6486359007902,1432
-637.0010546587141,1447
-634.3542031776476,1449
-631.7080812809096,1421
-629.0626887917401,1443
-626.4180255333008,1398
-623.7740913286734,1415
-621.1308860008619,1413
-618.4884093727904,1355
-615.8466612673046,1337
-613.2056415071715,1361
-610.5653499150785,1348
-607.9257863136347,1428
-605.28695052537,1381
-602.6488423727357,1377
-600.0114616781036,1429
-597.3748082637674,1456
-594.7388819519412,1452
-592.1036825647604,1529
-589.4692099242818,1479
-586.8354638524829,1489
-584.2024441712624,1452
-581.5701507024403,1507
-578.9385832677575,1518
-576.3077416888759,1511
-573.6776257873787,1449
-571.0482353847704,1455
-568.4195703024757,1427
-565.7916303618415,1457
-563.164415384135,1445
-560.5379251905453,1449
-557.9121596021815,1459
-555.2871184400748,1451
-552.6628015251767,1501
-550.0392086783606,1505
-547.4163397204204,1493
-544.794194472071,1531
-542.1727727539491,1641
-539.5520743866118,1602
-536.9320991905377,1520
-534.3128469861261,1565
-531.6943175936979,1585
-529.0765108334947,1574
-526.4594265256793,1629
-523.8430644903358,1849
-521.2274245474689,1891
-518.612506517005,1982
-515.9983102187913,2054
-513.3848354725959,1965
-510.77208209810846,2062
-508.16004991493924,2137
-505.5487387426199,2046
-502.9381484006032,2019
-500.3282787082628,2131
-497.71912948489364,2119
-495.1107005497117,2013
-492.5029917218539,1882
-489.8960028203786,1785
-487.28973366426493,1672
-484.68418407241325,1630
-482.07935386364494,1591
-479.47524285670266,1648
-476.87185087025,1608
-474.2691777228715,1651
-471.66722323307334,1680
-469.0659872192821,1686
-466.4654694998459,1678
-463.86566989303384,1612
-461.26658821703614,1660
-458.66822428996414,1697
-456.07057792985,1671
-453.4736489546475,1648
-450.877437182231,1678
-448.28194243039627,1594
-445.68716451686,1641
-443.09310325926003,1624
-440.49975847515555,1638
-437.9071299820263,1557
-435.31521759727354,1717
-432.72402113821954,1687
-430.13354042210767,1688
-427.5437752661022,1683
-424.95472548728867,1660
-422.36639090267386,1793
-419.7787713291855,1781
-417.1918665836721,1784
-414.60567648290385,1685
-412.0202008435715,1739
-409.4354394822874,1747
-406.8513922155845,1705
-404.26805885991723,1780
-401.685439231661,1722
-399.103533147112,1781
-396.522340422488,1781
-393.9418608739278,1695
-391.3620943174908,1708
-388.7830405691583,1594
-386.2046994448317,1608
-383.6270707603344,1562
-381.05015433141045,1460
-378.473949973725,1375
-375.8984575028645,1260
-373.32367673433623,1109
-370.74960748356875,1030
-368.1762495659117,1012
-365.60360279663576,859
-363.03166699093265,730
-360.4604419639154,662
-357.8899275306178,663
-355.32012350599507,654
-352.7510297049233,599
-350.1826459421999,599
-347.61497203254316,530
-345.04800779059235,516
-342.4817530309082,581
-339.91620756797226,586
-337.35137121618743,611
-334.7872437898774,655
-332.22382510328725,589
-329.66111497058273,529
-327.09911320585127,529
-324.53781962310075,592
-321.9772340362607,511
-319.4173562591816,503
-316.8581861056348,489
-314.2997233893127,485
-311.7419679238294,510
-309.1849195227194,552
-306.62857799943856,641
-304.0729431673641,618
-301.51801483979375,585
-298.963792829947,550
-296.41027695096386,540
-293.85746701590574,591
-291.3053628377552,607
-288.7539642294155,620
-286.2032710037115,629
-283.65328297338897,669
-281.1039999511146,800
-278.5554217494762,796
-276.007548180983,699
-273.4603790580651,643
-270.9139141930734,675
-268.3681533982807,684
-265.8230964858798,672
-263.27874326798565,745
-260.7350935566336,753
-258.1921471637804,749
-255.6499039013039,781
-253.10836358100266,780
-250.56752601459698,770
-248.02739101372765,817
-245.48795838995704,782
-242.94922795476816,759
-240.41119951956557,808
-237.8738728956746,881
-235.33724789434166,871
-232.80132432673452,756
-230.2661020039418,736
-227.73158073697357,769
-225.19776033676033,796
-222.66464061415422,801
-220.1322213799284,786
-217.60050244477725,737
-215.06948361931552,802
-212.53916471408013,1096
-210.00954553952818,1088
-207.48062590603843,915
-204.9524056239104,863
-202.4248845033651,1071
-199.8980623545441,1071
-197.37193898751036,986
-194.84651421224817,1048
-192.32178783866232,1004
-189.79775967657952,1039
-187.27442953574644,1126
-184.7517972258321,1229
-182.2298625564256,1021
-179.7086253370378,944
-177.18808537710026,805
-174.66824248596583,1040
-172.14909647290835,1027
-169.6306471471229,983
-167.11289431772548,986
-164.59583779375328,1100
-162.07947738416453,1318
-159.5638128978386,1563
-157.04884414357605,1842
-154.53457093009854,1820
-152.02099306604828,1305
-149.50811035998936,1252
-146.99592262040665,1585
-144.48442965570587,1540
-141.97363127421409,1509
-139.46352728417958,1740
-136.95411749377126,1759
-134.44540171107985,1478
-131.93737974411636,1008
-129.43005140081357,985
-126.92341648902493,1399
-124.41747481652521,1720
-121.91222619101006,2528
-119.40767042009657,3126
-116.90380731132257,2446
-114.40063667214702,2387
-111.8981583099503,2693
-109.3963720320337,2869
-106.89527764561933,4248
-104.39487495785067,7783
-101.89516377579241,13775
-99.39614390642998,22211
-96.89781515667039,28745
-94.40017733334128,31649
-91.90323024319173,30958
-89.40697369289148,33357
-86.91140748903172,28690
-84.41653143812482,15219
-81.92234534660395,9072
-79.42884902082358,13245
-76.93604226705907,26538
-74.4439248915071,42031
-71.95249670028534,49076
-69.46175749943245,41574
-66.97170709490854,27980
-64.48234529259423,16654
-61.99367189829195,12139
-59.50568671772464,14160
-57.01838955653636,14726
-54.53178022029283,14168
-52.045858514480074,14882
-49.560624244506016,17385
-47.07607721569923,18268
-44.59221723330904,18481
-42.10904410250669,17914
-39.62655762838392,20487
-37.14475761595372,19082
-34.66364387015028,21474
-32.18321619582866,22741
-29.70347439776515,20395
-27.224418280657005,18797
-24.74604764912317,21898
-22.26836230770266,36521
-19.7913620608565,65035
-17.315046712966478,65035
-14.83941606833514,65035
-12.36446993118659,65035
-9.89020810566592,65035
-7.416630395839093,65035
-4.94373660569363,65035
-2.471526539137585,65035
-6.821210263296962E-13,65035
2.47084320796705,65035
4.941003281093458,65035
7.410480415786196,65035
9.879274808531363,65035
12.347386655893956,65035
14.814816154518212,65035
17.28156350112681,65035
19.74762889252179,65035
22.21301252558385,30538
24.67771459727237,6586
27.141735304626195,6507
29.605074844762612,9100
32.06773341487792,9169
34.52971121224755,12012
36.99100843422559,9708
39.45162527824516,5811
41.91156194181792,4305
44.370818622535126,5145
46.82939551806646,4498
49.287292826160524,6889
51.74451074464503,8320
54.201049471426245,6748
56.65690920448981,3874
59.112090141899785,2541
61.56659248179983,2700
64.02041642241159,2569
66.4735621620365,2853
68.92602989905402,3626
71.37781983192338,5015
73.82893215918205,4641
76.27936707944684,3255
78.72912479141326,2664
81.17820549385567,3221
83.62660938562783,3150
86.07433666566146,1999
88.5213875329681,1512
90.96776218663751,1806
93.41346082583925,2095
95.85848364982041,2612
98.30283085790859,2718
100.7465026495089,2152
103.18949922410604,1681
105.63182078126385,1341
108.07346752062438,1215
110.51443964190923,1131
112.95473734491827,1239
115.39436082953114,1705
117.83331029570547,1672
120.27158594347827,1826
122.7091879729652,1836
125.1461165843615,1625
127.58237197794062,1361
130.01795435405518,1212
132.4528639131364,1181
134.88710085569494,1206
137.32066538231982,1230
139.75355769367923,1502
142.1857779905207,1529
144.61732647366978,1379
147.04820334403132,1289
149.47840880258934,1214
151.90794305040674,1311
154.33680628862487,1572
156.76499871846443,1710
159.19252054122433,1743
161.61937195828352,1840
164.04555317109896,2104
166.47106438120693,2362
168.89590579022217,2543
171.320077599839,2797
173.7435800118302,3020
176.16641322804742,3055
178.58857745042144,3124
181.01007288096173,3251
183.43089972175687,3262
185.85105817497413,3366
188.27054844285988,3553
190.6893707277394,3389
193.10752523201643,3444
195.5250121581745,3559
197.9418317087751,3713
200.3579840864594,3504
202.7734694939469,3745
205.18828813403627,3876
207.6024402096051,3921
210.01592592360964,3897
212.42874547908548,3958
214.84089907914665,3663
217.2523869269868,3705
219.66320922587727,3748
222.0733661791695,3673
224.48285799029293,3635
226.8916848627572,3788
229.29984700014882,3847
231.7073446061355,3793
234.11417788446204,3980
236.520347038953,4031
238.92585227351185,4059
241.33069379212054,4196
243.73487179884035,4191
246.1383864978112,4071
248.541238093252,4198
250.9434267894609,4265
253.34495279081432,4284
255.74581630176783,4222
258.1460175268563,4204
260.54555667069314,4171
262.9444339379703,4279
265.3426495334594,4268
267.7402036620107,4298
270.1370965285529,4126
272.53332833809407,4064
274.9288992957214,3942
277.32380960660055,3818
279.718059475976,3779
282.1116491091717,3800
284.5045787115897,3676
286.89684848871195,3656
289.2884586460981,3685
291.67940938938807,3695
294.0697009242996,3738
296.4593334566299,3806
298.84830719225477,3867
301.23662233712923,3712
303.6242790972866,3569
306.01127767884,3620
308.39761828798066,3679
310.78330113097934,3445
313.16832641418534,3476
315.5526943440269,3404
317.9364051270112,3429
320.3194589697242,3512
322.70185607883093,3439
325.0835966610754,3414
327.4646809232805,3340
329.8451090723478,3305
332.2248813152577,3360
334.6039978590701,3465
336.9824589109231,3342
339.36026467803447,3155
341.7374153677,3254
344.113911187295,3303
346.48975234427337,3300
348.8649390461686,3188
351.2394715005918,3355
353.61334991523415,3311
355.9865744978655,3207
358.35914545633375,3355
360.73106299856715,3447
363.10232733257146,3342
365.47293866643247,3257
367.84289720831396,3237
370.2122031664593,3311
372.5808567491905,3296
374.9488581649083,3141
377.31620762209275,3139
379.6829053293021,3291
382.0489514951745,3105
384.4143463284262,3041
386.7790900378528,3160
389.14318283232853,3214
391.50662492080653,3233
393.86941651231916,3226
396.23155781597745,3159
398.5930490409713,3329
400.9538903965696,3245
403.3140820921202,3155
405.6736243370498,3259
408.03251734086336,3124
410.3907613131465,3265
412.74835646356166,3191
415.10530300185144,3078
417.4616011378372,3161
419.81725108141893,3145
422.1722530425758,3127
424.5266072313656,3035
426.880313857925,3202
429.2333731324701,3134
431.58578526529516,3100
433.9375504667738,3060
436.2886689473588,3043
438.63914091758113,3111
440.9889665880513,3112
443.33814616945835,3153
445.68667987257015,3114
448.03456790823395,3108
450.3818104873759,3127
452.72840782100013,3231
455.07436012019105,3203
457.41966759611057,3095
459.7643304600007,3004
462.10834892318155,3036
464.4517231970525,3010
466.79445349309174,3025
469.1365400228566,3050
471.4779829979826,3174
473.81878263018564,3155
476.15893913125876,3041
478.4984527130747,3190
480.8373235875855,3171
483.17555196682144,3193
485.5131380628919,3160
487.8500820879857,3340
490.1863842543697,3445
492.52204477439034,3425
494.8570638604725,3584
497.1914417251204,3767
499.52517858091653,4027
501.85827464052306,4212
504.19073011668036,4450
506.5225452222086,4316
508.85372017000566,4517
511.18425517304956,4740
513.514150444396,5156
515.8434061971808,6346
518.1720226446176,7168
520.4999999999999,7130
522.8273384766991,7043
525.1540382881666,6676
527.480099647932,5919
529.8055227696037,4932
532.1303078668694,4102
534.454455153496,3730
536.777964843328,3364
539.1008371502907,3232
541.4230722883866,3362
543.744670471698,3316
546.0656319143858,3277
548.3859568306899,3349
550.7056454349294,3135
553.0246979415016,3100
555.3431145648834,3256
557.6608955196306,3249
559.978041020377,3139
562.2945512818363,3198
564.6104265188006,3125
566.9256669461412,3113
569.2402727788082,3144
571.5542442318302,3148
573.8675815203156,3166
576.1802848594508,3256
578.4923544645015,3244
580.8037905508126,3236
583.114593333807,3178
585.4247630289875,3109
587.7342998519354,3130
590.0432040183106,3113
592.3514757438526,3217
594.6591152443794,3158
596.9661227357875,3146
599.2724984340531,3165
601.578242555231,3149
603.8833553154542,3121
606.1878369309362,3183
608.4916876179676,3103
610.7949075929192,3150
613.0974970722403,3132
615.3994562724587,3187
617.7007854101818,3203
620.0014847020951,3255
622.3015543649641,3250
624.6009946156324,3316
626.8998056710224,3174
629.1979877481361,3218
631.4955410640538,3266
633.7924658359349,3181
636.0887622810175,3255
638.3844306166192,3270
640.6794710601358,3277
642.9738838290426,3244
645.2676691408932,3215
647.5608272133207,3355
649.853358264037,3247
652.1452625108324,3324
654.4365401715764,3357
656.7271914642178,3306
659.0172166067838,3336
661.3066158173809,3290
663.5953893141935,3343
665.8835373154867,3337
668.1710600396028,3335
670.4579577049639,3326
672.7442305300709,3353
675.0298787335033,3384
677.3149025339197,3335
679.599302150058,3331
681.8830778007342,3313
684.1662297048437,3326
686.4487580813608,3375
688.7306631493387,3344
691.0119451279091,3285
693.2926042362834,3285
695.5726406937516,3297
697.8520547196814,3269
700.1308465335215,3241
702.4090163547982,3262
704.6865644031171,3248
706.9634908981619,3369
709.2397960596965,3345
711.5154801075631,3217
713.7905432616823,3421
716.0649857420548,3306
718.3388077687592,3342
720.612009561953,3238
722.8845913418733,3314
725.1565533288352,3206
727.427895743234,3377
729.6986188055427,3326
731.9687227363137,3242
734.238207756178,3314
736.5070740858458,3181
738.7753219461066,3319
741.0429515578281,3418
743.3099631419569,3313
745.5763569195191,3338
747.8421331116193,3335
750.1072919394409,3353
752.3718336242467,3377
754.6357583873777,3349
756.8990664502545,3296
759.1617580343765,3288
761.423833361321,3374
763.6852926527457,3434
765.9461361303862,3410
768.206364016058,3332
770.4659765316536,3419
772.7249738991469,3370
774.9833563405886,3288
777.2411240781092,3306
779.4982773339183,3392
781.7548163303044,3412
784.010741289634,3390
786.2660524343538,3438
788.5207499869881,3354
790.7748341701416,3463
793.0283052064964,3416
795.2811633188143,3445
797.5334087299362,3403
799.7850416627813,3455
802.0360623403484,3397
804.2864709857143,3386
806.5362678220353,3434
808.7854530725468,3416
811.0340269605625,3353
813.2819897094754,3334
815.5293415427581,3455
817.77608268396,3487
820.0222133567116,3404
822.2677337847211,3532
824.5126441917765,3432
826.7569448017433,3384
829.0006358385675,3511
831.2437175262731,3408
833.4861900889629,3492
835.7280537508192,3380
837.9693087361026,3537
840.2099552691533,3478
842.4499935743896,3527
844.689423876309,3398
846.9282463994886,3416
849.1664613685833,3479
851.4040690083276,3516
853.6410695435349,3387
855.877463199097,3458
858.1132501999847,3480
860.3484307712487,3467
862.5830051380175,3483
864.8169735254988,3385
867.0503361589791,3535
869.2830932638243,3563
871.5152450654786,3450
873.7467917894654,3438
875.9777336613873,3406
878.2080709069252,3431
880.4378037518389,3472
882.666932421968,3412
884.8954571432301,3639
887.1233781416219,3641
889.3506956432192,3510
891.5774098741766,3574
893.803521060728,3539
896.0290294291852,3530
898.2539352059397,3452
900.4782386174619,3460
902.7019398903011,3432
904.925039251085,3458
907.147536926521,3512
909.3694331433943,3518
911.59072812857,3468
913.8114221089921,3572
916.0315153116827,3575
918.2510079637437,3481
920.4699002923547,3597
922.6881925247761,3599
924.905884888345,3575
927.1229776104793,3507
929.3394709186747,3515
931.555365040506,3538
933.7706602036275,3510
935.9853566357709,3468
938.1994545647489,3558
940.4129542184515,3457
942.6258558248488,3505
944.8381596119883,3507
947.0498658079974,3571
949.2609746410825,3598
951.4714863395287,3611
953.6814011316998,3562
955.8907192460387,3567
958.0994409110671,3501
960.3075663553858,3589
962.5150958076741,3635
964.7220294966913,3487
966.928367651274,3506
969.1341105003388,3463
971.3392582728806,3449
973.5438111979742,3495
975.747769504772,3447
977.9511334225061,3527
980.153903180487,3473
982.3560790081052,3533
984.5576611348289,3496
986.7586497902058,3411
988.9590452038618,3498
991.158847605503,3385
993.3580572249133,3315
995.5566742919558,3299
997.7546990365728,3306
999.952131688785,3297
1002.1489724786926,3288
1004.3452216364743,3332
1006.5408793923874,3190
1008.7359459767691,3239
1010.9304216200343,3207
1013.1243065526781,3263
1015.3176010052733,3121
1017.510305208472,3291
1019.7024193930064,3138
1021.8939437896848,3178
1024.0848786293977,3261
1026.2752241431122,3259
1028.4649805618747,3279
1030.6541481168115,3164
1032.842727039127,3253
1035.0307175601051,3178
1037.2181199111074,3274
1039.4049343235752,3190
1041.591161029029,3209
1043.7768002590683,3280
1045.9618522453698,3177
1048.1463172196918,3152
1050.3301954138697,3199
1052.513487059818,3209
1054.69619238953,3172
1056.8783116350783,3239
1059.0598450286152,3158
1061.2407928023704,3192
1063.4211551886528,3177
1065.6009324198508,3229
1067.780124728432,3114
1069.9587323469414,3144
1072.1367555080046,3151
1074.314194444325,3137
1076.4910493886855,3145
1078.667320573947,3086
1080.843008233051,3205
1083.0181125990161,3130
1085.1926339049414,3145
1087.3665723840027,3256
1089.5399282694575,3176
1091.7127017946405,3083
1093.8848931929647,3129
1096.0565026979243,3115
1098.2275305430899,3178
1100.3979769621128,3124
1102.567842188722,3106
1104.737126456726,3113
1106.9058300000124,3074
1109.0739530525475,3103
1111.2414958483764,3209
1113.4084586216231,3131
1115.5748416064907,3156
1117.7406450372605,3129
1119.9058691482942,3095
1122.0705141740304,3175
1124.2345803489884,3160
1126.3980679077658,3081
1128.5609770850388,3189
1130.7233081155623,3170
1132.8850612341707,3113
1135.0462366757774,3068
1137.2068346753745,3176
1139.3668554680326,3086
1141.526299288901,3107
1143.68516637321,3157
1145.8434569562655,3113
1148.001171273455,3137
1150.158309560244,3138
1152.3148720521767,3095
1154.470858984876,3124
1156.626270594044,3123
1158.7811071154629,3165
1160.9353687849912,3167
1163.089055838569,3196
1165.242168512213,3091
1167.3947070420209,3142
1169.5466716641677,3016
1171.6980626149075,3142
1173.8488801305748,3079
1175.9991244475814,3149
1178.1487958024186,3144
1180.2978944316555,3049
1182.4464205719428,3084
1184.5943744600072,2984
1186.7417563326567,3062
1188.8885664267755,3110
1191.0348049793297,3121
1193.1804722273619,3049
1195.325568407995,3132
1197.4700937584303,3049
1199.614048515948,3213
1201.7574329179074,3199
1203.900247201746,3099
1206.042491604982,3112
1208.1841663652099,3169
1210.3252717201053,3073
1212.465807907422,3104
1214.6057751649923,3171
1216.7451737307279,3113
1218.8840038426192,3192
1221.0222657387353,3123
1223.1599596572241,3238
1225.2970858363137,3169
1227.4336445143094,3141
1229.5696359295966,3247
1231.705060320639,3199
1233.8399179259786,3186
1235.9742089842384,3213
1238.107933734118,3203
1240.2410924143974,3152
1242.373685263935,3213
1244.5057125216676,3212
1246.6371744266116,3132
1248.7680712178621,3233
1250.898403134593,3266
1253.028170416058,3297
1255.1573733015875,3200
1257.2860120305932,3202
1259.4140868425648,3292
1261.54159797707,3247
1263.6685456737569,3130
1265.7949301723515,3251
1267.9207517126597,3288
1270.046010534565,3194
1272.1707068780306,3242
1274.2948409830983,3292
1276.4184130898889,3317
1278.541423438603,3187
1280.6638722695184,3292
1282.785759822993,3341
1284.9070863394636,3271
1287.0278520594447,3384
1289.1480572235314,3275
1291.2677020723963,3349
1293.3867868467923,3268
1295.5053117875495,3342
1297.623277135579,3407
1299.740683131868,3486
1301.8575300174857,3428
1303.973818033578,3375
1306.0895474213703,3426
1308.2047184221678,3424
1310.3193312773528,3565
1312.4333862283888,3443
1314.5468835168163,3355
1316.659823384255,3505
1318.7722060724045,3411
1320.8840318230418,3455
1322.9953008780249,3457
1325.1060134792888,3432
1327.2161698688478,3487
1329.3257702887959,3457
1331.4348149813054,3404
1333.5433041886276,3460
1335.6512381530933,3488
1337.7586171171101,3455
1339.8654413231675,3367
1341.9717110138317,3391
1344.0774264317488,3469
1346.1825878196432,3462
1348.2871954203192,3524
1350.3912494766587,3404
1352.4947502316231,3329
1354.5976979282532,3361
1356.7000928096686,3460
1358.8019351190665,3417
1360.9032250997243,3413
1363.0039629949988,3427
1365.1041490483235,3397
1367.2037835032133,3406
1369.3028666032606,3283
1371.401398592137,3400
1373.4993797135926,3548
1375.5968102114575,3375
1377.6936903296396,3378
1379.7900203121262,3379
1381.8858004029835,3399
1383.9810308463561,3468
1386.075711886469,3433
1388.1698437676241,3376
1390.2634267342032,3429
1392.356461030667,3438
1394.4489469015557,3525
1396.5408845914872,3461
1398.6322743451592,3523
1400.7231164073469,3484
1402.813411022907,3517
1404.903158436773,3436
1406.9923588939578,3509
1409.0810126395531,3540
1411.1691199187303,3535
1413.2566809767386,3480
1415.343696058907,3578
1417.4301654106425,3483
1419.5160892774315,3602
1421.6014679048399,3556
1423.6863015385125,3601
1425.7705904241707,3579
1427.8543348076178,3580
1429.9375349347342,3684
1432.0201910514802,3592
1434.102303403894,3582
1436.1838722380944,3759
1438.2648978002767,3671
1440.3453803367174,3789
1442.4253200937692,3763
1444.5047173178677,3871
1446.5835722555234,3846
1448.6618851533285,3924
1450.739656257952,3835
1452.8168858161434,3827
1454.8935740747306,3923
1456.96972128062,3984
1459.045327680797,4054
1461.120393522327,3935
1463.1949190523528,4140
1465.2689045180973,4060
1467.3423501668608,4021
1469.415256246024,4231
1471.4876230030463,4255
1473.559450685465,4237
1475.6307395408976,4303
1477.7014898170391,4357
1479.771701761665,4298
1481.8413756226287,4384
1483.9105116478618,4483
1485.9791100853772,4470
1488.0471711832643,4524
1490.1146951896926,4548
1492.1816823529098,4611
1494.2481329212433,4746
1496.3140471430984,4592
1498.3794252669609,4615
1500.4442675413939,4750
1502.5085742150404,4719
1504.572345536622,4721
1506.6355817549388,4786
1508.6982831188702,4814
1510.7604498773744,4897
1512.8220822794883,4899
1514.8831805743293,4941
1516.9437450110909,5015
1519.003775839048,5021
1521.0632733075522,5060
1523.1222376660367,5011
1525.1806691640113,5135
1527.2385680510652,5074
1529.2959345768668,4980
1531.3527689911643,5269
1533.4090715437833,5301
1535.4648424846291,5211
1537.5200820636855,5321
1539.5747905310159,5441
1541.6289681367616,5447
1543.6826151311434,5415
1545.7357317644614,5488
1547.7883182870937,5588
1549.8403749494987,5625
1551.8919020022113,5765
1553.9428996958477,5691
1555.9933682811015,5882
1558.0433080087469,5852
1560.0927191296346,5858
1562.1416018946961,5860
1564.1899565549415,5992
1566.2377833614592,5811
1568.2850825654164,5839
1570.3318544180606,5724
1572.3780991707158,5594
1574.423817074788,5475
1576.4690083817595,5412
1578.5136733431923,5145
1580.5578122107272,5079
1582.601425236085,4910
1584.6445126710646,4739
1586.6870747675434,4552
1588.7291117774776,4468
1590.7706239529034,4432
1592.8116115459347,4335
1594.8520748087658,4323
1596.8920139936686,4172
1598.9314293529933,4125
1600.9703211391711,3936
1603.008689604711,3934
1605.0465350022005,3889
1607.0838575843068,3856
1609.1206576037753,3757
1611.1569353134305,3773
1613.1926909661765,3688
1615.2279248149953,3742
1617.2626371129481,3697
1619.2968281131757,3571
1621.3304980688963,3591
1623.3636472334088,3607
1625.39627586009,3565
1627.428384202396,3545
1629.459972513861,3485
1631.4910410480993,3451
1633.5215900588028,3432
1635.551619799744,3475
1637.5811305247717,3448
1639.6101224878166,3424
1641.6385959428862,3461
1643.6665511440683,3514
1645.693988345528,3535
1647.7209078015112,3390
1649.7473097663405,3362
1651.7731944944203,3355
1653.7985622402307,3416
1655.823413258333,3463
1657.847747803366,3322
1659.8715661300494,3474
1661.8948684931793,3390
1663.9176551476316,3343
1665.9399263483624,3302
1667.9616823504057,3345
1669.982923408873,3329
1672.0036497789574,3378
1674.0238617159293,3302
1676.043559475138,3388
1678.0627433120121,3366
1680.081413482059,3340
1682.0995702408654,3250
1684.117213844096,3407
1686.134344547495,3293
1688.1509626068864,3294
1690.1670682781705,3422
1692.182661817329,3331
1694.1977434804217,3366
1696.2123135235875,3383
1698.226372203043,3330
1700.2399197750851,3407
1702.2529564960905,3392
1704.2654826225112,3341
1706.277498410882,3343
1708.2890041178139,3319
1710.2999999999988,3408
1712.3104863142066,3297
1714.3204633172854,3291
1716.329931266163,3307
1718.3388904178469,3288
1720.3473410294214,3315
1722.3552833580516,3356
1724.3627176609807,3299
1726.3696441955308,3302
1728.3760632191033,3369
1730.3819749891782,3332
1732.3873797633146,3331
1734.3922777991502,3238
1736.3966693544012,3248
1738.4005546868639,3280
1740.4039340544127,3278
1742.406807715001,3257
1744.4091759266616,3197
1746.4110389475054,3345
1748.4123970357223,3241
1750.413250449582,3305
1752.4135994474318,3297
1754.4134442876993,3279
1756.4127852288902,3255
1758.4116225295893,3269
1760.4099564484595,3258
1762.407787244244,3212
1764.405115175764,3258
1766.4019405019203,3301
1768.3982634816916,3243
1770.3940843741357,3250
1772.3894034383907,3177
1774.3842209336717,3248
1776.378537119274,3314
1778.372352254571,3279
1780.3656665990156,3134
1782.3584804121397,3143
1784.3507939535534,3215
1786.3426074829463,3261
1788.3339212600863,3117
1790.3247355448211,3187
1792.3150505970766,3195
1794.3048666768573,3199
1796.2941840442477,3213
1798.2830029594106,3253
1800.2713236825884,3239
1802.2591464741004,3203
1804.2464715943465,3256
1806.2332993038058,3224
1808.2196298630352,3194
1810.2054635326708,3252
1812.190800573428,3283
1814.175641246101,3212
1816.1599858115628,3150
1818.1438345307652,3103
1820.127187664738,3174
1822.1100454745924,3247
1824.092408221516,3226
1826.0742761667766,3229
1828.055649571721,3233
1830.0365286977735,3139
1832.0169138064398,3206
1833.9968051593014,3185
1835.9762030180214,3300
1837.9551076443408,3216
1839.9335193000788,3287
1841.9114382471344,3209
1843.888864747485,3179
1845.8657990631878,3231
1847.842241456378,3149
1849.8181921892697,3159
1851.7936515241558,3229
1853.7686197234098,3176
1855.7430970494815,3242
1857.7170837649014,3164
1859.6905801322787,3196
1861.6635864143004,3319
1863.6361028737338,3288
1865.608129773424,3365
1867.5796673762961,3192
1869.5507159453537,3199
1871.521275743678,3213
1873.4913470344313,3212
1875.4609300808534,3246
1877.4300251462632,3280
1879.3986324940588,3207
1881.366752387717,3300
1883.3343850907936,3206
1885.3015308669228,3308
1887.268189979819,3292
1889.2343626932739,3179
1891.2000492711595,3259
1893.1652499774254,3194
1895.1299650761011,3308
1897.0941948312952,3215
1899.0579395071945,3280
1901.0211993680641,3280
1902.98397467825,3316
1904.9462657021745,3275
1906.9080727043415,3399
1908.869395949332,3263
1910.8302357018065,3351
1912.790592226504,3223
1914.7504657882428,3271
1916.7098566519212,3199
1918.6687650825133,3244
1920.6271913450764,3285
1922.5851357047422,3330
1924.5425984267245,3239
1926.499579776314,3235
1928.4560800188833,3263
1930.4120994198802,3225
1932.367638244833,3170
1934.32269675935,3220
1936.2772752291175,3273
1938.231373919899,3218
1940.1849930975404,3245
1942.1381330279637,3294
1944.0907939771696,3255
1946.0429762112412,3214
1947.9946799963363,3175
1949.9459055986945,3245
1951.896653284633,3217
1953.8469233205478,3217
1955.7967159729142,3196
1957.7460315082863,3248
1959.6948701932974,3239
1961.6432322946594,3211
1963.5911180791632,3247
1965.5385278136787,3219
1967.4854617651545,3292
1969.4319202006182,3231
1971.377903387176,3151
1973.3234115920136,3218
1975.268445082395,3244
1977.2130041256642,3193
1979.1570889892423,3267
1981.1006999406304,3180
1983.04383724741,3270
1984.986501177238,3189
1986.928691997853,3303
1988.8704099770712,3277
1990.811655382789,3304
1992.7524284829801,3240
1994.692729545698,3357
1996.6325588390755,3333
1998.5719166313224,3287
2000.5108031907307,3221
2002.4492187856677,3286
2004.387163684583,3345
2006.3246381560011,3205
2008.2616424685298,3307
2010.1981768908527,3210
2012.1342416917332,3367
2014.069837140014,3265
2016.0049635046162,3240
2017.9396210545406,3233
2019.8738100588666,3312
2021.8075307867502,3239
2023.740783507431,3320
2025.6735684902228,3132
2027.6058860045214,3217
2029.5377363198004,3172
2031.4691197056118,3218
2033.4000364315875,3169
2035.3304867674374,3151
2037.260470982952,3205
2039.189989347998,3214
2041.1190421325232,3220
2043.047629606554,3228
2044.9757520401945,3219
2046.9034097036288,3212
2048.8306028671195,3167
2050.7573318010086,3190
2052.683596775716,3190
2054.609398061742,3243
2056.5347359296647,3250
2058.4596106501403,3309
2060.384022493906,3223
2062.3079717317764,3136
2064.231458634646,3181
2066.1544834734873,3183
2068.077046519352,3265
2069.99914804337,3193
2071.9207883167524,3285
2073.8419676107865,3372
2075.7626861968406,3194
2077.6829443463607,3180
2079.6027423308715,3189
2081.522080421977,3209
2083.440958891362,3202
2085.359378010786,3201
2087.2773380520907,3213
2089.194839287196,3275
2091.111881988101,3208
2093.0284664268825,3237
2094.9445928756973,3171
2096.86026160678,3292
2098.775472892446,3240
2100.690227005088,3309
2102.604524217178,3248
2104.5183648012676,3205
2106.431749029985,3266
2108.34467717604,3244
2110.2571495122206,3257
2112.169166311393,3176
2114.080727846503,3308
2115.9918343905747,3233
2117.902486216711,3168
2119.8126835980956,3242
2121.722426807987,3250
2123.6317161197285,3335
2125.5405518067364,3210
2127.448934142509,3224
2129.356863400624,3257
2131.264339854737,3360
2133.1713637785815,3188
2135.077935445972,3225
2136.9840551308002,3262
2138.889723107037,3256
2140.7949396487334,3232
2142.699705030018,3232
2144.6040195250994,3340
2146.507883408264,3287
2148.4112969538774,3275
2150.3142604363848,3405
2152.2167741303097,3250
2154.1188383102535,3246
2156.0204532508997,3294
2157.9216192270064,3233
2159.822336513414,3279
2161.7226053850413,3311
2163.622426116884,3218
2165.5217989840185,3267
2167.4207242616,3380
2169.319202224862,3233
2171.2172331491165,3312
2173.1148173097563,3356
2175.0119549822507,3249
2176.90864644215,3278
2178.8048919650823,3366
2180.7006918267534,3317
2182.596046302952,3331
2184.4909556695407,3411
2186.3854202024645,3341
2188.279440177746,3332
2190.173015871487,3297
2192.066147559868,3286
2193.958835519149,3444
2195.851080025667,3349
2197.7428813558417,3267
2199.6342397861667,3390
2201.5251555932186,3280
2203.415629053651,3288
2205.3056604441986,3350
2207.19525004167,3361
2209.084398122958,3280
2210.9731049650327,3339
2212.861370844941,3297
2214.749196039812,3383
2216.636580826851,3353
2218.523525483344,3374
2220.410030286655,3394
2222.296095514226,3405
2224.1817214435805,3316
2226.066908352319,3408
2227.951656518121,3372
2229.835966218746,3328
2231.71983773203,3390
2233.6032713358913,3317
2235.486267308324,3383
2237.3688259274036,3340
2239.2509474712824,3447
2241.132632218193,3382
2243.013880446447,3321
2244.8946924344323,3340
2246.7750684606203,3421
2248.6550088035574,3468
2250.534513741871,3230
2252.413583554265,3258
2254.292218519526,3392
2256.170418916517,3436
2258.0481850241786,3256
2259.925517121534,3294
2261.8024154876825,3366
2263.678880401803,3363
2265.5549121431536,3417
2267.430510991071,3321
2269.305677224971,3300
2271.180411124348,3413
2273.0547129687766,3379
2274.9285830379076,3323
2276.8020216114737,3380
2278.6750289692845,3406
2280.5476053912294,3250
2282.4197511572766,3342
2284.2914665474727,3393
2286.162751841943,3458
2288.0336073208937,3445
2289.904033264608,3352
2291.774029953448,3411
2293.6435976678554,3453
2295.5127366883517,3420
2297.381447295534,3292
2299.2497297700825,3278
2301.1175843927526,3339
2302.9850114443825,3278
2304.852011205885,3352
2306.7185839582553,3178
2308.5847299825664,3297
2310.4504495599676,3194
2312.3157429716925,3170
2314.1806104990483,3269
2316.0450524234247,3165
2317.9090690262888,3252
2319.772660589186,3322
2321.635827393742,3247
2323.498569721661,3278
2325.3608878547248,3243
2327.2227820747967,3280
2329.0842526638157,3152
2330.945299903803,3466
2332.805924076857,3228
2334.6661254651535,3277
2336.525904350951,3343
2338.3852610165827,3206
2340.244195744464,3219
2342.102708817088,3235
2343.9608005170253,3277
2345.8184711269287,3238
2347.675720929526,3219
2349.532550207628,3206
2351.38895924412,3294
2353.24494832197,3261
2355.100517724223,3212
2356.955667734004,3254
2358.810398634514,3237
2360.664710709037,3291
2362.5186042409337,3327
2364.3720795136437,3326
2366.225136810686,3339
2368.0777764156583,3283
2369.929998612237,3306
2371.7818036841777,3428
2373.633191915315,3275
2375.484163589562,3384
2377.3347189909114,3319
2379.184858403434,3291
2381.03458211128,3258
2382.8838903986775,3262
2384.732783549936,3303
2386.5812618494406,3338
2388.4293255816588,3358
2390.2769750311327,3272
2392.1242104824883,3234
2393.971032220427,3296
2395.8174405297295,3277
2397.6634356952563,3315
2399.509018001947,3317
2401.3541877348193,3303
2403.1989451789705,3314
2405.043290619576,3224
2406.8872243418905,3251
2408.730746631247,3329
2410.5738577730594,3340
2412.4165580528183,3303
2414.258847756095,3258
2416.100727168537,3250
2417.9421965758734,3328
2419.783256263912,3408
2421.623906518538,3386
2423.4641476257157,3345
2425.303979871491,3334
2427.143403541984,3353
2428.9824189233977,3321
2430.821026302012,3260
2432.6592259641866,3379
2434.497018196361,3297
2436.33440328505,3306
2438.171381516851,3238
2440.00795317844,3334
2441.844118556569,3314
2443.6798779380724,3392
2445.5152316098606,3410
2447.3501798589255,3235
2449.1847229723357,3313
2451.0188612372403,3271
2452.8525949408663,3318
2454.6859243705203,3334
2456.518849813587,3399
2458.3513715575314,3389
2460.183489889895,3272
2462.015205098301,3359
2463.8465174704493,3348
2465.67742729412,3344
2467.5079348571717,3392
2469.338040447542,3351
2471.1677443532476,3387
2472.9970468623833,3341
2474.825948263123,3268
2476.6544488437207,3364
2478.482548892508,3293
2480.310248697896,3305
2482.137548548374,3407
2483.9644487325118,3372
2485.790949538956,3463
2487.617051256433,3468
2489.44275417375,3356
2491.26805857979,3380
2493.0929647635157,3401
2494.917473013971,3432
2496.741583620276,3500
2498.5652968716304,3528
2500.3886130573137,3467
2502.2115324666834,3458
2504.0340553891765,3344
2505.856182114308,3355
2507.6779129316733,3395
2509.499248130945,3557
2511.3201880018764,3454
2513.140732834298,3480
2514.9608829181198,3445
2516.780638543331,3349
2518.6,3446
2520.418967578273,3457
2522.237541568376,3452
2524.0557222606144,3398
2525.8735099453706,3467
2527.6909049131086,3385
2529.507907454368,3465
2531.32451785977,3439
2533.140736420014,3505
2534.9565634258774,3487
2536.771999168218,3422
2538.5870439379714,3528
2540.4016980261526,3611
2542.2159617238544,3485
2544.02983532225,3575
2545.8433191125914,3568
2547.656413386209,3516
2549.4691184345115,3553
2551.2814345489874,3666
2553.093362021204,3621
2554.904901142808,3560
2556.716052205523,3603
2558.526815501153,3671
2560.3371913215824,3660
2562.147179958771,3597
2563.956781704761,3601
2565.7659968516705,3624
2567.5748256916986,3637
2569.3832685171224,3733
2571.1913256202984,3602
2572.9989972936614,3693
2574.806283829725,3629
2576.613185521084,3735
2578.4197026604074,3697
2580.2258355404483,3781
2582.031584454035,3661
2583.836949694077,3839
2585.6419315535613,3700
2587.4465303255533,3833
2589.2507463032002,3696
2591.0545797797245,3823
2592.8580310484303,3716
2594.6611004026995,3741
2596.463788135992,3752
2598.266094541849,3783
2600.0680199138874,3838
2601.869564545807,3781
2603.670728731383,3737
2605.4715127644704,3728
2607.2719169390048,3746
2609.071941548998,3801
2610.8715868885433,3776
2612.670853251811,3798
2614.469740933052,3773
2616.268250226594,3756
2618.0663814268455,3738
2619.864134828292,3666
2621.6615107255006,3755
2623.458509413115,3774
2625.2551311858597,3668
2627.0513763385347,3722
2628.8472451660223,3777
2630.6427379632833,3748
2632.4378550253564,3692
2634.232596647359,3637
2636.026963124488,3811
2637.8209547520187,3619
2639.6145718253065,3680
2641.407814639785,3591
2643.200683490966,3592
2644.9931786744414,3568
2646.7853004858807,3553
2648.577049221034,3692
2650.3684251757277,3546
2652.1594286458712,3605
2653.9500599274484,3606
2655.740319316525,3512
2657.5302071092437,3509
2659.3197236018286,3553
2661.10886909058,3512
2662.8976438718782,3589
2664.686048242183,3512
2666.4740824980327,3434
2668.2617469360443,3498
2670.0490418529134,3507
2671.8359675454153,3515
2673.622524310403,3480
2675.408712444811,3552
2677.1945322456495,3511
2678.979984010009,3470
2680.76506803506,3450
2682.5497846180497,3395
2684.334134056306,3382
2686.1181166472343,3494
2687.9017326883213,3436
2689.6849824771293,3426
2691.4678663113013,3539
2693.2503844885596,3468
2695.032537306705,3390
2696.8143250636167,3439
2698.5957480572542,3347
2700.3768065856534,3383
2702.1575009469316,3412
2703.937831439283,3418
2705.717798360982,3374
2707.4974020103837,3363
2709.276642685917,3416
2711.055520686095,3349
2712.834036309506,3406
2714.612189854819,3332
2716.389981620782,3390
2718.1674119062204,3481
2719.944481010041,3418
2721.721189231226,3411
2723.4975368688415,3389
2725.273524222027,3296
2727.0491515900053,3447
2728.824419272075,3395
2730.5993275676146,3336
2732.3738767760838,3281
2734.148067197016,3341
2735.921899130031,3237
2737.6953728748194,3389
2739.468488731156,3339
2741.2412469988926,3376
2743.0136479779617,3340
2744.785691968372,3307
2746.5573792702116,3308
2748.3287101836504,3391
2750.099685008934,3325
2751.870304046388,3386
2753.640567596418,3375
2755.4104759595057,3385
2757.1800294362156,3333
2758.949228327187,3376
2760.7180729331412,3373
2762.486563554877,3315
2764.254700493272,3330
2766.022484049284,3283
2767.789914523947,3317
2769.5569922183786,3294
2771.3237174337705,3307
2773.090090471394,3405
2774.8561116326036,3366
2776.6217812188274,3304
2778.3870995315756,3387
2780.1520668724356,3344
2781.9166835430747,3355
2783.6809498452394,3336
2785.444866080754,3451
2787.2084325515225,3387
2788.971649559527,3402
2790.73451740683,3276
2792.4970363955713,3369
2794.2592068279705,3343
2796.0210290063264,3329
2797.7825032330147,3388
2799.543629810493,3400
2801.304409041296,3423
2803.0648412280366,3343
2804.8249266734088,3406
2806.5846656801846,3372
2808.344058551212,3359
2810.1031055894246,3464
2811.8618070978273,3374
2813.6201633795085,3459
2815.378174737636,3323
2817.1358414754536,3363
2818.893163896285,3337
2820.6501423035334,3369
2822.4067770006814,3419
2824.1630682912883,3449
2825.9190164789957,3368
2827.6746218675207,3361
2829.429884760661,3512
2831.184805462294,3479
2832.9393842763743,3422
2834.693621506936,3424
2836.4475174580916,3510
2838.201072434034,3386
2839.954286739034,3405
2841.707160677441,3372
2843.459694553685,3306
2845.2118886722724,3383
2846.96374333779,3402
2848.7152588549034,3347
2850.4664355283567,3372
2852.217273662973,3378
2853.9677735636546,3456
2855.7179355353833,3434
2857.4677598832186,3481
2859.217246912299,3436
2860.9663969278427,3339
2862.715210235146,3362
2864.4636871395846,3350
2866.211827946614,3320
2867.9596329617652,3408
2869.7071024906536,3374
2871.4542368389684,3404
2873.20103631248,3376
2874.947501217038,3320
2876.6936318585695,3347
2878.4394285430812,3307
2880.1848915766604,3314
2881.9300212654707,3492
2883.6748179157553,3251
2885.4192818338374,3390
2887.1634133261173,3401
2888.907212699077,3399
2890.6506802592744,3392
2892.393816313348,3429
2894.1366211680142,3278
2895.8790951300693,3301
2897.621238506388,3325
2899.363051603925,3282
2901.1045347297118,3372
2902.8456881908596,3352
2904.58651229456,3391
2906.327007348081,3407
2908.067173658772,3266
2909.8070115340597,3406
2911.5465212814497,3334
2913.285703208527,3327
2915.0245576229563,3248
2916.7630848324807,3278
2918.5012851449196,3331
2920.2391588681758,3276
2921.976706310227,3311
2923.7139277791334,3319
2925.4508235830313,3386
2927.187394030137,3317
2928.923639428745,3284
2930.6595600872306,3341
2932.395156314046,3314
2934.1304284177218,3417
2935.8653767068713,3418
2937.6000014901815,3313
2939.3343030764227,3468
2941.068281774442,3298
2942.8019378931644,3348
2944.5352717415976,3441
2946.2682836288236,3388
2948.0009738640065,3422
2949.7333427563885,3374
2951.465390615289,3324
2953.1971177501086,3362
2954.9285244703265,3412
2956.6596110855,3390
2958.3903779052657,3343
2960.1208252393385,3379
2961.8509533975125,3378
2963.5807626896617,3289
2965.3102534257378,3337
2967.0394259157715,3353
2968.768280469873,3367
2970.496817398232,3370
2972.2250370111146,3307
2973.952939618869,3453
2975.6805255319196,3349
2977.4077950607707,3423
2979.134748516006,3393
2980.861386208289,3398
2982.587708448359,3376
2984.313715547037,3431
2986.039407815222,3411
2987.764785563891,3292
2989.489849104102,3349
2991.2145987469908,3361
2992.9390348037705,3315
2994.6631575857346,3432
2996.3869674042576,3361
2998.1104645707887,3432
2999.83364939686,3327
3001.5565221940783,3378
3003.2790832741334,3383
3005.0013329487924,3320
3006.7232715298996,3376
3008.4448993293804,3372
3010.166216659239,3317
3011.887223831558,3367
3013.607921158498,3377
3015.3283089522993,3324
3017.0483875252826,3342
3018.7681571898443,3466
3020.4876182584626,3308
3022.2067710436927,3388
3023.9256158581707,3329
3025.644153014609,3317
3027.362382825801,3437
3029.0803056046193,3419
3030.797921664012,3275
3032.5152313170106,3383
3034.2322348767225,3366
3035.9489326563353,3292
3037.665324969115,3326
3039.3814121284063,3308
3041.097194447633,3378
3042.812672240299,3410
3044.5278458199855,3344
3046.2427155003525,3357
3047.9572815951406,3362
3049.671544418167,3392
3051.38550428333,3414
3053.0991615046073,3386
3054.812516396051,3336
3056.5255692717974,3284
3058.2383204460575,3351
3059.9507702331257,3355
3061.662918947372,3335
3063.3747669032446,3284
3065.0863144152736,3375
3066.7975617980674,3326
3068.508509366309,3335
3070.219157434767,3412
3071.9295063182844,3391
3073.639556331785,3411
3075.3493077902704,3351
3077.058761008821,3401
3078.7679163025964,3401
3080.476773986837,3412
3082.1853343768594,3402
3083.89359778806,3423
3085.6015645359153,3370
3087.3092349359786,3293
3089.016609303884,3322
3090.7236879553434,3379
3092.4304712061476,3385
3094.136959372166,3416
3095.843152769349,3313
3097.5490517137237,3396
3099.2546565213966,3386
3100.959967508554,3421
3102.66498499146,3354
3104.3697092864577,3431
3106.0741407099695,3370
3107.778279578498,3419
3109.482126208622,3491
3111.1856809170004,3371
3112.8889440203716,3375
3114.5919158355528,3242
3116.294596679439,3360
3117.996986869006,3379
3119.6990867213062,3451
3121.4008965534726,3463
3123.102416682717,3433
3124.803647426329,3428
3126.5045891016784,3439
3128.205242026213,3470
3129.90560651746,3388
3131.605682893025,3467
3133.3054714705922,3442
3135.0049725679282,3476
3136.7041865028714,3391
3138.4031135933465,3483
3140.101754157353,3403
3141.800108512971,3497
3143.498176978357,3427
3145.1959598717494,3420
3146.8934575114636,3314
3148.5906702158954,3394
3150.2875983035183,3311
3151.9842420928853,3322
3153.680601902627,3355
3155.376678051456,3364
3157.07247085816,3362
3158.767980641609,3283
3160.463207720748,3486
3162.158152414606,3389
3163.8528150422862,3376
3165.5471959229726,3343
3167.2412953759303,3391
3168.9351137204976,3402
3170.628651276098,3374
3172.3219083622307,3496
3174.014885298474,3482
3175.707582404485,3485
3177.4000000000005,3521
3179.092138404835,3478
3180.7839979388846,3517
3182.47557892212,3401
3184.166881674594,3432
3185.8579065164386,3469
3187.5486537678626,3538
3189.2391237491547,3409
3190.9293167806827,3406
3192.6192331828934,3383
3194.3088732763117,3428
3195.998237381542,3435
3197.687325819268,3398
3199.376138910251,3402
3201.064676975334,3337
3202.7529403354347,3336
3204.4409293115523,3379
3206.1286442247647,3403
3207.816085396229,3327
3209.5032531471825,3238
3211.190147798936,3263
3212.8767696728846,3334
3214.5631190905015,3271
3216.2491963733373,3392
3217.9350018430214,3319
3219.6205358212637,3231
3221.305798629851,3253
3222.990790590651,3338
3224.6755120256103,3258
3226.359963256751,3252
3228.0441446061795,3326
3229.7280563960758,3337
3231.411698948703,3380
3233.0950725863995,3325
3234.778177631587,3366
3236.461014406761,3319
3238.1435832345005,3428
3239.8258844374595,3398
3241.507918338374,3340
3243.1896852600576,3422
3244.8711855254023,3361
3246.552419457381,3453
3248.233387379042,3481
3249.914089613516,3384
3251.59452648401,3335
3253.274698313813,3441
3254.95460542629,3350
3256.6342481448855,3376
3258.313626793125,3252
3259.9927416946084,3333
3261.6715931730196,3302
3263.3501815521176,3341
3265.0285071557437,3311
3266.706570307815,3361
3268.3843713323286,3296
3270.0619105533615,3307
3271.739188295068,3377
3273.4162048816834,3340
3275.0929606375184,3384
3276.769455886966,3373
3278.445690954498,3384
3280.1216661646613,3385
3281.797381842087,3397
3283.4728383114807,3330
3285.1480358976296,3362
3286.8229749253996,3358
3288.4976557197333,3408
3290.172078605655,3282
3291.846243908266,3249
3293.5201519527463,3367
3295.193803064357,3302
3296.8671975684374,3312
3298.5403357904024,3341
3300.21321805575,3359
3301.8858446900567,3336
3303.558216018975,3368
3305.23033236824,3296
3306.9021940636603,3382
3308.57380143113,3401
3310.2451547966184,3364
3311.916254486174,3350
3313.5871008259246,3336
3315.2576941420766,3351
3316.9280347609147,3424
3318.5981230088046,3334
3320.2679592121895,3301
3321.9375436975924,3271
3323.606876791612,3260
3325.27595882093,3333
3326.944790112305,3285
3328.6133709925753,3187
3330.2817017886573,3314
3331.949782827547,3356
3333.617614436319,3257
3335.2851969421245,3305
3336.952530672199,3317
3338.619615953853,3427
3340.286453114475,3446
3341.9530424815357,3364
3343.619384382583,3353
3345.2854791452437,3355
3346.951327097224,3321
3348.6169285663073,3353
3350.2822838803577,3372
3351.947393367319,3306
3353.61225735521,3410
3355.2768761721345,3404
3356.9412501462693,3388
3358.605379605873,3272
3360.2692648792827,3375
3361.9329062949146,3322
3363.596304181263,3292
