CollectionTime,9/19/2024 11:19:59 AM
ExposureUsed,3
CalibratedSpectrum
-962.7078968117929,705
-959.9714848408522,735
-957.2358232597828,716
-954.5009119013725,760
-951.7667505983302,747
-949.0333391832855,743
-946.3006774887896,734
-943.5687653473143,736
-940.837602591253,770
-938.1071890529199,786
-935.3775245645503,750
-932.6486089583007,751
-929.9204420662485,737
-927.1930237203925,721
-924.4663537526524,791
-921.7404319948689,770
-919.0152582788041,801
-916.2908324361409,802
-913.5671542984834,758
-910.8442236973568,744
-908.1220404642074,742
-905.4006044304027,777
-902.679915427231,776
-899.959973285902,736
-897.2407778375464,720
-894.5223289132158,686
-891.8046263438832,740
-889.0876699604426,731
-886.3714595937089,720
-883.6559950744183,688
-880.9412762332282,724
-878.2273029007168,724
-875.5140749073835,713
-872.8015920836489,769
-870.0898542598545,715
-867.3788612662631,706
-864.6686129330585,715
-861.9591090903457,731
-859.2503495681506,733
-856.5423341964203,708
-853.8350628050229,701
-851.1285352237478,735
-848.4227512823054,737
-845.7177108103272,756
-843.0134136373656,741
-840.3098595928943,716
-837.6070485063082,754
-834.9049802069229,731
-832.2036545239757,755
-829.5030712866244,738
-826.8032303239481,722
-824.1041314649472,699
-821.4057745385428,769
-818.7081593735775,735
-816.0112857988148,739
-813.3151536429393,730
-810.6197627345566,734
-807.9251129021936,736
-805.2312039742981,726
-802.5380357792392,723
-799.8456081453069,700
-797.1539209007124,761
-794.462973873588,780
-791.772766891987,773
-789.083299783884,800
-786.3945723771743,735
-783.7065844996748,751
-781.0193359791231,735
-778.3328266431781,748
-775.6470563194197,748
-772.9620248353489,692
-770.2777320183878,717
-767.5941776958798,760
-764.9113616950891,753
-762.2292838432011,705
-759.5479439673222,752
-756.8673418944801,763
-754.1874774516235,716
-751.5083504656222,775
-748.8299607632671,744
-746.15230817127,758
-743.475392516264,771
-740.7992136248035,738
-738.1237713233636,735
-735.4490654383407,764
-732.7750957960521,784
-730.1018622227365,760
-727.4293645445534,746
-724.7576025875837,802
-722.0865761778291,776
-719.4162851412126,787
-716.7467293035781,783
-714.0779084906909,816
-711.409822528237,803
-708.7424712418238,831
-706.0758544569796,805
-703.4099719991541,793
-700.7448236937178,827
-698.0804093659622,791
-695.4167288411002,774
-692.7537819442656,824
-690.0915685005134,838
-687.4300883348199,810
-684.7693412720819,832
-682.1093271371178,878
-679.4500457546669,774
-676.7914969493897,802
-674.1336805458676,792
-671.4765963686034,813
-668.8202442420206,873
-666.1646239904642,844
-663.5097354382001,815
-660.8555784094151,829
-658.2021527282176,835
-655.5494582186366,806
-652.8974947046223,858
-650.2462620100463,851
-647.5957599587009,929
-644.9459883742998,897
-642.2969470804776,879
-639.6486359007902,927
-637.0010546587141,903
-634.3542031776476,950
-631.7080812809096,870
-629.0626887917401,863
-626.4180255333008,898
-623.7740913286734,955
-621.1308860008619,874
-618.4884093727904,851
-615.8466612673046,927
-613.2056415071715,877
-610.5653499150785,846
-607.9257863136347,879
-605.28695052537,889
-602.6488423727357,859
-600.0114616781036,877
-597.3748082637674,920
-594.7388819519412,954
-592.1036825647604,957
-589.4692099242818,934
-586.8354638524829,911
-584.2024441712624,976
-581.5701507024403,963
-578.9385832677575,940
-576.3077416888759,898
-573.6776257873787,894
-571.0482353847704,926
-568.4195703024757,962
-565.7916303618415,938
-563.164415384135,874
-560.5379251905453,933
-557.9121596021815,961
-555.2871184400748,879
-552.6628015251767,925
-550.0392086783606,910
-547.4163397204204,983
-544.794194472071,1012
-542.1727727539491,1018
-539.5520743866118,970
-536.9320991905377,971
-534.3128469861261,991
-531.6943175936979,1044
-529.0765108334947,1060
-526.4594265256793,1158
-523.8430644903358,1244
-521.2274245474689,1395
-518.612506517005,1478
-515.9983102187913,1501
-513.3848354725959,1516
-510.77208209810846,1520
-508.16004991493924,1557
-505.5487387426199,1690
-502.9381484006032,1665
-500.3282787082628,1589
-497.71912948489364,1623
-495.1107005497117,1539
-492.5029917218539,1380
-489.8960028203786,1280
-487.28973366426493,1200
-484.68418407241325,1114
-482.07935386364494,1135
-479.47524285670266,1096
-476.87185087025,1042
-474.2691777228715,1094
-471.66722323307334,1142
-469.0659872192821,1114
-466.4654694998459,1087
-463.86566989303384,1080
-461.26658821703614,1089
-458.66822428996414,1058
-456.07057792985,1109
-453.4736489546475,1100
-450.877437182231,1058
-448.28194243039627,1060
-445.68716451686,1014
-443.09310325926003,1081
-440.49975847515555,1033
-437.9071299820263,1021
-435.31521759727354,1040
-432.72402113821954,1091
-430.13354042210767,1108
-427.5437752661022,1115
-424.95472548728867,1091
-422.36639090267386,1163
-419.7787713291855,1158
-417.1918665836721,1108
-414.60567648290385,1145
-412.0202008435715,1120
-409.4354394822874,1174
-406.8513922155845,1183
-404.26805885991723,1125
-401.685439231661,1181
-399.103533147112,1198
-396.522340422488,1115
-393.9418608739278,1122
-391.3620943174908,1085
-388.7830405691583,1051
-386.2046994448317,1114
-383.6270707603344,1012
-381.05015433141045,923
-378.473949973725,881
-375.8984575028645,867
-373.32367673433623,791
-370.74960748356875,759
-368.1762495659117,727
-365.60360279663576,621
-363.03166699093265,618
-360.4604419639154,558
-357.8899275306178,582
-355.32012350599507,576
-352.7510297049233,538
-350.1826459421999,540
-347.61497203254316,533
-345.04800779059235,470
-342.4817530309082,489
-339.91620756797226,559
-337.35137121618743,646
-334.7872437898774,574
-332.22382510328725,489
-329.66111497058273,531
-327.09911320585127,528
-324.53781962310075,514
-321.9772340362607,486
-319.4173562591816,498
-316.8581861056348,497
-314.2997233893127,472
-311.7419679238294,531
-309.1849195227194,532
-306.62857799943856,571
-304.0729431673641,567
-301.51801483979375,503
-298.963792829947,516
-296.41027695096386,582
-293.85746701590574,580
-291.3053628377552,554
-288.7539642294155,597
-286.2032710037115,680
-283.65328297338897,642
-281.1039999511146,731
-278.5554217494762,790
-276.007548180983,708
-273.4603790580651,616
-270.9139141930734,638
-268.3681533982807,685
-265.8230964858798,717
-263.27874326798565,767
-260.7350935566336,760
-258.1921471637804,735
-255.6499039013039,786
-253.10836358100266,865
-250.56752601459698,779
-248.02739101372765,776
-245.48795838995704,820
-242.94922795476816,787
-240.41119951956557,803
-237.8738728956746,728
-235.33724789434166,825
-232.80132432673452,824
-230.2661020039418,711
-227.73158073697357,760
-225.19776033676033,820
-222.66464061415422,884
-220.1322213799284,792
-217.60050244477725,766
-215.06948361931552,815
-212.53916471408013,1091
-210.00954553952818,1162
-207.48062590603843,887
-204.9524056239104,779
-202.4248845033651,861
-199.8980623545441,926
-197.37193898751036,995
-194.84651421224817,1014
-192.32178783866232,882
-189.79775967657952,987
-187.27442953574644,1200
-184.7517972258321,1289
-182.2298625564256,1122
-179.7086253370378,943
-177.18808537710026,910
-174.66824248596583,1072
-172.14909647290835,1103
-169.6306471471229,1057
-167.11289431772548,1073
-164.59583779375328,1139
-162.07947738416453,1255
-159.5638128978386,1543
-157.04884414357605,1771
-154.53457093009854,1537
-152.02099306604828,1152
-149.50811035998936,1242
-146.99592262040665,1448
-144.48442965570587,1690
-141.97363127421409,1874
-139.46352728417958,2021
-136.95411749377126,1763
-134.44540171107985,1379
-131.93737974411636,1162
-129.43005140081357,1133
-126.92341648902493,1546
-124.41747481652521,2115
-121.91222619101006,2835
-119.40767042009657,2812
-116.90380731132257,2202
-114.40063667214702,2551
-111.8981583099503,3239
-109.3963720320337,4627
-106.89527764561933,7167
-104.39487495785067,10605
-101.89516377579241,14473
-99.39614390642998,20051
-96.89781515667039,24741
-94.40017733334128,26930
-91.90323024319173,22852
-89.40697369289148,18462
-86.91140748903172,10720
-84.41653143812482,6687
-81.92234534660395,11134
-79.42884902082358,20420
-76.93604226705907,27457
-74.4439248915071,32133
-71.95249670028534,32999
-69.46175749943245,30089
-66.97170709490854,25251
-64.48234529259423,19434
-61.99367189829195,16468
-59.50568671772464,16905
-57.01838955653636,13700
-54.53178022029283,13527
-52.045858514480074,14451
-49.560624244506016,15885
-47.07607721569923,16338
-44.59221723330904,17529
-42.10904410250669,19270
-39.62655762838392,19911
-37.14475761595372,17730
-34.66364387015028,18614
-32.18321619582866,20338
-29.70347439776515,18791
-27.224418280657005,20394
-24.74604764912317,28057
-22.26836230770266,48758
-19.7913620608565,65035
-17.315046712966478,65035
-14.83941606833514,65035
-12.36446993118659,65035
-9.89020810566592,65035
-7.416630395839093,65035
-4.94373660569363,65035
-2.471526539137585,65035
-6.821210263296962E-13,65035
2.47084320796705,65035
4.941003281093458,65035
7.410480415786196,65035
9.879274808531363,65035
12.347386655893956,65035
14.814816154518212,65035
17.28156350112681,65035
19.74762889252179,65035
22.21301252558385,25594
24.67771459727237,7181
27.141735304626195,8304
29.605074844762612,9278
32.06773341487792,7063
34.52971121224755,6977
36.99100843422559,6503
39.45162527824516,4420
41.91156194181792,4711
44.370818622535126,6047
46.82939551806646,4659
49.287292826160524,7635
51.74451074464503,7997
54.201049471426245,5175
56.65690920448981,3170
59.112090141899785,2345
61.56659248179983,2864
64.02041642241159,3140
66.4735621620365,3207
68.92602989905402,3785
71.37781983192338,3992
73.82893215918205,2812
76.27936707944684,2304
78.72912479141326,2719
81.17820549385567,2813
83.62660938562783,2970
86.07433666566146,2003
88.5213875329681,1455
90.96776218663751,1944
93.41346082583925,2527
95.85848364982041,2718
98.30283085790859,2529
100.7465026495089,2494
103.18949922410604,2211
105.63182078126385,1587
108.07346752062438,1460
110.51443964190923,1210
112.95473734491827,1246
115.39436082953114,1539
117.83331029570547,1742
120.27158594347827,1778
122.7091879729652,1675
125.1461165843615,1558
127.58237197794062,1441
130.01795435405518,1422
132.4528639131364,1270
134.88710085569494,1243
137.32066538231982,1450
139.75355769367923,1766
142.1857779905207,1343
144.61732647366978,1093
147.04820334403132,1169
149.47840880258934,1213
151.90794305040674,1241
154.33680628862487,1330
156.76499871846443,1420
159.19252054122433,1524
161.61937195828352,1622
164.04555317109896,1801
166.47106438120693,2102
168.89590579022217,2265
171.320077599839,2464
173.7435800118302,2630
176.16641322804742,2778
178.58857745042144,2803
181.01007288096173,2826
183.43089972175687,2794
185.85105817497413,2726
188.27054844285988,2879
190.6893707277394,2743
193.10752523201643,2769
195.5250121581745,2831
197.9418317087751,2819
200.3579840864594,2809
202.7734694939469,3065
205.18828813403627,3221
207.6024402096051,3014
210.01592592360964,3026
212.42874547908548,2962
214.84089907914665,2868
217.2523869269868,2931
219.66320922587727,2919
222.0733661791695,2868
224.48285799029293,2834
226.8916848627572,2977
229.29984700014882,3000
231.7073446061355,3044
234.11417788446204,3068
236.520347038953,3328
238.92585227351185,3307
241.33069379212054,3444
243.73487179884035,3435
246.1383864978112,3361
248.541238093252,3382
250.9434267894609,3463
253.34495279081432,3496
255.74581630176783,3492
258.1460175268563,3501
260.54555667069314,3543
262.9444339379703,3498
265.3426495334594,3504
267.7402036620107,3485
270.1370965285529,3300
272.53332833809407,2991
274.9288992957214,3050
277.32380960660055,2994
279.718059475976,2871
282.1116491091717,2822
284.5045787115897,2799
286.89684848871195,2752
289.2884586460981,2753
291.67940938938807,2854
294.0697009242996,2991
296.4593334566299,2762
298.84830719225477,2758
301.23662233712923,2718
303.6242790972866,2600
306.01127767884,2590
308.39761828798066,2587
310.78330113097934,2542
313.16832641418534,2537
315.5526943440269,2416
317.9364051270112,2501
320.3194589697242,2528
322.70185607883093,2482
325.0835966610754,2397
327.4646809232805,2321
329.8451090723478,2343
332.2248813152577,2395
334.6039978590701,2407
336.9824589109231,2272
339.36026467803447,2351
341.7374153677,2306
344.113911187295,2311
346.48975234427337,2196
348.8649390461686,2257
351.2394715005918,2281
353.61334991523415,2261
355.9865744978655,2232
358.35914545633375,2304
360.73106299856715,2255
363.10232733257146,2164
365.47293866643247,2162
367.84289720831396,2138
370.2122031664593,2246
372.5808567491905,2146
374.9488581649083,2156
377.31620762209275,2206
379.6829053293021,2124
382.0489514951745,2103
384.4143463284262,2180
386.7790900378528,2120
389.14318283232853,2133
391.50662492080653,2192
393.86941651231916,2055
396.23155781597745,2175
398.5930490409713,2281
400.9538903965696,2275
403.3140820921202,2114
405.6736243370498,2065
408.03251734086336,2088
410.3907613131465,2149
412.74835646356166,2015
415.10530300185144,2051
417.4616011378372,2108
419.81725108141893,2078
422.1722530425758,2086
424.5266072313656,2088
426.880313857925,2075
429.2333731324701,2032
431.58578526529516,2063
433.9375504667738,2066
436.2886689473588,2069
438.63914091758113,2009
440.9889665880513,1962
443.33814616945835,2083
445.68667987257015,1998
448.03456790823395,2025
450.3818104873759,2000
452.72840782100013,2032
455.07436012019105,2052
457.41966759611057,1970
459.7643304600007,1943
462.10834892318155,1988
464.4517231970525,2005
466.79445349309174,2044
469.1365400228566,1987
471.4779829979826,1988
473.81878263018564,2001
476.15893913125876,2051
478.4984527130747,2054
480.8373235875855,2006
483.17555196682144,2021
485.5131380628919,2174
487.8500820879857,2220
490.1863842543697,2271
492.52204477439034,2407
494.8570638604725,2510
497.1914417251204,2690
499.52517858091653,2966
501.85827464052306,3232
504.19073011668036,3346
506.5225452222086,3481
508.85372017000566,3464
511.18425517304956,3738
513.514150444396,4200
515.8434061971808,5335
518.1720226446176,6167
520.4999999999999,6276
522.8273384766991,5875
525.1540382881666,5531
527.480099647932,5111
529.8055227696037,3932
532.1303078668694,2958
534.454455153496,2462
536.777964843328,2201
539.1008371502907,2172
541.4230722883866,2122
543.744670471698,2087
546.0656319143858,2126
548.3859568306899,2076
550.7056454349294,2018
553.0246979415016,2143
555.3431145648834,2065
557.6608955196306,2014
559.978041020377,2079
562.2945512818363,1953
564.6104265188006,2061
566.9256669461412,2039
569.2402727788082,1962
571.5542442318302,2020
573.8675815203156,2018
576.1802848594508,1976
578.4923544645015,2115
580.8037905508126,2062
583.114593333807,2015
585.4247630289875,2014
587.7342998519354,1939
590.0432040183106,2091
592.3514757438526,2132
594.6591152443794,2049
596.9661227357875,2036
599.2724984340531,2094
601.578242555231,2046
603.8833553154542,1983
606.1878369309362,2070
608.4916876179676,2023
610.7949075929192,1911
613.0974970722403,2045
615.3994562724587,1987
617.7007854101818,1970
620.0014847020951,1951
622.3015543649641,2074
624.6009946156324,2067
626.8998056710224,2014
629.1979877481361,1977
631.4955410640538,1966
633.7924658359349,2050
636.0887622810175,2024
638.3844306166192,2082
640.6794710601358,2020
642.9738838290426,2141
645.2676691408932,2117
647.5608272133207,2130
649.853358264037,2126
652.1452625108324,2137
654.4365401715764,1989
656.7271914642178,2084
659.0172166067838,2164
661.3066158173809,2163
663.5953893141935,2133
665.8835373154867,2189
668.1710600396028,2144
670.4579577049639,2159
672.7442305300709,2109
675.0298787335033,2107
677.3149025339197,2062
679.599302150058,2025
681.8830778007342,2102
684.1662297048437,2100
686.4487580813608,2136
688.7306631493387,2118
691.0119451279091,2107
693.2926042362834,2142
695.5726406937516,2129
697.8520547196814,2069
700.1308465335215,2125
702.4090163547982,2021
704.6865644031171,2077
706.9634908981619,2101
709.2397960596965,2126
711.5154801075631,2079
713.7905432616823,2063
716.0649857420548,2033
718.3388077687592,2025
720.612009561953,2080
722.8845913418733,2100
725.1565533288352,2031
727.427895743234,2009
729.6986188055427,1970
731.9687227363137,2067
734.238207756178,2073
736.5070740858458,2094
738.7753219461066,2023
741.0429515578281,2114
743.3099631419569,2081
745.5763569195191,2053
747.8421331116193,2074
750.1072919394409,2090
752.3718336242467,2073
754.6357583873777,2104
756.8990664502545,1986
759.1617580343765,2113
761.423833361321,2042
763.6852926527457,2030
765.9461361303862,2030
768.206364016058,2116
770.4659765316536,2080
772.7249738991469,2078
774.9833563405886,2076
777.2411240781092,2113
779.4982773339183,2122
781.7548163303044,2057
784.010741289634,2056
786.2660524343538,2134
788.5207499869881,2156
790.7748341701416,2200
793.0283052064964,2056
795.2811633188143,2133
797.5334087299362,2109
799.7850416627813,2066
802.0360623403484,2058
804.2864709857143,2026
806.5362678220353,2102
808.7854530725468,2130
811.0340269605625,2056
813.2819897094754,2077
815.5293415427581,2132
817.77608268396,2083
820.0222133567116,2081
822.2677337847211,2109
824.5126441917765,2130
826.7569448017433,2166
829.0006358385675,2147
831.2437175262731,2089
833.4861900889629,2047
835.7280537508192,2121
837.9693087361026,2107
840.2099552691533,2142
842.4499935743896,2067
844.689423876309,2059
846.9282463994886,2214
849.1664613685833,2200
851.4040690083276,2102
853.6410695435349,2157
855.877463199097,2083
858.1132501999847,2116
860.3484307712487,2173
862.5830051380175,2192
864.8169735254988,2103
867.0503361589791,2105
869.2830932638243,2132
871.5152450654786,2131
873.7467917894654,2189
875.9777336613873,2163
878.2080709069252,2175
880.4378037518389,2087
882.666932421968,2143
884.8954571432301,2132
887.1233781416219,2151
889.3506956432192,2188
891.5774098741766,2154
893.803521060728,2057
896.0290294291852,2204
898.2539352059397,2198
900.4782386174619,2224
902.7019398903011,2202
904.925039251085,2205
907.147536926521,2126
909.3694331433943,2161
911.59072812857,2170
913.8114221089921,2167
916.0315153116827,2184
918.2510079637437,2224
920.4699002923547,2162
922.6881925247761,2060
924.905884888345,2091
927.1229776104793,2174
929.3394709186747,2119
931.555365040506,2131
933.7706602036275,2128
935.9853566357709,2178
938.1994545647489,2253
940.4129542184515,2321
942.6258558248488,2280
944.8381596119883,2198
947.0498658079974,2240
949.2609746410825,2264
951.4714863395287,2235
953.6814011316998,2212
955.8907192460387,2234
958.0994409110671,2143
960.3075663553858,2195
962.5150958076741,2205
964.7220294966913,2220
966.928367651274,2182
969.1341105003388,2135
971.3392582728806,2211
973.5438111979742,2118
975.747769504772,2147
977.9511334225061,2132
980.153903180487,2131
982.3560790081052,2088
984.5576611348289,2115
986.7586497902058,2084
988.9590452038618,2054
991.158847605503,2027
993.3580572249133,2044
995.5566742919558,2021
997.7546990365728,1923
999.952131688785,1891
1002.1489724786926,1877
1004.3452216364743,1862
1006.5408793923874,1797
1008.7359459767691,1915
1010.9304216200343,1793
1013.1243065526781,1861
1015.3176010052733,1781
1017.510305208472,1800
1019.7024193930064,1820
1021.8939437896848,1829
1024.0848786293977,1864
1026.2752241431122,1896
1028.4649805618747,1872
1030.6541481168115,1844
1032.842727039127,1783
1035.0307175601051,1800
1037.2181199111074,1798
1039.4049343235752,1736
1041.591161029029,1771
1043.7768002590683,1806
1045.9618522453698,1731
1048.1463172196918,1795
1050.3301954138697,1807
1052.513487059818,1746
1054.69619238953,1741
1056.8783116350783,1737
1059.0598450286152,1683
1061.2407928023704,1726
1063.4211551886528,1737
1065.6009324198508,1758
1067.780124728432,1707
1069.9587323469414,1722
1072.1367555080046,1762
1074.314194444325,1726
1076.4910493886855,1727
1078.667320573947,1730
1080.843008233051,1676
1083.0181125990161,1738
1085.1926339049414,1768
1087.3665723840027,1767
1089.5399282694575,1676
1091.7127017946405,1687
1093.8848931929647,1699
1096.0565026979243,1679
1098.2275305430899,1695
1100.3979769621128,1731
1102.567842188722,1720
1104.737126456726,1604
1106.9058300000124,1726
1109.0739530525475,1676
1111.2414958483764,1634
1113.4084586216231,1637
1115.5748416064907,1644
1117.7406450372605,1661
1119.9058691482942,1686
1122.0705141740304,1690
1124.2345803489884,1655
1126.3980679077658,1652
1128.5609770850388,1702
1130.7233081155623,1751
1132.8850612341707,1715
1135.0462366757774,1644
1137.2068346753745,1671
1139.3668554680326,1672
1141.526299288901,1644
1143.68516637321,1643
1145.8434569562655,1642
1148.001171273455,1666
1150.158309560244,1534
1152.3148720521767,1691
1154.470858984876,1600
1156.626270594044,1690
1158.7811071154629,1700
1160.9353687849912,1679
1163.089055838569,1615
1165.242168512213,1673
1167.3947070420209,1695
1169.5466716641677,1636
1171.6980626149075,1644
1173.8488801305748,1651
1175.9991244475814,1666
1178.1487958024186,1624
1180.2978944316555,1710
1182.4464205719428,1658
1184.5943744600072,1660
1186.7417563326567,1676
1188.8885664267755,1636
1191.0348049793297,1628
1193.1804722273619,1630
1195.325568407995,1642
1197.4700937584303,1663
1199.614048515948,1612
1201.7574329179074,1711
1203.900247201746,1686
1206.042491604982,1655
1208.1841663652099,1689
1210.3252717201053,1634
1212.465807907422,1649
1214.6057751649923,1739
1216.7451737307279,1695
1218.8840038426192,1661
1221.0222657387353,1683
1223.1599596572241,1704
1225.2970858363137,1738
1227.4336445143094,1663
1229.5696359295966,1741
1231.705060320639,1717
1233.8399179259786,1744
1235.9742089842384,1777
1238.107933734118,1693
1240.2410924143974,1654
1242.373685263935,1751
1244.5057125216676,1752
1246.6371744266116,1719
1248.7680712178621,1736
1250.898403134593,1736
1253.028170416058,1854
1255.1573733015875,1750
1257.2860120305932,1770
1259.4140868425648,1785
1261.54159797707,1755
1263.6685456737569,1742
1265.7949301723515,1784
1267.9207517126597,1733
1270.046010534565,1749
1272.1707068780306,1728
1274.2948409830983,1751
1276.4184130898889,1768
1278.541423438603,1861
1280.6638722695184,1812
1282.785759822993,1813
1284.9070863394636,1820
1287.0278520594447,1774
1289.1480572235314,1812
1291.2677020723963,1822
1293.3867868467923,1901
1295.5053117875495,1812
1297.623277135579,1858
1299.740683131868,1875
1301.8575300174857,1972
1303.973818033578,1993
1306.0895474213703,1912
1308.2047184221678,1989
1310.3193312773528,1973
1312.4333862283888,1958
1314.5468835168163,1955
1316.659823384255,1915
1318.7722060724045,1973
1320.8840318230418,1964
1322.9953008780249,1908
1325.1060134792888,1984
1327.2161698688478,1946
1329.3257702887959,1919
1331.4348149813054,1961
1333.5433041886276,1939
1335.6512381530933,1988
1337.7586171171101,1962
1339.8654413231675,1950
1341.9717110138317,2004
1344.0774264317488,1952
1346.1825878196432,1967
1348.2871954203192,1903
1350.3912494766587,1960
1352.4947502316231,1917
1354.5976979282532,1930
1356.7000928096686,1891
1358.8019351190665,1940
1360.9032250997243,1886
1363.0039629949988,1820
1365.1041490483235,1886
1367.2037835032133,1969
1369.3028666032606,1922
1371.401398592137,1828
1373.4993797135926,1936
1375.5968102114575,1987
1377.6936903296396,1856
1379.7900203121262,1899
1381.8858004029835,1867
1383.9810308463561,1936
1386.075711886469,1919
1388.1698437676241,1953
1390.2634267342032,1923
1392.356461030667,2008
1394.4489469015557,1977
1396.5408845914872,2003
1398.6322743451592,1938
1400.7231164073469,1910
1402.813411022907,2088
1404.903158436773,1944
1406.9923588939578,1982
1409.0810126395531,2034
1411.1691199187303,2032
1413.2566809767386,2039
1415.343696058907,1995
1417.4301654106425,2034
1419.5160892774315,2081
1421.6014679048399,2036
1423.6863015385125,2110
1425.7705904241707,2094
1427.8543348076178,2165
1429.9375349347342,2128
1432.0201910514802,2183
1434.102303403894,2112
1436.1838722380944,2206
1438.2648978002767,2237
1440.3453803367174,2205
1442.4253200937692,2201
1444.5047173178677,2259
1446.5835722555234,2364
1448.6618851533285,2377
1450.739656257952,2457
1452.8168858161434,2423
1454.8935740747306,2468
1456.96972128062,2455
1459.045327680797,2583
1461.120393522327,2591
1463.1949190523528,2655
1465.2689045180973,2669
1467.3423501668608,2688
1469.415256246024,2764
1471.4876230030463,2856
1473.559450685465,2840
1475.6307395408976,2989
1477.7014898170391,2980
1479.771701761665,2937
1481.8413756226287,2962
1483.9105116478618,3095
1485.9791100853772,3027
1488.0471711832643,3118
1490.1146951896926,3186
1492.1816823529098,3279
1494.2481329212433,3194
1496.3140471430984,3246
1498.3794252669609,3292
1500.4442675413939,3301
1502.5085742150404,3392
1504.572345536622,3382
1506.6355817549388,3428
1508.6982831188702,3387
1510.7604498773744,3442
1512.8220822794883,3521
1514.8831805743293,3597
1516.9437450110909,3624
1519.003775839048,3523
1521.0632733075522,3576
1523.1222376660367,3677
1525.1806691640113,3624
1527.2385680510652,3767
1529.2959345768668,3767
1531.3527689911643,3763
1533.4090715437833,3806
1535.4648424846291,3725
1537.5200820636855,3783
1539.5747905310159,4019
1541.6289681367616,3944
1543.6826151311434,4007
1545.7357317644614,4155
1547.7883182870937,4073
1549.8403749494987,4189
1551.8919020022113,4197
1553.9428996958477,4368
1555.9933682811015,4456
1558.0433080087469,4450
1560.0927191296346,4718
1562.1416018946961,4578
1564.1899565549415,4567
1566.2377833614592,4571
1568.2850825654164,4509
1570.3318544180606,4430
1572.3780991707158,4242
1574.423817074788,4201
1576.4690083817595,3982
1578.5136733431923,3893
1580.5578122107272,3631
1582.601425236085,3616
1584.6445126710646,3455
1586.6870747675434,3324
1588.7291117774776,3089
1590.7706239529034,2959
1592.8116115459347,2839
1594.8520748087658,2842
1596.8920139936686,2706
1598.9314293529933,2560
1600.9703211391711,2544
1603.008689604711,2492
1605.0465350022005,2375
1607.0838575843068,2283
1609.1206576037753,2225
1611.1569353134305,2250
1613.1926909661765,2174
1615.2279248149953,2063
1617.2626371129481,2129
1619.2968281131757,2084
1621.3304980688963,2032
1623.3636472334088,2027
1625.39627586009,1999
1627.428384202396,1952
1629.459972513861,1995
1631.4910410480993,1967
1633.5215900588028,1854
1635.551619799744,1941
1637.5811305247717,1902
1639.6101224878166,1815
1641.6385959428862,1863
1643.6665511440683,1839
1645.693988345528,1824
1647.7209078015112,1856
1649.7473097663405,1850
1651.7731944944203,1790
1653.7985622402307,1781
1655.823413258333,1803
1657.847747803366,1819
1659.8715661300494,1770
1661.8948684931793,1763
1663.9176551476316,1782
1665.9399263483624,1802
1667.9616823504057,1790
1669.982923408873,1828
1672.0036497789574,1772
1674.0238617159293,1782
1676.043559475138,1768
1678.0627433120121,1786
1680.081413482059,1737
1682.0995702408654,1724
1684.117213844096,1754
1686.134344547495,1725
1688.1509626068864,1775
1690.1670682781705,1687
1692.182661817329,1746
1694.1977434804217,1753
1696.2123135235875,1720
1698.226372203043,1789
1700.2399197750851,1769
1702.2529564960905,1763
1704.2654826225112,1710
1706.277498410882,1721
1708.2890041178139,1759
1710.2999999999988,1717
1712.3104863142066,1715
1714.3204633172854,1747
1716.329931266163,1727
1718.3388904178469,1711
1720.3473410294214,1725
1722.3552833580516,1627
1724.3627176609807,1701
1726.3696441955308,1650
1728.3760632191033,1696
1730.3819749891782,1702
1732.3873797633146,1646
1734.3922777991502,1622
1736.3966693544012,1637
1738.4005546868639,1622
1740.4039340544127,1596
1742.406807715001,1666
1744.4091759266616,1625
1746.4110389475054,1626
1748.4123970357223,1631
1750.413250449582,1638
1752.4135994474318,1612
1754.4134442876993,1609
1756.4127852288902,1575
1758.4116225295893,1602
1760.4099564484595,1580
1762.407787244244,1613
1764.405115175764,1581
1766.4019405019203,1579
1768.3982634816916,1638
1770.3940843741357,1607
1772.3894034383907,1620
1774.3842209336717,1578
1776.378537119274,1597
1778.372352254571,1614
1780.3656665990156,1573
1782.3584804121397,1585
1784.3507939535534,1575
1786.3426074829463,1574
1788.3339212600863,1544
1790.3247355448211,1634
1792.3150505970766,1560
1794.3048666768573,1615
1796.2941840442477,1543
1798.2830029594106,1566
1800.2713236825884,1505
1802.2591464741004,1577
1804.2464715943465,1535
1806.2332993038058,1513
1808.2196298630352,1524
1810.2054635326708,1528
1812.190800573428,1566
1814.175641246101,1566
1816.1599858115628,1599
1818.1438345307652,1502
1820.127187664738,1595
1822.1100454745924,1556
1824.092408221516,1515
1826.0742761667766,1559
1828.055649571721,1540
1830.0365286977735,1573
1832.0169138064398,1508
1833.9968051593014,1534
1835.9762030180214,1520
1837.9551076443408,1536
1839.9335193000788,1568
1841.9114382471344,1455
1843.888864747485,1550
1845.8657990631878,1527
1847.842241456378,1533
1849.8181921892697,1535
1851.7936515241558,1546
1853.7686197234098,1546
1855.7430970494815,1526
1857.7170837649014,1521
1859.6905801322787,1562
1861.6635864143004,1537
1863.6361028737338,1544
1865.608129773424,1555
1867.5796673762961,1570
1869.5507159453537,1544
1871.521275743678,1556
1873.4913470344313,1540
1875.4609300808534,1554
1877.4300251462632,1556
1879.3986324940588,1556
1881.366752387717,1547
1883.3343850907936,1551
1885.3015308669228,1593
1887.268189979819,1535
1889.2343626932739,1561
1891.2000492711595,1558
1893.1652499774254,1563
1895.1299650761011,1609
1897.0941948312952,1582
1899.0579395071945,1600
1901.0211993680641,1572
1902.98397467825,1544
1904.9462657021745,1672
1906.9080727043415,1612
1908.869395949332,1573
1910.8302357018065,1565
1912.790592226504,1563
1914.7504657882428,1561
1916.7098566519212,1579
1918.6687650825133,1565
1920.6271913450764,1540
1922.5851357047422,1581
1924.5425984267245,1606
1926.499579776314,1556
1928.4560800188833,1585
1930.4120994198802,1618
1932.367638244833,1615
1934.32269675935,1600
1936.2772752291175,1653
1938.231373919899,1597
1940.1849930975404,1595
1942.1381330279637,1520
1944.0907939771696,1608
1946.0429762112412,1596
1947.9946799963363,1593
1949.9459055986945,1581
1951.896653284633,1580
1953.8469233205478,1543
1955.7967159729142,1530
1957.7460315082863,1507
1959.6948701932974,1491
1961.6432322946594,1527
1963.5911180791632,1578
1965.5385278136787,1556
1967.4854617651545,1503
1969.4319202006182,1542
1971.377903387176,1516
1973.3234115920136,1522
1975.268445082395,1535
1977.2130041256642,1542
1979.1570889892423,1503
1981.1006999406304,1489
1983.04383724741,1502
1984.986501177238,1515
1986.928691997853,1496
1988.8704099770712,1527
1990.811655382789,1534
1992.7524284829801,1534
1994.692729545698,1514
1996.6325588390755,1531
1998.5719166313224,1500
2000.5108031907307,1432
2002.4492187856677,1503
2004.387163684583,1474
2006.3246381560011,1479
2008.2616424685298,1471
2010.1981768908527,1480
2012.1342416917332,1526
2014.069837140014,1557
2016.0049635046162,1477
2017.9396210545406,1480
2019.8738100588666,1531
2021.8075307867502,1498
2023.740783507431,1534
2025.6735684902228,1486
2027.6058860045214,1535
2029.5377363198004,1482
2031.4691197056118,1487
2033.4000364315875,1462
2035.3304867674374,1503
2037.260470982952,1506
2039.189989347998,1450
2041.1190421325232,1518
2043.047629606554,1480
2044.9757520401945,1525
2046.9034097036288,1508
2048.8306028671195,1515
2050.7573318010086,1532
2052.683596775716,1483
2054.609398061742,1450
2056.5347359296647,1463
2058.4596106501403,1468
2060.384022493906,1504
2062.3079717317764,1456
2064.231458634646,1453
2066.1544834734873,1485
2068.077046519352,1485
2069.99914804337,1544
2071.9207883167524,1517
2073.8419676107865,1528
2075.7626861968406,1515
2077.6829443463607,1490
2079.6027423308715,1502
2081.522080421977,1504
2083.440958891362,1476
2085.359378010786,1482
2087.2773380520907,1475
2089.194839287196,1478
2091.111881988101,1536
2093.0284664268825,1523
2094.9445928756973,1519
2096.86026160678,1449
2098.775472892446,1478
2100.690227005088,1512
2102.604524217178,1522
2104.5183648012676,1499
2106.431749029985,1496
2108.34467717604,1500
2110.2571495122206,1450
2112.169166311393,1496
2114.080727846503,1456
2115.9918343905747,1500
2117.902486216711,1566
2119.8126835980956,1536
2121.722426807987,1490
2123.6317161197285,1472
2125.5405518067364,1490
2127.448934142509,1540
2129.356863400624,1492
2131.264339854737,1490
2133.1713637785815,1496
2135.077935445972,1511
2136.9840551308002,1497
2138.889723107037,1531
2140.7949396487334,1554
2142.699705030018,1496
2144.6040195250994,1509
2146.507883408264,1517
2148.4112969538774,1544
2150.3142604363848,1507
2152.2167741303097,1507
2154.1188383102535,1517
2156.0204532508997,1511
2157.9216192270064,1549
2159.822336513414,1552
2161.7226053850413,1545
2163.622426116884,1480
2165.5217989840185,1542
2167.4207242616,1516
2169.319202224862,1531
2171.2172331491165,1539
2173.1148173097563,1539
2175.0119549822507,1547
2176.90864644215,1510
2178.8048919650823,1556
2180.7006918267534,1519
2182.596046302952,1476
2184.4909556695407,1552
2186.3854202024645,1488
2188.279440177746,1467
2190.173015871487,1585
2192.066147559868,1479
2193.958835519149,1530
2195.851080025667,1577
2197.7428813558417,1572
2199.6342397861667,1495
2201.5251555932186,1511
2203.415629053651,1569
2205.3056604441986,1513
2207.19525004167,1528
2209.084398122958,1601
2210.9731049650327,1546
2212.861370844941,1553
2214.749196039812,1581
2216.636580826851,1625
2218.523525483344,1609
2220.410030286655,1568
2222.296095514226,1539
2224.1817214435805,1526
2226.066908352319,1551
2227.951656518121,1545
2229.835966218746,1535
2231.71983773203,1539
2233.6032713358913,1581
2235.486267308324,1603
2237.3688259274036,1567
2239.2509474712824,1559
2241.132632218193,1544
2243.013880446447,1541
2244.8946924344323,1522
2246.7750684606203,1597
2248.6550088035574,1588
2250.534513741871,1615
2252.413583554265,1586
2254.292218519526,1603
2256.170418916517,1558
2258.0481850241786,1583
2259.925517121534,1593
2261.8024154876825,1516
2263.678880401803,1610
2265.5549121431536,1544
2267.430510991071,1546
2269.305677224971,1563
2271.180411124348,1514
2273.0547129687766,1580
2274.9285830379076,1559
2276.8020216114737,1571
2278.6750289692845,1659
2280.5476053912294,1579
2282.4197511572766,1564
2284.2914665474727,1582
2286.162751841943,1632
2288.0336073208937,1657
2289.904033264608,1650
2291.774029953448,1636
2293.6435976678554,1574
2295.5127366883517,1540
2297.381447295534,1497
2299.2497297700825,1484
2301.1175843927526,1508
2302.9850114443825,1445
2304.852011205885,1500
2306.7185839582553,1505
2308.5847299825664,1405
2310.4504495599676,1402
2312.3157429716925,1401
2314.1806104990483,1408
2316.0450524234247,1401
2317.9090690262888,1410
2319.772660589186,1406
2321.635827393742,1326
2323.498569721661,1407
2325.3608878547248,1396
2327.2227820747967,1390
2329.0842526638157,1406
2330.945299903803,1406
2332.805924076857,1348
2334.6661254651535,1390
2336.525904350951,1398
2338.3852610165827,1409
2340.244195744464,1418
2342.102708817088,1364
2343.9608005170253,1382
2345.8184711269287,1411
2347.675720929526,1383
2349.532550207628,1413
2351.38895924412,1399
2353.24494832197,1418
2355.100517724223,1416
2356.955667734004,1367
2358.810398634514,1424
2360.664710709037,1417
2362.5186042409337,1408
2364.3720795136437,1376
2366.225136810686,1406
2368.0777764156583,1408
2369.929998612237,1414
2371.7818036841777,1462
2373.633191915315,1458
2375.484163589562,1404
2377.3347189909114,1402
2379.184858403434,1469
2381.03458211128,1435
2382.8838903986775,1427
2384.732783549936,1458
2386.5812618494406,1416
2388.4293255816588,1413
2390.2769750311327,1424
2392.1242104824883,1522
2393.971032220427,1500
2395.8174405297295,1467
2397.6634356952563,1455
2399.509018001947,1431
2401.3541877348193,1435
2403.1989451789705,1373
2405.043290619576,1407
2406.8872243418905,1430
2408.730746631247,1473
2410.5738577730594,1443
2412.4165580528183,1421
2414.258847756095,1417
2416.100727168537,1445
2417.9421965758734,1425
2419.783256263912,1423
2421.623906518538,1401
2423.4641476257157,1411
2425.303979871491,1404
2427.143403541984,1444
2428.9824189233977,1467
2430.821026302012,1475
2432.6592259641866,1462
2434.497018196361,1451
2436.33440328505,1385
2438.171381516851,1420
2440.00795317844,1462
2441.844118556569,1434
2443.6798779380724,1422
2445.5152316098606,1452
2447.3501798589255,1476
2449.1847229723357,1485
2451.0188612372403,1474
2452.8525949408663,1449
2454.6859243705203,1470
2456.518849813587,1452
2458.3513715575314,1478
2460.183489889895,1452
2462.015205098301,1479
2463.8465174704493,1440
2465.67742729412,1483
2467.5079348571717,1475
2469.338040447542,1500
2471.1677443532476,1463
2472.9970468623833,1590
2474.825948263123,1472
2476.6544488437207,1482
2478.482548892508,1482
2480.310248697896,1451
2482.137548548374,1436
2483.9644487325118,1462
2485.790949538956,1505
2487.617051256433,1415
2489.44275417375,1443
2491.26805857979,1442
2493.0929647635157,1499
2494.917473013971,1567
2496.741583620276,1569
2498.5652968716304,1504
2500.3886130573137,1474
2502.2115324666834,1504
2504.0340553891765,1495
2505.856182114308,1581
2507.6779129316733,1523
2509.499248130945,1552
2511.3201880018764,1555
2513.140732834298,1543
2514.9608829181198,1532
2516.780638543331,1558
2518.6,1553
2520.418967578273,1542
2522.237541568376,1554
2524.0557222606144,1557
2525.8735099453706,1521
2527.6909049131086,1468
2529.507907454368,1546
2531.32451785977,1636
2533.140736420014,1553
2534.9565634258774,1559
2536.771999168218,1522
2538.5870439379714,1611
2540.4016980261526,1647
2542.2159617238544,1631
2544.02983532225,1615
2545.8433191125914,1605
2547.656413386209,1605
2549.4691184345115,1703
2551.2814345489874,1686
2553.093362021204,1698
2554.904901142808,1735
2556.716052205523,1724
2558.526815501153,1668
2560.3371913215824,1716
2562.147179958771,1744
2563.956781704761,1760
2565.7659968516705,1767
2567.5748256916986,1765
2569.3832685171224,1792
2571.1913256202984,1776
2572.9989972936614,1808
2574.806283829725,1835
2576.613185521084,1812
2578.4197026604074,1850
2580.2258355404483,1851
2582.031584454035,1826
2583.836949694077,1912
2585.6419315535613,1836
2587.4465303255533,1836
2589.2507463032002,1854
2591.0545797797245,1852
2592.8580310484303,1928
2594.6611004026995,1843
2596.463788135992,1908
2598.266094541849,1915
2600.0680199138874,1829
2601.869564545807,1933
2603.670728731383,1909
2605.4715127644704,1903
2607.2719169390048,1935
2609.071941548998,1871
2610.8715868885433,1930
2612.670853251811,1887
2614.469740933052,1884
2616.268250226594,1927
2618.0663814268455,1863
2619.864134828292,1825
2621.6615107255006,1916
2623.458509413115,1949
2625.2551311858597,1846
2627.0513763385347,1814
2628.8472451660223,1829
2630.6427379632833,1890
2632.4378550253564,1774
2634.232596647359,1857
2636.026963124488,1761
2637.8209547520187,1724
2639.6145718253065,1768
2641.407814639785,1744
2643.200683490966,1739
2644.9931786744414,1710
2646.7853004858807,1687
2648.577049221034,1710
2650.3684251757277,1705
2652.1594286458712,1690
2653.9500599274484,1624
2655.740319316525,1603
2657.5302071092437,1598
2659.3197236018286,1622
2661.10886909058,1645
2662.8976438718782,1557
2664.686048242183,1612
2666.4740824980327,1600
2668.2617469360443,1638
2670.0490418529134,1545
2671.8359675454153,1570
2673.622524310403,1555
2675.408712444811,1507
2677.1945322456495,1523
2678.979984010009,1568
2680.76506803506,1523
2682.5497846180497,1520
2684.334134056306,1504
2686.1181166472343,1491
2687.9017326883213,1511
2689.6849824771293,1475
2691.4678663113013,1485
2693.2503844885596,1447
2695.032537306705,1460
2696.8143250636167,1500
2698.5957480572542,1474
2700.3768065856534,1486
2702.1575009469316,1423
2703.937831439283,1420
2705.717798360982,1407
2707.4974020103837,1414
2709.276642685917,1447
2711.055520686095,1430
2712.834036309506,1393
2714.612189854819,1445
2716.389981620782,1403
2718.1674119062204,1432
2719.944481010041,1402
2721.721189231226,1436
2723.4975368688415,1368
2725.273524222027,1457
2727.0491515900053,1389
2728.824419272075,1401
2730.5993275676146,1347
2732.3738767760838,1468
2734.148067197016,1438
2735.921899130031,1410
2737.6953728748194,1397
2739.468488731156,1358
2741.2412469988926,1389
2743.0136479779617,1409
2744.785691968372,1370
2746.5573792702116,1415
2748.3287101836504,1332
2750.099685008934,1374
2751.870304046388,1350
2753.640567596418,1350
2755.4104759595057,1340
2757.1800294362156,1357
2758.949228327187,1371
2760.7180729331412,1355
2762.486563554877,1382
2764.254700493272,1376
2766.022484049284,1372
2767.789914523947,1371
2769.5569922183786,1345
2771.3237174337705,1344
2773.090090471394,1344
2774.8561116326036,1388
2776.6217812188274,1332
2778.3870995315756,1346
2780.1520668724356,1310
2781.9166835430747,1341
2783.6809498452394,1287
2785.444866080754,1288
2787.2084325515225,1304
2788.971649559527,1329
2790.73451740683,1303
2792.4970363955713,1319
2794.2592068279705,1316
2796.0210290063264,1313
2797.7825032330147,1321
2799.543629810493,1311
2801.304409041296,1311
2803.0648412280366,1351
2804.8249266734088,1373
2806.5846656801846,1338
2808.344058551212,1352
2810.1031055894246,1410
2811.8618070978273,1375
2813.6201633795085,1259
2815.378174737636,1316
2817.1358414754536,1295
2818.893163896285,1299
2820.6501423035334,1307
2822.4067770006814,1262
2824.1630682912883,1359
2825.9190164789957,1318
2827.6746218675207,1318
2829.429884760661,1330
2831.184805462294,1289
2832.9393842763743,1308
2834.693621506936,1299
2836.4475174580916,1321
2838.201072434034,1332
2839.954286739034,1303
2841.707160677441,1295
2843.459694553685,1321
2845.2118886722724,1332
2846.96374333779,1265
2848.7152588549034,1322
2850.4664355283567,1373
2852.217273662973,1326
2853.9677735636546,1372
2855.7179355353833,1334
2857.4677598832186,1293
2859.217246912299,1307
2860.9663969278427,1313
2862.715210235146,1306
2864.4636871395846,1317
2866.211827946614,1341
2867.9596329617652,1319
2869.7071024906536,1254
2871.4542368389684,1345
2873.20103631248,1289
2874.947501217038,1294
2876.6936318585695,1336
2878.4394285430812,1393
2880.1848915766604,1331
2881.9300212654707,1276
2883.6748179157553,1282
2885.4192818338374,1239
2887.1634133261173,1303
2888.907212699077,1332
2890.6506802592744,1305
2892.393816313348,1326
2894.1366211680142,1337
2895.8790951300693,1313
2897.621238506388,1341
2899.363051603925,1314
2901.1045347297118,1304
2902.8456881908596,1296
2904.58651229456,1296
2906.327007348081,1294
2908.067173658772,1309
2909.8070115340597,1292
2911.5465212814497,1324
2913.285703208527,1339
2915.0245576229563,1283
2916.7630848324807,1299
2918.5012851449196,1314
2920.2391588681758,1286
2921.976706310227,1319
2923.7139277791334,1284
2925.4508235830313,1314
2927.187394030137,1295
2928.923639428745,1329
2930.6595600872306,1303
2932.395156314046,1347
2934.1304284177218,1312
2935.8653767068713,1282
2937.6000014901815,1313
2939.3343030764227,1307
2941.068281774442,1315
2942.8019378931644,1275
2944.5352717415976,1273
2946.2682836288236,1351
2948.0009738640065,1318
2949.7333427563885,1339
2951.465390615289,1282
2953.1971177501086,1318
2954.9285244703265,1335
2956.6596110855,1298
2958.3903779052657,1302
2960.1208252393385,1313
2961.8509533975125,1344
2963.5807626896617,1317
2965.3102534257378,1306
2967.0394259157715,1264
2968.768280469873,1337
2970.496817398232,1302
2972.2250370111146,1264
2973.952939618869,1279
2975.6805255319196,1318
2977.4077950607707,1359
2979.134748516006,1373
2980.861386208289,1332
2982.587708448359,1269
2984.313715547037,1301
2986.039407815222,1290
2987.764785563891,1256
2989.489849104102,1224
2991.2145987469908,1300
2992.9390348037705,1322
2994.6631575857346,1303
2996.3869674042576,1330
2998.1104645707887,1334
2999.83364939686,1250
3001.5565221940783,1211
3003.2790832741334,1265
3005.0013329487924,1259
3006.7232715298996,1288
3008.4448993293804,1267
3010.166216659239,1313
3011.887223831558,1307
3013.607921158498,1340
3015.3283089522993,1270
3017.0483875252826,1302
3018.7681571898443,1363
3020.4876182584626,1277
3022.2067710436927,1294
3023.9256158581707,1316
3025.644153014609,1333
3027.362382825801,1339
3029.0803056046193,1300
3030.797921664012,1270
3032.5152313170106,1245
3034.2322348767225,1391
3035.9489326563353,1324
3037.665324969115,1265
3039.3814121284063,1278
3041.097194447633,1269
3042.812672240299,1306
3044.5278458199855,1244
3046.2427155003525,1291
3047.9572815951406,1314
3049.671544418167,1281
3051.38550428333,1289
3053.0991615046073,1254
3054.812516396051,1269
3056.5255692717974,1289
3058.2383204460575,1284
3059.9507702331257,1273
3061.662918947372,1294
3063.3747669032446,1298
3065.0863144152736,1277
3066.7975617980674,1265
3068.508509366309,1296
3070.219157434767,1264
3071.9295063182844,1264
3073.639556331785,1275
3075.3493077902704,1297
3077.058761008821,1278
3078.7679163025964,1281
3080.476773986837,1339
3082.1853343768594,1328
3083.89359778806,1287
3085.6015645359153,1261
3087.3092349359786,1240
3089.016609303884,1256
3090.7236879553434,1317
3092.4304712061476,1322
3094.136959372166,1273
3095.843152769349,1300
3097.5490517137237,1345
3099.2546565213966,1346
3100.959967508554,1262
3102.66498499146,1281
3104.3697092864577,1292
3106.0741407099695,1259
3107.778279578498,1246
3109.482126208622,1299
3111.1856809170004,1292
3112.8889440203716,1297
3114.5919158355528,1356
3116.294596679439,1309
3117.996986869006,1284
3119.6990867213062,1332
3121.4008965534726,1354
3123.102416682717,1291
3124.803647426329,1328
3126.5045891016784,1329
3128.205242026213,1289
3129.90560651746,1285
3131.605682893025,1303
3133.3054714705922,1258
3135.0049725679282,1322
3136.7041865028714,1245
3138.4031135933465,1290
3140.101754157353,1241
3141.800108512971,1284
3143.498176978357,1286
3145.1959598717494,1338
3146.8934575114636,1319
3148.5906702158954,1305
3150.2875983035183,1316
3151.9842420928853,1263
3153.680601902627,1318
3155.376678051456,1269
3157.07247085816,1281
3158.767980641609,1260
3160.463207720748,1250
3162.158152414606,1285
3163.8528150422862,1274
3165.5471959229726,1264
3167.2412953759303,1292
3168.9351137204976,1260
3170.628651276098,1264
3172.3219083622307,1284
3174.014885298474,1258
3175.707582404485,1279
3177.4000000000005,1249
3179.092138404835,1256
3180.7839979388846,1318
3182.47557892212,1245
3184.166881674594,1238
3185.8579065164386,1263
3187.5486537678626,1260
3189.2391237491547,1275
3190.9293167806827,1278
3192.6192331828934,1284
3194.3088732763117,1249
3195.998237381542,1260
3197.687325819268,1324
3199.376138910251,1302
3201.064676975334,1223
3202.7529403354347,1257
3204.4409293115523,1271
3206.1286442247647,1215
3207.816085396229,1240
3209.5032531471825,1249
3211.190147798936,1239
3212.8767696728846,1268
3214.5631190905015,1170
3216.2491963733373,1211
3217.9350018430214,1252
3219.6205358212637,1246
3221.305798629851,1183
3222.990790590651,1187
3224.6755120256103,1255
3226.359963256751,1217
3228.0441446061795,1239
3229.7280563960758,1212
3231.411698948703,1283
3233.0950725863995,1259
3234.778177631587,1209
3236.461014406761,1280
3238.1435832345005,1270
3239.8258844374595,1203
3241.507918338374,1251
3243.1896852600576,1259
3244.8711855254023,1216
3246.552419457381,1269
3248.233387379042,1252
3249.914089613516,1245
3251.59452648401,1232
3253.274698313813,1224
3254.95460542629,1286
3256.6342481448855,1205
3258.313626793125,1135
3259.9927416946084,1189
3261.6715931730196,1219
3263.3501815521176,1193
3265.0285071557437,1233
3266.706570307815,1201
3268.3843713323286,1241
3270.0619105533615,1274
3271.739188295068,1170
3273.4162048816834,1229
3275.0929606375184,1218
3276.769455886966,1252
3278.445690954498,1243
3280.1216661646613,1205
3281.797381842087,1250
3283.4728383114807,1251
3285.1480358976296,1241
3286.8229749253996,1255
3288.4976557197333,1212
3290.172078605655,1234
3291.846243908266,1247
3293.5201519527463,1199
3295.193803064357,1213
3296.8671975684374,1203
3298.5403357904024,1219
3300.21321805575,1155
3301.8858446900567,1265
3303.558216018975,1229
3305.23033236824,1253
3306.9021940636603,1237
3308.57380143113,1220
3310.2451547966184,1248
3311.916254486174,1188
3313.5871008259246,1241
3315.2576941420766,1243
3316.9280347609147,1218
3318.5981230088046,1269
3320.2679592121895,1213
3321.9375436975924,1210
3323.606876791612,1212
3325.27595882093,1219
3326.944790112305,1173
3328.6133709925753,1160
3330.2817017886573,1220
3331.949782827547,1265
3333.617614436319,1213
3335.2851969421245,1198
3336.952530672199,1263
3338.619615953853,1208
3340.286453114475,1266
3341.9530424815357,1270
3343.619384382583,1236
3345.2854791452437,1197
3346.951327097224,1237
3348.6169285663073,1232
3350.2822838803577,1234
3351.947393367319,1248
3353.61225735521,1253
3355.2768761721345,1223
3356.9412501462693,1210
3358.605379605873,1196
3360.2692648792827,1209
3361.9329062949146,1213
3363.596304181263,1204
