CollectionTime,9/19/2024 11:09:52 AM
ExposureUsed,3
CalibratedSpectrum
-962.7078968117929,583
-959.9714848408522,619
-957.2358232597828,630
-954.5009119013725,629
-951.7667505983302,679
-949.0333391832855,615
-946.3006774887896,631
-943.5687653473143,665
-940.837602591253,655
-938.1071890529199,628
-935.3775245645503,667
-932.6486089583007,642
-929.9204420662485,628
-927.1930237203925,625
-924.4663537526524,657
-921.7404319948689,645
-919.0152582788041,657
-916.2908324361409,639
-913.5671542984834,656
-910.8442236973568,620
-908.1220404642074,610
-905.4006044304027,628
-902.679915427231,608
-899.959973285902,611
-897.2407778375464,583
-894.5223289132158,631
-891.8046263438832,609
-889.0876699604426,586
-886.3714595937089,612
-883.6559950744183,572
-880.9412762332282,600
-878.2273029007168,589
-875.5140749073835,594
-872.8015920836489,609
-870.0898542598545,587
-867.3788612662631,591
-864.6686129330585,615
-861.9591090903457,633
-859.2503495681506,598
-856.5423341964203,585
-853.8350628050229,608
-851.1285352237478,589
-848.4227512823054,591
-845.7177108103272,592
-843.0134136373656,612
-840.3098595928943,608
-837.6070485063082,616
-834.9049802069229,605
-832.2036545239757,582
-829.5030712866244,589
-826.8032303239481,621
-824.1041314649472,604
-821.4057745385428,584
-818.7081593735775,605
-816.0112857988148,564
-813.3151536429393,602
-810.6197627345566,598
-807.9251129021936,626
-805.2312039742981,623
-802.5380357792392,618
-799.8456081453069,612
-797.1539209007124,629
-794.462973873588,620
-791.772766891987,645
-789.083299783884,641
-786.3945723771743,595
-783.7065844996748,608
-781.0193359791231,626
-778.3328266431781,608
-775.6470563194197,595
-772.9620248353489,604
-770.2777320183878,636
-767.5941776958798,600
-764.9113616950891,627
-762.2292838432011,613
-759.5479439673222,610
-756.8673418944801,614
-754.1874774516235,628
-751.5083504656222,663
-748.8299607632671,611
-746.15230817127,641
-743.475392516264,651
-740.7992136248035,648
-738.1237713233636,631
-735.4490654383407,623
-732.7750957960521,664
-730.1018622227365,622
-727.4293645445534,687
-724.7576025875837,684
-722.0865761778291,688
-719.4162851412126,653
-716.7467293035781,656
-714.0779084906909,716
-711.409822528237,677
-708.7424712418238,668
-706.0758544569796,670
-703.4099719991541,670
-700.7448236937178,692
-698.0804093659622,676
-695.4167288411002,646
-692.7537819442656,683
-690.0915685005134,704
-687.4300883348199,692
-684.7693412720819,740
-682.1093271371178,706
-679.4500457546669,725
-676.7914969493897,702
-674.1336805458676,659
-671.4765963686034,687
-668.8202442420206,744
-666.1646239904642,690
-663.5097354382001,706
-660.8555784094151,700
-658.2021527282176,686
-655.5494582186366,692
-652.8974947046223,719
-650.2462620100463,754
-647.5957599587009,737
-644.9459883742998,765
-642.2969470804776,744
-639.6486359007902,758
-637.0010546587141,776
-634.3542031776476,770
-631.7080812809096,732
-629.0626887917401,726
-626.4180255333008,736
-623.7740913286734,754
-621.1308860008619,757
-618.4884093727904,713
-615.8466612673046,746
-613.2056415071715,748
-610.5653499150785,741
-607.9257863136347,772
-605.28695052537,748
-602.6488423727357,771
-600.0114616781036,736
-597.3748082637674,762
-594.7388819519412,804
-592.1036825647604,816
-589.4692099242818,754
-586.8354638524829,748
-584.2024441712624,778
-581.5701507024403,767
-578.9385832677575,763
-576.3077416888759,791
-573.6776257873787,737
-571.0482353847704,698
-568.4195703024757,757
-565.7916303618415,751
-563.164415384135,766
-560.5379251905453,796
-557.9121596021815,791
-555.2871184400748,774
-552.6628015251767,816
-550.0392086783606,778
-547.4163397204204,839
-544.794194472071,821
-542.1727727539491,836
-539.5520743866118,819
-536.9320991905377,864
-534.3128469861261,812
-531.6943175936979,886
-529.0765108334947,907
-526.4594265256793,1024
-523.8430644903358,1218
-521.2274245474689,1357
-518.612506517005,1407
-515.9983102187913,1434
-513.3848354725959,1545
-510.77208209810846,1599
-508.16004991493924,1661
-505.5487387426199,1707
-502.9381484006032,1679
-500.3282787082628,1634
-497.71912948489364,1593
-495.1107005497117,1417
-492.5029917218539,1278
-489.8960028203786,1119
-487.28973366426493,1047
-484.68418407241325,978
-482.07935386364494,990
-479.47524285670266,931
-476.87185087025,947
-474.2691777228715,950
-471.66722323307334,976
-469.0659872192821,922
-466.4654694998459,964
-463.86566989303384,986
-461.26658821703614,945
-458.66822428996414,891
-456.07057792985,933
-453.4736489546475,911
-450.877437182231,937
-448.28194243039627,932
-445.68716451686,894
-443.09310325926003,914
-440.49975847515555,914
-437.9071299820263,882
-435.31521759727354,918
-432.72402113821954,958
-430.13354042210767,982
-427.5437752661022,942
-424.95472548728867,926
-422.36639090267386,1008
-419.7787713291855,974
-417.1918665836721,977
-414.60567648290385,1011
-412.0202008435715,977
-409.4354394822874,1020
-406.8513922155845,1010
-404.26805885991723,1086
-401.685439231661,1057
-399.103533147112,1039
-396.522340422488,991
-393.9418608739278,995
-391.3620943174908,940
-388.7830405691583,905
-386.2046994448317,896
-383.6270707603344,882
-381.05015433141045,839
-378.473949973725,831
-375.8984575028645,756
-373.32367673433623,730
-370.74960748356875,694
-368.1762495659117,667
-365.60360279663576,646
-363.03166699093265,580
-360.4604419639154,558
-357.8899275306178,563
-355.32012350599507,529
-352.7510297049233,528
-350.1826459421999,551
-347.61497203254316,513
-345.04800779059235,516
-342.4817530309082,488
-339.91620756797226,570
-337.35137121618743,584
-334.7872437898774,546
-332.22382510328725,503
-329.66111497058273,497
-327.09911320585127,487
-324.53781962310075,499
-321.9772340362607,481
-319.4173562591816,476
-316.8581861056348,505
-314.2997233893127,470
-311.7419679238294,531
-309.1849195227194,548
-306.62857799943856,545
-304.0729431673641,515
-301.51801483979375,519
-298.963792829947,533
-296.41027695096386,530
-293.85746701590574,553
-291.3053628377552,613
-288.7539642294155,592
-286.2032710037115,630
-283.65328297338897,623
-281.1039999511146,633
-278.5554217494762,616
-276.007548180983,649
-273.4603790580651,595
-270.9139141930734,616
-268.3681533982807,668
-265.8230964858798,694
-263.27874326798565,769
-260.7350935566336,702
-258.1921471637804,814
-255.6499039013039,831
-253.10836358100266,864
-250.56752601459698,731
-248.02739101372765,795
-245.48795838995704,822
-242.94922795476816,737
-240.41119951956557,734
-237.8738728956746,776
-235.33724789434166,794
-232.80132432673452,857
-230.2661020039418,719
-227.73158073697357,742
-225.19776033676033,812
-222.66464061415422,924
-220.1322213799284,777
-217.60050244477725,787
-215.06948361931552,876
-212.53916471408013,905
-210.00954553952818,960
-207.48062590603843,864
-204.9524056239104,719
-202.4248845033651,799
-199.8980623545441,860
-197.37193898751036,928
-194.84651421224817,964
-192.32178783866232,790
-189.79775967657952,917
-187.27442953574644,993
-184.7517972258321,1061
-182.2298625564256,978
-179.7086253370378,787
-177.18808537710026,821
-174.66824248596583,1003
-172.14909647290835,1072
-169.6306471471229,1091
-167.11289431772548,1017
-164.59583779375328,1079
-162.07947738416453,1248
-159.5638128978386,1382
-157.04884414357605,1495
-154.53457093009854,1417
-152.02099306604828,1110
-149.50811035998936,1152
-146.99592262040665,1289
-144.48442965570587,1415
-141.97363127421409,1652
-139.46352728417958,1781
-136.95411749377126,1706
-134.44540171107985,1330
-131.93737974411636,1154
-129.43005140081357,1162
-126.92341648902493,1602
-124.41747481652521,2170
-121.91222619101006,2569
-119.40767042009657,2655
-116.90380731132257,2487
-114.40063667214702,3086
-111.8981583099503,3638
-109.3963720320337,4657
-106.89527764561933,6080
-104.39487495785067,8267
-101.89516377579241,11634
-99.39614390642998,16993
-96.89781515667039,20199
-94.40017733334128,19902
-91.90323024319173,18760
-89.40697369289148,14349
-86.91140748903172,7476
-84.41653143812482,5585
-81.92234534660395,8228
-79.42884902082358,13525
-76.93604226705907,18859
-74.4439248915071,22459
-71.95249670028534,22460
-69.46175749943245,17147
-66.97170709490854,11760
-64.48234529259423,8754
-61.99367189829195,8730
-59.50568671772464,8099
-57.01838955653636,8469
-54.53178022029283,10583
-52.045858514480074,12193
-49.560624244506016,14817
-47.07607721569923,14277
-44.59221723330904,12523
-42.10904410250669,13253
-39.62655762838392,13793
-37.14475761595372,16184
-34.66364387015028,18798
-32.18321619582866,19782
-29.70347439776515,20629
-27.224418280657005,23962
-24.74604764912317,29643
-22.26836230770266,46948
-19.7913620608565,65034
-17.315046712966478,65034
-14.83941606833514,65034
-12.36446993118659,65034
-9.89020810566592,65034
-7.416630395839093,65034
-4.94373660569363,65034
-2.471526539137585,65034
-6.821210263296962E-13,65034
2.47084320796705,65034
4.941003281093458,65034
7.410480415786196,65034
9.879274808531363,65034
12.347386655893956,65034
14.814816154518212,65034
17.28156350112681,65034
19.74762889252179,65034
22.21301252558385,25122
24.67771459727237,7153
27.141735304626195,7221
29.605074844762612,6337
32.06773341487792,5171
34.52971121224755,5094
36.99100843422559,4640
39.45162527824516,4087
41.91156194181792,4690
44.370818622535126,4290
46.82939551806646,4186
49.287292826160524,6775
51.74451074464503,6563
54.201049471426245,4158
56.65690920448981,2993
59.112090141899785,2560
61.56659248179983,3119
64.02041642241159,3214
66.4735621620365,3134
68.92602989905402,3689
71.37781983192338,3604
73.82893215918205,2659
76.27936707944684,2013
78.72912479141326,2272
81.17820549385567,2317
83.62660938562783,2066
86.07433666566146,1614
88.5213875329681,1668
90.96776218663751,1942
93.41346082583925,2121
95.85848364982041,2478
98.30283085790859,2140
100.7465026495089,1750
103.18949922410604,1697
105.63182078126385,1540
108.07346752062438,1582
110.51443964190923,1255
112.95473734491827,1256
115.39436082953114,1325
117.83331029570547,1391
120.27158594347827,1506
122.7091879729652,1612
125.1461165843615,1680
127.58237197794062,1511
130.01795435405518,1562
132.4528639131364,1331
134.88710085569494,1230
137.32066538231982,1490
139.75355769367923,1459
142.1857779905207,1350
144.61732647366978,1100
147.04820334403132,1078
149.47840880258934,1132
151.90794305040674,1199
154.33680628862487,1372
156.76499871846443,1480
159.19252054122433,1589
161.61937195828352,1639
164.04555317109896,1791
166.47106438120693,1970
168.89590579022217,2103
171.320077599839,2339
173.7435800118302,2376
176.16641322804742,2608
178.58857745042144,2518
181.01007288096173,2494
183.43089972175687,2577
185.85105817497413,2563
188.27054844285988,2565
190.6893707277394,2504
193.10752523201643,2655
195.5250121581745,2812
197.9418317087751,2692
200.3579840864594,2691
202.7734694939469,2798
205.18828813403627,2801
207.6024402096051,2867
210.01592592360964,2777
212.42874547908548,2838
214.84089907914665,2836
217.2523869269868,2802
219.66320922587727,2787
222.0733661791695,2667
224.48285799029293,2668
226.8916848627572,2928
229.29984700014882,2925
231.7073446061355,2925
234.11417788446204,2962
236.520347038953,3102
238.92585227351185,3186
241.33069379212054,3233
243.73487179884035,3186
246.1383864978112,3118
248.541238093252,3329
250.9434267894609,3300
253.34495279081432,3294
255.74581630176783,3405
258.1460175268563,3260
260.54555667069314,3355
262.9444339379703,3329
265.3426495334594,3307
267.7402036620107,3183
270.1370965285529,3083
272.53332833809407,3018
274.9288992957214,2825
277.32380960660055,2774
279.718059475976,2680
282.1116491091717,2729
284.5045787115897,2710
286.89684848871195,2647
289.2884586460981,2716
291.67940938938807,2765
294.0697009242996,2726
296.4593334566299,2764
298.84830719225477,2647
301.23662233712923,2656
303.6242790972866,2618
306.01127767884,2549
308.39761828798066,2492
310.78330113097934,2511
313.16832641418534,2434
315.5526943440269,2470
317.9364051270112,2551
320.3194589697242,2470
322.70185607883093,2413
325.0835966610754,2353
327.4646809232805,2273
329.8451090723478,2328
332.2248813152577,2293
334.6039978590701,2288
336.9824589109231,2299
339.36026467803447,2277
341.7374153677,2196
344.113911187295,2134
346.48975234427337,2143
348.8649390461686,2231
351.2394715005918,2155
353.61334991523415,2201
355.9865744978655,2190
358.35914545633375,2174
360.73106299856715,2267
363.10232733257146,2211
365.47293866643247,2189
367.84289720831396,2143
370.2122031664593,2130
372.5808567491905,2091
374.9488581649083,2081
377.31620762209275,2124
379.6829053293021,2057
382.0489514951745,2003
384.4143463284262,2025
386.7790900378528,2086
389.14318283232853,2014
391.50662492080653,2055
393.86941651231916,2038
396.23155781597745,2066
398.5930490409713,2124
400.9538903965696,2157
403.3140820921202,2041
405.6736243370498,1925
408.03251734086336,1931
410.3907613131465,1992
412.74835646356166,2008
415.10530300185144,2023
417.4616011378372,2012
419.81725108141893,2006
422.1722530425758,2023
424.5266072313656,1976
426.880313857925,1905
429.2333731324701,2042
431.58578526529516,1938
433.9375504667738,1992
436.2886689473588,2012
438.63914091758113,1914
440.9889665880513,2003
443.33814616945835,1943
445.68667987257015,1987
448.03456790823395,1868
450.3818104873759,1907
452.72840782100013,1945
455.07436012019105,2004
457.41966759611057,1912
459.7643304600007,1881
462.10834892318155,1927
464.4517231970525,1953
466.79445349309174,1916
469.1365400228566,1969
471.4779829979826,1914
473.81878263018564,1917
476.15893913125876,1982
478.4984527130747,1886
480.8373235875855,2042
483.17555196682144,2069
485.5131380628919,2145
487.8500820879857,2155
490.1863842543697,2211
492.52204477439034,2308
494.8570638604725,2531
497.1914417251204,2854
499.52517858091653,3154
501.85827464052306,3536
504.19073011668036,3739
506.5225452222086,3853
508.85372017000566,3945
511.18425517304956,4164
513.514150444396,4800
515.8434061971808,6033
518.1720226446176,7043
520.4999999999999,6945
522.8273384766991,6641
525.1540382881666,6389
527.480099647932,5766
529.8055227696037,4294
532.1303078668694,3101
534.454455153496,2451
536.777964843328,2281
539.1008371502907,2196
541.4230722883866,2138
543.744670471698,2119
546.0656319143858,2076
548.3859568306899,2004
550.7056454349294,2064
553.0246979415016,2015
555.3431145648834,2029
557.6608955196306,1913
559.978041020377,1916
562.2945512818363,1925
564.6104265188006,1922
566.9256669461412,1994
569.2402727788082,1946
571.5542442318302,1930
573.8675815203156,1998
576.1802848594508,1963
578.4923544645015,2009
580.8037905508126,1999
583.114593333807,2040
585.4247630289875,1975
587.7342998519354,1995
590.0432040183106,2026
592.3514757438526,2053
594.6591152443794,2030
596.9661227357875,2038
599.2724984340531,1958
601.578242555231,1964
603.8833553154542,1930
606.1878369309362,1999
608.4916876179676,1949
610.7949075929192,1963
613.0974970722403,1967
615.3994562724587,1965
617.7007854101818,2051
620.0014847020951,1943
622.3015543649641,1972
624.6009946156324,1995
626.8998056710224,1990
629.1979877481361,1948
631.4955410640538,1947
633.7924658359349,1990
636.0887622810175,1957
638.3844306166192,2005
640.6794710601358,1998
642.9738838290426,1930
645.2676691408932,2066
647.5608272133207,2077
649.853358264037,2091
652.1452625108324,2046
654.4365401715764,2073
656.7271914642178,2096
659.0172166067838,2098
661.3066158173809,2045
663.5953893141935,2050
665.8835373154867,2081
668.1710600396028,2020
670.4579577049639,2041
672.7442305300709,2081
675.0298787335033,2036
677.3149025339197,1982
679.599302150058,2040
681.8830778007342,2028
684.1662297048437,1957
686.4487580813608,2067
688.7306631493387,2029
691.0119451279091,2094
693.2926042362834,2078
695.5726406937516,2018
697.8520547196814,1982
700.1308465335215,1925
702.4090163547982,2060
704.6865644031171,2029
706.9634908981619,2006
709.2397960596965,1981
711.5154801075631,1921
713.7905432616823,2019
716.0649857420548,1989
718.3388077687592,1969
720.612009561953,1931
722.8845913418733,1940
725.1565533288352,1946
727.427895743234,1989
729.6986188055427,1974
731.9687227363137,1957
734.238207756178,1923
736.5070740858458,1929
738.7753219461066,1914
741.0429515578281,2045
743.3099631419569,2031
745.5763569195191,1925
747.8421331116193,1971
750.1072919394409,1967
752.3718336242467,1997
754.6357583873777,2019
756.8990664502545,1994
759.1617580343765,1913
761.423833361321,1918
763.6852926527457,1965
765.9461361303862,1987
768.206364016058,2051
770.4659765316536,1958
772.7249738991469,2008
774.9833563405886,2040
777.2411240781092,1986
779.4982773339183,2064
781.7548163303044,2056
784.010741289634,1992
786.2660524343538,1974
788.5207499869881,1979
790.7748341701416,1975
793.0283052064964,2079
795.2811633188143,2095
797.5334087299362,2009
799.7850416627813,1963
802.0360623403484,2066
804.2864709857143,1958
806.5362678220353,2008
808.7854530725468,1989
811.0340269605625,2020
813.2819897094754,1951
815.5293415427581,2020
817.77608268396,2190
820.0222133567116,2055
822.2677337847211,2084
824.5126441917765,2046
826.7569448017433,2057
829.0006358385675,2087
831.2437175262731,2052
833.4861900889629,2047
835.7280537508192,2002
837.9693087361026,2046
840.2099552691533,2073
842.4499935743896,2052
844.689423876309,2084
846.9282463994886,2096
849.1664613685833,1998
851.4040690083276,1991
853.6410695435349,2004
855.877463199097,2011
858.1132501999847,2117
860.3484307712487,2079
862.5830051380175,2055
864.8169735254988,2021
867.0503361589791,1953
869.2830932638243,2045
871.5152450654786,2088
873.7467917894654,2075
875.9777336613873,2102
878.2080709069252,2066
880.4378037518389,2025
882.666932421968,2016
884.8954571432301,2138
887.1233781416219,2115
889.3506956432192,2079
891.5774098741766,2123
893.803521060728,2119
896.0290294291852,2033
898.2539352059397,2017
900.4782386174619,2063
902.7019398903011,2018
904.925039251085,2090
907.147536926521,2056
909.3694331433943,2098
911.59072812857,2070
913.8114221089921,2091
916.0315153116827,2091
918.2510079637437,2155
920.4699002923547,2112
922.6881925247761,2066
924.905884888345,1982
927.1229776104793,2173
929.3394709186747,2050
931.555365040506,2105
933.7706602036275,2053
935.9853566357709,2189
938.1994545647489,2177
940.4129542184515,2239
942.6258558248488,2162
944.8381596119883,2138
947.0498658079974,2200
949.2609746410825,2171
951.4714863395287,2172
953.6814011316998,2106
955.8907192460387,2137
958.0994409110671,2154
960.3075663553858,2130
962.5150958076741,2148
964.7220294966913,2120
966.928367651274,2162
969.1341105003388,2082
971.3392582728806,2087
973.5438111979742,2050
975.747769504772,2099
977.9511334225061,2073
980.153903180487,2023
982.3560790081052,1952
984.5576611348289,1967
986.7586497902058,2026
988.9590452038618,1927
991.158847605503,1937
993.3580572249133,1928
995.5566742919558,1940
997.7546990365728,1830
999.952131688785,1852
1002.1489724786926,1845
1004.3452216364743,1822
1006.5408793923874,1779
1008.7359459767691,1763
1010.9304216200343,1700
1013.1243065526781,1776
1015.3176010052733,1741
1017.510305208472,1723
1019.7024193930064,1717
1021.8939437896848,1753
1024.0848786293977,1726
1026.2752241431122,1732
1028.4649805618747,1764
1030.6541481168115,1700
1032.842727039127,1688
1035.0307175601051,1741
1037.2181199111074,1687
1039.4049343235752,1664
1041.591161029029,1622
1043.7768002590683,1674
1045.9618522453698,1630
1048.1463172196918,1687
1050.3301954138697,1666
1052.513487059818,1653
1054.69619238953,1644
1056.8783116350783,1677
1059.0598450286152,1616
1061.2407928023704,1614
1063.4211551886528,1673
1065.6009324198508,1678
1067.780124728432,1646
1069.9587323469414,1658
1072.1367555080046,1630
1074.314194444325,1609
1076.4910493886855,1658
1078.667320573947,1543
1080.843008233051,1599
1083.0181125990161,1633
1085.1926339049414,1574
1087.3665723840027,1592
1089.5399282694575,1609
1091.7127017946405,1633
1093.8848931929647,1596
1096.0565026979243,1578
1098.2275305430899,1594
1100.3979769621128,1586
1102.567842188722,1607
1104.737126456726,1565
1106.9058300000124,1567
1109.0739530525475,1640
1111.2414958483764,1584
1113.4084586216231,1527
1115.5748416064907,1535
1117.7406450372605,1596
1119.9058691482942,1563
1122.0705141740304,1637
1124.2345803489884,1560
1126.3980679077658,1593
1128.5609770850388,1583
1130.7233081155623,1596
1132.8850612341707,1523
1135.0462366757774,1560
1137.2068346753745,1542
1139.3668554680326,1515
1141.526299288901,1538
1143.68516637321,1616
1145.8434569562655,1612
1148.001171273455,1575
1150.158309560244,1564
1152.3148720521767,1597
1154.470858984876,1528
1156.626270594044,1558
1158.7811071154629,1586
1160.9353687849912,1496
1163.089055838569,1528
1165.242168512213,1541
1167.3947070420209,1540
1169.5466716641677,1602
1171.6980626149075,1513
1173.8488801305748,1490
1175.9991244475814,1545
1178.1487958024186,1611
1180.2978944316555,1503
1182.4464205719428,1508
1184.5943744600072,1509
1186.7417563326567,1519
1188.8885664267755,1540
1191.0348049793297,1541
1193.1804722273619,1503
1195.325568407995,1481
1197.4700937584303,1494
1199.614048515948,1600
1201.7574329179074,1530
1203.900247201746,1586
1206.042491604982,1522
1208.1841663652099,1494
1210.3252717201053,1509
1212.465807907422,1512
1214.6057751649923,1559
1216.7451737307279,1568
1218.8840038426192,1572
1221.0222657387353,1529
1223.1599596572241,1579
1225.2970858363137,1550
1227.4336445143094,1609
1229.5696359295966,1583
1231.705060320639,1567
1233.8399179259786,1613
1235.9742089842384,1596
1238.107933734118,1576
1240.2410924143974,1551
1242.373685263935,1602
1244.5057125216676,1564
1246.6371744266116,1566
1248.7680712178621,1627
1250.898403134593,1574
1253.028170416058,1599
1255.1573733015875,1676
1257.2860120305932,1625
1259.4140868425648,1597
1261.54159797707,1647
1263.6685456737569,1653
1265.7949301723515,1618
1267.9207517126597,1658
1270.046010534565,1650
1272.1707068780306,1690
1274.2948409830983,1614
1276.4184130898889,1622
1278.541423438603,1591
1280.6638722695184,1671
1282.785759822993,1685
1284.9070863394636,1667
1287.0278520594447,1646
1289.1480572235314,1642
1291.2677020723963,1641
1293.3867868467923,1701
1295.5053117875495,1746
1297.623277135579,1660
1299.740683131868,1702
1301.8575300174857,1748
1303.973818033578,1795
1306.0895474213703,1772
1308.2047184221678,1737
1310.3193312773528,1784
1312.4333862283888,1778
1314.5468835168163,1832
1316.659823384255,1773
1318.7722060724045,1760
1320.8840318230418,1769
1322.9953008780249,1786
1325.1060134792888,1797
1327.2161698688478,1767
1329.3257702887959,1814
1331.4348149813054,1770
1333.5433041886276,1741
1335.6512381530933,1741
1337.7586171171101,1758
1339.8654413231675,1806
1341.9717110138317,1818
1344.0774264317488,1800
1346.1825878196432,1814
1348.2871954203192,1713
1350.3912494766587,1782
1352.4947502316231,1725
1354.5976979282532,1738
1356.7000928096686,1804
1358.8019351190665,1690
1360.9032250997243,1737
1363.0039629949988,1786
1365.1041490483235,1777
1367.2037835032133,1743
1369.3028666032606,1716
1371.401398592137,1709
1373.4993797135926,1732
1375.5968102114575,1769
1377.6936903296396,1707
1379.7900203121262,1823
1381.8858004029835,1796
1383.9810308463561,1788
1386.075711886469,1763
1388.1698437676241,1771
1390.2634267342032,1726
1392.356461030667,1786
1394.4489469015557,1814
1396.5408845914872,1803
1398.6322743451592,1772
1400.7231164073469,1814
1402.813411022907,1784
1404.903158436773,1802
1406.9923588939578,1816
1409.0810126395531,1809
1411.1691199187303,1884
1413.2566809767386,1810
1415.343696058907,1832
1417.4301654106425,1911
1419.5160892774315,1902
1421.6014679048399,1924
1423.6863015385125,1931
1425.7705904241707,1998
1427.8543348076178,1913
1429.9375349347342,1947
1432.0201910514802,1929
1434.102303403894,1910
1436.1838722380944,2051
1438.2648978002767,1991
1440.3453803367174,2046
1442.4253200937692,2029
1444.5047173178677,2063
1446.5835722555234,2003
1448.6618851533285,2076
1450.739656257952,2114
1452.8168858161434,2093
1454.8935740747306,2188
1456.96972128062,2241
1459.045327680797,2311
1461.120393522327,2208
1463.1949190523528,2292
1465.2689045180973,2291
1467.3423501668608,2357
1469.415256246024,2430
1471.4876230030463,2452
1473.559450685465,2390
1475.6307395408976,2483
1477.7014898170391,2548
1479.771701761665,2642
1481.8413756226287,2668
1483.9105116478618,2657
1485.9791100853772,2662
1488.0471711832643,2702
1490.1146951896926,2771
1492.1816823529098,2724
1494.2481329212433,2740
1496.3140471430984,2856
1498.3794252669609,2816
1500.4442675413939,2812
1502.5085742150404,2947
1504.572345536622,2825
1506.6355817549388,2875
1508.6982831188702,2910
1510.7604498773744,2949
1512.8220822794883,2951
1514.8831805743293,2895
1516.9437450110909,3010
1519.003775839048,3113
1521.0632733075522,3005
1523.1222376660367,3044
1525.1806691640113,3155
1527.2385680510652,3067
1529.2959345768668,3143
1531.3527689911643,3078
1533.4090715437833,3156
1535.4648424846291,3158
1537.5200820636855,3171
1539.5747905310159,3253
1541.6289681367616,3377
1543.6826151311434,3300
1545.7357317644614,3394
1547.7883182870937,3393
1549.8403749494987,3464
1551.8919020022113,3446
1553.9428996958477,3550
1555.9933682811015,3721
1558.0433080087469,3627
1560.0927191296346,3787
1562.1416018946961,3941
1564.1899565549415,3900
1566.2377833614592,3815
1568.2850825654164,3850
1570.3318544180606,3789
1572.3780991707158,3641
1574.423817074788,3607
1576.4690083817595,3535
1578.5136733431923,3392
1580.5578122107272,3202
1582.601425236085,3144
1584.6445126710646,2889
1586.6870747675434,2827
1588.7291117774776,2774
1590.7706239529034,2608
1592.8116115459347,2573
1594.8520748087658,2482
1596.8920139936686,2358
1598.9314293529933,2356
1600.9703211391711,2247
1603.008689604711,2228
1605.0465350022005,2169
1607.0838575843068,2085
1609.1206576037753,2021
1611.1569353134305,1905
1613.1926909661765,1926
1615.2279248149953,1923
1617.2626371129481,1851
1619.2968281131757,1867
1621.3304980688963,1850
1623.3636472334088,1851
1625.39627586009,1743
1627.428384202396,1798
1629.459972513861,1779
1631.4910410480993,1770
1633.5215900588028,1769
1635.551619799744,1755
1637.5811305247717,1734
1639.6101224878166,1663
1641.6385959428862,1695
1643.6665511440683,1645
1645.693988345528,1681
1647.7209078015112,1618
1649.7473097663405,1642
1651.7731944944203,1594
1653.7985622402307,1662
1655.823413258333,1613
1657.847747803366,1646
1659.8715661300494,1647
1661.8948684931793,1559
1663.9176551476316,1562
1665.9399263483624,1591
1667.9616823504057,1566
1669.982923408873,1643
1672.0036497789574,1550
1674.0238617159293,1602
1676.043559475138,1588
1678.0627433120121,1617
1680.081413482059,1508
1682.0995702408654,1667
1684.117213844096,1622
1686.134344547495,1605
1688.1509626068864,1623
1690.1670682781705,1620
1692.182661817329,1578
1694.1977434804217,1555
1696.2123135235875,1572
1698.226372203043,1572
1700.2399197750851,1636
1702.2529564960905,1660
1704.2654826225112,1552
1706.277498410882,1591
1708.2890041178139,1537
1710.2999999999988,1559
1712.3104863142066,1557
1714.3204633172854,1539
1716.329931266163,1569
1718.3388904178469,1577
1720.3473410294214,1492
1722.3552833580516,1613
1724.3627176609807,1568
1726.3696441955308,1582
1728.3760632191033,1513
1730.3819749891782,1531
1732.3873797633146,1535
1734.3922777991502,1560
1736.3966693544012,1559
1738.4005546868639,1489
1740.4039340544127,1504
1742.406807715001,1521
1744.4091759266616,1537
1746.4110389475054,1500
1748.4123970357223,1529
1750.413250449582,1527
1752.4135994474318,1487
1754.4134442876993,1505
1756.4127852288902,1450
1758.4116225295893,1486
1760.4099564484595,1514
1762.407787244244,1477
1764.405115175764,1466
1766.4019405019203,1457
1768.3982634816916,1446
1770.3940843741357,1502
1772.3894034383907,1444
1774.3842209336717,1458
1776.378537119274,1467
1778.372352254571,1405
1780.3656665990156,1433
1782.3584804121397,1413
1784.3507939535534,1438
1786.3426074829463,1380
1788.3339212600863,1451
1790.3247355448211,1458
1792.3150505970766,1434
1794.3048666768573,1467
1796.2941840442477,1473
1798.2830029594106,1431
1800.2713236825884,1405
1802.2591464741004,1467
1804.2464715943465,1451
1806.2332993038058,1403
1808.2196298630352,1451
1810.2054635326708,1499
1812.190800573428,1389
1814.175641246101,1425
1816.1599858115628,1410
1818.1438345307652,1410
1820.127187664738,1458
1822.1100454745924,1415
1824.092408221516,1440
1826.0742761667766,1377
1828.055649571721,1405
1830.0365286977735,1371
1832.0169138064398,1427
1833.9968051593014,1419
1835.9762030180214,1429
1837.9551076443408,1429
1839.9335193000788,1421
1841.9114382471344,1421
1843.888864747485,1427
1845.8657990631878,1418
1847.842241456378,1442
1849.8181921892697,1404
1851.7936515241558,1393
1853.7686197234098,1385
1855.7430970494815,1293
1857.7170837649014,1407
1859.6905801322787,1400
1861.6635864143004,1368
1863.6361028737338,1415
1865.608129773424,1388
1867.5796673762961,1454
1869.5507159453537,1416
1871.521275743678,1504
1873.4913470344313,1453
1875.4609300808534,1494
1877.4300251462632,1397
1879.3986324940588,1446
1881.366752387717,1435
1883.3343850907936,1477
1885.3015308669228,1440
1887.268189979819,1460
1889.2343626932739,1436
1891.2000492711595,1481
1893.1652499774254,1417
1895.1299650761011,1436
1897.0941948312952,1458
1899.0579395071945,1445
1901.0211993680641,1473
1902.98397467825,1498
1904.9462657021745,1438
1906.9080727043415,1463
1908.869395949332,1517
1910.8302357018065,1439
1912.790592226504,1434
1914.7504657882428,1475
1916.7098566519212,1490
1918.6687650825133,1463
1920.6271913450764,1418
1922.5851357047422,1421
1924.5425984267245,1439
1926.499579776314,1486
1928.4560800188833,1479
1930.4120994198802,1380
1932.367638244833,1441
1934.32269675935,1478
1936.2772752291175,1398
1938.231373919899,1506
1940.1849930975404,1430
1942.1381330279637,1421
1944.0907939771696,1406
1946.0429762112412,1440
1947.9946799963363,1409
1949.9459055986945,1407
1951.896653284633,1449
1953.8469233205478,1400
1955.7967159729142,1393
1957.7460315082863,1458
1959.6948701932974,1397
1961.6432322946594,1427
1963.5911180791632,1416
1965.5385278136787,1425
1967.4854617651545,1392
1969.4319202006182,1392
1971.377903387176,1434
1973.3234115920136,1373
1975.268445082395,1390
1977.2130041256642,1405
1979.1570889892423,1413
1981.1006999406304,1414
1983.04383724741,1358
1984.986501177238,1385
1986.928691997853,1362
1988.8704099770712,1440
1990.811655382789,1431
1992.7524284829801,1452
1994.692729545698,1345
1996.6325588390755,1365
1998.5719166313224,1435
2000.5108031907307,1345
2002.4492187856677,1427
2004.387163684583,1421
2006.3246381560011,1334
2008.2616424685298,1406
2010.1981768908527,1348
2012.1342416917332,1365
2014.069837140014,1313
2016.0049635046162,1382
2017.9396210545406,1337
2019.8738100588666,1359
2021.8075307867502,1379
2023.740783507431,1375
2025.6735684902228,1362
2027.6058860045214,1382
2029.5377363198004,1355
2031.4691197056118,1383
2033.4000364315875,1372
2035.3304867674374,1339
2037.260470982952,1316
2039.189989347998,1357
2041.1190421325232,1336
2043.047629606554,1319
2044.9757520401945,1324
2046.9034097036288,1374
2048.8306028671195,1348
2050.7573318010086,1331
2052.683596775716,1354
2054.609398061742,1306
2056.5347359296647,1356
2058.4596106501403,1338
2060.384022493906,1341
2062.3079717317764,1380
2064.231458634646,1384
2066.1544834734873,1370
2068.077046519352,1334
2069.99914804337,1308
2071.9207883167524,1409
2073.8419676107865,1399
2075.7626861968406,1325
2077.6829443463607,1283
2079.6027423308715,1370
2081.522080421977,1342
2083.440958891362,1294
2085.359378010786,1330
2087.2773380520907,1325
2089.194839287196,1329
2091.111881988101,1315
2093.0284664268825,1398
2094.9445928756973,1356
2096.86026160678,1334
2098.775472892446,1319
2100.690227005088,1365
2102.604524217178,1362
2104.5183648012676,1407
2106.431749029985,1383
2108.34467717604,1342
2110.2571495122206,1379
2112.169166311393,1421
2114.080727846503,1330
2115.9918343905747,1381
2117.902486216711,1389
2119.8126835980956,1375
2121.722426807987,1326
2123.6317161197285,1340
2125.5405518067364,1419
2127.448934142509,1428
2129.356863400624,1404
2131.264339854737,1425
2133.1713637785815,1402
2135.077935445972,1386
2136.9840551308002,1362
2138.889723107037,1434
2140.7949396487334,1369
2142.699705030018,1324
2144.6040195250994,1366
2146.507883408264,1373
2148.4112969538774,1390
2150.3142604363848,1455
2152.2167741303097,1333
2154.1188383102535,1407
2156.0204532508997,1409
2157.9216192270064,1377
2159.822336513414,1474
2161.7226053850413,1360
2163.622426116884,1447
2165.5217989840185,1405
2167.4207242616,1408
2169.319202224862,1391
2171.2172331491165,1484
2173.1148173097563,1435
2175.0119549822507,1460
2176.90864644215,1442
2178.8048919650823,1414
2180.7006918267534,1422
2182.596046302952,1452
2184.4909556695407,1435
2186.3854202024645,1458
2188.279440177746,1419
2190.173015871487,1403
2192.066147559868,1415
2193.958835519149,1457
2195.851080025667,1486
2197.7428813558417,1437
2199.6342397861667,1477
2201.5251555932186,1478
2203.415629053651,1411
2205.3056604441986,1430
2207.19525004167,1453
2209.084398122958,1384
2210.9731049650327,1412
2212.861370844941,1473
2214.749196039812,1482
2216.636580826851,1508
2218.523525483344,1471
2220.410030286655,1455
2222.296095514226,1433
2224.1817214435805,1445
2226.066908352319,1442
2227.951656518121,1445
2229.835966218746,1431
2231.71983773203,1390
2233.6032713358913,1463
2235.486267308324,1446
2237.3688259274036,1456
2239.2509474712824,1418
2241.132632218193,1447
2243.013880446447,1417
2244.8946924344323,1489
2246.7750684606203,1382
2248.6550088035574,1442
2250.534513741871,1419
2252.413583554265,1477
2254.292218519526,1460
2256.170418916517,1431
2258.0481850241786,1397
2259.925517121534,1437
2261.8024154876825,1403
2263.678880401803,1411
2265.5549121431536,1403
2267.430510991071,1493
2269.305677224971,1432
2271.180411124348,1465
2273.0547129687766,1428
2274.9285830379076,1389
2276.8020216114737,1414
2278.6750289692845,1399
2280.5476053912294,1471
2282.4197511572766,1389
2284.2914665474727,1483
2286.162751841943,1461
2288.0336073208937,1517
2289.904033264608,1482
2291.774029953448,1495
2293.6435976678554,1508
2295.5127366883517,1405
2297.381447295534,1393
2299.2497297700825,1352
2301.1175843927526,1366
2302.9850114443825,1341
2304.852011205885,1317
2306.7185839582553,1282
2308.5847299825664,1247
2310.4504495599676,1268
2312.3157429716925,1278
2314.1806104990483,1281
2316.0450524234247,1314
2317.9090690262888,1269
2319.772660589186,1281
2321.635827393742,1280
2323.498569721661,1287
2325.3608878547248,1259
2327.2227820747967,1244
2329.0842526638157,1242
2330.945299903803,1263
2332.805924076857,1264
2334.6661254651535,1273
2336.525904350951,1272
2338.3852610165827,1271
2340.244195744464,1283
2342.102708817088,1229
2343.9608005170253,1224
2345.8184711269287,1275
2347.675720929526,1254
2349.532550207628,1281
2351.38895924412,1318
2353.24494832197,1227
2355.100517724223,1316
2356.955667734004,1259
2358.810398634514,1226
2360.664710709037,1259
2362.5186042409337,1307
2364.3720795136437,1300
2366.225136810686,1295
2368.0777764156583,1338
2369.929998612237,1284
2371.7818036841777,1317
2373.633191915315,1278
2375.484163589562,1300
2377.3347189909114,1262
2379.184858403434,1333
2381.03458211128,1341
2382.8838903986775,1302
2384.732783549936,1294
2386.5812618494406,1289
2388.4293255816588,1337
2390.2769750311327,1293
2392.1242104824883,1319
2393.971032220427,1288
2395.8174405297295,1319
2397.6634356952563,1298
2399.509018001947,1302
2401.3541877348193,1250
2403.1989451789705,1302
2405.043290619576,1305
2406.8872243418905,1381
2408.730746631247,1347
2410.5738577730594,1306
2412.4165580528183,1293
2414.258847756095,1316
2416.100727168537,1271
2417.9421965758734,1316
2419.783256263912,1297
2421.623906518538,1319
2423.4641476257157,1325
2425.303979871491,1246
2427.143403541984,1318
2428.9824189233977,1308
2430.821026302012,1298
2432.6592259641866,1302
2434.497018196361,1294
2436.33440328505,1300
2438.171381516851,1338
2440.00795317844,1294
2441.844118556569,1352
2443.6798779380724,1306
2445.5152316098606,1280
2447.3501798589255,1328
2449.1847229723357,1341
2451.0188612372403,1303
2452.8525949408663,1340
2454.6859243705203,1339
2456.518849813587,1346
2458.3513715575314,1363
2460.183489889895,1281
2462.015205098301,1358
2463.8465174704493,1353
2465.67742729412,1360
2467.5079348571717,1338
2469.338040447542,1345
2471.1677443532476,1340
2472.9970468623833,1337
2474.825948263123,1315
2476.6544488437207,1325
2478.482548892508,1283
2480.310248697896,1359
2482.137548548374,1391
2483.9644487325118,1326
2485.790949538956,1291
2487.617051256433,1353
2489.44275417375,1358
2491.26805857979,1329
2493.0929647635157,1334
2494.917473013971,1365
2496.741583620276,1327
2498.5652968716304,1377
2500.3886130573137,1344
2502.2115324666834,1436
2504.0340553891765,1367
2505.856182114308,1409
2507.6779129316733,1339
2509.499248130945,1388
2511.3201880018764,1372
2513.140732834298,1370
2514.9608829181198,1372
2516.780638543331,1380
2518.6,1367
2520.418967578273,1408
2522.237541568376,1468
2524.0557222606144,1457
2525.8735099453706,1464
2527.6909049131086,1366
2529.507907454368,1420
2531.32451785977,1489
2533.140736420014,1445
2534.9565634258774,1456
2536.771999168218,1412
2538.5870439379714,1372
2540.4016980261526,1431
2542.2159617238544,1494
2544.02983532225,1534
2545.8433191125914,1550
2547.656413386209,1507
2549.4691184345115,1557
2551.2814345489874,1445
2553.093362021204,1490
2554.904901142808,1503
2556.716052205523,1489
2558.526815501153,1552
2560.3371913215824,1575
2562.147179958771,1568
2563.956781704761,1563
2565.7659968516705,1608
2567.5748256916986,1643
2569.3832685171224,1600
2571.1913256202984,1648
2572.9989972936614,1602
2574.806283829725,1633
2576.613185521084,1626
2578.4197026604074,1600
2580.2258355404483,1638
2582.031584454035,1675
2583.836949694077,1672
2585.6419315535613,1677
2587.4465303255533,1639
2589.2507463032002,1631
2591.0545797797245,1673
2592.8580310484303,1659
2594.6611004026995,1666
2596.463788135992,1717
2598.266094541849,1691
2600.0680199138874,1618
2601.869564545807,1679
2603.670728731383,1716
2605.4715127644704,1665
2607.2719169390048,1658
2609.071941548998,1662
2610.8715868885433,1659
2612.670853251811,1637
2614.469740933052,1633
2616.268250226594,1658
2618.0663814268455,1585
2619.864134828292,1624
2621.6615107255006,1679
2623.458509413115,1627
2625.2551311858597,1586
2627.0513763385347,1658
2628.8472451660223,1638
2630.6427379632833,1593
2632.4378550253564,1570
2634.232596647359,1541
2636.026963124488,1584
2637.8209547520187,1523
2639.6145718253065,1533
2641.407814639785,1462
2643.200683490966,1557
2644.9931786744414,1578
2646.7853004858807,1570
2648.577049221034,1497
2650.3684251757277,1513
2652.1594286458712,1474
2653.9500599274484,1462
2655.740319316525,1403
2657.5302071092437,1440
2659.3197236018286,1474
2661.10886909058,1422
2662.8976438718782,1427
2664.686048242183,1464
2666.4740824980327,1417
2668.2617469360443,1389
2670.0490418529134,1370
2671.8359675454153,1394
2673.622524310403,1451
2675.408712444811,1370
2677.1945322456495,1447
2678.979984010009,1356
2680.76506803506,1355
2682.5497846180497,1384
2684.334134056306,1342
2686.1181166472343,1381
2687.9017326883213,1359
2689.6849824771293,1337
2691.4678663113013,1360
2693.2503844885596,1306
2695.032537306705,1282
2696.8143250636167,1312
2698.5957480572542,1284
2700.3768065856534,1273
2702.1575009469316,1336
2703.937831439283,1301
2705.717798360982,1289
2707.4974020103837,1302
2709.276642685917,1262
2711.055520686095,1303
2712.834036309506,1330
2714.612189854819,1299
2716.389981620782,1272
2718.1674119062204,1311
2719.944481010041,1260
2721.721189231226,1267
2723.4975368688415,1309
2725.273524222027,1280
2727.0491515900053,1190
2728.824419272075,1278
2730.5993275676146,1240
2732.3738767760838,1254
2734.148067197016,1223
2735.921899130031,1275
2737.6953728748194,1291
2739.468488731156,1230
2741.2412469988926,1213
2743.0136479779617,1266
2744.785691968372,1268
2746.5573792702116,1227
2748.3287101836504,1229
2750.099685008934,1253
2751.870304046388,1267
2753.640567596418,1176
2755.4104759595057,1236
2757.1800294362156,1204
2758.949228327187,1243
2760.7180729331412,1234
2762.486563554877,1225
2764.254700493272,1204
2766.022484049284,1280
2767.789914523947,1282
2769.5569922183786,1245
2771.3237174337705,1246
2773.090090471394,1204
2774.8561116326036,1213
2776.6217812188274,1228
2778.3870995315756,1245
2780.1520668724356,1245
2781.9166835430747,1235
2783.6809498452394,1215
2785.444866080754,1272
2787.2084325515225,1227
2788.971649559527,1232
2790.73451740683,1217
2792.4970363955713,1277
2794.2592068279705,1223
2796.0210290063264,1186
2797.7825032330147,1233
2799.543629810493,1206
2801.304409041296,1253
2803.0648412280366,1199
2804.8249266734088,1242
2806.5846656801846,1249
2808.344058551212,1232
2810.1031055894246,1236
2811.8618070978273,1256
2813.6201633795085,1175
2815.378174737636,1233
2817.1358414754536,1177
2818.893163896285,1251
2820.6501423035334,1217
2822.4067770006814,1174
2824.1630682912883,1206
2825.9190164789957,1270
2827.6746218675207,1196
2829.429884760661,1269
2831.184805462294,1216
2832.9393842763743,1260
2834.693621506936,1256
2836.4475174580916,1220
2838.201072434034,1216
2839.954286739034,1270
2841.707160677441,1195
2843.459694553685,1190
2845.2118886722724,1312
2846.96374333779,1218
2848.7152588549034,1238
2850.4664355283567,1213
2852.217273662973,1230
2853.9677735636546,1200
2855.7179355353833,1191
2857.4677598832186,1249
2859.217246912299,1217
2860.9663969278427,1249
2862.715210235146,1204
2864.4636871395846,1215
2866.211827946614,1221
2867.9596329617652,1197
2869.7071024906536,1215
2871.4542368389684,1242
2873.20103631248,1225
2874.947501217038,1235
2876.6936318585695,1210
2878.4394285430812,1232
2880.1848915766604,1220
2881.9300212654707,1223
2883.6748179157553,1211
2885.4192818338374,1183
2887.1634133261173,1225
2888.907212699077,1206
2890.6506802592744,1272
2892.393816313348,1214
2894.1366211680142,1227
2895.8790951300693,1240
2897.621238506388,1243
2899.363051603925,1291
2901.1045347297118,1231
2902.8456881908596,1222
2904.58651229456,1229
2906.327007348081,1203
2908.067173658772,1229
2909.8070115340597,1194
2911.5465212814497,1226
2913.285703208527,1188
2915.0245576229563,1166
2916.7630848324807,1197
2918.5012851449196,1240
2920.2391588681758,1189
2921.976706310227,1243
2923.7139277791334,1218
2925.4508235830313,1180
2927.187394030137,1218
2928.923639428745,1211
2930.6595600872306,1256
2932.395156314046,1197
2934.1304284177218,1219
2935.8653767068713,1195
2937.6000014901815,1204
2939.3343030764227,1236
2941.068281774442,1227
2942.8019378931644,1256
2944.5352717415976,1249
2946.2682836288236,1298
2948.0009738640065,1238
2949.7333427563885,1226
2951.465390615289,1225
2953.1971177501086,1184
2954.9285244703265,1260
2956.6596110855,1228
2958.3903779052657,1225
2960.1208252393385,1201
2961.8509533975125,1278
2963.5807626896617,1183
2965.3102534257378,1180
2967.0394259157715,1169
2968.768280469873,1172
2970.496817398232,1231
2972.2250370111146,1202
2973.952939618869,1226
2975.6805255319196,1215
2977.4077950607707,1293
2979.134748516006,1257
2980.861386208289,1262
2982.587708448359,1194
2984.313715547037,1212
2986.039407815222,1241
2987.764785563891,1185
2989.489849104102,1170
2991.2145987469908,1205
2992.9390348037705,1249
2994.6631575857346,1203
2996.3869674042576,1174
2998.1104645707887,1209
2999.83364939686,1231
3001.5565221940783,1191
3003.2790832741334,1202
3005.0013329487924,1171
3006.7232715298996,1255
3008.4448993293804,1191
3010.166216659239,1241
3011.887223831558,1179
3013.607921158498,1198
3015.3283089522993,1158
3017.0483875252826,1194
3018.7681571898443,1269
3020.4876182584626,1205
3022.2067710436927,1236
3023.9256158581707,1222
3025.644153014609,1170
3027.362382825801,1160
3029.0803056046193,1205
3030.797921664012,1182
3032.5152313170106,1205
3034.2322348767225,1210
3035.9489326563353,1206
3037.665324969115,1187
3039.3814121284063,1199
3041.097194447633,1216
3042.812672240299,1237
3044.5278458199855,1157
3046.2427155003525,1208
3047.9572815951406,1222
3049.671544418167,1159
3051.38550428333,1221
3053.0991615046073,1226
3054.812516396051,1180
3056.5255692717974,1183
3058.2383204460575,1215
3059.9507702331257,1175
3061.662918947372,1203
3063.3747669032446,1191
3065.0863144152736,1217
3066.7975617980674,1211
3068.508509366309,1191
3070.219157434767,1225
3071.9295063182844,1282
3073.639556331785,1201
3075.3493077902704,1184
3077.058761008821,1191
3078.7679163025964,1179
3080.476773986837,1251
3082.1853343768594,1189
3083.89359778806,1223
3085.6015645359153,1185
3087.3092349359786,1232
3089.016609303884,1194
3090.7236879553434,1222
3092.4304712061476,1178
3094.136959372166,1202
3095.843152769349,1191
3097.5490517137237,1179
3099.2546565213966,1246
3100.959967508554,1232
3102.66498499146,1194
3104.3697092864577,1193
3106.0741407099695,1223
3107.778279578498,1176
3109.482126208622,1177
3111.1856809170004,1234
3112.8889440203716,1232
3114.5919158355528,1213
3116.294596679439,1150
3117.996986869006,1201
3119.6990867213062,1197
3121.4008965534726,1223
3123.102416682717,1196
3124.803647426329,1189
3126.5045891016784,1169
3128.205242026213,1229
3129.90560651746,1243
3131.605682893025,1206
3133.3054714705922,1210
3135.0049725679282,1170
3136.7041865028714,1223
3138.4031135933465,1220
3140.101754157353,1223
3141.800108512971,1220
3143.498176978357,1144
3145.1959598717494,1193
3146.8934575114636,1204
3148.5906702158954,1192
3150.2875983035183,1205
3151.9842420928853,1188
3153.680601902627,1215
3155.376678051456,1201
3157.07247085816,1206
3158.767980641609,1164
3160.463207720748,1241
3162.158152414606,1216
3163.8528150422862,1233
3165.5471959229726,1207
3167.2412953759303,1188
3168.9351137204976,1181
3170.628651276098,1199
3172.3219083622307,1187
3174.014885298474,1201
3175.707582404485,1262
3177.4000000000005,1171
3179.092138404835,1189
3180.7839979388846,1190
3182.47557892212,1207
3184.166881674594,1199
3185.8579065164386,1210
3187.5486537678626,1188
3189.2391237491547,1199
3190.9293167806827,1221
3192.6192331828934,1166
3194.3088732763117,1207
3195.998237381542,1201
3197.687325819268,1170
3199.376138910251,1170
3201.064676975334,1206
3202.7529403354347,1138
3204.4409293115523,1191
3206.1286442247647,1146
3207.816085396229,1162
3209.5032531471825,1174
3211.190147798936,1189
3212.8767696728846,1161
3214.5631190905015,1090
3216.2491963733373,1144
3217.9350018430214,1160
3219.6205358212637,1148
3221.305798629851,1156
3222.990790590651,1112
3224.6755120256103,1151
3226.359963256751,1209
3228.0441446061795,1142
3229.7280563960758,1144
3231.411698948703,1178
3233.0950725863995,1217
3234.778177631587,1208
3236.461014406761,1212
3238.1435832345005,1214
3239.8258844374595,1244
3241.507918338374,1132
3243.1896852600576,1155
3244.8711855254023,1168
3246.552419457381,1152
3248.233387379042,1177
3249.914089613516,1226
3251.59452648401,1152
3253.274698313813,1200
3254.95460542629,1137
3256.6342481448855,1154
3258.313626793125,1138
3259.9927416946084,1112
3261.6715931730196,1160
3263.3501815521176,1172
3265.0285071557437,1150
3266.706570307815,1154
3268.3843713323286,1145
3270.0619105533615,1162
3271.739188295068,1146
3273.4162048816834,1169
3275.0929606375184,1146
3276.769455886966,1183
3278.445690954498,1190
3280.1216661646613,1202
3281.797381842087,1149
3283.4728383114807,1163
3285.1480358976296,1154
3286.8229749253996,1155
3288.4976557197333,1161
3290.172078605655,1215
3291.846243908266,1158
3293.5201519527463,1133
3295.193803064357,1170
3296.8671975684374,1145
3298.5403357904024,1152
3300.21321805575,1167
3301.8858446900567,1178
3303.558216018975,1105
3305.23033236824,1163
3306.9021940636603,1145
3308.57380143113,1146
3310.2451547966184,1169
3311.916254486174,1225
3313.5871008259246,1153
3315.2576941420766,1161
3316.9280347609147,1176
3318.5981230088046,1172
3320.2679592121895,1151
3321.9375436975924,1146
3323.606876791612,1121
3325.27595882093,1166
3326.944790112305,1148
3328.6133709925753,1139
3330.2817017886573,1133
3331.949782827547,1176
3333.617614436319,1163
3335.2851969421245,1165
3336.952530672199,1205
3338.619615953853,1209
3340.286453114475,1147
3341.9530424815357,1090
3343.619384382583,1181
3345.2854791452437,1169
3346.951327097224,1165
3348.6169285663073,1177
3350.2822838803577,1171
3351.947393367319,1186
3353.61225735521,1158
3355.2768761721345,1143
3356.9412501462693,1158
3358.605379605873,1156
3360.2692648792827,1171
3361.9329062949146,1209
3363.596304181263,1129
