CollectionTime,9/19/2024 11:12:50 AM
ExposureUsed,3
CalibratedSpectrum
-962.7078968117929,701
-959.9714848408522,725
-957.2358232597828,760
-954.5009119013725,771
-951.7667505983302,761
-949.0333391832855,755
-946.3006774887896,728
-943.5687653473143,768
-940.837602591253,762
-938.1071890529199,765
-935.3775245645503,723
-932.6486089583007,763
-929.9204420662485,729
-927.1930237203925,705
-924.4663537526524,751
-921.7404319948689,749
-919.0152582788041,738
-916.2908324361409,764
-913.5671542984834,790
-910.8442236973568,752
-908.1220404642074,759
-905.4006044304027,762
-902.679915427231,741
-899.959973285902,749
-897.2407778375464,724
-894.5223289132158,722
-891.8046263438832,715
-889.0876699604426,720
-886.3714595937089,749
-883.6559950744183,702
-880.9412762332282,709
-878.2273029007168,704
-875.5140749073835,763
-872.8015920836489,733
-870.0898542598545,717
-867.3788612662631,722
-864.6686129330585,768
-861.9591090903457,712
-859.2503495681506,709
-856.5423341964203,730
-853.8350628050229,762
-851.1285352237478,746
-848.4227512823054,751
-845.7177108103272,802
-843.0134136373656,725
-840.3098595928943,746
-837.6070485063082,709
-834.9049802069229,739
-832.2036545239757,728
-829.5030712866244,748
-826.8032303239481,712
-824.1041314649472,705
-821.4057745385428,724
-818.7081593735775,728
-816.0112857988148,746
-813.3151536429393,746
-810.6197627345566,759
-807.9251129021936,738
-805.2312039742981,783
-802.5380357792392,768
-799.8456081453069,792
-797.1539209007124,753
-794.462973873588,737
-791.772766891987,778
-789.083299783884,780
-786.3945723771743,722
-783.7065844996748,728
-781.0193359791231,753
-778.3328266431781,755
-775.6470563194197,788
-772.9620248353489,733
-770.2777320183878,760
-767.5941776958798,772
-764.9113616950891,765
-762.2292838432011,781
-759.5479439673222,767
-756.8673418944801,787
-754.1874774516235,784
-751.5083504656222,754
-748.8299607632671,760
-746.15230817127,799
-743.475392516264,766
-740.7992136248035,809
-738.1237713233636,798
-735.4490654383407,801
-732.7750957960521,768
-730.1018622227365,760
-727.4293645445534,723
-724.7576025875837,750
-722.0865761778291,801
-719.4162851412126,842
-716.7467293035781,863
-714.0779084906909,842
-711.409822528237,745
-708.7424712418238,808
-706.0758544569796,811
-703.4099719991541,830
-700.7448236937178,806
-698.0804093659622,807
-695.4167288411002,843
-692.7537819442656,827
-690.0915685005134,819
-687.4300883348199,869
-684.7693412720819,853
-682.1093271371178,851
-679.4500457546669,822
-676.7914969493897,807
-674.1336805458676,865
-671.4765963686034,877
-668.8202442420206,829
-666.1646239904642,831
-663.5097354382001,815
-660.8555784094151,851
-658.2021527282176,847
-655.5494582186366,842
-652.8974947046223,862
-650.2462620100463,870
-647.5957599587009,864
-644.9459883742998,864
-642.2969470804776,912
-639.6486359007902,848
-637.0010546587141,854
-634.3542031776476,870
-631.7080812809096,878
-629.0626887917401,878
-626.4180255333008,894
-623.7740913286734,886
-621.1308860008619,863
-618.4884093727904,877
-615.8466612673046,859
-613.2056415071715,863
-610.5653499150785,920
-607.9257863136347,907
-605.28695052537,907
-602.6488423727357,869
-600.0114616781036,940
-597.3748082637674,908
-594.7388819519412,905
-592.1036825647604,895
-589.4692099242818,885
-586.8354638524829,919
-584.2024441712624,896
-581.5701507024403,923
-578.9385832677575,890
-576.3077416888759,903
-573.6776257873787,918
-571.0482353847704,942
-568.4195703024757,915
-565.7916303618415,917
-563.164415384135,919
-560.5379251905453,918
-557.9121596021815,879
-555.2871184400748,891
-552.6628015251767,930
-550.0392086783606,904
-547.4163397204204,940
-544.794194472071,963
-542.1727727539491,944
-539.5520743866118,944
-536.9320991905377,978
-534.3128469861261,988
-531.6943175936979,1046
-529.0765108334947,1036
-526.4594265256793,1103
-523.8430644903358,1286
-521.2274245474689,1360
-518.612506517005,1434
-515.9983102187913,1401
-513.3848354725959,1561
-510.77208209810846,1551
-508.16004991493924,1561
-505.5487387426199,1557
-502.9381484006032,1529
-500.3282787082628,1543
-497.71912948489364,1456
-495.1107005497117,1374
-492.5029917218539,1252
-489.8960028203786,1180
-487.28973366426493,1114
-484.68418407241325,1102
-482.07935386364494,1078
-479.47524285670266,1061
-476.87185087025,1062
-474.2691777228715,1090
-471.66722323307334,1026
-469.0659872192821,1023
-466.4654694998459,1084
-463.86566989303384,1108
-461.26658821703614,1087
-458.66822428996414,1101
-456.07057792985,1027
-453.4736489546475,1027
-450.877437182231,1089
-448.28194243039627,1023
-445.68716451686,1065
-443.09310325926003,1063
-440.49975847515555,1085
-437.9071299820263,1025
-435.31521759727354,1052
-432.72402113821954,1096
-430.13354042210767,1140
-427.5437752661022,1095
-424.95472548728867,1084
-422.36639090267386,1043
-419.7787713291855,1056
-417.1918665836721,1110
-414.60567648290385,1113
-412.0202008435715,1141
-409.4354394822874,1170
-406.8513922155845,1119
-404.26805885991723,1123
-401.685439231661,1130
-399.103533147112,1115
-396.522340422488,1111
-393.9418608739278,1124
-391.3620943174908,1146
-388.7830405691583,1090
-386.2046994448317,1016
-383.6270707603344,1003
-381.05015433141045,947
-378.473949973725,928
-375.8984575028645,872
-373.32367673433623,780
-370.74960748356875,735
-368.1762495659117,697
-365.60360279663576,657
-363.03166699093265,585
-360.4604419639154,553
-357.8899275306178,507
-355.32012350599507,497
-352.7510297049233,504
-350.1826459421999,479
-347.61497203254316,457
-345.04800779059235,485
-342.4817530309082,480
-339.91620756797226,538
-337.35137121618743,489
-334.7872437898774,472
-332.22382510328725,467
-329.66111497058273,454
-327.09911320585127,466
-324.53781962310075,494
-321.9772340362607,442
-319.4173562591816,479
-316.8581861056348,493
-314.2997233893127,486
-311.7419679238294,502
-309.1849195227194,522
-306.62857799943856,512
-304.0729431673641,481
-301.51801483979375,546
-298.963792829947,549
-296.41027695096386,554
-293.85746701590574,537
-291.3053628377552,576
-288.7539642294155,584
-286.2032710037115,587
-283.65328297338897,592
-281.1039999511146,647
-278.5554217494762,604
-276.007548180983,595
-273.4603790580651,546
-270.9139141930734,541
-268.3681533982807,670
-265.8230964858798,713
-263.27874326798565,693
-260.7350935566336,665
-258.1921471637804,680
-255.6499039013039,723
-253.10836358100266,685
-250.56752601459698,626
-248.02739101372765,715
-245.48795838995704,751
-242.94922795476816,792
-240.41119951956557,714
-237.8738728956746,702
-235.33724789434166,704
-232.80132432673452,719
-230.2661020039418,712
-227.73158073697357,714
-225.19776033676033,753
-222.66464061415422,802
-220.1322213799284,872
-217.60050244477725,810
-215.06948361931552,842
-212.53916471408013,829
-210.00954553952818,838
-207.48062590603843,788
-204.9524056239104,696
-202.4248845033651,700
-199.8980623545441,737
-197.37193898751036,870
-194.84651421224817,804
-192.32178783866232,781
-189.79775967657952,847
-187.27442953574644,913
-184.7517972258321,1003
-182.2298625564256,831
-179.7086253370378,716
-177.18808537710026,823
-174.66824248596583,1042
-172.14909647290835,1065
-169.6306471471229,1018
-167.11289431772548,905
-164.59583779375328,952
-162.07947738416453,1077
-159.5638128978386,1263
-157.04884414357605,1182
-154.53457093009854,1141
-152.02099306604828,1047
-149.50811035998936,1013
-146.99592262040665,1201
-144.48442965570587,1519
-141.97363127421409,1692
-139.46352728417958,1713
-136.95411749377126,1281
-134.44540171107985,1022
-131.93737974411636,1138
-129.43005140081357,1300
-126.92341648902493,1569
-124.41747481652521,2071
-121.91222619101006,2368
-119.40767042009657,1832
-116.90380731132257,1708
-114.40063667214702,2358
-111.8981583099503,3252
-109.3963720320337,5027
-106.89527764561933,8523
-104.39487495785067,11062
-101.89516377579241,13342
-99.39614390642998,12795
-96.89781515667039,13981
-94.40017733334128,17591
-91.90323024319173,19250
-89.40697369289148,16218
-86.91140748903172,13495
-84.41653143812482,15393
-81.92234534660395,19234
-79.42884902082358,19444
-76.93604226705907,16960
-74.4439248915071,14734
-71.95249670028534,14460
-69.46175749943245,15062
-66.97170709490854,15769
-64.48234529259423,15555
-61.99367189829195,12931
-59.50568671772464,7609
-57.01838955653636,6831
-54.53178022029283,9137
-52.045858514480074,10193
-49.560624244506016,11635
-47.07607721569923,12517
-44.59221723330904,14780
-42.10904410250669,15411
-39.62655762838392,13153
-37.14475761595372,13350
-34.66364387015028,16190
-32.18321619582866,18432
-29.70347439776515,19749
-27.224418280657005,21268
-24.74604764912317,25504
-22.26836230770266,38134
-19.7913620608565,65036
-17.315046712966478,65036
-14.83941606833514,65036
-12.36446993118659,65036
-9.89020810566592,65036
-7.416630395839093,65036
-4.94373660569363,65036
-2.471526539137585,65036
-6.821210263296962E-13,65036
2.47084320796705,65036
4.941003281093458,65036
7.410480415786196,65036
9.879274808531363,65036
12.347386655893956,65036
14.814816154518212,65036
17.28156350112681,65036
19.74762889252179,65036
22.21301252558385,24530
24.67771459727237,7730
27.141735304626195,8589
29.605074844762612,5806
32.06773341487792,3837
34.52971121224755,3515
36.99100843422559,3649
39.45162527824516,3099
41.91156194181792,4262
44.370818622535126,3919
46.82939551806646,3911
49.287292826160524,5720
51.74451074464503,4301
54.201049471426245,3256
56.65690920448981,3264
59.112090141899785,2842
61.56659248179983,2465
64.02041642241159,2611
66.4735621620365,3365
68.92602989905402,3769
71.37781983192338,3301
73.82893215918205,2508
76.27936707944684,2383
78.72912479141326,2068
81.17820549385567,1757
83.62660938562783,1555
86.07433666566146,1272
88.5213875329681,1480
90.96776218663751,1757
93.41346082583925,2072
95.85848364982041,2213
98.30283085790859,1917
100.7465026495089,1917
103.18949922410604,1650
105.63182078126385,1277
108.07346752062438,1204
110.51443964190923,1109
112.95473734491827,1108
115.39436082953114,1256
117.83331029570547,1428
120.27158594347827,1400
122.7091879729652,1363
125.1461165843615,1255
127.58237197794062,1289
130.01795435405518,1362
132.4528639131364,1195
134.88710085569494,1233
137.32066538231982,1485
139.75355769367923,1320
142.1857779905207,1150
144.61732647366978,1130
147.04820334403132,1221
149.47840880258934,1102
151.90794305040674,1141
154.33680628862487,1165
156.76499871846443,1264
159.19252054122433,1431
161.61937195828352,1512
164.04555317109896,1671
166.47106438120693,1894
168.89590579022217,1964
171.320077599839,2210
173.7435800118302,2245
176.16641322804742,2409
178.58857745042144,2368
181.01007288096173,2504
183.43089972175687,2484
185.85105817497413,2567
188.27054844285988,2553
190.6893707277394,2538
193.10752523201643,2565
195.5250121581745,2678
197.9418317087751,2682
200.3579840864594,2647
202.7734694939469,2777
205.18828813403627,2842
207.6024402096051,2872
210.01592592360964,2784
212.42874547908548,2932
214.84089907914665,2857
217.2523869269868,2766
219.66320922587727,2834
222.0733661791695,2735
224.48285799029293,2898
226.8916848627572,2920
229.29984700014882,2904
231.7073446061355,2876
234.11417788446204,2938
236.520347038953,3021
238.92585227351185,3090
241.33069379212054,3159
243.73487179884035,3106
246.1383864978112,3063
248.541238093252,3088
250.9434267894609,3239
253.34495279081432,3153
255.74581630176783,3037
258.1460175268563,3067
260.54555667069314,3122
262.9444339379703,3106
265.3426495334594,3094
267.7402036620107,2999
270.1370965285529,2941
272.53332833809407,2805
274.9288992957214,2755
277.32380960660055,2777
279.718059475976,2705
282.1116491091717,2591
284.5045787115897,2598
286.89684848871195,2616
289.2884586460981,2638
291.67940938938807,2712
294.0697009242996,2737
296.4593334566299,2895
298.84830719225477,2774
301.23662233712923,2743
303.6242790972866,2603
306.01127767884,2575
308.39761828798066,2583
310.78330113097934,2560
313.16832641418534,2547
315.5526943440269,2490
317.9364051270112,2573
320.3194589697242,2490
322.70185607883093,2391
325.0835966610754,2389
327.4646809232805,2393
329.8451090723478,2431
332.2248813152577,2460
334.6039978590701,2439
336.9824589109231,2449
339.36026467803447,2401
341.7374153677,2278
344.113911187295,2399
346.48975234427337,2361
348.8649390461686,2306
351.2394715005918,2374
353.61334991523415,2345
355.9865744978655,2287
358.35914545633375,2352
360.73106299856715,2327
363.10232733257146,2319
365.47293866643247,2264
367.84289720831396,2237
370.2122031664593,2334
372.5808567491905,2263
374.9488581649083,2245
377.31620762209275,2278
379.6829053293021,2256
382.0489514951745,2192
384.4143463284262,2240
386.7790900378528,2227
389.14318283232853,2234
391.50662492080653,2181
393.86941651231916,2245
396.23155781597745,2210
398.5930490409713,2249
400.9538903965696,2245
403.3140820921202,2221
405.6736243370498,2187
408.03251734086336,2207
410.3907613131465,2148
412.74835646356166,2117
415.10530300185144,2301
417.4616011378372,2210
419.81725108141893,2197
422.1722530425758,2175
424.5266072313656,2167
426.880313857925,2245
429.2333731324701,2193
431.58578526529516,2258
433.9375504667738,2243
436.2886689473588,2169
438.63914091758113,2172
440.9889665880513,2110
443.33814616945835,2139
445.68667987257015,2123
448.03456790823395,2104
450.3818104873759,2157
452.72840782100013,2149
455.07436012019105,2061
457.41966759611057,2084
459.7643304600007,2119
462.10834892318155,2000
464.4517231970525,2116
466.79445349309174,2133
469.1365400228566,2087
471.4779829979826,2144
473.81878263018564,2114
476.15893913125876,2160
478.4984527130747,2119
480.8373235875855,2112
483.17555196682144,2302
485.5131380628919,2274
487.8500820879857,2317
490.1863842543697,2384
492.52204477439034,2408
494.8570638604725,2502
497.1914417251204,2758
499.52517858091653,2881
501.85827464052306,3214
504.19073011668036,3335
506.5225452222086,3661
508.85372017000566,3543
511.18425517304956,3799
513.514150444396,4495
515.8434061971808,5805
518.1720226446176,6657
520.4999999999999,6421
522.8273384766991,6232
525.1540382881666,5942
527.480099647932,5317
529.8055227696037,4070
532.1303078668694,3151
534.454455153496,2649
536.777964843328,2547
539.1008371502907,2381
541.4230722883866,2344
543.744670471698,2272
546.0656319143858,2277
548.3859568306899,2182
550.7056454349294,2235
553.0246979415016,2251
555.3431145648834,2177
557.6608955196306,2155
559.978041020377,2105
562.2945512818363,2143
564.6104265188006,2176
566.9256669461412,2186
569.2402727788082,2224
571.5542442318302,2186
573.8675815203156,2212
576.1802848594508,2213
578.4923544645015,2235
580.8037905508126,2159
583.114593333807,2216
585.4247630289875,2230
587.7342998519354,2149
590.0432040183106,2144
592.3514757438526,2241
594.6591152443794,2127
596.9661227357875,2202
599.2724984340531,2178
601.578242555231,2222
603.8833553154542,2121
606.1878369309362,2152
608.4916876179676,2164
610.7949075929192,2151
613.0974970722403,2112
615.3994562724587,2103
617.7007854101818,2156
620.0014847020951,2303
622.3015543649641,2224
624.6009946156324,2188
626.8998056710224,2117
629.1979877481361,2225
631.4955410640538,2271
633.7924658359349,2233
636.0887622810175,2200
638.3844306166192,2221
640.6794710601358,2219
642.9738838290426,2300
645.2676691408932,2294
647.5608272133207,2193
649.853358264037,2232
652.1452625108324,2254
654.4365401715764,2302
656.7271914642178,2231
659.0172166067838,2228
661.3066158173809,2221
663.5953893141935,2264
665.8835373154867,2299
668.1710600396028,2317
670.4579577049639,2305
672.7442305300709,2233
675.0298787335033,2303
677.3149025339197,2231
679.599302150058,2303
681.8830778007342,2238
684.1662297048437,2255
686.4487580813608,2340
688.7306631493387,2209
691.0119451279091,2289
693.2926042362834,2277
695.5726406937516,2190
697.8520547196814,2252
700.1308465335215,2207
702.4090163547982,2266
704.6865644031171,2223
706.9634908981619,2222
709.2397960596965,2210
711.5154801075631,2318
713.7905432616823,2273
716.0649857420548,2161
718.3388077687592,2240
720.612009561953,2283
722.8845913418733,2213
725.1565533288352,2232
727.427895743234,2204
729.6986188055427,2204
731.9687227363137,2182
734.238207756178,2290
736.5070740858458,2276
738.7753219461066,2196
741.0429515578281,2246
743.3099631419569,2238
745.5763569195191,2233
747.8421331116193,2257
750.1072919394409,2221
752.3718336242467,2268
754.6357583873777,2229
756.8990664502545,2244
759.1617580343765,2249
761.423833361321,2297
763.6852926527457,2312
765.9461361303862,2260
768.206364016058,2303
770.4659765316536,2252
772.7249738991469,2308
774.9833563405886,2268
777.2411240781092,2242
779.4982773339183,2237
781.7548163303044,2284
784.010741289634,2334
786.2660524343538,2274
788.5207499869881,2335
790.7748341701416,2366
793.0283052064964,2289
795.2811633188143,2397
797.5334087299362,2301
799.7850416627813,2292
802.0360623403484,2256
804.2864709857143,2287
806.5362678220353,2328
808.7854530725468,2288
811.0340269605625,2293
813.2819897094754,2337
815.5293415427581,2328
817.77608268396,2292
820.0222133567116,2310
822.2677337847211,2296
824.5126441917765,2289
826.7569448017433,2385
829.0006358385675,2270
831.2437175262731,2277
833.4861900889629,2322
835.7280537508192,2377
837.9693087361026,2386
840.2099552691533,2448
842.4499935743896,2333
844.689423876309,2281
846.9282463994886,2260
849.1664613685833,2409
851.4040690083276,2290
853.6410695435349,2278
855.877463199097,2312
858.1132501999847,2368
860.3484307712487,2358
862.5830051380175,2323
864.8169735254988,2353
867.0503361589791,2343
869.2830932638243,2367
871.5152450654786,2372
873.7467917894654,2346
875.9777336613873,2360
878.2080709069252,2437
880.4378037518389,2364
882.666932421968,2309
884.8954571432301,2351
887.1233781416219,2434
889.3506956432192,2433
891.5774098741766,2350
893.803521060728,2381
896.0290294291852,2358
898.2539352059397,2383
900.4782386174619,2376
902.7019398903011,2303
904.925039251085,2497
907.147536926521,2338
909.3694331433943,2407
911.59072812857,2296
913.8114221089921,2397
916.0315153116827,2331
918.2510079637437,2320
920.4699002923547,2314
922.6881925247761,2307
924.905884888345,2357
927.1229776104793,2360
929.3394709186747,2393
931.555365040506,2387
933.7706602036275,2431
935.9853566357709,2414
938.1994545647489,2412
940.4129542184515,2402
942.6258558248488,2459
944.8381596119883,2470
947.0498658079974,2388
949.2609746410825,2461
951.4714863395287,2434
953.6814011316998,2412
955.8907192460387,2354
958.0994409110671,2476
960.3075663553858,2513
962.5150958076741,2402
964.7220294966913,2418
966.928367651274,2375
969.1341105003388,2429
971.3392582728806,2411
973.5438111979742,2381
975.747769504772,2360
977.9511334225061,2357
980.153903180487,2319
982.3560790081052,2375
984.5576611348289,2342
986.7586497902058,2361
988.9590452038618,2330
991.158847605503,2276
993.3580572249133,2254
995.5566742919558,2204
997.7546990365728,2162
999.952131688785,2153
1002.1489724786926,2085
1004.3452216364743,2220
1006.5408793923874,2181
1008.7359459767691,2155
1010.9304216200343,2110
1013.1243065526781,2129
1015.3176010052733,2023
1017.510305208472,2142
1019.7024193930064,2067
1021.8939437896848,2076
1024.0848786293977,2192
1026.2752241431122,2049
1028.4649805618747,2052
1030.6541481168115,2041
1032.842727039127,2044
1035.0307175601051,2116
1037.2181199111074,2084
1039.4049343235752,2065
1041.591161029029,2053
1043.7768002590683,2075
1045.9618522453698,2084
1048.1463172196918,1984
1050.3301954138697,2051
1052.513487059818,2041
1054.69619238953,2036
1056.8783116350783,2126
1059.0598450286152,2020
1061.2407928023704,2043
1063.4211551886528,2105
1065.6009324198508,1991
1067.780124728432,2080
1069.9587323469414,2090
1072.1367555080046,2079
1074.314194444325,2035
1076.4910493886855,1992
1078.667320573947,2022
1080.843008233051,2118
1083.0181125990161,2057
1085.1926339049414,2039
1087.3665723840027,1943
1089.5399282694575,1988
1091.7127017946405,2042
1093.8848931929647,2029
1096.0565026979243,1951
1098.2275305430899,2041
1100.3979769621128,2037
1102.567842188722,1959
1104.737126456726,1959
1106.9058300000124,2009
1109.0739530525475,2013
1111.2414958483764,2003
1113.4084586216231,1948
1115.5748416064907,1977
1117.7406450372605,2006
1119.9058691482942,1953
1122.0705141740304,2032
1124.2345803489884,1957
1126.3980679077658,1989
1128.5609770850388,2045
1130.7233081155623,2022
1132.8850612341707,1988
1135.0462366757774,2018
1137.2068346753745,2003
1139.3668554680326,1985
1141.526299288901,1956
1143.68516637321,1989
1145.8434569562655,1999
1148.001171273455,1945
1150.158309560244,2025
1152.3148720521767,1954
1154.470858984876,2002
1156.626270594044,2019
1158.7811071154629,1923
1160.9353687849912,1980
1163.089055838569,2011
1165.242168512213,1976
1167.3947070420209,1940
1169.5466716641677,1937
1171.6980626149075,2002
1173.8488801305748,1977
1175.9991244475814,2004
1178.1487958024186,1992
1180.2978944316555,1971
1182.4464205719428,1980
1184.5943744600072,1993
1186.7417563326567,1894
1188.8885664267755,1907
1191.0348049793297,1931
1193.1804722273619,1948
1195.325568407995,1962
1197.4700937584303,1947
1199.614048515948,1945
1201.7574329179074,1981
1203.900247201746,2035
1206.042491604982,1973
1208.1841663652099,2038
1210.3252717201053,1970
1212.465807907422,2074
1214.6057751649923,1963
1216.7451737307279,2032
1218.8840038426192,2007
1221.0222657387353,2019
1223.1599596572241,2029
1225.2970858363137,1999
1227.4336445143094,2008
1229.5696359295966,2023
1231.705060320639,2068
1233.8399179259786,2067
1235.9742089842384,2074
1238.107933734118,2083
1240.2410924143974,2032
1242.373685263935,2043
1244.5057125216676,2029
1246.6371744266116,2007
1248.7680712178621,2100
1250.898403134593,2044
1253.028170416058,2065
1255.1573733015875,2009
1257.2860120305932,2039
1259.4140868425648,2088
1261.54159797707,2112
1263.6685456737569,2066
1265.7949301723515,2098
1267.9207517126597,2086
1270.046010534565,2114
1272.1707068780306,2071
1274.2948409830983,2129
1276.4184130898889,2135
1278.541423438603,2159
1280.6638722695184,2165
1282.785759822993,2144
1284.9070863394636,2102
1287.0278520594447,2144
1289.1480572235314,2278
1291.2677020723963,2275
1293.3867868467923,2244
1295.5053117875495,2214
1297.623277135579,2301
1299.740683131868,2242
1301.8575300174857,2274
1303.973818033578,2314
1306.0895474213703,2288
1308.2047184221678,2311
1310.3193312773528,2293
1312.4333862283888,2317
1314.5468835168163,2240
1316.659823384255,2282
1318.7722060724045,2304
1320.8840318230418,2376
1322.9953008780249,2253
1325.1060134792888,2369
1327.2161698688478,2386
1329.3257702887959,2302
1331.4348149813054,2273
1333.5433041886276,2323
1335.6512381530933,2336
1337.7586171171101,2279
1339.8654413231675,2290
1341.9717110138317,2312
1344.0774264317488,2333
1346.1825878196432,2238
1348.2871954203192,2305
1350.3912494766587,2319
1352.4947502316231,2273
1354.5976979282532,2211
1356.7000928096686,2192
1358.8019351190665,2230
1360.9032250997243,2234
1363.0039629949988,2273
1365.1041490483235,2280
1367.2037835032133,2256
1369.3028666032606,2097
1371.401398592137,2273
1373.4993797135926,2262
1375.5968102114575,2308
1377.6936903296396,2289
1379.7900203121262,2228
1381.8858004029835,2252
1383.9810308463561,2263
1386.075711886469,2272
1388.1698437676241,2311
1390.2634267342032,2258
1392.356461030667,2299
1394.4489469015557,2296
1396.5408845914872,2286
1398.6322743451592,2294
1400.7231164073469,2225
1402.813411022907,2254
1404.903158436773,2336
1406.9923588939578,2234
1409.0810126395531,2320
1411.1691199187303,2311
1413.2566809767386,2310
1415.343696058907,2371
1417.4301654106425,2339
1419.5160892774315,2359
1421.6014679048399,2365
1423.6863015385125,2322
1425.7705904241707,2339
1427.8543348076178,2399
1429.9375349347342,2413
1432.0201910514802,2363
1434.102303403894,2447
1436.1838722380944,2343
1438.2648978002767,2463
1440.3453803367174,2454
1442.4253200937692,2443
1444.5047173178677,2461
1446.5835722555234,2495
1448.6618851533285,2543
1450.739656257952,2586
1452.8168858161434,2640
1454.8935740747306,2668
1456.96972128062,2622
1459.045327680797,2666
1461.120393522327,2756
1463.1949190523528,2794
1465.2689045180973,2785
1467.3423501668608,2812
1469.415256246024,2788
1471.4876230030463,2934
1473.559450685465,2811
1475.6307395408976,2984
1477.7014898170391,2963
1479.771701761665,2999
1481.8413756226287,3002
1483.9105116478618,2994
1485.9791100853772,3042
1488.0471711832643,3036
1490.1146951896926,3158
1492.1816823529098,3152
1494.2481329212433,3213
1496.3140471430984,3267
1498.3794252669609,3206
1500.4442675413939,3280
1502.5085742150404,3235
1504.572345536622,3367
1506.6355817549388,3301
1508.6982831188702,3425
1510.7604498773744,3313
1512.8220822794883,3376
1514.8831805743293,3430
1516.9437450110909,3398
1519.003775839048,3485
1521.0632733075522,3469
1523.1222376660367,3455
1525.1806691640113,3534
1527.2385680510652,3634
1529.2959345768668,3728
1531.3527689911643,3582
1533.4090715437833,3764
1535.4648424846291,3764
1537.5200820636855,3723
1539.5747905310159,3806
1541.6289681367616,3668
1543.6826151311434,3923
1545.7357317644614,3924
1547.7883182870937,3981
1549.8403749494987,4010
1551.8919020022113,3913
1553.9428996958477,4067
1555.9933682811015,4194
1558.0433080087469,4278
1560.0927191296346,4222
1562.1416018946961,4233
1564.1899565549415,4267
1566.2377833614592,4362
1568.2850825654164,4254
1570.3318544180606,4246
1572.3780991707158,4176
1574.423817074788,4094
1576.4690083817595,4025
1578.5136733431923,3832
1580.5578122107272,3674
1582.601425236085,3615
1584.6445126710646,3379
1586.6870747675434,3315
1588.7291117774776,3292
1590.7706239529034,3109
1592.8116115459347,3007
1594.8520748087658,2998
1596.8920139936686,2901
1598.9314293529933,2927
1600.9703211391711,2723
1603.008689604711,2718
1605.0465350022005,2705
1607.0838575843068,2599
1609.1206576037753,2719
1611.1569353134305,2554
1613.1926909661765,2554
1615.2279248149953,2584
1617.2626371129481,2512
1619.2968281131757,2392
1621.3304980688963,2403
1623.3636472334088,2454
1625.39627586009,2336
1627.428384202396,2259
1629.459972513861,2299
1631.4910410480993,2346
1633.5215900588028,2330
1635.551619799744,2189
1637.5811305247717,2199
1639.6101224878166,2288
1641.6385959428862,2213
1643.6665511440683,2213
1645.693988345528,2210
1647.7209078015112,2203
1649.7473097663405,2256
1651.7731944944203,2142
1653.7985622402307,2234
1655.823413258333,2136
1657.847747803366,2183
1659.8715661300494,2168
1661.8948684931793,2256
1663.9176551476316,2182
1665.9399263483624,2186
1667.9616823504057,2147
1669.982923408873,2243
1672.0036497789574,2138
1674.0238617159293,2178
1676.043559475138,2165
1678.0627433120121,2123
1680.081413482059,2193
1682.0995702408654,2179
1684.117213844096,2136
1686.134344547495,2148
1688.1509626068864,2074
1690.1670682781705,2169
1692.182661817329,2174
1694.1977434804217,2148
1696.2123135235875,2127
1698.226372203043,2071
1700.2399197750851,2198
1702.2529564960905,2191
1704.2654826225112,2196
1706.277498410882,2148
1708.2890041178139,2240
1710.2999999999988,2120
1712.3104863142066,2195
1714.3204633172854,2091
1716.329931266163,2218
1718.3388904178469,2166
1720.3473410294214,2194
1722.3552833580516,2178
1724.3627176609807,2132
1726.3696441955308,2116
1728.3760632191033,2148
1730.3819749891782,2148
1732.3873797633146,2142
1734.3922777991502,2099
1736.3966693544012,2076
1738.4005546868639,2066
1740.4039340544127,2075
1742.406807715001,2111
1744.4091759266616,2128
1746.4110389475054,2090
1748.4123970357223,2120
1750.413250449582,2016
1752.4135994474318,2082
1754.4134442876993,2067
1756.4127852288902,2114
1758.4116225295893,2099
1760.4099564484595,2100
1762.407787244244,2104
1764.405115175764,2119
1766.4019405019203,2079
1768.3982634816916,2043
1770.3940843741357,2114
1772.3894034383907,2048
1774.3842209336717,2056
1776.378537119274,1988
1778.372352254571,2024
1780.3656665990156,2044
1782.3584804121397,2029
1784.3507939535534,1994
1786.3426074829463,2132
1788.3339212600863,2021
1790.3247355448211,2080
1792.3150505970766,2051
1794.3048666768573,2127
1796.2941840442477,2096
1798.2830029594106,2081
1800.2713236825884,2116
1802.2591464741004,2046
1804.2464715943465,2072
1806.2332993038058,2047
1808.2196298630352,2074
1810.2054635326708,2094
1812.190800573428,2083
1814.175641246101,2057
1816.1599858115628,2112
1818.1438345307652,2078
1820.127187664738,2111
1822.1100454745924,1981
1824.092408221516,2002
1826.0742761667766,2101
1828.055649571721,2099
1830.0365286977735,2065
1832.0169138064398,2094
1833.9968051593014,2085
1835.9762030180214,2092
1837.9551076443408,2042
1839.9335193000788,2031
1841.9114382471344,2041
1843.888864747485,2044
1845.8657990631878,2050
1847.842241456378,1987
1849.8181921892697,2075
1851.7936515241558,2048
1853.7686197234098,2006
1855.7430970494815,2048
1857.7170837649014,2047
1859.6905801322787,2065
1861.6635864143004,2122
1863.6361028737338,2056
1865.608129773424,2115
1867.5796673762961,2023
1869.5507159453537,2058
1871.521275743678,2048
1873.4913470344313,2082
1875.4609300808534,2054
1877.4300251462632,2085
1879.3986324940588,2095
1881.366752387717,2169
1883.3343850907936,2083
1885.3015308669228,2128
1887.268189979819,2102
1889.2343626932739,2089
1891.2000492711595,2101
1893.1652499774254,2089
1895.1299650761011,2035
1897.0941948312952,2098
1899.0579395071945,2141
1901.0211993680641,2120
1902.98397467825,2133
1904.9462657021745,2184
1906.9080727043415,2137
1908.869395949332,2089
1910.8302357018065,2013
1912.790592226504,2039
1914.7504657882428,2061
1916.7098566519212,2125
1918.6687650825133,2139
1920.6271913450764,2132
1922.5851357047422,2100
1924.5425984267245,2044
1926.499579776314,2100
1928.4560800188833,2052
1930.4120994198802,2136
1932.367638244833,2055
1934.32269675935,2043
1936.2772752291175,2091
1938.231373919899,2027
1940.1849930975404,2071
1942.1381330279637,2063
1944.0907939771696,2045
1946.0429762112412,2110
1947.9946799963363,2076
1949.9459055986945,2067
1951.896653284633,2067
1953.8469233205478,2070
1955.7967159729142,2120
1957.7460315082863,2070
1959.6948701932974,2031
1961.6432322946594,2005
1963.5911180791632,2067
1965.5385278136787,2029
1967.4854617651545,2149
1969.4319202006182,2076
1971.377903387176,2075
1973.3234115920136,2088
1975.268445082395,2135
1977.2130041256642,2082
1979.1570889892423,2100
1981.1006999406304,2126
1983.04383724741,2064
1984.986501177238,2017
1986.928691997853,2078
1988.8704099770712,2121
1990.811655382789,2109
1992.7524284829801,2047
1994.692729545698,2036
1996.6325588390755,2083
1998.5719166313224,2048
2000.5108031907307,2100
2002.4492187856677,2032
2004.387163684583,1983
2006.3246381560011,2074
2008.2616424685298,2092
2010.1981768908527,2059
2012.1342416917332,2042
2014.069837140014,1992
2016.0049635046162,2018
2017.9396210545406,1975
2019.8738100588666,2040
2021.8075307867502,2018
2023.740783507431,2016
2025.6735684902228,2069
2027.6058860045214,2033
2029.5377363198004,2001
2031.4691197056118,2015
2033.4000364315875,2053
2035.3304867674374,2037
2037.260470982952,2007
2039.189989347998,2015
2041.1190421325232,2026
2043.047629606554,2071
2044.9757520401945,2014
2046.9034097036288,2031
2048.8306028671195,2077
2050.7573318010086,2018
2052.683596775716,2052
2054.609398061742,2116
2056.5347359296647,2084
2058.4596106501403,2115
2060.384022493906,2065
2062.3079717317764,2034
2064.231458634646,2040
2066.1544834734873,1997
2068.077046519352,2037
2069.99914804337,2121
2071.9207883167524,1980
2073.8419676107865,2035
2075.7626861968406,1996
2077.6829443463607,1957
2079.6027423308715,2033
2081.522080421977,2045
2083.440958891362,2054
2085.359378010786,2058
2087.2773380520907,2014
2089.194839287196,2026
2091.111881988101,2059
2093.0284664268825,1977
2094.9445928756973,2073
2096.86026160678,2125
2098.775472892446,2045
2100.690227005088,2041
2102.604524217178,2114
2104.5183648012676,2093
2106.431749029985,2116
2108.34467717604,2048
2110.2571495122206,2075
2112.169166311393,2004
2114.080727846503,2107
2115.9918343905747,2030
2117.902486216711,2032
2119.8126835980956,2120
2121.722426807987,2129
2123.6317161197285,2085
2125.5405518067364,2072
2127.448934142509,2044
2129.356863400624,2081
2131.264339854737,2151
2133.1713637785815,2101
2135.077935445972,2122
2136.9840551308002,2110
2138.889723107037,2065
2140.7949396487334,2072
2142.699705030018,2154
2144.6040195250994,2151
2146.507883408264,2167
2148.4112969538774,2121
2150.3142604363848,2096
2152.2167741303097,2157
2154.1188383102535,2122
2156.0204532508997,2087
2157.9216192270064,2126
2159.822336513414,2089
2161.7226053850413,2139
2163.622426116884,2179
2165.5217989840185,2088
2167.4207242616,2137
2169.319202224862,2082
2171.2172331491165,2077
2173.1148173097563,2084
2175.0119549822507,2144
2176.90864644215,2116
2178.8048919650823,2146
2180.7006918267534,2070
2182.596046302952,2093
2184.4909556695407,2120
2186.3854202024645,2132
2188.279440177746,2127
2190.173015871487,2121
2192.066147559868,2126
2193.958835519149,2070
2195.851080025667,2112
2197.7428813558417,2088
2199.6342397861667,2192
2201.5251555932186,2127
2203.415629053651,2133
2205.3056604441986,2133
2207.19525004167,2174
2209.084398122958,2138
2210.9731049650327,2211
2212.861370844941,2140
2214.749196039812,2163
2216.636580826851,2220
2218.523525483344,2125
2220.410030286655,2226
2222.296095514226,2135
2224.1817214435805,2074
2226.066908352319,2220
2227.951656518121,2163
2229.835966218746,2200
2231.71983773203,2144
2233.6032713358913,2155
2235.486267308324,2197
2237.3688259274036,2157
2239.2509474712824,2225
2241.132632218193,2182
2243.013880446447,2209
2244.8946924344323,2209
2246.7750684606203,2109
2248.6550088035574,2116
2250.534513741871,2097
2252.413583554265,2142
2254.292218519526,2171
2256.170418916517,2138
2258.0481850241786,2074
2259.925517121534,2170
2261.8024154876825,2192
2263.678880401803,2162
2265.5549121431536,2203
2267.430510991071,2181
2269.305677224971,2136
2271.180411124348,2071
2273.0547129687766,2180
2274.9285830379076,2143
2276.8020216114737,2149
2278.6750289692845,2091
2280.5476053912294,2218
2282.4197511572766,2119
2284.2914665474727,2217
2286.162751841943,2148
2288.0336073208937,2213
2289.904033264608,2129
2291.774029953448,2160
2293.6435976678554,2215
2295.5127366883517,2110
2297.381447295534,2170
2299.2497297700825,2101
2301.1175843927526,2073
2302.9850114443825,2052
2304.852011205885,2020
2306.7185839582553,2079
2308.5847299825664,2064
2310.4504495599676,2018
2312.3157429716925,2073
2314.1806104990483,2000
2316.0450524234247,2061
2317.9090690262888,1984
2319.772660589186,2124
2321.635827393742,1993
2323.498569721661,2037
2325.3608878547248,2033
2327.2227820747967,2013
2329.0842526638157,1996
2330.945299903803,2042
2332.805924076857,2068
2334.6661254651535,2078
2336.525904350951,1992
2338.3852610165827,2028
2340.244195744464,2043
2342.102708817088,1979
2343.9608005170253,2038
2345.8184711269287,2037
2347.675720929526,2039
2349.532550207628,2010
2351.38895924412,2098
2353.24494832197,2159
2355.100517724223,2037
2356.955667734004,2012
2358.810398634514,2066
2360.664710709037,2141
2362.5186042409337,2093
2364.3720795136437,2101
2366.225136810686,2046
2368.0777764156583,2063
2369.929998612237,2111
2371.7818036841777,2123
2373.633191915315,2070
2375.484163589562,2036
2377.3347189909114,2092
2379.184858403434,2051
2381.03458211128,2050
2382.8838903986775,2024
2384.732783549936,2061
2386.5812618494406,2091
2388.4293255816588,2048
2390.2769750311327,2069
2392.1242104824883,2096
2393.971032220427,2006
2395.8174405297295,2092
2397.6634356952563,2127
2399.509018001947,2088
2401.3541877348193,2011
2403.1989451789705,2050
2405.043290619576,2008
2406.8872243418905,2100
2408.730746631247,2048
2410.5738577730594,2051
2412.4165580528183,2082
2414.258847756095,2055
2416.100727168537,2034
2417.9421965758734,2067
2419.783256263912,2146
2421.623906518538,1980
2423.4641476257157,2075
2425.303979871491,2090
2427.143403541984,2080
2428.9824189233977,2110
2430.821026302012,2023
2432.6592259641866,2036
2434.497018196361,2055
2436.33440328505,2083
2438.171381516851,2018
2440.00795317844,2032
2441.844118556569,1973
2443.6798779380724,2069
2445.5152316098606,2060
2447.3501798589255,2139
2449.1847229723357,2119
2451.0188612372403,2066
2452.8525949408663,2077
2454.6859243705203,2109
2456.518849813587,2040
2458.3513715575314,2140
2460.183489889895,2125
2462.015205098301,2151
2463.8465174704493,2141
2465.67742729412,2080
2467.5079348571717,2152
2469.338040447542,2106
2471.1677443532476,2099
2472.9970468623833,2052
2474.825948263123,2176
2476.6544488437207,2086
2478.482548892508,2129
2480.310248697896,2135
2482.137548548374,2048
2483.9644487325118,2080
2485.790949538956,2153
2487.617051256433,2165
2489.44275417375,2073
2491.26805857979,2144
2493.0929647635157,2142
2494.917473013971,2134
2496.741583620276,2116
2498.5652968716304,2104
2500.3886130573137,2206
2502.2115324666834,2140
2504.0340553891765,2064
2505.856182114308,2097
2507.6779129316733,2023
2509.499248130945,2115
2511.3201880018764,2161
2513.140732834298,2146
2514.9608829181198,2124
2516.780638543331,2100
2518.6,2070
2520.418967578273,2060
2522.237541568376,2126
2524.0557222606144,2147
2525.8735099453706,2162
2527.6909049131086,2195
2529.507907454368,2193
2531.32451785977,2185
2533.140736420014,2229
2534.9565634258774,2168
2536.771999168218,2208
2538.5870439379714,2262
2540.4016980261526,2240
2542.2159617238544,2213
2544.02983532225,2208
2545.8433191125914,2248
2547.656413386209,2253
2549.4691184345115,2292
2551.2814345489874,2232
2553.093362021204,2271
2554.904901142808,2289
2556.716052205523,2204
2558.526815501153,2313
2560.3371913215824,2344
2562.147179958771,2320
2563.956781704761,2362
2565.7659968516705,2383
2567.5748256916986,2325
2569.3832685171224,2304
2571.1913256202984,2352
2572.9989972936614,2302
2574.806283829725,2365
2576.613185521084,2298
2578.4197026604074,2414
2580.2258355404483,2358
2582.031584454035,2382
2583.836949694077,2378
2585.6419315535613,2400
2587.4465303255533,2472
2589.2507463032002,2370
2591.0545797797245,2413
2592.8580310484303,2342
2594.6611004026995,2401
2596.463788135992,2392
2598.266094541849,2476
2600.0680199138874,2508
2601.869564545807,2477
2603.670728731383,2469
2605.4715127644704,2351
2607.2719169390048,2417
2609.071941548998,2470
2610.8715868885433,2439
2612.670853251811,2426
2614.469740933052,2387
2616.268250226594,2331
2618.0663814268455,2512
2619.864134828292,2433
2621.6615107255006,2398
2623.458509413115,2437
2625.2551311858597,2421
2627.0513763385347,2363
2628.8472451660223,2350
2630.6427379632833,2367
2632.4378550253564,2368
2634.232596647359,2389
2636.026963124488,2360
2637.8209547520187,2357
2639.6145718253065,2391
2641.407814639785,2349
2643.200683490966,2352
2644.9931786744414,2319
2646.7853004858807,2360
2648.577049221034,2303
2650.3684251757277,2339
2652.1594286458712,2311
2653.9500599274484,2325
2655.740319316525,2205
2657.5302071092437,2252
2659.3197236018286,2255
2661.10886909058,2227
2662.8976438718782,2235
2664.686048242183,2263
2666.4740824980327,2213
2668.2617469360443,2274
2670.0490418529134,2166
2671.8359675454153,2240
2673.622524310403,2194
2675.408712444811,2119
2677.1945322456495,2205
2678.979984010009,2087
2680.76506803506,2207
2682.5497846180497,2183
2684.334134056306,2153
2686.1181166472343,2198
2687.9017326883213,2115
2689.6849824771293,2138
2691.4678663113013,2140
2693.2503844885596,2188
2695.032537306705,2071
2696.8143250636167,2170
2698.5957480572542,2129
2700.3768065856534,2190
2702.1575009469316,2149
2703.937831439283,2097
2705.717798360982,2086
2707.4974020103837,2145
2709.276642685917,2117
2711.055520686095,2100
2712.834036309506,2103
2714.612189854819,2081
2716.389981620782,2057
2718.1674119062204,2056
2719.944481010041,2101
2721.721189231226,2035
2723.4975368688415,2034
2725.273524222027,2097
2727.0491515900053,2106
2728.824419272075,2110
2730.5993275676146,2072
2732.3738767760838,2012
2734.148067197016,2050
2735.921899130031,2019
2737.6953728748194,2075
2739.468488731156,2160
2741.2412469988926,2061
2743.0136479779617,2124
2744.785691968372,2021
2746.5573792702116,2078
2748.3287101836504,2045
2750.099685008934,2003
2751.870304046388,2004
2753.640567596418,2032
2755.4104759595057,2002
2757.1800294362156,1976
2758.949228327187,2055
2760.7180729331412,2056
2762.486563554877,2001
2764.254700493272,2012
2766.022484049284,2080
2767.789914523947,2017
2769.5569922183786,2021
2771.3237174337705,2022
2773.090090471394,2077
2774.8561116326036,2032
2776.6217812188274,2109
2778.3870995315756,1975
2780.1520668724356,2040
2781.9166835430747,2039
2783.6809498452394,2032
2785.444866080754,2096
2787.2084325515225,1966
2788.971649559527,2071
2790.73451740683,2030
2792.4970363955713,2031
2794.2592068279705,1973
2796.0210290063264,2022
2797.7825032330147,2040
2799.543629810493,2066
2801.304409041296,2039
2803.0648412280366,2006
2804.8249266734088,2045
2806.5846656801846,2067
2808.344058551212,1996
2810.1031055894246,2018
2811.8618070978273,2013
2813.6201633795085,2058
2815.378174737636,2045
2817.1358414754536,2115
2818.893163896285,2036
2820.6501423035334,2065
2822.4067770006814,2006
2824.1630682912883,2034
2825.9190164789957,2055
2827.6746218675207,1969
2829.429884760661,2069
2831.184805462294,2094
2832.9393842763743,2054
2834.693621506936,2065
2836.4475174580916,2028
2838.201072434034,2009
2839.954286739034,2021
2841.707160677441,2139
2843.459694553685,2139
2845.2118886722724,2066
2846.96374333779,2030
2848.7152588549034,2082
2850.4664355283567,2009
2852.217273662973,2061
2853.9677735636546,2081
2855.7179355353833,2063
2857.4677598832186,2076
2859.217246912299,2045
2860.9663969278427,2060
2862.715210235146,2043
2864.4636871395846,2082
2866.211827946614,2071
2867.9596329617652,2077
2869.7071024906536,2048
2871.4542368389684,2014
2873.20103631248,2037
2874.947501217038,2108
2876.6936318585695,2065
2878.4394285430812,2071
2880.1848915766604,2101
2881.9300212654707,2096
2883.6748179157553,2019
2885.4192818338374,2078
2887.1634133261173,2043
2888.907212699077,2057
2890.6506802592744,1999
2892.393816313348,2086
2894.1366211680142,2005
2895.8790951300693,2077
2897.621238506388,2032
2899.363051603925,2067
2901.1045347297118,2083
2902.8456881908596,2070
2904.58651229456,2032
2906.327007348081,2024
2908.067173658772,2010
2909.8070115340597,2054
2911.5465212814497,2021
2913.285703208527,2032
2915.0245576229563,2071
2916.7630848324807,1970
2918.5012851449196,2047
2920.2391588681758,2047
2921.976706310227,2048
2923.7139277791334,2055
2925.4508235830313,2049
2927.187394030137,2100
2928.923639428745,2102
2930.6595600872306,1976
2932.395156314046,2070
2934.1304284177218,2085
2935.8653767068713,2051
2937.6000014901815,2033
2939.3343030764227,2033
2941.068281774442,2034
2942.8019378931644,2093
2944.5352717415976,2145
2946.2682836288236,2077
2948.0009738640065,2131
2949.7333427563885,2114
2951.465390615289,2090
2953.1971177501086,2000
2954.9285244703265,2118
2956.6596110855,2059
2958.3903779052657,2063
2960.1208252393385,1970
2961.8509533975125,2071
2963.5807626896617,1986
2965.3102534257378,2006
2967.0394259157715,2022
2968.768280469873,2067
2970.496817398232,2048
2972.2250370111146,2059
2973.952939618869,2055
2975.6805255319196,2132
2977.4077950607707,2050
2979.134748516006,2059
2980.861386208289,2061
2982.587708448359,2051
2984.313715547037,2112
2986.039407815222,2065
2987.764785563891,2146
2989.489849104102,2118
2991.2145987469908,2085
2992.9390348037705,2028
2994.6631575857346,2081
2996.3869674042576,2097
2998.1104645707887,2104
2999.83364939686,2050
3001.5565221940783,2024
3003.2790832741334,2042
3005.0013329487924,2145
3006.7232715298996,2035
3008.4448993293804,2039
3010.166216659239,2067
3011.887223831558,2082
3013.607921158498,2050
3015.3283089522993,2067
3017.0483875252826,2014
3018.7681571898443,2056
3020.4876182584626,2057
3022.2067710436927,2094
3023.9256158581707,2049
3025.644153014609,2017
3027.362382825801,2008
3029.0803056046193,2049
3030.797921664012,2101
3032.5152313170106,2105
3034.2322348767225,2041
3035.9489326563353,2054
3037.665324969115,2049
3039.3814121284063,2107
3041.097194447633,2102
3042.812672240299,2070
3044.5278458199855,2036
3046.2427155003525,1980
3047.9572815951406,2088
3049.671544418167,2021
3051.38550428333,2123
3053.0991615046073,2045
3054.812516396051,2043
3056.5255692717974,2044
3058.2383204460575,1982
3059.9507702331257,2064
3061.662918947372,2083
3063.3747669032446,2035
3065.0863144152736,2007
3066.7975617980674,2051
3068.508509366309,2070
3070.219157434767,2039
3071.9295063182844,2123
3073.639556331785,1986
3075.3493077902704,2043
3077.058761008821,2079
3078.7679163025964,2112
3080.476773986837,2108
3082.1853343768594,2111
3083.89359778806,2058
3085.6015645359153,2004
3087.3092349359786,2057
3089.016609303884,2090
3090.7236879553434,1952
3092.4304712061476,2015
3094.136959372166,2076
3095.843152769349,2041
3097.5490517137237,2126
3099.2546565213966,2089
3100.959967508554,2069
3102.66498499146,2020
3104.3697092864577,2046
3106.0741407099695,2128
3107.778279578498,2036
3109.482126208622,2022
3111.1856809170004,2082
3112.8889440203716,2072
3114.5919158355528,2054
3116.294596679439,2060
3117.996986869006,2065
3119.6990867213062,2112
3121.4008965534726,2079
3123.102416682717,2118
3124.803647426329,2091
3126.5045891016784,2036
3128.205242026213,2089
3129.90560651746,2098
3131.605682893025,2063
3133.3054714705922,2053
3135.0049725679282,2180
3136.7041865028714,2085
3138.4031135933465,2070
3140.101754157353,2171
3141.800108512971,2084
3143.498176978357,2027
3145.1959598717494,2087
3146.8934575114636,2064
3148.5906702158954,2093
3150.2875983035183,2035
3151.9842420928853,2098
3153.680601902627,2088
3155.376678051456,2118
3157.07247085816,2078
3158.767980641609,2065
3160.463207720748,2033
3162.158152414606,2038
3163.8528150422862,2084
3165.5471959229726,2033
3167.2412953759303,2025
3168.9351137204976,1970
3170.628651276098,2088
3172.3219083622307,2034
3174.014885298474,2124
3175.707582404485,2177
3177.4000000000005,2086
3179.092138404835,1994
3180.7839979388846,2051
3182.47557892212,2111
3184.166881674594,2116
3185.8579065164386,2173
3187.5486537678626,2170
3189.2391237491547,2082
3190.9293167806827,2072
3192.6192331828934,2049
3194.3088732763117,2060
3195.998237381542,2088
3197.687325819268,1999
3199.376138910251,2080
3201.064676975334,2056
3202.7529403354347,2053
3204.4409293115523,2042
3206.1286442247647,1999
3207.816085396229,1939
3209.5032531471825,2040
3211.190147798936,2026
3212.8767696728846,2031
3214.5631190905015,2049
3216.2491963733373,2084
3217.9350018430214,2020
3219.6205358212637,2087
3221.305798629851,2055
3222.990790590651,2001
3224.6755120256103,1931
3226.359963256751,2025
3228.0441446061795,2059
3229.7280563960758,1985
3231.411698948703,2082
3233.0950725863995,2047
3234.778177631587,2097
3236.461014406761,2061
3238.1435832345005,2042
3239.8258844374595,2102
3241.507918338374,2097
3243.1896852600576,2108
3244.8711855254023,2080
3246.552419457381,2114
3248.233387379042,2036
3249.914089613516,2050
3251.59452648401,2018
3253.274698313813,2095
3254.95460542629,2033
3256.6342481448855,1974
3258.313626793125,1985
3259.9927416946084,2034
3261.6715931730196,2040
3263.3501815521176,2061
3265.0285071557437,1992
3266.706570307815,2022
3268.3843713323286,1984
3270.0619105533615,2043
3271.739188295068,2066
3273.4162048816834,2019
3275.0929606375184,2116
3276.769455886966,2051
3278.445690954498,2114
3280.1216661646613,2108
3281.797381842087,2120
3283.4728383114807,2063
3285.1480358976296,2098
3286.8229749253996,2168
3288.4976557197333,2126
3290.172078605655,2030
3291.846243908266,2073
3293.5201519527463,2046
3295.193803064357,2056
3296.8671975684374,2035
3298.5403357904024,2049
3300.21321805575,2038
3301.8858446900567,2117
3303.558216018975,2024
3305.23033236824,2090
3306.9021940636603,2118
3308.57380143113,2103
3310.2451547966184,2084
3311.916254486174,2071
3313.5871008259246,2056
3315.2576941420766,2051
3316.9280347609147,2117
3318.5981230088046,2059
3320.2679592121895,2006
3321.9375436975924,2015
3323.606876791612,2056
3325.27595882093,2022
3326.944790112305,2044
3328.6133709925753,2047
3330.2817017886573,2026
3331.949782827547,2016
3333.617614436319,2078
3335.2851969421245,2095
3336.952530672199,2019
3338.619615953853,2134
3340.286453114475,2058
3341.9530424815357,2054
3343.619384382583,2088
3345.2854791452437,2068
3346.951327097224,2070
3348.6169285663073,2100
3350.2822838803577,2101
3351.947393367319,2150
3353.61225735521,2088
3355.2768761721345,2060
3356.9412501462693,2035
3358.605379605873,2125
3360.2692648792827,1999
3361.9329062949146,2089
3363.596304181263,2034
