CollectionTime,9/19/2024 11:11:11 AM
ExposureUsed,3
CalibratedSpectrum
-962.7078968117929,1106
-959.9714848408522,1199
-957.2358232597828,1275
-954.5009119013725,1297
-951.7667505983302,1255
-949.0333391832855,1243
-946.3006774887896,1299
-943.5687653473143,1300
-940.837602591253,1223
-938.1071890529199,1265
-935.3775245645503,1238
-932.6486089583007,1256
-929.9204420662485,1255
-927.1930237203925,1269
-924.4663537526524,1241
-921.7404319948689,1275
-919.0152582788041,1228
-916.2908324361409,1233
-913.5671542984834,1224
-910.8442236973568,1257
-908.1220404642074,1251
-905.4006044304027,1234
-902.679915427231,1239
-899.959973285902,1194
-897.2407778375464,1193
-894.5223289132158,1268
-891.8046263438832,1239
-889.0876699604426,1269
-886.3714595937089,1274
-883.6559950744183,1234
-880.9412762332282,1229
-878.2273029007168,1184
-875.5140749073835,1215
-872.8015920836489,1270
-870.0898542598545,1188
-867.3788612662631,1241
-864.6686129330585,1267
-861.9591090903457,1252
-859.2503495681506,1263
-856.5423341964203,1209
-853.8350628050229,1184
-851.1285352237478,1206
-848.4227512823054,1207
-845.7177108103272,1307
-843.0134136373656,1278
-840.3098595928943,1244
-837.6070485063082,1222
-834.9049802069229,1280
-832.2036545239757,1273
-829.5030712866244,1183
-826.8032303239481,1200
-824.1041314649472,1207
-821.4057745385428,1232
-818.7081593735775,1164
-816.0112857988148,1230
-813.3151536429393,1235
-810.6197627345566,1242
-807.9251129021936,1260
-805.2312039742981,1199
-802.5380357792392,1280
-799.8456081453069,1285
-797.1539209007124,1273
-794.462973873588,1227
-791.772766891987,1206
-789.083299783884,1295
-786.3945723771743,1235
-783.7065844996748,1291
-781.0193359791231,1250
-778.3328266431781,1286
-775.6470563194197,1192
-772.9620248353489,1222
-770.2777320183878,1241
-767.5941776958798,1279
-764.9113616950891,1266
-762.2292838432011,1167
-759.5479439673222,1211
-756.8673418944801,1255
-754.1874774516235,1277
-751.5083504656222,1244
-748.8299607632671,1238
-746.15230817127,1275
-743.475392516264,1246
-740.7992136248035,1318
-738.1237713233636,1258
-735.4490654383407,1272
-732.7750957960521,1215
-730.1018622227365,1253
-727.4293645445534,1270
-724.7576025875837,1274
-722.0865761778291,1327
-719.4162851412126,1282
-716.7467293035781,1257
-714.0779084906909,1248
-711.409822528237,1318
-708.7424712418238,1322
-706.0758544569796,1296
-703.4099719991541,1402
-700.7448236937178,1346
-698.0804093659622,1298
-695.4167288411002,1358
-692.7537819442656,1326
-690.0915685005134,1374
-687.4300883348199,1390
-684.7693412720819,1355
-682.1093271371178,1293
-679.4500457546669,1311
-676.7914969493897,1310
-674.1336805458676,1319
-671.4765963686034,1313
-668.8202442420206,1335
-666.1646239904642,1336
-663.5097354382001,1349
-660.8555784094151,1334
-658.2021527282176,1393
-655.5494582186366,1329
-652.8974947046223,1428
-650.2462620100463,1415
-647.5957599587009,1387
-644.9459883742998,1357
-642.2969470804776,1381
-639.6486359007902,1408
-637.0010546587141,1414
-634.3542031776476,1403
-631.7080812809096,1431
-629.0626887917401,1417
-626.4180255333008,1342
-623.7740913286734,1393
-621.1308860008619,1369
-618.4884093727904,1404
-615.8466612673046,1338
-613.2056415071715,1365
-610.5653499150785,1377
-607.9257863136347,1494
-605.28695052537,1456
-602.6488423727357,1371
-600.0114616781036,1441
-597.3748082637674,1454
-594.7388819519412,1442
-592.1036825647604,1493
-589.4692099242818,1437
-586.8354638524829,1464
-584.2024441712624,1454
-581.5701507024403,1461
-578.9385832677575,1453
-576.3077416888759,1507
-573.6776257873787,1434
-571.0482353847704,1391
-568.4195703024757,1435
-565.7916303618415,1435
-563.164415384135,1483
-560.5379251905453,1496
-557.9121596021815,1433
-555.2871184400748,1451
-552.6628015251767,1500
-550.0392086783606,1480
-547.4163397204204,1513
-544.794194472071,1522
-542.1727727539491,1562
-539.5520743866118,1527
-536.9320991905377,1475
-534.3128469861261,1573
-531.6943175936979,1527
-529.0765108334947,1578
-526.4594265256793,1693
-523.8430644903358,1860
-521.2274245474689,1993
-518.612506517005,2068
-515.9983102187913,2053
-513.3848354725959,2118
-510.77208209810846,2258
-508.16004991493924,2293
-505.5487387426199,2247
-502.9381484006032,2321
-500.3282787082628,2309
-497.71912948489364,2203
-495.1107005497117,2032
-492.5029917218539,1890
-489.8960028203786,1830
-487.28973366426493,1702
-484.68418407241325,1690
-482.07935386364494,1691
-479.47524285670266,1585
-476.87185087025,1663
-474.2691777228715,1632
-471.66722323307334,1561
-469.0659872192821,1625
-466.4654694998459,1705
-463.86566989303384,1652
-461.26658821703614,1602
-458.66822428996414,1585
-456.07057792985,1662
-453.4736489546475,1647
-450.877437182231,1656
-448.28194243039627,1657
-445.68716451686,1622
-443.09310325926003,1552
-440.49975847515555,1507
-437.9071299820263,1597
-435.31521759727354,1554
-432.72402113821954,1574
-430.13354042210767,1681
-427.5437752661022,1678
-424.95472548728867,1689
-422.36639090267386,1655
-419.7787713291855,1727
-417.1918665836721,1620
-414.60567648290385,1681
-412.0202008435715,1687
-409.4354394822874,1748
-406.8513922155845,1706
-404.26805885991723,1675
-401.685439231661,1662
-399.103533147112,1680
-396.522340422488,1634
-393.9418608739278,1714
-391.3620943174908,1646
-388.7830405691583,1574
-386.2046994448317,1533
-383.6270707603344,1409
-381.05015433141045,1360
-378.473949973725,1319
-375.8984575028645,1152
-373.32367673433623,980
-370.74960748356875,991
-368.1762495659117,898
-365.60360279663576,843
-363.03166699093265,695
-360.4604419639154,628
-357.8899275306178,589
-355.32012350599507,582
-352.7510297049233,538
-350.1826459421999,546
-347.61497203254316,515
-345.04800779059235,504
-342.4817530309082,524
-339.91620756797226,558
-337.35137121618743,577
-334.7872437898774,519
-332.22382510328725,482
-329.66111497058273,488
-327.09911320585127,506
-324.53781962310075,487
-321.9772340362607,450
-319.4173562591816,506
-316.8581861056348,503
-314.2997233893127,535
-311.7419679238294,506
-309.1849195227194,521
-306.62857799943856,555
-304.0729431673641,529
-301.51801483979375,536
-298.963792829947,558
-296.41027695096386,568
-293.85746701590574,632
-291.3053628377552,656
-288.7539642294155,617
-286.2032710037115,663
-283.65328297338897,685
-281.1039999511146,715
-278.5554217494762,640
-276.007548180983,585
-273.4603790580651,594
-270.9139141930734,582
-268.3681533982807,648
-265.8230964858798,652
-263.27874326798565,721
-260.7350935566336,669
-258.1921471637804,755
-255.6499039013039,759
-253.10836358100266,739
-250.56752601459698,682
-248.02739101372765,718
-245.48795838995704,809
-242.94922795476816,792
-240.41119951956557,729
-237.8738728956746,693
-235.33724789434166,764
-232.80132432673452,786
-230.2661020039418,753
-227.73158073697357,763
-225.19776033676033,757
-222.66464061415422,824
-220.1322213799284,815
-217.60050244477725,799
-215.06948361931552,832
-212.53916471408013,946
-210.00954553952818,933
-207.48062590603843,877
-204.9524056239104,798
-202.4248845033651,859
-199.8980623545441,867
-197.37193898751036,920
-194.84651421224817,975
-192.32178783866232,891
-189.79775967657952,956
-187.27442953574644,1094
-184.7517972258321,1148
-182.2298625564256,1022
-179.7086253370378,832
-177.18808537710026,900
-174.66824248596583,1123
-172.14909647290835,1124
-169.6306471471229,1035
-167.11289431772548,966
-164.59583779375328,1090
-162.07947738416453,1298
-159.5638128978386,1470
-157.04884414357605,1469
-154.53457093009854,1434
-152.02099306604828,1204
-149.50811035998936,1020
-146.99592262040665,1301
-144.48442965570587,1478
-141.97363127421409,1669
-139.46352728417958,1840
-136.95411749377126,1625
-134.44540171107985,1261
-131.93737974411636,1102
-129.43005140081357,1350
-126.92341648902493,1746
-124.41747481652521,2227
-121.91222619101006,2656
-119.40767042009657,2562
-116.90380731132257,2167
-114.40063667214702,2742
-111.8981583099503,3272
-109.3963720320337,4302
-106.89527764561933,6204
-104.39487495785067,8465
-101.89516377579241,12562
-99.39614390642998,16827
-96.89781515667039,19101
-94.40017733334128,19750
-91.90323024319173,19358
-89.40697369289148,14571
-86.91140748903172,7465
-84.41653143812482,5147
-81.92234534660395,8756
-79.42884902082358,16174
-76.93604226705907,24253
-74.4439248915071,29124
-71.95249670028534,27727
-69.46175749943245,20610
-66.97170709490854,14180
-64.48234529259423,11328
-61.99367189829195,10822
-59.50568671772464,8674
-57.01838955653636,8725
-54.53178022029283,11366
-52.045858514480074,13503
-49.560624244506016,14683
-47.07607721569923,13955
-44.59221723330904,16700
-42.10904410250669,19430
-39.62655762838392,16951
-37.14475761595372,16644
-34.66364387015028,19510
-32.18321619582866,21673
-29.70347439776515,21056
-27.224418280657005,22475
-24.74604764912317,27560
-22.26836230770266,44018
-19.7913620608565,65034
-17.315046712966478,65034
-14.83941606833514,65034
-12.36446993118659,65034
-9.89020810566592,65034
-7.416630395839093,65034
-4.94373660569363,65034
-2.471526539137585,65034
-6.821210263296962E-13,65034
2.47084320796705,65034
4.941003281093458,65034
7.410480415786196,65034
9.879274808531363,65034
12.347386655893956,65034
14.814816154518212,65034
17.28156350112681,65034
19.74762889252179,65034
22.21301252558385,24112
24.67771459727237,6547
27.141735304626195,7349
29.605074844762612,6553
32.06773341487792,5415
34.52971121224755,5409
36.99100843422559,5123
39.45162527824516,4164
41.91156194181792,4690
44.370818622535126,4347
46.82939551806646,4171
49.287292826160524,6387
51.74451074464503,6084
54.201049471426245,4322
56.65690920448981,2979
59.112090141899785,2398
61.56659248179983,2771
64.02041642241159,2883
66.4735621620365,3261
68.92602989905402,3575
71.37781983192338,3676
73.82893215918205,2574
76.27936707944684,1716
78.72912479141326,1913
81.17820549385567,2309
83.62660938562783,2188
86.07433666566146,1723
88.5213875329681,1627
90.96776218663751,1764
93.41346082583925,2043
95.85848364982041,2404
98.30283085790859,2266
100.7465026495089,1887
103.18949922410604,1667
105.63182078126385,1218
108.07346752062438,1207
110.51443964190923,1088
112.95473734491827,1128
115.39436082953114,1299
117.83331029570547,1352
120.27158594347827,1517
122.7091879729652,1546
125.1461165843615,1380
127.58237197794062,1265
130.01795435405518,1275
132.4528639131364,1272
134.88710085569494,1198
137.32066538231982,1363
139.75355769367923,1317
142.1857779905207,1158
144.61732647366978,1077
147.04820334403132,1148
149.47840880258934,1088
151.90794305040674,1268
154.33680628862487,1372
156.76499871846443,1516
159.19252054122433,1691
161.61937195828352,1863
164.04555317109896,2053
166.47106438120693,2383
168.89590579022217,2646
171.320077599839,2858
173.7435800118302,2826
176.16641322804742,3011
178.58857745042144,3099
181.01007288096173,3219
183.43089972175687,3234
185.85105817497413,3244
188.27054844285988,3212
190.6893707277394,3261
193.10752523201643,3462
195.5250121581745,3456
197.9418317087751,3359
200.3579840864594,3303
202.7734694939469,3565
205.18828813403627,3704
207.6024402096051,3612
210.01592592360964,3730
212.42874547908548,3702
214.84089907914665,3669
217.2523869269868,3569
219.66320922587727,3643
222.0733661791695,3649
224.48285799029293,3597
226.8916848627572,3759
229.29984700014882,3854
231.7073446061355,3776
234.11417788446204,3766
236.520347038953,3898
238.92585227351185,4003
241.33069379212054,4013
243.73487179884035,3994
246.1383864978112,3928
248.541238093252,3954
250.9434267894609,4102
253.34495279081432,3992
255.74581630176783,3943
258.1460175268563,3966
260.54555667069314,4001
262.9444339379703,3987
265.3426495334594,4107
267.7402036620107,4131
270.1370965285529,3851
272.53332833809407,3718
274.9288992957214,3598
277.32380960660055,3686
279.718059475976,3721
282.1116491091717,3584
284.5045787115897,3542
286.89684848871195,3585
289.2884586460981,3480
291.67940938938807,3571
294.0697009242996,3705
296.4593334566299,3662
298.84830719225477,3562
301.23662233712923,3647
303.6242790972866,3543
306.01127767884,3509
308.39761828798066,3419
310.78330113097934,3543
313.16832641418534,3337
315.5526943440269,3387
317.9364051270112,3489
320.3194589697242,3453
322.70185607883093,3252
325.0835966610754,3375
327.4646809232805,3219
329.8451090723478,3188
332.2248813152577,3250
334.6039978590701,3238
336.9824589109231,3219
339.36026467803447,3228
341.7374153677,3065
344.113911187295,3150
346.48975234427337,3121
348.8649390461686,3207
351.2394715005918,3197
353.61334991523415,3102
355.9865744978655,3178
358.35914545633375,3261
360.73106299856715,3126
363.10232733257146,3211
365.47293866643247,3246
367.84289720831396,3205
370.2122031664593,3093
372.5808567491905,3144
374.9488581649083,3051
377.31620762209275,3136
379.6829053293021,3018
382.0489514951745,3080
384.4143463284262,3090
386.7790900378528,3065
389.14318283232853,3153
391.50662492080653,2984
393.86941651231916,3005
396.23155781597745,3053
398.5930490409713,3114
400.9538903965696,3033
403.3140820921202,3070
405.6736243370498,3032
408.03251734086336,2962
410.3907613131465,2931
412.74835646356166,2945
415.10530300185144,2978
417.4616011378372,2994
419.81725108141893,2888
422.1722530425758,2899
424.5266072313656,3117
426.880313857925,3008
429.2333731324701,3010
431.58578526529516,2938
433.9375504667738,2998
436.2886689473588,2946
438.63914091758113,3030
440.9889665880513,2927
443.33814616945835,3078
445.68667987257015,2942
448.03456790823395,2969
450.3818104873759,2967
452.72840782100013,2887
455.07436012019105,2893
457.41966759611057,2960
459.7643304600007,2898
462.10834892318155,2934
464.4517231970525,2921
466.79445349309174,2974
469.1365400228566,3026
471.4779829979826,2998
473.81878263018564,3020
476.15893913125876,2934
478.4984527130747,3098
480.8373235875855,3063
483.17555196682144,3108
485.5131380628919,3130
487.8500820879857,3217
490.1863842543697,3228
492.52204477439034,3239
494.8570638604725,3564
497.1914417251204,3670
499.52517858091653,3959
501.85827464052306,4442
504.19073011668036,4550
506.5225452222086,4656
508.85372017000566,4861
511.18425517304956,4905
513.514150444396,5688
515.8434061971808,6963
518.1720226446176,7884
520.4999999999999,7842
522.8273384766991,7557
525.1540382881666,7195
527.480099647932,6378
529.8055227696037,5226
532.1303078668694,4120
534.454455153496,3595
536.777964843328,3371
539.1008371502907,3295
541.4230722883866,3134
543.744670471698,3119
546.0656319143858,3182
548.3859568306899,3010
550.7056454349294,3050
553.0246979415016,3184
555.3431145648834,2973
557.6608955196306,2955
559.978041020377,2977
562.2945512818363,3050
564.6104265188006,3138
566.9256669461412,3053
569.2402727788082,3014
571.5542442318302,3124
573.8675815203156,3043
576.1802848594508,3111
578.4923544645015,3164
580.8037905508126,3146
583.114593333807,3132
585.4247630289875,3088
587.7342998519354,3130
590.0432040183106,3038
592.3514757438526,3133
594.6591152443794,3055
596.9661227357875,3081
599.2724984340531,2990
601.578242555231,3047
603.8833553154542,2999
606.1878369309362,3019
608.4916876179676,3027
610.7949075929192,3014
613.0974970722403,3198
615.3994562724587,3100
617.7007854101818,3095
620.0014847020951,3142
622.3015543649641,3145
624.6009946156324,3105
626.8998056710224,2979
629.1979877481361,3062
631.4955410640538,3097
633.7924658359349,3008
636.0887622810175,3220
638.3844306166192,3093
640.6794710601358,3077
642.9738838290426,3085
645.2676691408932,3113
647.5608272133207,3278
649.853358264037,3147
652.1452625108324,3165
654.4365401715764,3151
656.7271914642178,3233
659.0172166067838,3211
661.3066158173809,3198
663.5953893141935,3219
665.8835373154867,3226
668.1710600396028,3258
670.4579577049639,3264
672.7442305300709,3268
675.0298787335033,3244
677.3149025339197,3185
679.599302150058,3143
681.8830778007342,3222
684.1662297048437,3183
686.4487580813608,3245
688.7306631493387,3260
691.0119451279091,3243
693.2926042362834,3192
695.5726406937516,3218
697.8520547196814,3142
700.1308465335215,3170
702.4090163547982,3066
704.6865644031171,3153
706.9634908981619,3134
709.2397960596965,3153
711.5154801075631,3181
713.7905432616823,3265
716.0649857420548,3165
718.3388077687592,3153
720.612009561953,3289
722.8845913418733,3204
725.1565533288352,3206
727.427895743234,3117
729.6986188055427,3146
731.9687227363137,3166
734.238207756178,3181
736.5070740858458,3262
738.7753219461066,3143
741.0429515578281,3161
743.3099631419569,3200
745.5763569195191,3297
747.8421331116193,3197
750.1072919394409,3187
752.3718336242467,3197
754.6357583873777,3117
756.8990664502545,3272
759.1617580343765,3225
761.423833361321,3270
763.6852926527457,3277
765.9461361303862,3290
768.206364016058,3178
770.4659765316536,3260
772.7249738991469,3343
774.9833563405886,3301
777.2411240781092,3187
779.4982773339183,3266
781.7548163303044,3294
784.010741289634,3197
786.2660524343538,3184
788.5207499869881,3208
790.7748341701416,3280
793.0283052064964,3220
795.2811633188143,3289
797.5334087299362,3263
799.7850416627813,3282
802.0360623403484,3317
804.2864709857143,3302
806.5362678220353,3185
808.7854530725468,3334
811.0340269605625,3226
813.2819897094754,3299
815.5293415427581,3296
817.77608268396,3279
820.0222133567116,3213
822.2677337847211,3246
824.5126441917765,3326
826.7569448017433,3344
829.0006358385675,3402
831.2437175262731,3367
833.4861900889629,3401
835.7280537508192,3373
837.9693087361026,3273
840.2099552691533,3368
842.4499935743896,3354
844.689423876309,3303
846.9282463994886,3329
849.1664613685833,3339
851.4040690083276,3372
853.6410695435349,3265
855.877463199097,3322
858.1132501999847,3452
860.3484307712487,3331
862.5830051380175,3331
864.8169735254988,3333
867.0503361589791,3441
869.2830932638243,3255
871.5152450654786,3424
873.7467917894654,3353
875.9777336613873,3461
878.2080709069252,3453
880.4378037518389,3388
882.666932421968,3371
884.8954571432301,3392
887.1233781416219,3396
889.3506956432192,3389
891.5774098741766,3386
893.803521060728,3360
896.0290294291852,3401
898.2539352059397,3299
900.4782386174619,3390
902.7019398903011,3443
904.925039251085,3349
907.147536926521,3374
909.3694331433943,3335
911.59072812857,3425
913.8114221089921,3444
916.0315153116827,3377
918.2510079637437,3379
920.4699002923547,3221
922.6881925247761,3383
924.905884888345,3365
927.1229776104793,3376
929.3394709186747,3422
931.555365040506,3429
933.7706602036275,3417
935.9853566357709,3317
938.1994545647489,3472
940.4129542184515,3476
942.6258558248488,3528
944.8381596119883,3383
947.0498658079974,3465
949.2609746410825,3491
951.4714863395287,3442
953.6814011316998,3441
955.8907192460387,3424
958.0994409110671,3470
960.3075663553858,3527
962.5150958076741,3432
964.7220294966913,3465
966.928367651274,3493
969.1341105003388,3374
971.3392582728806,3354
973.5438111979742,3398
975.747769504772,3475
977.9511334225061,3416
980.153903180487,3378
982.3560790081052,3353
984.5576611348289,3343
986.7586497902058,3373
988.9590452038618,3394
991.158847605503,3362
993.3580572249133,3295
995.5566742919558,3282
997.7546990365728,3190
999.952131688785,3161
1002.1489724786926,3203
1004.3452216364743,3186
1006.5408793923874,3095
1008.7359459767691,3160
1010.9304216200343,3044
1013.1243065526781,3013
1015.3176010052733,3086
1017.510305208472,3094
1019.7024193930064,3087
1021.8939437896848,3050
1024.0848786293977,3131
1026.2752241431122,3134
1028.4649805618747,3208
1030.6541481168115,3219
1032.842727039127,3119
1035.0307175601051,3109
1037.2181199111074,3037
1039.4049343235752,2997
1041.591161029029,3112
1043.7768002590683,3084
1045.9618522453698,3052
1048.1463172196918,3037
1050.3301954138697,3091
1052.513487059818,3055
1054.69619238953,3091
1056.8783116350783,3088
1059.0598450286152,3059
1061.2407928023704,3096
1063.4211551886528,3202
1065.6009324198508,3057
1067.780124728432,3123
1069.9587323469414,3096
1072.1367555080046,3103
1074.314194444325,3099
1076.4910493886855,3013
1078.667320573947,3002
1080.843008233051,2970
1083.0181125990161,3148
1085.1926339049414,3018
1087.3665723840027,2985
1089.5399282694575,3182
1091.7127017946405,2974
1093.8848931929647,2987
1096.0565026979243,2956
1098.2275305430899,3105
1100.3979769621128,3019
1102.567842188722,2987
1104.737126456726,2950
1106.9058300000124,2974
1109.0739530525475,2977
1111.2414958483764,2887
1113.4084586216231,2907
1115.5748416064907,2977
1117.7406450372605,2982
1119.9058691482942,3045
1122.0705141740304,2986
1124.2345803489884,2958
1126.3980679077658,3069
1128.5609770850388,3077
1130.7233081155623,3025
1132.8850612341707,2942
1135.0462366757774,2963
1137.2068346753745,3034
1139.3668554680326,2963
1141.526299288901,3004
1143.68516637321,2990
1145.8434569562655,2983
1148.001171273455,3029
1150.158309560244,3029
1152.3148720521767,2957
1154.470858984876,2942
1156.626270594044,3113
1158.7811071154629,3053
1160.9353687849912,3091
1163.089055838569,2999
1165.242168512213,2955
1167.3947070420209,3030
1169.5466716641677,2994
1171.6980626149075,3039
1173.8488801305748,2993
1175.9991244475814,2978
1178.1487958024186,2987
1180.2978944316555,2918
1182.4464205719428,2990
1184.5943744600072,2868
1186.7417563326567,2874
1188.8885664267755,2966
1191.0348049793297,2875
1193.1804722273619,2954
1195.325568407995,3028
1197.4700937584303,2974
1199.614048515948,3051
1201.7574329179074,3057
1203.900247201746,2949
1206.042491604982,3051
1208.1841663652099,3042
1210.3252717201053,3003
1212.465807907422,3063
1214.6057751649923,3113
1216.7451737307279,3051
1218.8840038426192,3002
1221.0222657387353,2998
1223.1599596572241,2998
1225.2970858363137,3074
1227.4336445143094,3025
1229.5696359295966,3108
1231.705060320639,3062
1233.8399179259786,3061
1235.9742089842384,3117
1238.107933734118,3087
1240.2410924143974,3118
1242.373685263935,3023
1244.5057125216676,3103
1246.6371744266116,3092
1248.7680712178621,3092
1250.898403134593,3154
1253.028170416058,3072
1255.1573733015875,3174
1257.2860120305932,3047
1259.4140868425648,3113
1261.54159797707,3134
1263.6685456737569,3097
1265.7949301723515,3094
1267.9207517126597,3082
1270.046010534565,3150
1272.1707068780306,3124
1274.2948409830983,3224
1276.4184130898889,3154
1278.541423438603,3057
1280.6638722695184,3259
1282.785759822993,3104
1284.9070863394636,3178
1287.0278520594447,3160
1289.1480572235314,3271
1291.2677020723963,3194
1293.3867868467923,3307
1295.5053117875495,3309
1297.623277135579,3161
1299.740683131868,3283
1301.8575300174857,3290
1303.973818033578,3330
1306.0895474213703,3359
1308.2047184221678,3359
1310.3193312773528,3332
1312.4333862283888,3360
1314.5468835168163,3324
1316.659823384255,3413
1318.7722060724045,3383
1320.8840318230418,3347
1322.9953008780249,3378
1325.1060134792888,3325
1327.2161698688478,3365
1329.3257702887959,3337
1331.4348149813054,3290
1333.5433041886276,3398
1335.6512381530933,3344
1337.7586171171101,3300
1339.8654413231675,3357
1341.9717110138317,3230
1344.0774264317488,3291
1346.1825878196432,3214
1348.2871954203192,3212
1350.3912494766587,3368
1352.4947502316231,3284
1354.5976979282532,3315
1356.7000928096686,3319
1358.8019351190665,3269
1360.9032250997243,3289
1363.0039629949988,3236
1365.1041490483235,3238
1367.2037835032133,3223
1369.3028666032606,3267
1371.401398592137,3284
1373.4993797135926,3290
1375.5968102114575,3315
1377.6936903296396,3312
1379.7900203121262,3156
1381.8858004029835,3340
1383.9810308463561,3306
1386.075711886469,3340
1388.1698437676241,3273
1390.2634267342032,3316
1392.356461030667,3275
1394.4489469015557,3360
1396.5408845914872,3267
1398.6322743451592,3296
1400.7231164073469,3267
1402.813411022907,3291
1404.903158436773,3344
1406.9923588939578,3319
1409.0810126395531,3328
1411.1691199187303,3341
1413.2566809767386,3340
1415.343696058907,3397
1417.4301654106425,3391
1419.5160892774315,3409
1421.6014679048399,3394
1423.6863015385125,3418
1425.7705904241707,3446
1427.8543348076178,3338
1429.9375349347342,3528
1432.0201910514802,3472
1434.102303403894,3405
1436.1838722380944,3372
1438.2648978002767,3510
1440.3453803367174,3537
1442.4253200937692,3504
1444.5047173178677,3606
1446.5835722555234,3645
1448.6618851533285,3552
1450.739656257952,3553
1452.8168858161434,3656
1454.8935740747306,3677
1456.96972128062,3722
1459.045327680797,3782
1461.120393522327,3777
1463.1949190523528,3798
1465.2689045180973,3812
1467.3423501668608,3946
1469.415256246024,3901
1471.4876230030463,4015
1473.559450685465,4044
1475.6307395408976,4017
1477.7014898170391,4165
1479.771701761665,4010
1481.8413756226287,4111
1483.9105116478618,4143
1485.9791100853772,4161
1488.0471711832643,4165
1490.1146951896926,4185
1492.1816823529098,4207
1494.2481329212433,4379
1496.3140471430984,4356
1498.3794252669609,4301
1500.4442675413939,4386
1502.5085742150404,4353
1504.572345536622,4448
1506.6355817549388,4350
1508.6982831188702,4402
1510.7604498773744,4495
1512.8220822794883,4420
1514.8831805743293,4525
1516.9437450110909,4564
1519.003775839048,4627
1521.0632733075522,4570
1523.1222376660367,4646
1525.1806691640113,4699
1527.2385680510652,4745
1529.2959345768668,4645
1531.3527689911643,4759
1533.4090715437833,4745
1535.4648424846291,4908
1537.5200820636855,4879
1539.5747905310159,4874
1541.6289681367616,4933
1543.6826151311434,5048
1545.7357317644614,4946
1547.7883182870937,4965
1549.8403749494987,5053
1551.8919020022113,5133
1553.9428996958477,5327
1555.9933682811015,5234
1558.0433080087469,5525
1560.0927191296346,5346
1562.1416018946961,5375
1564.1899565549415,5413
1566.2377833614592,5447
1568.2850825654164,5490
1570.3318544180606,5532
1572.3780991707158,5313
1574.423817074788,5153
1576.4690083817595,4992
1578.5136733431923,4814
1580.5578122107272,4798
1582.601425236085,4596
1584.6445126710646,4564
1586.6870747675434,4328
1588.7291117774776,4238
1590.7706239529034,4195
1592.8116115459347,4039
1594.8520748087658,4052
1596.8920139936686,4005
1598.9314293529933,3831
1600.9703211391711,3725
1603.008689604711,3744
1605.0465350022005,3726
1607.0838575843068,3555
1609.1206576037753,3507
1611.1569353134305,3435
1613.1926909661765,3499
1615.2279248149953,3363
1617.2626371129481,3408
1619.2968281131757,3393
1621.3304980688963,3362
1623.3636472334088,3331
1625.39627586009,3368
1627.428384202396,3219
1629.459972513861,3234
1631.4910410480993,3176
1633.5215900588028,3295
1635.551619799744,3229
1637.5811305247717,3223
1639.6101224878166,3205
1641.6385959428862,3213
1643.6665511440683,3154
1645.693988345528,3213
1647.7209078015112,3197
1649.7473097663405,3206
1651.7731944944203,3170
1653.7985622402307,3117
1655.823413258333,3072
1657.847747803366,3123
1659.8715661300494,3064
1661.8948684931793,3041
1663.9176551476316,3063
1665.9399263483624,3136
1667.9616823504057,3179
1669.982923408873,3108
1672.0036497789574,3053
1674.0238617159293,3141
1676.043559475138,3092
1678.0627433120121,3060
1680.081413482059,3052
1682.0995702408654,3108
1684.117213844096,3185
1686.134344547495,3174
1688.1509626068864,3110
1690.1670682781705,3081
1692.182661817329,3035
1694.1977434804217,3087
1696.2123135235875,3138
1698.226372203043,3084
1700.2399197750851,3038
1702.2529564960905,3140
1704.2654826225112,3094
1706.277498410882,3046
1708.2890041178139,3013
1710.2999999999988,3046
1712.3104863142066,3085
1714.3204633172854,3044
1716.329931266163,3101
1718.3388904178469,3057
1720.3473410294214,2990
1722.3552833580516,3005
1724.3627176609807,2964
1726.3696441955308,2952
1728.3760632191033,2975
1730.3819749891782,2949
1732.3873797633146,3026
1734.3922777991502,2997
1736.3966693544012,2885
1738.4005546868639,2966
1740.4039340544127,2999
1742.406807715001,2900
1744.4091759266616,2999
1746.4110389475054,2954
1748.4123970357223,2946
1750.413250449582,2950
1752.4135994474318,2960
1754.4134442876993,3023
1756.4127852288902,2939
1758.4116225295893,2886
1760.4099564484595,2956
1762.407787244244,2883
1764.405115175764,2880
1766.4019405019203,2899
1768.3982634816916,2863
1770.3940843741357,2781
1772.3894034383907,2863
1774.3842209336717,2937
1776.378537119274,2900
1778.372352254571,2933
1780.3656665990156,2886
1782.3584804121397,2874
1784.3507939535534,2788
1786.3426074829463,2875
1788.3339212600863,2938
1790.3247355448211,2839
1792.3150505970766,2953
1794.3048666768573,2908
1796.2941840442477,2902
1798.2830029594106,2969
1800.2713236825884,2867
1802.2591464741004,2872
1804.2464715943465,2957
1806.2332993038058,2853
1808.2196298630352,2889
1810.2054635326708,2879
1812.190800573428,2787
1814.175641246101,2872
1816.1599858115628,2829
1818.1438345307652,2840
1820.127187664738,2789
1822.1100454745924,2866
1824.092408221516,2882
1826.0742761667766,2877
1828.055649571721,2899
1830.0365286977735,2817
1832.0169138064398,2832
1833.9968051593014,2847
1835.9762030180214,2783
1837.9551076443408,2782
1839.9335193000788,2847
1841.9114382471344,2795
1843.888864747485,2851
1845.8657990631878,2773
1847.842241456378,2796
1849.8181921892697,2826
1851.7936515241558,2814
1853.7686197234098,2822
1855.7430970494815,2755
1857.7170837649014,2784
1859.6905801322787,2851
1861.6635864143004,2844
1863.6361028737338,2819
1865.608129773424,2930
1867.5796673762961,2832
1869.5507159453537,2929
1871.521275743678,2883
1873.4913470344313,2837
1875.4609300808534,2834
1877.4300251462632,2872
1879.3986324940588,2936
1881.366752387717,2821
1883.3343850907936,2863
1885.3015308669228,2781
1887.268189979819,2778
1889.2343626932739,2889
1891.2000492711595,2908
1893.1652499774254,2869
1895.1299650761011,2877
1897.0941948312952,2774
1899.0579395071945,2847
1901.0211993680641,2970
1902.98397467825,2836
1904.9462657021745,3001
1906.9080727043415,2894
1908.869395949332,2751
1910.8302357018065,2825
1912.790592226504,2887
1914.7504657882428,2775
1916.7098566519212,2792
1918.6687650825133,2769
1920.6271913450764,2903
1922.5851357047422,2784
1924.5425984267245,2737
1926.499579776314,2728
1928.4560800188833,2766
1930.4120994198802,2825
1932.367638244833,2855
1934.32269675935,2812
1936.2772752291175,2827
1938.231373919899,2731
1940.1849930975404,2847
1942.1381330279637,2837
1944.0907939771696,2818
1946.0429762112412,2830
1947.9946799963363,2787
1949.9459055986945,2738
1951.896653284633,2789
1953.8469233205478,2835
1955.7967159729142,2808
1957.7460315082863,2749
1959.6948701932974,2760
1961.6432322946594,2764
1963.5911180791632,2687
1965.5385278136787,2813
1967.4854617651545,2801
1969.4319202006182,2840
1971.377903387176,2819
1973.3234115920136,2758
1975.268445082395,2796
1977.2130041256642,2807
1979.1570889892423,2771
1981.1006999406304,2706
1983.04383724741,2769
1984.986501177238,2770
1986.928691997853,2739
1988.8704099770712,2681
1990.811655382789,2712
1992.7524284829801,2764
1994.692729545698,2734
1996.6325588390755,2718
1998.5719166313224,2783
2000.5108031907307,2739
2002.4492187856677,2712
2004.387163684583,2709
2006.3246381560011,2687
2008.2616424685298,2637
2010.1981768908527,2746
2012.1342416917332,2626
2014.069837140014,2742
2016.0049635046162,2705
2017.9396210545406,2775
2019.8738100588666,2696
2021.8075307867502,2712
2023.740783507431,2731
2025.6735684902228,2673
2027.6058860045214,2598
2029.5377363198004,2731
2031.4691197056118,2726
2033.4000364315875,2736
2035.3304867674374,2749
2037.260470982952,2765
2039.189989347998,2628
2041.1190421325232,2665
2043.047629606554,2755
2044.9757520401945,2743
2046.9034097036288,2690
2048.8306028671195,2618
2050.7573318010086,2753
2052.683596775716,2728
2054.609398061742,2687
2056.5347359296647,2677
2058.4596106501403,2738
2060.384022493906,2671
2062.3079717317764,2618
2064.231458634646,2718
2066.1544834734873,2682
2068.077046519352,2661
2069.99914804337,2681
2071.9207883167524,2632
2073.8419676107865,2596
2075.7626861968406,2739
2077.6829443463607,2676
2079.6027423308715,2652
2081.522080421977,2738
2083.440958891362,2720
2085.359378010786,2625
2087.2773380520907,2711
2089.194839287196,2645
2091.111881988101,2689
2093.0284664268825,2701
2094.9445928756973,2719
2096.86026160678,2659
2098.775472892446,2619
2100.690227005088,2744
2102.604524217178,2545
2104.5183648012676,2669
2106.431749029985,2568
2108.34467717604,2628
2110.2571495122206,2751
2112.169166311393,2713
2114.080727846503,2663
2115.9918343905747,2691
2117.902486216711,2673
2119.8126835980956,2622
2121.722426807987,2680
2123.6317161197285,2664
2125.5405518067364,2685
2127.448934142509,2687
2129.356863400624,2653
2131.264339854737,2697
2133.1713637785815,2764
2135.077935445972,2793
2136.9840551308002,2746
2138.889723107037,2706
2140.7949396487334,2762
2142.699705030018,2703
2144.6040195250994,2721
2146.507883408264,2668
2148.4112969538774,2703
2150.3142604363848,2720
2152.2167741303097,2667
2154.1188383102535,2709
2156.0204532508997,2766
2157.9216192270064,2705
2159.822336513414,2589
2161.7226053850413,2663
2163.622426116884,2580
2165.5217989840185,2730
2167.4207242616,2784
2169.319202224862,2688
2171.2172331491165,2675
2173.1148173097563,2726
2175.0119549822507,2682
2176.90864644215,2668
2178.8048919650823,2672
2180.7006918267534,2710
2182.596046302952,2628
2184.4909556695407,2637
2186.3854202024645,2713
2188.279440177746,2717
2190.173015871487,2651
2192.066147559868,2673
2193.958835519149,2699
2195.851080025667,2742
2197.7428813558417,2660
2199.6342397861667,2710
2201.5251555932186,2721
2203.415629053651,2634
2205.3056604441986,2682
2207.19525004167,2712
2209.084398122958,2664
2210.9731049650327,2787
2212.861370844941,2654
2214.749196039812,2754
2216.636580826851,2757
2218.523525483344,2778
2220.410030286655,2753
2222.296095514226,2712
2224.1817214435805,2766
2226.066908352319,2628
2227.951656518121,2793
2229.835966218746,2781
2231.71983773203,2762
2233.6032713358913,2752
2235.486267308324,2683
2237.3688259274036,2624
2239.2509474712824,2700
2241.132632218193,2679
2243.013880446447,2663
2244.8946924344323,2666
2246.7750684606203,2599
2248.6550088035574,2679
2250.534513741871,2675
2252.413583554265,2715
2254.292218519526,2652
2256.170418916517,2614
2258.0481850241786,2625
2259.925517121534,2639
2261.8024154876825,2662
2263.678880401803,2644
2265.5549121431536,2712
2267.430510991071,2624
2269.305677224971,2612
2271.180411124348,2610
2273.0547129687766,2556
2274.9285830379076,2584
2276.8020216114737,2627
2278.6750289692845,2544
2280.5476053912294,2641
2282.4197511572766,2642
2284.2914665474727,2676
2286.162751841943,2636
2288.0336073208937,2673
2289.904033264608,2695
2291.774029953448,2697
2293.6435976678554,2679
2295.5127366883517,2618
2297.381447295534,2600
2299.2497297700825,2613
2301.1175843927526,2528
2302.9850114443825,2534
2304.852011205885,2423
2306.7185839582553,2463
2308.5847299825664,2495
2310.4504495599676,2504
2312.3157429716925,2451
2314.1806104990483,2462
2316.0450524234247,2489
2317.9090690262888,2409
2319.772660589186,2479
2321.635827393742,2485
2323.498569721661,2533
2325.3608878547248,2445
2327.2227820747967,2527
2329.0842526638157,2500
2330.945299903803,2510
2332.805924076857,2453
2334.6661254651535,2438
2336.525904350951,2474
2338.3852610165827,2411
2340.244195744464,2411
2342.102708817088,2457
2343.9608005170253,2501
2345.8184711269287,2511
2347.675720929526,2401
2349.532550207628,2457
2351.38895924412,2473
2353.24494832197,2510
2355.100517724223,2388
2356.955667734004,2516
2358.810398634514,2420
2360.664710709037,2516
2362.5186042409337,2457
2364.3720795136437,2463
2366.225136810686,2484
2368.0777764156583,2592
2369.929998612237,2470
2371.7818036841777,2429
2373.633191915315,2398
2375.484163589562,2425
2377.3347189909114,2403
2379.184858403434,2438
2381.03458211128,2514
2382.8838903986775,2459
2384.732783549936,2539
2386.5812618494406,2466
2388.4293255816588,2562
2390.2769750311327,2482
2392.1242104824883,2499
2393.971032220427,2473
2395.8174405297295,2450
2397.6634356952563,2514
2399.509018001947,2468
2401.3541877348193,2406
2403.1989451789705,2449
2405.043290619576,2460
2406.8872243418905,2473
2408.730746631247,2505
2410.5738577730594,2434
2412.4165580528183,2447
2414.258847756095,2480
2416.100727168537,2462
2417.9421965758734,2470
2419.783256263912,2404
2421.623906518538,2531
2423.4641476257157,2539
2425.303979871491,2436
2427.143403541984,2508
2428.9824189233977,2437
2430.821026302012,2438
2432.6592259641866,2503
2434.497018196361,2472
2436.33440328505,2496
2438.171381516851,2451
2440.00795317844,2446
2441.844118556569,2442
2443.6798779380724,2475
2445.5152316098606,2490
2447.3501798589255,2474
2449.1847229723357,2460
2451.0188612372403,2488
2452.8525949408663,2501
2454.6859243705203,2479
2456.518849813587,2510
2458.3513715575314,2464
2460.183489889895,2484
2462.015205098301,2473
2463.8465174704493,2500
2465.67742729412,2406
2467.5079348571717,2449
2469.338040447542,2496
2471.1677443532476,2448
2472.9970468623833,2490
2474.825948263123,2491
2476.6544488437207,2470
2478.482548892508,2462
2480.310248697896,2454
2482.137548548374,2468
2483.9644487325118,2381
2485.790949538956,2468
2487.617051256433,2505
2489.44275417375,2477
2491.26805857979,2458
2493.0929647635157,2587
2494.917473013971,2526
2496.741583620276,2508
2498.5652968716304,2543
2500.3886130573137,2500
2502.2115324666834,2493
2504.0340553891765,2523
2505.856182114308,2566
2507.6779129316733,2479
2509.499248130945,2434
2511.3201880018764,2478
2513.140732834298,2526
2514.9608829181198,2503
2516.780638543331,2557
2518.6,2493
2520.418967578273,2457
2522.237541568376,2524
2524.0557222606144,2506
2525.8735099453706,2519
2527.6909049131086,2505
2529.507907454368,2581
2531.32451785977,2451
2533.140736420014,2598
2534.9565634258774,2601
2536.771999168218,2477
2538.5870439379714,2560
2540.4016980261526,2528
2542.2159617238544,2476
2544.02983532225,2507
2545.8433191125914,2637
2547.656413386209,2636
2549.4691184345115,2576
2551.2814345489874,2590
2553.093362021204,2570
2554.904901142808,2656
2556.716052205523,2714
2558.526815501153,2620
2560.3371913215824,2663
2562.147179958771,2637
2563.956781704761,2649
2565.7659968516705,2646
2567.5748256916986,2730
2569.3832685171224,2701
2571.1913256202984,2674
2572.9989972936614,2662
2574.806283829725,2652
2576.613185521084,2649
2578.4197026604074,2701
2580.2258355404483,2833
2582.031584454035,2700
2583.836949694077,2749
2585.6419315535613,2671
2587.4465303255533,2710
2589.2507463032002,2668
2591.0545797797245,2787
2592.8580310484303,2784
2594.6611004026995,2678
2596.463788135992,2773
2598.266094541849,2781
2600.0680199138874,2737
2601.869564545807,2708
2603.670728731383,2763
2605.4715127644704,2740
2607.2719169390048,2749
2609.071941548998,2697
2610.8715868885433,2768
2612.670853251811,2654
2614.469740933052,2681
2616.268250226594,2729
2618.0663814268455,2719
2619.864134828292,2659
2621.6615107255006,2660
2623.458509413115,2692
2625.2551311858597,2678
2627.0513763385347,2680
2628.8472451660223,2701
2630.6427379632833,2708
2632.4378550253564,2695
2634.232596647359,2568
2636.026963124488,2573
2637.8209547520187,2618
2639.6145718253065,2627
2641.407814639785,2543
2643.200683490966,2609
2644.9931786744414,2600
2646.7853004858807,2611
2648.577049221034,2478
2650.3684251757277,2527
2652.1594286458712,2636
2653.9500599274484,2567
2655.740319316525,2476
2657.5302071092437,2591
2659.3197236018286,2580
2661.10886909058,2500
2662.8976438718782,2513
2664.686048242183,2582
2666.4740824980327,2502
2668.2617469360443,2499
2670.0490418529134,2471
2671.8359675454153,2492
2673.622524310403,2413
2675.408712444811,2469
2677.1945322456495,2414
2678.979984010009,2449
2680.76506803506,2420
2682.5497846180497,2466
2684.334134056306,2439
2686.1181166472343,2436
2687.9017326883213,2460
2689.6849824771293,2457
2691.4678663113013,2388
2693.2503844885596,2427
2695.032537306705,2459
2696.8143250636167,2428
2698.5957480572542,2366
2700.3768065856534,2378
2702.1575009469316,2321
2703.937831439283,2450
2705.717798360982,2383
2707.4974020103837,2371
2709.276642685917,2333
2711.055520686095,2417
2712.834036309506,2322
2714.612189854819,2261
2716.389981620782,2405
2718.1674119062204,2414
2719.944481010041,2358
2721.721189231226,2353
2723.4975368688415,2365
2725.273524222027,2393
2727.0491515900053,2376
2728.824419272075,2320
2730.5993275676146,2323
2732.3738767760838,2371
2734.148067197016,2320
2735.921899130031,2277
2737.6953728748194,2324
2739.468488731156,2289
2741.2412469988926,2294
2743.0136479779617,2296
2744.785691968372,2317
2746.5573792702116,2307
2748.3287101836504,2305
2750.099685008934,2386
2751.870304046388,2267
2753.640567596418,2332
2755.4104759595057,2265
2757.1800294362156,2312
2758.949228327187,2209
2760.7180729331412,2275
2762.486563554877,2348
2764.254700493272,2266
2766.022484049284,2295
2767.789914523947,2283
2769.5569922183786,2200
2771.3237174337705,2263
2773.090090471394,2314
2774.8561116326036,2307
2776.6217812188274,2315
2778.3870995315756,2360
2780.1520668724356,2270
2781.9166835430747,2364
2783.6809498452394,2313
2785.444866080754,2236
2787.2084325515225,2247
2788.971649559527,2298
2790.73451740683,2242
2792.4970363955713,2315
2794.2592068279705,2300
2796.0210290063264,2202
2797.7825032330147,2214
2799.543629810493,2308
2801.304409041296,2317
2803.0648412280366,2308
2804.8249266734088,2290
2806.5846656801846,2270
2808.344058551212,2318
2810.1031055894246,2360
2811.8618070978273,2239
2813.6201633795085,2302
2815.378174737636,2307
2817.1358414754536,2295
2818.893163896285,2279
2820.6501423035334,2237
2822.4067770006814,2303
2824.1630682912883,2240
2825.9190164789957,2345
2827.6746218675207,2326
2829.429884760661,2297
2831.184805462294,2358
2832.9393842763743,2239
2834.693621506936,2284
2836.4475174580916,2280
2838.201072434034,2317
2839.954286739034,2281
2841.707160677441,2345
2843.459694553685,2320
2845.2118886722724,2235
2846.96374333779,2337
2848.7152588549034,2305
2850.4664355283567,2296
2852.217273662973,2358
2853.9677735636546,2294
2855.7179355353833,2290
2857.4677598832186,2245
2859.217246912299,2312
2860.9663969278427,2310
2862.715210235146,2276
2864.4636871395846,2356
2866.211827946614,2275
2867.9596329617652,2302
2869.7071024906536,2269
2871.4542368389684,2315
2873.20103631248,2359
2874.947501217038,2260
2876.6936318585695,2315
2878.4394285430812,2232
2880.1848915766604,2348
2881.9300212654707,2210
2883.6748179157553,2211
2885.4192818338374,2235
2887.1634133261173,2274
2888.907212699077,2283
2890.6506802592744,2235
2892.393816313348,2280
2894.1366211680142,2285
2895.8790951300693,2222
2897.621238506388,2287
2899.363051603925,2274
2901.1045347297118,2227
2902.8456881908596,2321
2904.58651229456,2249
2906.327007348081,2302
2908.067173658772,2254
2909.8070115340597,2199
2911.5465212814497,2276
2913.285703208527,2215
2915.0245576229563,2322
2916.7630848324807,2313
2918.5012851449196,2221
2920.2391588681758,2261
2921.976706310227,2238
2923.7139277791334,2150
2925.4508235830313,2215
2927.187394030137,2180
2928.923639428745,2319
2930.6595600872306,2233
2932.395156314046,2323
2934.1304284177218,2298
2935.8653767068713,2290
2937.6000014901815,2319
2939.3343030764227,2333
2941.068281774442,2281
2942.8019378931644,2231
2944.5352717415976,2277
2946.2682836288236,2187
2948.0009738640065,2264
2949.7333427563885,2237
2951.465390615289,2339
2953.1971177501086,2260
2954.9285244703265,2303
2956.6596110855,2188
2958.3903779052657,2204
2960.1208252393385,2243
2961.8509533975125,2219
2963.5807626896617,2241
2965.3102534257378,2245
2967.0394259157715,2245
2968.768280469873,2254
2970.496817398232,2281
2972.2250370111146,2265
2973.952939618869,2213
2975.6805255319196,2256
2977.4077950607707,2251
2979.134748516006,2244
2980.861386208289,2224
2982.587708448359,2319
2984.313715547037,2172
2986.039407815222,2236
2987.764785563891,2338
2989.489849104102,2253
2991.2145987469908,2194
2992.9390348037705,2270
2994.6631575857346,2264
2996.3869674042576,2243
2998.1104645707887,2210
2999.83364939686,2190
3001.5565221940783,2284
3003.2790832741334,2223
3005.0013329487924,2193
3006.7232715298996,2142
3008.4448993293804,2194
3010.166216659239,2239
3011.887223831558,2181
3013.607921158498,2242
3015.3283089522993,2255
3017.0483875252826,2273
3018.7681571898443,2261
3020.4876182584626,2198
3022.2067710436927,2257
3023.9256158581707,2256
3025.644153014609,2226
3027.362382825801,2187
3029.0803056046193,2155
3030.797921664012,2279
3032.5152313170106,2272
3034.2322348767225,2173
3035.9489326563353,2236
3037.665324969115,2266
3039.3814121284063,2266
3041.097194447633,2239
3042.812672240299,2226
3044.5278458199855,2172
3046.2427155003525,2194
3047.9572815951406,2187
3049.671544418167,2220
3051.38550428333,2179
3053.0991615046073,2311
3054.812516396051,2219
3056.5255692717974,2186
3058.2383204460575,2203
3059.9507702331257,2172
3061.662918947372,2216
3063.3747669032446,2189
3065.0863144152736,2238
3066.7975617980674,2247
3068.508509366309,2175
3070.219157434767,2208
3071.9295063182844,2216
3073.639556331785,2257
3075.3493077902704,2152
3077.058761008821,2198
3078.7679163025964,2216
3080.476773986837,2294
3082.1853343768594,2262
3083.89359778806,2154
3085.6015645359153,2251
3087.3092349359786,2298
3089.016609303884,2206
3090.7236879553434,2212
3092.4304712061476,2183
3094.136959372166,2195
3095.843152769349,2196
3097.5490517137237,2293
3099.2546565213966,2227
3100.959967508554,2194
3102.66498499146,2151
3104.3697092864577,2162
3106.0741407099695,2226
3107.778279578498,2243
3109.482126208622,2241
3111.1856809170004,2189
3112.8889440203716,2295
3114.5919158355528,2139
3116.294596679439,2297
3117.996986869006,2249
3119.6990867213062,2259
3121.4008965534726,2221
3123.102416682717,2305
3124.803647426329,2212
3126.5045891016784,2207
3128.205242026213,2177
3129.90560651746,2254
3131.605682893025,2203
3133.3054714705922,2236
3135.0049725679282,2219
3136.7041865028714,2211
3138.4031135933465,2259
3140.101754157353,2150
3141.800108512971,2223
3143.498176978357,2226
3145.1959598717494,2188
3146.8934575114636,2173
3148.5906702158954,2219
3150.2875983035183,2193
3151.9842420928853,2266
3153.680601902627,2246
3155.376678051456,2189
3157.07247085816,2169
3158.767980641609,2230
3160.463207720748,2213
3162.158152414606,2204
3163.8528150422862,2231
3165.5471959229726,2156
3167.2412953759303,2197
3168.9351137204976,2175
3170.628651276098,2235
3172.3219083622307,2235
3174.014885298474,2258
3175.707582404485,2208
3177.4000000000005,2251
3179.092138404835,2178
3180.7839979388846,2235
3182.47557892212,2167
3184.166881674594,2250
3185.8579065164386,2200
3187.5486537678626,2233
3189.2391237491547,2273
3190.9293167806827,2179
3192.6192331828934,2256
3194.3088732763117,2148
3195.998237381542,2183
3197.687325819268,2160
3199.376138910251,2222
3201.064676975334,2225
3202.7529403354347,2264
3204.4409293115523,2172
3206.1286442247647,2238
3207.816085396229,2163
3209.5032531471825,2151
3211.190147798936,2217
3212.8767696728846,2163
3214.5631190905015,2146
3216.2491963733373,2134
3217.9350018430214,2134
3219.6205358212637,2104
3221.305798629851,2152
3222.990790590651,2119
3224.6755120256103,2164
3226.359963256751,2147
3228.0441446061795,2113
3229.7280563960758,2213
3231.411698948703,2227
3233.0950725863995,2176
3234.778177631587,2245
3236.461014406761,2142
3238.1435832345005,2207
3239.8258844374595,2235
3241.507918338374,2125
3243.1896852600576,2150
3244.8711855254023,2164
3246.552419457381,2213
3248.233387379042,2201
3249.914089613516,2199
3251.59452648401,2131
3253.274698313813,2133
3254.95460542629,2176
3256.6342481448855,2108
3258.313626793125,2119
3259.9927416946084,2186
3261.6715931730196,2105
3263.3501815521176,2147
3265.0285071557437,2089
3266.706570307815,2100
3268.3843713323286,2091
3270.0619105533615,2169
3271.739188295068,2155
3273.4162048816834,2177
3275.0929606375184,2238
3276.769455886966,2114
3278.445690954498,2213
3280.1216661646613,2181
3281.797381842087,2247
3283.4728383114807,2116
3285.1480358976296,2208
3286.8229749253996,2137
3288.4976557197333,2127
3290.172078605655,2116
3291.846243908266,2105
3293.5201519527463,2169
3295.193803064357,2112
3296.8671975684374,2070
3298.5403357904024,2190
3300.21321805575,2113
3301.8858446900567,2194
3303.558216018975,2151
3305.23033236824,2099
3306.9021940636603,2189
3308.57380143113,2172
3310.2451547966184,2117
3311.916254486174,2202
3313.5871008259246,2152
3315.2576941420766,2139
3316.9280347609147,2213
3318.5981230088046,2146
3320.2679592121895,2139
3321.9375436975924,2117
3323.606876791612,2031
3325.27595882093,2161
3326.944790112305,2141
3328.6133709925753,2136
3330.2817017886573,2068
3331.949782827547,2116
3333.617614436319,2163
3335.2851969421245,2162
3336.952530672199,2130
3338.619615953853,2123
3340.286453114475,2101
3341.9530424815357,2142
3343.619384382583,2154
3345.2854791452437,2147
3346.951327097224,2215
3348.6169285663073,2190
3350.2822838803577,2113
3351.947393367319,2181
3353.61225735521,2159
3355.2768761721345,2183
3356.9412501462693,2119
3358.605379605873,2114
3360.2692648792827,2188
3361.9329062949146,2142
3363.596304181263,2107
