CollectionTime,7/11/2024 1:47:19 PM
ExposureUsed,3
CalibratedSpectrum
-962.7078968117929,426
-959.9714848408522,434
-957.2358232597828,443
-954.5009119013725,432
-951.7667505983302,444
-949.0333391832855,427
-946.3006774887896,463
-943.5687653473143,474
-940.837602591253,435
-938.1071890529199,421
-935.3775245645503,459
-932.6486089583007,437
-929.9204420662485,444
-927.1930237203925,452
-924.4663537526524,428
-921.7404319948689,432
-919.0152582788041,439
-916.2908324361409,474
-913.5671542984834,467
-910.8442236973568,444
-908.1220404642074,449
-905.4006044304027,452
-902.679915427231,438
-899.959973285902,443
-897.2407778375464,425
-894.5223289132158,452
-891.8046263438832,444
-889.0876699604426,432
-886.3714595937089,433
-883.6559950744183,430
-880.9412762332282,439
-878.2273029007168,432
-875.5140749073835,435
-872.8015920836489,436
-870.0898542598545,447
-867.3788612662631,458
-864.6686129330585,459
-861.9591090903457,445
-859.2503495681506,442
-856.5423341964203,443
-853.8350628050229,432
-851.1285352237478,430
-848.4227512823054,447
-845.7177108103272,445
-843.0134136373656,460
-840.3098595928943,439
-837.6070485063082,474
-834.9049802069229,453
-832.2036545239757,476
-829.5030712866244,449
-826.8032303239481,477
-824.1041314649472,445
-821.4057745385428,453
-818.7081593735775,462
-816.0112857988148,452
-813.3151536429393,450
-810.6197627345566,440
-807.9251129021936,427
-805.2312039742981,441
-802.5380357792392,475
-799.8456081453069,447
-797.1539209007124,471
-794.462973873588,476
-791.772766891987,468
-789.083299783884,452
-786.3945723771743,458
-783.7065844996748,456
-781.0193359791231,467
-778.3328266431781,444
-775.6470563194197,461
-772.9620248353489,470
-770.2777320183878,444
-767.5941776958798,483
-764.9113616950891,451
-762.2292838432011,474
-759.5479439673222,458
-756.8673418944801,446
-754.1874774516235,468
-751.5083504656222,475
-748.8299607632671,449
-746.15230817127,467
-743.475392516264,473
-740.7992136248035,483
-738.1237713233636,474
-735.4490654383407,475
-732.7750957960521,469
-730.1018622227365,463
-727.4293645445534,489
-724.7576025875837,477
-722.0865761778291,473
-719.4162851412126,475
-716.7467293035781,508
-714.0779084906909,497
-711.409822528237,505
-708.7424712418238,469
-706.0758544569796,470
-703.4099719991541,484
-700.7448236937178,491
-698.0804093659622,495
-695.4167288411002,486
-692.7537819442656,498
-690.0915685005134,492
-687.4300883348199,484
-684.7693412720819,493
-682.1093271371178,513
-679.4500457546669,472
-676.7914969493897,479
-674.1336805458676,496
-671.4765963686034,496
-668.8202442420206,512
-666.1646239904642,483
-663.5097354382001,483
-660.8555784094151,486
-658.2021527282176,491
-655.5494582186366,507
-652.8974947046223,492
-650.2462620100463,496
-647.5957599587009,516
-644.9459883742998,539
-642.2969470804776,533
-639.6486359007902,528
-637.0010546587141,528
-634.3542031776476,522
-631.7080812809096,474
-629.0626887917401,517
-626.4180255333008,532
-623.7740913286734,504
-621.1308860008619,530
-618.4884093727904,526
-615.8466612673046,496
-613.2056415071715,491
-610.5653499150785,518
-607.9257863136347,514
-605.28695052537,537
-602.6488423727357,535
-600.0114616781036,528
-597.3748082637674,518
-594.7388819519412,522
-592.1036825647604,548
-589.4692099242818,526
-586.8354638524829,538
-584.2024441712624,550
-581.5701507024403,570
-578.9385832677575,544
-576.3077416888759,545
-573.6776257873787,557
-571.0482353847704,522
-568.4195703024757,548
-565.7916303618415,539
-563.164415384135,544
-560.5379251905453,530
-557.9121596021815,538
-555.2871184400748,545
-552.6628015251767,570
-550.0392086783606,555
-547.4163397204204,515
-544.794194472071,552
-542.1727727539491,538
-539.5520743866118,572
-536.9320991905377,592
-534.3128469861261,581
-531.6943175936979,560
-529.0765108334947,595
-526.4594265256793,650
-523.8430644903358,714
-521.2274245474689,765
-518.612506517005,791
-515.9983102187913,817
-513.3848354725959,841
-510.77208209810846,848
-508.16004991493924,917
-505.5487387426199,964
-502.9381484006032,998
-500.3282787082628,1053
-497.71912948489364,934
-495.1107005497117,827
-492.5029917218539,769
-489.8960028203786,695
-487.28973366426493,658
-484.68418407241325,654
-482.07935386364494,632
-479.47524285670266,648
-476.87185087025,641
-474.2691777228715,659
-471.66722323307334,634
-469.0659872192821,647
-466.4654694998459,664
-463.86566989303384,644
-461.26658821703614,656
-458.66822428996414,632
-456.07057792985,687
-453.4736489546475,677
-450.877437182231,684
-448.28194243039627,655
-445.68716451686,642
-443.09310325926003,630
-440.49975847515555,600
-437.9071299820263,632
-435.31521759727354,663
-432.72402113821954,651
-430.13354042210767,676
-427.5437752661022,674
-424.95472548728867,663
-422.36639090267386,671
-419.7787713291855,664
-417.1918665836721,717
-414.60567648290385,688
-412.0202008435715,709
-409.4354394822874,701
-406.8513922155845,720
-404.26805885991723,720
-401.685439231661,689
-399.103533147112,703
-396.522340422488,695
-393.9418608739278,690
-391.3620943174908,712
-388.7830405691583,673
-386.2046994448317,644
-383.6270707603344,633
-381.05015433141045,590
-378.473949973725,583
-375.8984575028645,569
-373.32367673433623,562
-370.74960748356875,522
-368.1762495659117,488
-365.60360279663576,483
-363.03166699093265,465
-360.4604419639154,443
-357.8899275306178,442
-355.32012350599507,424
-352.7510297049233,410
-350.1826459421999,397
-347.61497203254316,390
-345.04800779059235,413
-342.4817530309082,402
-339.91620756797226,401
-337.35137121618743,404
-334.7872437898774,388
-332.22382510328725,404
-329.66111497058273,392
-327.09911320585127,419
-324.53781962310075,413
-321.9772340362607,398
-319.4173562591816,420
-316.8581861056348,403
-314.2997233893127,425
-311.7419679238294,409
-309.1849195227194,392
-306.62857799943856,401
-304.0729431673641,431
-301.51801483979375,409
-298.963792829947,446
-296.41027695096386,430
-293.85746701590574,434
-291.3053628377552,430
-288.7539642294155,414
-286.2032710037115,424
-283.65328297338897,419
-281.1039999511146,460
-278.5554217494762,475
-276.007548180983,524
-273.4603790580651,519
-270.9139141930734,462
-268.3681533982807,509
-265.8230964858798,493
-263.27874326798565,480
-260.7350935566336,484
-258.1921471637804,466
-255.6499039013039,477
-253.10836358100266,480
-250.56752601459698,503
-248.02739101372765,496
-245.48795838995704,499
-242.94922795476816,482
-240.41119951956557,468
-237.8738728956746,518
-235.33724789434166,535
-232.80132432673452,500
-230.2661020039418,483
-227.73158073697357,461
-225.19776033676033,490
-222.66464061415422,503
-220.1322213799284,510
-217.60050244477725,504
-215.06948361931552,530
-212.53916471408013,565
-210.00954553952818,540
-207.48062590603843,533
-204.9524056239104,521
-202.4248845033651,532
-199.8980623545441,514
-197.37193898751036,533
-194.84651421224817,579
-192.32178783866232,547
-189.79775967657952,551
-187.27442953574644,602
-184.7517972258321,572
-182.2298625564256,577
-179.7086253370378,620
-177.18808537710026,584
-174.66824248596583,556
-172.14909647290835,546
-169.6306471471229,630
-167.11289431772548,653
-164.59583779375328,610
-162.07947738416453,585
-159.5638128978386,624
-157.04884414357605,661
-154.53457093009854,690
-152.02099306604828,638
-149.50811035998936,646
-146.99592262040665,661
-144.48442965570587,732
-141.97363127421409,712
-139.46352728417958,786
-136.95411749377126,745
-134.44540171107985,738
-131.93737974411636,678
-129.43005140081357,692
-126.92341648902493,736
-124.41747481652521,860
-121.91222619101006,976
-119.40767042009657,1156
-116.90380731132257,1306
-114.40063667214702,1290
-111.8981583099503,1219
-109.3963720320337,1096
-106.89527764561933,914
-104.39487495785067,859
-101.89516377579241,1071
-99.39614390642998,1356
-96.89781515667039,1483
-94.40017733334128,1602
-91.90323024319173,1912
-89.40697369289148,2220
-86.91140748903172,2401
-84.41653143812482,2332
-81.92234534660395,1894
-79.42884902082358,1519
-76.93604226705907,1871
-74.4439248915071,2951
-71.95249670028534,4788
-69.46175749943245,6055
-66.97170709490854,7223
-64.48234529259423,7711
-61.99367189829195,7587
-59.50568671772464,6592
-57.01838955653636,6259
-54.53178022029283,5919
-52.045858514480074,5344
-49.560624244506016,7123
-47.07607721569923,8255
-44.59221723330904,8404
-42.10904410250669,8097
-39.62655762838392,7669
-37.14475761595372,7292
-34.66364387015028,7686
-32.18321619582866,8795
-29.70347439776515,9977
-27.224418280657005,10015
-24.74604764912317,9838
-22.26836230770266,10689
-19.7913620608565,14520
-17.315046712966478,21809
-14.83941606833514,27979
-12.36446993118659,36300
-9.89020810566592,65040
-7.416630395839093,65040
-4.94373660569363,65040
-2.471526539137585,65040
-6.821210263296962E-13,65040
2.47084320796705,65040
4.941003281093458,65040
7.410480415786196,65040
9.879274808531363,65040
12.347386655893956,65040
14.814816154518212,65040
17.28156350112681,65040
19.74762889252179,65040
22.21301252558385,65040
24.67771459727237,17923
27.141735304626195,3075
29.605074844762612,1879
32.06773341487792,1686
34.52971121224755,1505
36.99100843422559,1297
39.45162527824516,1462
41.91156194181792,1290
44.370818622535126,1134
46.82939551806646,1048
49.287292826160524,1102
51.74451074464503,1093
54.201049471426245,1219
56.65690920448981,1124
59.112090141899785,1035
61.56659248179983,1121
64.02041642241159,1125
66.4735621620365,960
68.92602989905402,887
71.37781983192338,809
73.82893215918205,893
76.27936707944684,975
78.72912479141326,908
81.17820549385567,782
83.62660938562783,842
86.07433666566146,885
88.5213875329681,802
90.96776218663751,698
93.41346082583925,687
95.85848364982041,792
98.30283085790859,827
100.7465026495089,840
103.18949922410604,816
105.63182078126385,780
108.07346752062438,770
110.51443964190923,776
112.95473734491827,787
115.39436082953114,726
117.83331029570547,720
120.27158594347827,767
122.7091879729652,739
125.1461165843615,749
127.58237197794062,786
130.01795435405518,828
132.4528639131364,903
134.88710085569494,843
137.32066538231982,740
139.75355769367923,768
142.1857779905207,758
144.61732647366978,681
147.04820334403132,665
149.47840880258934,772
151.90794305040674,745
154.33680628862487,797
156.76499871846443,933
159.19252054122433,986
161.61937195828352,1041
164.04555317109896,1140
166.47106438120693,1198
168.89590579022217,1295
171.320077599839,1396
173.7435800118302,1404
176.16641322804742,1463
178.58857745042144,1565
181.01007288096173,1619
183.43089972175687,1541
185.85105817497413,1622
188.27054844285988,1567
190.6893707277394,1575
193.10752523201643,1622
195.5250121581745,1615
197.9418317087751,1720
200.3579840864594,1615
202.7734694939469,1708
205.18828813403627,1700
207.6024402096051,1712
210.01592592360964,1734
212.42874547908548,1725
214.84089907914665,1732
217.2523869269868,1667
219.66320922587727,1778
222.0733661791695,1769
224.48285799029293,1836
226.8916848627572,1781
229.29984700014882,1849
231.7073446061355,1838
234.11417788446204,1754
236.520347038953,1805
238.92585227351185,1857
241.33069379212054,1869
243.73487179884035,1865
246.1383864978112,1960
248.541238093252,1885
250.9434267894609,1843
253.34495279081432,1992
255.74581630176783,1961
258.1460175268563,1959
260.54555667069314,1943
262.9444339379703,1986
265.3426495334594,1963
267.7402036620107,1934
270.1370965285529,1956
272.53332833809407,1833
274.9288992957214,1736
277.32380960660055,1809
279.718059475976,1740
282.1116491091717,1814
284.5045787115897,1783
286.89684848871195,1802
289.2884586460981,1719
291.67940938938807,1763
294.0697009242996,1758
296.4593334566299,1745
298.84830719225477,1692
301.23662233712923,1741
303.6242790972866,1781
306.01127767884,1691
308.39761828798066,1677
310.78330113097934,1627
313.16832641418534,1652
315.5526943440269,1659
317.9364051270112,1646
320.3194589697242,1594
322.70185607883093,1671
325.0835966610754,1579
327.4646809232805,1575
329.8451090723478,1586
332.2248813152577,1512
334.6039978590701,1538
336.9824589109231,1612
339.36026467803447,1516
341.7374153677,1530
344.113911187295,1541
346.48975234427337,1555
348.8649390461686,1516
351.2394715005918,1518
353.61334991523415,1584
355.9865744978655,1494
358.35914545633375,1522
360.73106299856715,1491
363.10232733257146,1544
365.47293866643247,1491
367.84289720831396,1480
370.2122031664593,1474
372.5808567491905,1453
374.9488581649083,1452
377.31620762209275,1472
379.6829053293021,1476
382.0489514951745,1500
384.4143463284262,1436
386.7790900378528,1416
389.14318283232853,1460
391.50662492080653,1440
393.86941651231916,1468
396.23155781597745,1423
398.5930490409713,1454
400.9538903965696,1357
403.3140820921202,1448
405.6736243370498,1394
408.03251734086336,1391
410.3907613131465,1416
412.74835646356166,1426
415.10530300185144,1397
417.4616011378372,1418
419.81725108141893,1403
422.1722530425758,1372
424.5266072313656,1406
426.880313857925,1439
429.2333731324701,1423
431.58578526529516,1386
433.9375504667738,1395
436.2886689473588,1396
438.63914091758113,1388
440.9889665880513,1360
443.33814616945835,1388
445.68667987257015,1379
448.03456790823395,1341
450.3818104873759,1342
452.72840782100013,1318
455.07436012019105,1298
457.41966759611057,1317
459.7643304600007,1315
462.10834892318155,1366
464.4517231970525,1288
466.79445349309174,1327
469.1365400228566,1357
471.4779829979826,1373
473.81878263018564,1349
476.15893913125876,1378
478.4984527130747,1386
480.8373235875855,1345
483.17555196682144,1416
485.5131380628919,1388
487.8500820879857,1447
490.1863842543697,1487
492.52204477439034,1581
494.8570638604725,1594
497.1914417251204,1668
499.52517858091653,1876
501.85827464052306,2088
504.19073011668036,2180
506.5225452222086,2244
508.85372017000566,2272
511.18425517304956,2229
513.514150444396,2380
515.8434061971808,2811
518.1720226446176,3323
520.4999999999999,3345
522.8273384766991,3245
525.1540382881666,2900
527.480099647932,2679
529.8055227696037,2265
532.1303078668694,1734
534.454455153496,1577
536.777964843328,1482
539.1008371502907,1432
541.4230722883866,1488
543.744670471698,1452
546.0656319143858,1406
548.3859568306899,1356
550.7056454349294,1381
553.0246979415016,1365
555.3431145648834,1389
557.6608955196306,1340
559.978041020377,1357
562.2945512818363,1331
564.6104265188006,1375
566.9256669461412,1353
569.2402727788082,1336
571.5542442318302,1340
573.8675815203156,1389
576.1802848594508,1359
578.4923544645015,1411
580.8037905508126,1440
583.114593333807,1412
585.4247630289875,1383
587.7342998519354,1339
590.0432040183106,1322
592.3514757438526,1404
594.6591152443794,1342
596.9661227357875,1296
599.2724984340531,1351
601.578242555231,1372
603.8833553154542,1316
606.1878369309362,1346
608.4916876179676,1404
610.7949075929192,1398
613.0974970722403,1345
615.3994562724587,1359
617.7007854101818,1322
620.0014847020951,1398
622.3015543649641,1360
624.6009946156324,1321
626.8998056710224,1435
629.1979877481361,1356
631.4955410640538,1329
633.7924658359349,1375
636.0887622810175,1302
638.3844306166192,1397
640.6794710601358,1419
642.9738838290426,1378
645.2676691408932,1358
647.5608272133207,1419
649.853358264037,1355
652.1452625108324,1371
654.4365401715764,1429
656.7271914642178,1356
659.0172166067838,1380
661.3066158173809,1366
663.5953893141935,1332
665.8835373154867,1397
668.1710600396028,1395
670.4579577049639,1437
672.7442305300709,1434
675.0298787335033,1363
677.3149025339197,1372
679.599302150058,1426
681.8830778007342,1413
684.1662297048437,1454
686.4487580813608,1426
688.7306631493387,1362
691.0119451279091,1365
693.2926042362834,1385
695.5726406937516,1338
697.8520547196814,1425
700.1308465335215,1421
702.4090163547982,1393
704.6865644031171,1416
706.9634908981619,1373
709.2397960596965,1370
711.5154801075631,1340
713.7905432616823,1395
716.0649857420548,1380
718.3388077687592,1406
720.612009561953,1383
722.8845913418733,1355
725.1565533288352,1414
727.427895743234,1363
729.6986188055427,1414
731.9687227363137,1402
734.238207756178,1381
736.5070740858458,1423
738.7753219461066,1290
741.0429515578281,1359
743.3099631419569,1387
745.5763569195191,1393
747.8421331116193,1381
750.1072919394409,1398
752.3718336242467,1387
754.6357583873777,1415
756.8990664502545,1345
759.1617580343765,1333
761.423833361321,1386
763.6852926527457,1345
765.9461361303862,1433
768.206364016058,1370
770.4659765316536,1368
772.7249738991469,1459
774.9833563405886,1430
777.2411240781092,1439
779.4982773339183,1445
781.7548163303044,1400
784.010741289634,1436
786.2660524343538,1512
788.5207499869881,1465
790.7748341701416,1425
793.0283052064964,1481
795.2811633188143,1398
797.5334087299362,1390
799.7850416627813,1438
802.0360623403484,1454
804.2864709857143,1466
806.5362678220353,1448
808.7854530725468,1489
811.0340269605625,1468
813.2819897094754,1495
815.5293415427581,1488
817.77608268396,1491
820.0222133567116,1462
822.2677337847211,1496
824.5126441917765,1454
826.7569448017433,1430
829.0006358385675,1437
831.2437175262731,1468
833.4861900889629,1431
835.7280537508192,1459
837.9693087361026,1499
840.2099552691533,1429
842.4499935743896,1430
844.689423876309,1438
846.9282463994886,1381
849.1664613685833,1417
851.4040690083276,1445
853.6410695435349,1450
855.877463199097,1444
858.1132501999847,1442
860.3484307712487,1421
862.5830051380175,1427
864.8169735254988,1523
867.0503361589791,1486
869.2830932638243,1513
871.5152450654786,1435
873.7467917894654,1450
875.9777336613873,1460
878.2080709069252,1434
880.4378037518389,1439
882.666932421968,1466
884.8954571432301,1437
887.1233781416219,1514
889.3506956432192,1451
891.5774098741766,1435
893.803521060728,1431
896.0290294291852,1437
898.2539352059397,1445
900.4782386174619,1401
902.7019398903011,1468
904.925039251085,1461
907.147536926521,1430
909.3694331433943,1470
911.59072812857,1409
913.8114221089921,1456
916.0315153116827,1392
918.2510079637437,1391
920.4699002923547,1417
922.6881925247761,1435
924.905884888345,1418
927.1229776104793,1399
929.3394709186747,1378
931.555365040506,1392
933.7706602036275,1432
935.9853566357709,1359
938.1994545647489,1407
940.4129542184515,1396
942.6258558248488,1442
944.8381596119883,1406
947.0498658079974,1377
949.2609746410825,1365
951.4714863395287,1362
953.6814011316998,1389
955.8907192460387,1380
958.0994409110671,1360
960.3075663553858,1334
962.5150958076741,1370
964.7220294966913,1346
966.928367651274,1362
969.1341105003388,1383
971.3392582728806,1418
973.5438111979742,1355
975.747769504772,1422
977.9511334225061,1415
980.153903180487,1291
982.3560790081052,1369
984.5576611348289,1365
986.7586497902058,1311
988.9590452038618,1284
991.158847605503,1321
993.3580572249133,1280
995.5566742919558,1315
997.7546990365728,1303
999.952131688785,1315
1002.1489724786926,1293
1004.3452216364743,1253
1006.5408793923874,1208
1008.7359459767691,1264
1010.9304216200343,1256
1013.1243065526781,1241
1015.3176010052733,1225
1017.510305208472,1209
1019.7024193930064,1236
1021.8939437896848,1218
1024.0848786293977,1201
1026.2752241431122,1227
1028.4649805618747,1284
1030.6541481168115,1220
1032.842727039127,1166
1035.0307175601051,1161
1037.2181199111074,1148
1039.4049343235752,1169
1041.591161029029,1173
1043.7768002590683,1171
1045.9618522453698,1188
1048.1463172196918,1173
1050.3301954138697,1149
1052.513487059818,1146
1054.69619238953,1183
1056.8783116350783,1194
1059.0598450286152,1169
1061.2407928023704,1161
1063.4211551886528,1181
1065.6009324198508,1194
1067.780124728432,1214
1069.9587323469414,1117
1072.1367555080046,1127
1074.314194444325,1181
1076.4910493886855,1166
1078.667320573947,1199
1080.843008233051,1117
1083.0181125990161,1162
1085.1926339049414,1057
1087.3665723840027,1149
1089.5399282694575,1144
1091.7127017946405,1158
1093.8848931929647,1118
1096.0565026979243,1200
1098.2275305430899,1151
1100.3979769621128,1121
1102.567842188722,1128
1104.737126456726,1117
1106.9058300000124,1119
1109.0739530525475,1125
1111.2414958483764,1111
1113.4084586216231,1180
1115.5748416064907,1066
1117.7406450372605,1120
1119.9058691482942,1100
1122.0705141740304,1140
1124.2345803489884,1090
1126.3980679077658,1105
1128.5609770850388,1119
1130.7233081155623,1134
1132.8850612341707,1088
1135.0462366757774,1112
1137.2068346753745,1075
1139.3668554680326,1122
1141.526299288901,1080
1143.68516637321,1117
1145.8434569562655,1086
1148.001171273455,1104
1150.158309560244,1178
1152.3148720521767,1040
1154.470858984876,1102
1156.626270594044,1100
1158.7811071154629,1042
1160.9353687849912,1140
1163.089055838569,1077
1165.242168512213,1076
1167.3947070420209,1096
1169.5466716641677,1035
1171.6980626149075,1073
1173.8488801305748,1069
1175.9991244475814,1089
1178.1487958024186,1064
1180.2978944316555,1040
1182.4464205719428,1062
1184.5943744600072,1089
1186.7417563326567,1101
1188.8885664267755,1072
1191.0348049793297,1039
1193.1804722273619,1103
1195.325568407995,1156
1197.4700937584303,1069
1199.614048515948,1107
1201.7574329179074,1106
1203.900247201746,1131
1206.042491604982,1066
1208.1841663652099,1106
1210.3252717201053,1089
1212.465807907422,1103
1214.6057751649923,1126
1216.7451737307279,1064
1218.8840038426192,1095
1221.0222657387353,1083
1223.1599596572241,1099
1225.2970858363137,1102
1227.4336445143094,1103
1229.5696359295966,1093
1231.705060320639,1099
1233.8399179259786,1055
1235.9742089842384,1050
1238.107933734118,1087
1240.2410924143974,1099
1242.373685263935,1083
1244.5057125216676,1111
1246.6371744266116,1151
1248.7680712178621,1093
1250.898403134593,1155
1253.028170416058,1107
1255.1573733015875,1096
1257.2860120305932,1131
1259.4140868425648,1106
1261.54159797707,1156
1263.6685456737569,1168
1265.7949301723515,1134
1267.9207517126597,1132
1270.046010534565,1114
1272.1707068780306,1188
1274.2948409830983,1153
1276.4184130898889,1092
1278.541423438603,1120
1280.6638722695184,1113
1282.785759822993,1231
1284.9070863394636,1176
1287.0278520594447,1241
1289.1480572235314,1188
1291.2677020723963,1142
1293.3867868467923,1156
1295.5053117875495,1214
1297.623277135579,1248
1299.740683131868,1242
1301.8575300174857,1206
1303.973818033578,1244
1306.0895474213703,1227
1308.2047184221678,1260
1310.3193312773528,1200
1312.4333862283888,1259
1314.5468835168163,1224
1316.659823384255,1254
1318.7722060724045,1279
1320.8840318230418,1272
1322.9953008780249,1289
1325.1060134792888,1246
1327.2161698688478,1256
1329.3257702887959,1284
1331.4348149813054,1313
1333.5433041886276,1278
1335.6512381530933,1248
1337.7586171171101,1333
1339.8654413231675,1173
1341.9717110138317,1228
1344.0774264317488,1229
1346.1825878196432,1250
1348.2871954203192,1190
1350.3912494766587,1209
1352.4947502316231,1210
1354.5976979282532,1193
1356.7000928096686,1277
1358.8019351190665,1268
1360.9032250997243,1222
1363.0039629949988,1261
1365.1041490483235,1278
1367.2037835032133,1233
1369.3028666032606,1192
1371.401398592137,1202
1373.4993797135926,1198
1375.5968102114575,1215
1377.6936903296396,1212
1379.7900203121262,1216
1381.8858004029835,1149
1383.9810308463561,1220
1386.075711886469,1302
1388.1698437676241,1247
1390.2634267342032,1212
1392.356461030667,1210
1394.4489469015557,1212
1396.5408845914872,1222
1398.6322743451592,1221
1400.7231164073469,1219
1402.813411022907,1248
1404.903158436773,1189
1406.9923588939578,1226
1409.0810126395531,1186
1411.1691199187303,1198
1413.2566809767386,1263
1415.343696058907,1241
1417.4301654106425,1220
1419.5160892774315,1192
1421.6014679048399,1204
1423.6863015385125,1193
1425.7705904241707,1200
1427.8543348076178,1294
1429.9375349347342,1291
1432.0201910514802,1223
1434.102303403894,1243
1436.1838722380944,1274
1438.2648978002767,1286
1440.3453803367174,1284
1442.4253200937692,1252
1444.5047173178677,1293
1446.5835722555234,1306
1448.6618851533285,1308
1450.739656257952,1290
1452.8168858161434,1413
1454.8935740747306,1268
1456.96972128062,1338
1459.045327680797,1352
1461.120393522327,1362
1463.1949190523528,1372
1465.2689045180973,1328
1467.3423501668608,1421
1469.415256246024,1345
1471.4876230030463,1384
1473.559450685465,1434
1475.6307395408976,1416
1477.7014898170391,1450
1479.771701761665,1418
1481.8413756226287,1482
1483.9105116478618,1516
1485.9791100853772,1521
1488.0471711832643,1479
1490.1146951896926,1472
1492.1816823529098,1491
1494.2481329212433,1541
1496.3140471430984,1503
1498.3794252669609,1524
1500.4442675413939,1521
1502.5085742150404,1505
1504.572345536622,1565
1506.6355817549388,1612
1508.6982831188702,1550
1510.7604498773744,1574
1512.8220822794883,1520
1514.8831805743293,1548
1516.9437450110909,1626
1519.003775839048,1571
1521.0632733075522,1643
1523.1222376660367,1662
1525.1806691640113,1648
1527.2385680510652,1557
1529.2959345768668,1584
1531.3527689911643,1628
1533.4090715437833,1673
1535.4648424846291,1717
1537.5200820636855,1725
1539.5747905310159,1674
1541.6289681367616,1717
1543.6826151311434,1737
1545.7357317644614,1788
1547.7883182870937,1795
1549.8403749494987,1794
1551.8919020022113,1824
1553.9428996958477,1864
1555.9933682811015,1962
1558.0433080087469,1951
1560.0927191296346,1961
1562.1416018946961,2023
1564.1899565549415,2000
1566.2377833614592,1963
1568.2850825654164,1971
1570.3318544180606,2025
1572.3780991707158,2014
1574.423817074788,1932
1576.4690083817595,1850
1578.5136733431923,1877
1580.5578122107272,1807
1582.601425236085,1781
1584.6445126710646,1682
1586.6870747675434,1688
1588.7291117774776,1623
1590.7706239529034,1626
1592.8116115459347,1580
1594.8520748087658,1546
1596.8920139936686,1525
1598.9314293529933,1495
1600.9703211391711,1458
1603.008689604711,1440
1605.0465350022005,1417
1607.0838575843068,1375
1609.1206576037753,1377
1611.1569353134305,1355
1613.1926909661765,1291
1615.2279248149953,1290
1617.2626371129481,1216
1619.2968281131757,1270
1621.3304980688963,1263
1623.3636472334088,1265
1625.39627586009,1255
1627.428384202396,1173
1629.459972513861,1172
1631.4910410480993,1176
1633.5215900588028,1199
1635.551619799744,1188
1637.5811305247717,1164
1639.6101224878166,1153
1641.6385959428862,1180
1643.6665511440683,1127
1645.693988345528,1138
1647.7209078015112,1119
1649.7473097663405,1134
1651.7731944944203,1142
1653.7985622402307,1132
1655.823413258333,1137
1657.847747803366,1161
1659.8715661300494,1134
1661.8948684931793,1087
1663.9176551476316,1137
1665.9399263483624,1128
1667.9616823504057,1133
1669.982923408873,1140
1672.0036497789574,1148
1674.0238617159293,1153
1676.043559475138,1128
1678.0627433120121,1173
1680.081413482059,1125
1682.0995702408654,1099
1684.117213844096,1110
1686.134344547495,1114
1688.1509626068864,1098
1690.1670682781705,1115
1692.182661817329,1123
1694.1977434804217,1091
1696.2123135235875,1117
1698.226372203043,1112
1700.2399197750851,1137
1702.2529564960905,1155
1704.2654826225112,1122
1706.277498410882,1112
1708.2890041178139,1030
1710.2999999999988,1140
1712.3104863142066,1073
1714.3204633172854,1105
1716.329931266163,1105
1718.3388904178469,1097
1720.3473410294214,1098
1722.3552833580516,1108
1724.3627176609807,1093
1726.3696441955308,1124
1728.3760632191033,1095
1730.3819749891782,1065
1732.3873797633146,1082
1734.3922777991502,1091
1736.3966693544012,1093
1738.4005546868639,1072
1740.4039340544127,1066
1742.406807715001,1092
1744.4091759266616,1040
1746.4110389475054,1098
1748.4123970357223,1070
1750.413250449582,1053
1752.4135994474318,1057
1754.4134442876993,1080
1756.4127852288902,1070
1758.4116225295893,1084
1760.4099564484595,1069
1762.407787244244,1087
1764.405115175764,1063
1766.4019405019203,1095
1768.3982634816916,1040
1770.3940843741357,1068
1772.3894034383907,1052
1774.3842209336717,1060
1776.378537119274,1057
1778.372352254571,1084
1780.3656665990156,1099
1782.3584804121397,1045
1784.3507939535534,1075
1786.3426074829463,1048
1788.3339212600863,1050
1790.3247355448211,1052
1792.3150505970766,1100
1794.3048666768573,1085
1796.2941840442477,1097
1798.2830029594106,1096
1800.2713236825884,1085
1802.2591464741004,1089
1804.2464715943465,1103
1806.2332993038058,1077
1808.2196298630352,1060
1810.2054635326708,1061
1812.190800573428,1051
1814.175641246101,1080
1816.1599858115628,1036
1818.1438345307652,1058
1820.127187664738,1062
1822.1100454745924,1048
1824.092408221516,1050
1826.0742761667766,1068
1828.055649571721,1043
1830.0365286977735,1055
1832.0169138064398,1047
1833.9968051593014,1074
1835.9762030180214,1102
1837.9551076443408,1076
1839.9335193000788,1102
1841.9114382471344,1089
1843.888864747485,1062
1845.8657990631878,1057
1847.842241456378,1063
1849.8181921892697,1060
1851.7936515241558,1085
1853.7686197234098,1068
1855.7430970494815,978
1857.7170837649014,1073
1859.6905801322787,1084
1861.6635864143004,1083
1863.6361028737338,1070
1865.608129773424,1082
1867.5796673762961,1091
1869.5507159453537,1119
1871.521275743678,1024
1873.4913470344313,1061
1875.4609300808534,1093
1877.4300251462632,1056
1879.3986324940588,1043
1881.366752387717,1085
1883.3343850907936,1121
1885.3015308669228,1049
1887.268189979819,1052
1889.2343626932739,1133
1891.2000492711595,1023
1893.1652499774254,1093
1895.1299650761011,1085
1897.0941948312952,1070
1899.0579395071945,1066
1901.0211993680641,1126
1902.98397467825,1128
1904.9462657021745,1103
1906.9080727043415,1110
1908.869395949332,1133
1910.8302357018065,1126
1912.790592226504,1102
1914.7504657882428,1036
1916.7098566519212,1106
1918.6687650825133,1100
1920.6271913450764,1114
1922.5851357047422,1095
1924.5425984267245,1065
1926.499579776314,1073
1928.4560800188833,1099
1930.4120994198802,1068
1932.367638244833,1122
1934.32269675935,1060
1936.2772752291175,1048
1938.231373919899,1075
1940.1849930975404,1151
1942.1381330279637,1121
1944.0907939771696,1068
1946.0429762112412,1048
1947.9946799963363,1065
1949.9459055986945,1040
1951.896653284633,1043
1953.8469233205478,1057
1955.7967159729142,1061
1957.7460315082863,1045
1959.6948701932974,1030
1961.6432322946594,1076
1963.5911180791632,1122
1965.5385278136787,1062
1967.4854617651545,1101
1969.4319202006182,1077
1971.377903387176,1073
1973.3234115920136,1045
1975.268445082395,1093
1977.2130041256642,1082
1979.1570889892423,1076
1981.1006999406304,1088
1983.04383724741,1029
1984.986501177238,1037
1986.928691997853,1090
1988.8704099770712,1066
1990.811655382789,1128
1992.7524284829801,1057
1994.692729545698,1045
1996.6325588390755,1077
1998.5719166313224,1061
2000.5108031907307,1065
2002.4492187856677,1025
2004.387163684583,1053
2006.3246381560011,1071
2008.2616424685298,1044
2010.1981768908527,1053
2012.1342416917332,1015
2014.069837140014,1040
2016.0049635046162,1026
2017.9396210545406,1070
2019.8738100588666,1112
2021.8075307867502,1085
2023.740783507431,1074
2025.6735684902228,1046
2027.6058860045214,1054
2029.5377363198004,1081
2031.4691197056118,1031
2033.4000364315875,1061
2035.3304867674374,1092
2037.260470982952,1039
2039.189989347998,1081
2041.1190421325232,1064
2043.047629606554,1052
2044.9757520401945,1097
2046.9034097036288,1063
2048.8306028671195,1040
2050.7573318010086,1013
2052.683596775716,1042
2054.609398061742,1067
2056.5347359296647,1076
2058.4596106501403,1032
2060.384022493906,1077
2062.3079717317764,1013
2064.231458634646,1109
2066.1544834734873,1022
2068.077046519352,1038
2069.99914804337,1032
2071.9207883167524,1042
2073.8419676107865,1021
2075.7626861968406,986
2077.6829443463607,1072
2079.6027423308715,1048
2081.522080421977,1040
2083.440958891362,1072
2085.359378010786,1051
2087.2773380520907,1032
2089.194839287196,1014
2091.111881988101,1065
2093.0284664268825,1079
2094.9445928756973,1033
2096.86026160678,1052
2098.775472892446,1059
2100.690227005088,1036
2102.604524217178,1067
2104.5183648012676,1041
2106.431749029985,1049
2108.34467717604,1043
2110.2571495122206,1055
2112.169166311393,1030
2114.080727846503,1082
2115.9918343905747,1053
2117.902486216711,1047
2119.8126835980956,1033
2121.722426807987,1091
2123.6317161197285,1072
2125.5405518067364,1027
2127.448934142509,1041
2129.356863400624,1038
2131.264339854737,1054
2133.1713637785815,1042
2135.077935445972,1049
2136.9840551308002,1061
2138.889723107037,1045
2140.7949396487334,1073
2142.699705030018,1058
2144.6040195250994,1032
2146.507883408264,1054
2148.4112969538774,1021
2150.3142604363848,1103
2152.2167741303097,1048
2154.1188383102535,1045
2156.0204532508997,1046
2157.9216192270064,1089
2159.822336513414,1114
2161.7226053850413,1065
2163.622426116884,1054
2165.5217989840185,997
2167.4207242616,1085
2169.319202224862,1051
2171.2172331491165,1049
2173.1148173097563,1091
2175.0119549822507,1055
2176.90864644215,1021
2178.8048919650823,1070
2180.7006918267534,1064
2182.596046302952,1097
2184.4909556695407,1023
2186.3854202024645,1114
2188.279440177746,1101
2190.173015871487,1060
2192.066147559868,1090
2193.958835519149,1097
2195.851080025667,1094
2197.7428813558417,1070
2199.6342397861667,1082
2201.5251555932186,1077
2203.415629053651,1076
2205.3056604441986,1042
2207.19525004167,1031
2209.084398122958,1057
2210.9731049650327,1125
2212.861370844941,1061
2214.749196039812,1125
2216.636580826851,1068
2218.523525483344,1080
2220.410030286655,1110
2222.296095514226,1036
2224.1817214435805,1094
2226.066908352319,1091
2227.951656518121,1092
2229.835966218746,1045
2231.71983773203,1081
2233.6032713358913,1102
2235.486267308324,1116
2237.3688259274036,1057
2239.2509474712824,1076
2241.132632218193,1119
2243.013880446447,1094
2244.8946924344323,1074
2246.7750684606203,1115
2248.6550088035574,1145
2250.534513741871,1066
2252.413583554265,1062
2254.292218519526,1068
2256.170418916517,1061
2258.0481850241786,1151
2259.925517121534,1137
2261.8024154876825,1121
2263.678880401803,1124
2265.5549121431536,1111
2267.430510991071,1083
2269.305677224971,1098
2271.180411124348,1067
2273.0547129687766,1073
2274.9285830379076,1111
2276.8020216114737,1097
2278.6750289692845,1103
2280.5476053912294,1099
2282.4197511572766,1064
2284.2914665474727,1081
2286.162751841943,1174
2288.0336073208937,1104
2289.904033264608,1149
2291.774029953448,1092
2293.6435976678554,1111
2295.5127366883517,1082
2297.381447295534,1060
2299.2497297700825,1114
2301.1175843927526,1059
2302.9850114443825,1051
2304.852011205885,1023
2306.7185839582553,1055
2308.5847299825664,1014
2310.4504495599676,1014
2312.3157429716925,984
2314.1806104990483,957
2316.0450524234247,1004
2317.9090690262888,1017
2319.772660589186,1003
2321.635827393742,977
2323.498569721661,988
2325.3608878547248,991
2327.2227820747967,995
2329.0842526638157,1000
2330.945299903803,981
2332.805924076857,1016
2334.6661254651535,1017
2336.525904350951,974
2338.3852610165827,986
2340.244195744464,965
2342.102708817088,997
2343.9608005170253,996
2345.8184711269287,1028
2347.675720929526,1004
2349.532550207628,999
2351.38895924412,1009
2353.24494832197,998
2355.100517724223,1032
2356.955667734004,1012
2358.810398634514,954
2360.664710709037,959
2362.5186042409337,994
2364.3720795136437,977
2366.225136810686,1026
2368.0777764156583,961
2369.929998612237,990
2371.7818036841777,973
2373.633191915315,1004
2375.484163589562,998
2377.3347189909114,1012
2379.184858403434,992
2381.03458211128,1008
2382.8838903986775,999
2384.732783549936,996
2386.5812618494406,1025
2388.4293255816588,978
2390.2769750311327,1032
2392.1242104824883,1006
2393.971032220427,1010
2395.8174405297295,1007
2397.6634356952563,1012
2399.509018001947,1021
2401.3541877348193,990
2403.1989451789705,1068
2405.043290619576,1031
2406.8872243418905,1049
2408.730746631247,1057
2410.5738577730594,994
2412.4165580528183,1019
2414.258847756095,1006
2416.100727168537,1019
2417.9421965758734,1013
2419.783256263912,985
2421.623906518538,1004
2423.4641476257157,1010
2425.303979871491,989
2427.143403541984,1051
2428.9824189233977,1012
2430.821026302012,983
2432.6592259641866,1001
2434.497018196361,1031
2436.33440328505,1032
2438.171381516851,1016
2440.00795317844,1025
2441.844118556569,985
2443.6798779380724,1030
2445.5152316098606,1009
2447.3501798589255,986
2449.1847229723357,1012
2451.0188612372403,994
2452.8525949408663,990
2454.6859243705203,1044
2456.518849813587,1037
2458.3513715575314,1008
2460.183489889895,1012
2462.015205098301,1033
2463.8465174704493,980
2465.67742729412,1017
2467.5079348571717,1015
2469.338040447542,1000
2471.1677443532476,1010
2472.9970468623833,1034
2474.825948263123,1047
2476.6544488437207,1062
2478.482548892508,1004
2480.310248697896,1075
2482.137548548374,1019
2483.9644487325118,1032
2485.790949538956,1065
2487.617051256433,1000
2489.44275417375,1047
2491.26805857979,1014
2493.0929647635157,1010
2494.917473013971,1013
2496.741583620276,1091
2498.5652968716304,1055
2500.3886130573137,1028
2502.2115324666834,1016
2504.0340553891765,1044
2505.856182114308,1018
2507.6779129316733,1073
2509.499248130945,1071
2511.3201880018764,1064
2513.140732834298,1057
2514.9608829181198,1042
2516.780638543331,1025
2518.6,1072
2520.418967578273,1051
2522.237541568376,1060
2524.0557222606144,998
2525.8735099453706,1065
2527.6909049131086,1069
2529.507907454368,1040
2531.32451785977,1084
2533.140736420014,1045
2534.9565634258774,1117
2536.771999168218,1071
2538.5870439379714,1103
2540.4016980261526,1065
2542.2159617238544,1079
2544.02983532225,1135
2545.8433191125914,1097
2547.656413386209,1140
2549.4691184345115,1097
2551.2814345489874,1143
2553.093362021204,1121
2554.904901142808,1140
2556.716052205523,1141
2558.526815501153,1167
2560.3371913215824,1093
2562.147179958771,1193
2563.956781704761,1129
2565.7659968516705,1169
2567.5748256916986,1199
2569.3832685171224,1173
2571.1913256202984,1128
2572.9989972936614,1183
2574.806283829725,1198
2576.613185521084,1179
2578.4197026604074,1183
2580.2258355404483,1118
2582.031584454035,1184
2583.836949694077,1204
2585.6419315535613,1168
2587.4465303255533,1148
2589.2507463032002,1186
2591.0545797797245,1195
2592.8580310484303,1240
2594.6611004026995,1172
2596.463788135992,1214
2598.266094541849,1165
2600.0680199138874,1191
2601.869564545807,1169
2603.670728731383,1174
2605.4715127644704,1164
2607.2719169390048,1206
2609.071941548998,1190
2610.8715868885433,1116
2612.670853251811,1215
2614.469740933052,1196
2616.268250226594,1177
2618.0663814268455,1216
2619.864134828292,1157
2621.6615107255006,1163
2623.458509413115,1151
2625.2551311858597,1100
2627.0513763385347,1181
2628.8472451660223,1166
2630.6427379632833,1175
2632.4378550253564,1173
2634.232596647359,1160
2636.026963124488,1114
2637.8209547520187,1134
2639.6145718253065,1110
2641.407814639785,1172
2643.200683490966,1169
2644.9931786744414,1131
2646.7853004858807,1139
2648.577049221034,1132
2650.3684251757277,1096
2652.1594286458712,1124
2653.9500599274484,1166
2655.740319316525,1097
2657.5302071092437,1070
2659.3197236018286,1103
2661.10886909058,1068
2662.8976438718782,1146
2664.686048242183,1049
2666.4740824980327,1068
2668.2617469360443,1096
2670.0490418529134,1045
2671.8359675454153,1011
2673.622524310403,1081
2675.408712444811,1092
2677.1945322456495,1051
2678.979984010009,1007
2680.76506803506,1054
2682.5497846180497,1115
2684.334134056306,1034
2686.1181166472343,1060
2687.9017326883213,1048
2689.6849824771293,1045
2691.4678663113013,1068
2693.2503844885596,1087
2695.032537306705,1090
2696.8143250636167,1015
2698.5957480572542,1092
2700.3768065856534,1039
2702.1575009469316,949
2703.937831439283,1028
2705.717798360982,985
2707.4974020103837,1012
2709.276642685917,1030
2711.055520686095,1013
2712.834036309506,980
2714.612189854819,1029
2716.389981620782,997
2718.1674119062204,1054
2719.944481010041,1051
2721.721189231226,980
2723.4975368688415,1001
2725.273524222027,1033
2727.0491515900053,1007
2728.824419272075,995
2730.5993275676146,1021
2732.3738767760838,1025
2734.148067197016,993
2735.921899130031,963
2737.6953728748194,994
2739.468488731156,1074
2741.2412469988926,1010
2743.0136479779617,993
2744.785691968372,973
2746.5573792702116,1008
2748.3287101836504,1005
2750.099685008934,964
2751.870304046388,964
2753.640567596418,968
2755.4104759595057,987
2757.1800294362156,1002
2758.949228327187,996
2760.7180729331412,997
2762.486563554877,1011
2764.254700493272,1005
2766.022484049284,940
2767.789914523947,951
2769.5569922183786,985
2771.3237174337705,1018
2773.090090471394,984
2774.8561116326036,977
2776.6217812188274,937
2778.3870995315756,1008
2780.1520668724356,995
2781.9166835430747,985
2783.6809498452394,979
2785.444866080754,996
2787.2084325515225,978
2788.971649559527,988
2790.73451740683,965
2792.4970363955713,997
2794.2592068279705,991
2796.0210290063264,984
2797.7825032330147,1014
2799.543629810493,1027
2801.304409041296,956
2803.0648412280366,1054
2804.8249266734088,1046
2806.5846656801846,996
2808.344058551212,989
2810.1031055894246,976
2811.8618070978273,1014
2813.6201633795085,987
2815.378174737636,1006
2817.1358414754536,973
2818.893163896285,947
2820.6501423035334,1059
2822.4067770006814,986
2824.1630682912883,998
2825.9190164789957,996
2827.6746218675207,956
2829.429884760661,1008
2831.184805462294,967
2832.9393842763743,1001
2834.693621506936,978
2836.4475174580916,1008
2838.201072434034,1015
2839.954286739034,1010
2841.707160677441,955
2843.459694553685,970
2845.2118886722724,991
2846.96374333779,995
2848.7152588549034,981
2850.4664355283567,1013
2852.217273662973,998
2853.9677735636546,998
2855.7179355353833,952
2857.4677598832186,992
2859.217246912299,966
2860.9663969278427,985
2862.715210235146,1029
2864.4636871395846,984
2866.211827946614,963
2867.9596329617652,1002
2869.7071024906536,1003
2871.4542368389684,1001
2873.20103631248,946
2874.947501217038,976
2876.6936318585695,968
2878.4394285430812,988
2880.1848915766604,985
2881.9300212654707,963
2883.6748179157553,969
2885.4192818338374,1010
2887.1634133261173,992
2888.907212699077,979
2890.6506802592744,1022
2892.393816313348,973
2894.1366211680142,991
2895.8790951300693,957
2897.621238506388,981
2899.363051603925,959
2901.1045347297118,999
2902.8456881908596,1008
2904.58651229456,955
2906.327007348081,945
2908.067173658772,964
2909.8070115340597,988
2911.5465212814497,929
2913.285703208527,968
2915.0245576229563,1016
2916.7630848324807,941
2918.5012851449196,987
2920.2391588681758,987
2921.976706310227,990
2923.7139277791334,962
2925.4508235830313,964
2927.187394030137,951
2928.923639428745,972
2930.6595600872306,993
2932.395156314046,1008
2934.1304284177218,968
2935.8653767068713,999
2937.6000014901815,1025
2939.3343030764227,1023
2941.068281774442,1027
2942.8019378931644,1020
2944.5352717415976,988
2946.2682836288236,994
2948.0009738640065,967
2949.7333427563885,949
2951.465390615289,951
2953.1971177501086,984
2954.9285244703265,1003
2956.6596110855,975
2958.3903779052657,1025
2960.1208252393385,1007
2961.8509533975125,977
2963.5807626896617,970
2965.3102534257378,985
2967.0394259157715,950
2968.768280469873,961
2970.496817398232,969
2972.2250370111146,960
2973.952939618869,980
2975.6805255319196,1025
2977.4077950607707,1036
2979.134748516006,994
2980.861386208289,967
2982.587708448359,989
2984.313715547037,1002
2986.039407815222,1000
2987.764785563891,953
2989.489849104102,945
2991.2145987469908,992
2992.9390348037705,997
2994.6631575857346,964
2996.3869674042576,956
2998.1104645707887,1009
2999.83364939686,991
3001.5565221940783,992
3003.2790832741334,1004
3005.0013329487924,936
3006.7232715298996,947
3008.4448993293804,951
3010.166216659239,997
3011.887223831558,948
3013.607921158498,959
3015.3283089522993,993
3017.0483875252826,997
3018.7681571898443,976
3020.4876182584626,953
3022.2067710436927,1008
3023.9256158581707,960
3025.644153014609,946
3027.362382825801,942
3029.0803056046193,961
3030.797921664012,961
3032.5152313170106,980
3034.2322348767225,991
3035.9489326563353,963
3037.665324969115,959
3039.3814121284063,989
3041.097194447633,974
3042.812672240299,943
3044.5278458199855,935
3046.2427155003525,981
3047.9572815951406,969
3049.671544418167,975
3051.38550428333,956
3053.0991615046073,946
3054.812516396051,932
3056.5255692717974,957
3058.2383204460575,964
3059.9507702331257,1009
3061.662918947372,985
3063.3747669032446,984
3065.0863144152736,987
3066.7975617980674,954
3068.508509366309,966
3070.219157434767,976
3071.9295063182844,961
3073.639556331785,988
3075.3493077902704,921
3077.058761008821,980
3078.7679163025964,965
3080.476773986837,1000
3082.1853343768594,964
3083.89359778806,942
3085.6015645359153,989
3087.3092349359786,986
3089.016609303884,963
3090.7236879553434,973
3092.4304712061476,959
3094.136959372166,979
3095.843152769349,1007
3097.5490517137237,986
3099.2546565213966,961
3100.959967508554,975
3102.66498499146,998
3104.3697092864577,935
3106.0741407099695,969
3107.778279578498,968
3109.482126208622,974
3111.1856809170004,970
3112.8889440203716,988
3114.5919158355528,1016
3116.294596679439,1012
3117.996986869006,948
3119.6990867213062,968
3121.4008965534726,970
3123.102416682717,972
3124.803647426329,1006
3126.5045891016784,955
3128.205242026213,974
3129.90560651746,982
3131.605682893025,1000
3133.3054714705922,1000
3135.0049725679282,991
3136.7041865028714,946
3138.4031135933465,924
3140.101754157353,975
3141.800108512971,974
3143.498176978357,956
3145.1959598717494,981
3146.8934575114636,975
3148.5906702158954,958
3150.2875983035183,947
3151.9842420928853,1009
3153.680601902627,975
3155.376678051456,962
3157.07247085816,988
3158.767980641609,963
3160.463207720748,962
3162.158152414606,1007
3163.8528150422862,990
3165.5471959229726,969
3167.2412953759303,959
3168.9351137204976,900
3170.628651276098,958
3172.3219083622307,998
3174.014885298474,940
3175.707582404485,948
3177.4000000000005,1011
3179.092138404835,988
3180.7839979388846,979
3182.47557892212,962
3184.166881674594,946
3185.8579065164386,969
3187.5486537678626,951
3189.2391237491547,987
3190.9293167806827,964
3192.6192331828934,980
3194.3088732763117,990
3195.998237381542,977
3197.687325819268,970
3199.376138910251,979
3201.064676975334,992
3202.7529403354347,981
3204.4409293115523,981
3206.1286442247647,981
3207.816085396229,958
3209.5032531471825,962
3211.190147798936,927
3212.8767696728846,999
3214.5631190905015,919
3216.2491963733373,951
3217.9350018430214,924
3219.6205358212637,931
3221.305798629851,932
3222.990790590651,920
3224.6755120256103,960
3226.359963256751,982
3228.0441446061795,957
3229.7280563960758,1032
3231.411698948703,961
3233.0950725863995,931
3234.778177631587,954
3236.461014406761,954
3238.1435832345005,984
3239.8258844374595,1000
3241.507918338374,979
3243.1896852600576,942
3244.8711855254023,973
3246.552419457381,948
3248.233387379042,969
3249.914089613516,1000
3251.59452648401,992
3253.274698313813,955
3254.95460542629,981
3256.6342481448855,943
3258.313626793125,976
3259.9927416946084,988
3261.6715931730196,977
3263.3501815521176,959
3265.0285071557437,906
3266.706570307815,941
3268.3843713323286,946
3270.0619105533615,953
3271.739188295068,998
3273.4162048816834,939
3275.0929606375184,941
3276.769455886966,915
3278.445690954498,907
3280.1216661646613,936
3281.797381842087,946
3283.4728383114807,980
3285.1480358976296,970
3286.8229749253996,970
3288.4976557197333,955
3290.172078605655,901
3291.846243908266,982
3293.5201519527463,951
3295.193803064357,934
3296.8671975684374,933
3298.5403357904024,962
3300.21321805575,988
3301.8858446900567,965
3303.558216018975,910
3305.23033236824,896
3306.9021940636603,912
3308.57380143113,896
3310.2451547966184,966
3311.916254486174,970
3313.5871008259246,952
3315.2576941420766,934
3316.9280347609147,963
3318.5981230088046,950
3320.2679592121895,937
3321.9375436975924,931
3323.606876791612,912
3325.27595882093,955
3326.944790112305,929
3328.6133709925753,899
3330.2817017886573,940
3331.949782827547,942
3333.617614436319,911
3335.2851969421245,962
3336.952530672199,975
3338.619615953853,981
3340.286453114475,964
3341.9530424815357,957
3343.619384382583,974
3345.2854791452437,954
3346.951327097224,964
3348.6169285663073,931
3350.2822838803577,983
3351.947393367319,991
3353.61225735521,999
3355.2768761721345,956
3356.9412501462693,958
3358.605379605873,962
3360.2692648792827,937
3361.9329062949146,940
3363.596304181263,911
