CollectionTime,7/11/2024 1:46:04 PM
ExposureUsed,3
CalibratedSpectrum
-962.7078968117929,441
-959.9714848408522,445
-957.2358232597828,462
-954.5009119013725,434
-951.7667505983302,434
-949.0333391832855,443
-946.3006774887896,448
-943.5687653473143,432
-940.837602591253,442
-938.1071890529199,425
-935.3775245645503,437
-932.6486089583007,438
-929.9204420662485,443
-927.1930237203925,455
-924.4663537526524,435
-921.7404319948689,459
-919.0152582788041,447
-916.2908324361409,476
-913.5671542984834,463
-910.8442236973568,438
-908.1220404642074,457
-905.4006044304027,459
-902.679915427231,453
-899.959973285902,449
-897.2407778375464,466
-894.5223289132158,450
-891.8046263438832,428
-889.0876699604426,425
-886.3714595937089,434
-883.6559950744183,438
-880.9412762332282,444
-878.2273029007168,426
-875.5140749073835,444
-872.8015920836489,451
-870.0898542598545,447
-867.3788612662631,444
-864.6686129330585,434
-861.9591090903457,442
-859.2503495681506,444
-856.5423341964203,436
-853.8350628050229,440
-851.1285352237478,435
-848.4227512823054,440
-845.7177108103272,458
-843.0134136373656,446
-840.3098595928943,444
-837.6070485063082,455
-834.9049802069229,454
-832.2036545239757,462
-829.5030712866244,448
-826.8032303239481,451
-824.1041314649472,468
-821.4057745385428,467
-818.7081593735775,442
-816.0112857988148,463
-813.3151536429393,466
-810.6197627345566,453
-807.9251129021936,451
-805.2312039742981,460
-802.5380357792392,449
-799.8456081453069,444
-797.1539209007124,445
-794.462973873588,470
-791.772766891987,475
-789.083299783884,460
-786.3945723771743,457
-783.7065844996748,461
-781.0193359791231,464
-778.3328266431781,462
-775.6470563194197,479
-772.9620248353489,478
-770.2777320183878,456
-767.5941776958798,460
-764.9113616950891,514
-762.2292838432011,486
-759.5479439673222,475
-756.8673418944801,452
-754.1874774516235,466
-751.5083504656222,484
-748.8299607632671,438
-746.15230817127,468
-743.475392516264,488
-740.7992136248035,452
-738.1237713233636,460
-735.4490654383407,477
-732.7750957960521,461
-730.1018622227365,479
-727.4293645445534,480
-724.7576025875837,472
-722.0865761778291,478
-719.4162851412126,464
-716.7467293035781,466
-714.0779084906909,519
-711.409822528237,490
-708.7424712418238,489
-706.0758544569796,493
-703.4099719991541,488
-700.7448236937178,478
-698.0804093659622,508
-695.4167288411002,483
-692.7537819442656,476
-690.0915685005134,505
-687.4300883348199,477
-684.7693412720819,490
-682.1093271371178,500
-679.4500457546669,504
-676.7914969493897,489
-674.1336805458676,503
-671.4765963686034,507
-668.8202442420206,523
-666.1646239904642,516
-663.5097354382001,506
-660.8555784094151,503
-658.2021527282176,502
-655.5494582186366,524
-652.8974947046223,491
-650.2462620100463,490
-647.5957599587009,492
-644.9459883742998,512
-642.2969470804776,507
-639.6486359007902,498
-637.0010546587141,526
-634.3542031776476,532
-631.7080812809096,533
-629.0626887917401,507
-626.4180255333008,516
-623.7740913286734,528
-621.1308860008619,515
-618.4884093727904,527
-615.8466612673046,525
-613.2056415071715,545
-610.5653499150785,503
-607.9257863136347,512
-605.28695052537,539
-602.6488423727357,539
-600.0114616781036,512
-597.3748082637674,511
-594.7388819519412,534
-592.1036825647604,563
-589.4692099242818,542
-586.8354638524829,552
-584.2024441712624,556
-581.5701507024403,534
-578.9385832677575,539
-576.3077416888759,546
-573.6776257873787,545
-571.0482353847704,544
-568.4195703024757,532
-565.7916303618415,542
-563.164415384135,532
-560.5379251905453,547
-557.9121596021815,552
-555.2871184400748,558
-552.6628015251767,536
-550.0392086783606,538
-547.4163397204204,565
-544.794194472071,547
-542.1727727539491,551
-539.5520743866118,548
-536.9320991905377,582
-534.3128469861261,593
-531.6943175936979,612
-529.0765108334947,627
-526.4594265256793,630
-523.8430644903358,721
-521.2274245474689,755
-518.612506517005,836
-515.9983102187913,793
-513.3848354725959,820
-510.77208209810846,936
-508.16004991493924,1019
-505.5487387426199,1105
-502.9381484006032,1093
-500.3282787082628,1047
-497.71912948489364,964
-495.1107005497117,862
-492.5029917218539,757
-489.8960028203786,707
-487.28973366426493,691
-484.68418407241325,645
-482.07935386364494,666
-479.47524285670266,633
-476.87185087025,637
-474.2691777228715,665
-471.66722323307334,657
-469.0659872192821,665
-466.4654694998459,681
-463.86566989303384,653
-461.26658821703614,667
-458.66822428996414,689
-456.07057792985,690
-453.4736489546475,665
-450.877437182231,635
-448.28194243039627,686
-445.68716451686,664
-443.09310325926003,654
-440.49975847515555,662
-437.9071299820263,680
-435.31521759727354,629
-432.72402113821954,644
-430.13354042210767,688
-427.5437752661022,695
-424.95472548728867,682
-422.36639090267386,682
-419.7787713291855,679
-417.1918665836721,702
-414.60567648290385,700
-412.0202008435715,696
-409.4354394822874,668
-406.8513922155845,681
-404.26805885991723,736
-401.685439231661,717
-399.103533147112,711
-396.522340422488,686
-393.9418608739278,676
-391.3620943174908,710
-388.7830405691583,688
-386.2046994448317,649
-383.6270707603344,644
-381.05015433141045,617
-378.473949973725,616
-375.8984575028645,565
-373.32367673433623,568
-370.74960748356875,523
-368.1762495659117,534
-365.60360279663576,461
-363.03166699093265,450
-360.4604419639154,432
-357.8899275306178,405
-355.32012350599507,432
-352.7510297049233,407
-350.1826459421999,398
-347.61497203254316,397
-345.04800779059235,402
-342.4817530309082,404
-339.91620756797226,425
-337.35137121618743,414
-334.7872437898774,418
-332.22382510328725,414
-329.66111497058273,459
-327.09911320585127,439
-324.53781962310075,435
-321.9772340362607,439
-319.4173562591816,396
-316.8581861056348,427
-314.2997233893127,420
-311.7419679238294,423
-309.1849195227194,435
-306.62857799943856,421
-304.0729431673641,424
-301.51801483979375,456
-298.963792829947,423
-296.41027695096386,420
-293.85746701590574,466
-291.3053628377552,461
-288.7539642294155,513
-286.2032710037115,467
-283.65328297338897,449
-281.1039999511146,447
-278.5554217494762,435
-276.007548180983,485
-273.4603790580651,453
-270.9139141930734,464
-268.3681533982807,454
-265.8230964858798,478
-263.27874326798565,496
-260.7350935566336,517
-258.1921471637804,499
-255.6499039013039,481
-253.10836358100266,474
-250.56752601459698,492
-248.02739101372765,509
-245.48795838995704,530
-242.94922795476816,509
-240.41119951956557,486
-237.8738728956746,534
-235.33724789434166,519
-232.80132432673452,483
-230.2661020039418,490
-227.73158073697357,547
-225.19776033676033,582
-222.66464061415422,584
-220.1322213799284,548
-217.60050244477725,541
-215.06948361931552,533
-212.53916471408013,525
-210.00954553952818,581
-207.48062590603843,535
-204.9524056239104,493
-202.4248845033651,522
-199.8980623545441,520
-197.37193898751036,536
-194.84651421224817,586
-192.32178783866232,609
-189.79775967657952,553
-187.27442953574644,549
-184.7517972258321,577
-182.2298625564256,598
-179.7086253370378,545
-177.18808537710026,547
-174.66824248596583,589
-172.14909647290835,603
-169.6306471471229,621
-167.11289431772548,611
-164.59583779375328,622
-162.07947738416453,661
-159.5638128978386,645
-157.04884414357605,646
-154.53457093009854,670
-152.02099306604828,687
-149.50811035998936,611
-146.99592262040665,579
-144.48442965570587,666
-141.97363127421409,660
-139.46352728417958,623
-136.95411749377126,661
-134.44540171107985,684
-131.93737974411636,608
-129.43005140081357,677
-126.92341648902493,768
-124.41747481652521,908
-121.91222619101006,1061
-119.40767042009657,1217
-116.90380731132257,1443
-114.40063667214702,1423
-111.8981583099503,1388
-109.3963720320337,1158
-106.89527764561933,1020
-104.39487495785067,996
-101.89516377579241,1207
-99.39614390642998,1476
-96.89781515667039,1699
-94.40017733334128,1742
-91.90323024319173,1975
-89.40697369289148,2615
-86.91140748903172,3115
-84.41653143812482,3443
-81.92234534660395,2842
-79.42884902082358,2036
-76.93604226705907,2205
-74.4439248915071,4255
-71.95249670028534,6881
-69.46175749943245,9409
-66.97170709490854,10712
-64.48234529259423,10177
-61.99367189829195,8350
-59.50568671772464,7154
-57.01838955653636,6180
-54.53178022029283,5808
-52.045858514480074,4870
-49.560624244506016,5325
-47.07607721569923,6465
-44.59221723330904,6505
-42.10904410250669,6141
-39.62655762838392,6806
-37.14475761595372,6701
-34.66364387015028,6252
-32.18321619582866,6914
-29.70347439776515,7652
-27.224418280657005,7731
-24.74604764912317,8902
-22.26836230770266,11684
-19.7913620608565,16539
-17.315046712966478,24556
-14.83941606833514,31203
-12.36446993118659,39593
-9.89020810566592,65040
-7.416630395839093,65040
-4.94373660569363,65040
-2.471526539137585,65040
-6.821210263296962E-13,65040
2.47084320796705,65040
4.941003281093458,65040
7.410480415786196,65040
9.879274808531363,65040
12.347386655893956,65040
14.814816154518212,65040
17.28156350112681,65040
19.74762889252179,65040
22.21301252558385,65040
24.67771459727237,19748
27.141735304626195,3131
29.605074844762612,2342
32.06773341487792,2164
34.52971121224755,1695
36.99100843422559,1718
39.45162527824516,1484
41.91156194181792,1195
44.370818622535126,1245
46.82939551806646,1226
49.287292826160524,1340
51.74451074464503,1367
54.201049471426245,1334
56.65690920448981,1234
59.112090141899785,1117
61.56659248179983,1007
64.02041642241159,1004
66.4735621620365,922
68.92602989905402,838
71.37781983192338,915
73.82893215918205,954
76.27936707944684,953
78.72912479141326,986
81.17820549385567,1146
83.62660938562783,1184
86.07433666566146,1071
88.5213875329681,805
90.96776218663751,795
93.41346082583925,747
95.85848364982041,779
98.30283085790859,841
100.7465026495089,800
103.18949922410604,778
105.63182078126385,812
108.07346752062438,803
110.51443964190923,748
112.95473734491827,751
115.39436082953114,776
117.83331029570547,731
120.27158594347827,645
122.7091879729652,652
125.1461165843615,750
127.58237197794062,795
130.01795435405518,775
132.4528639131364,676
134.88710085569494,666
137.32066538231982,699
139.75355769367923,692
142.1857779905207,730
144.61732647366978,728
147.04820334403132,713
149.47840880258934,746
151.90794305040674,726
154.33680628862487,771
156.76499871846443,927
159.19252054122433,992
161.61937195828352,1081
164.04555317109896,1116
166.47106438120693,1229
168.89590579022217,1334
171.320077599839,1378
173.7435800118302,1457
176.16641322804742,1498
178.58857745042144,1554
181.01007288096173,1659
183.43089972175687,1691
185.85105817497413,1571
188.27054844285988,1595
190.6893707277394,1620
193.10752523201643,1565
195.5250121581745,1616
197.9418317087751,1676
200.3579840864594,1699
202.7734694939469,1727
205.18828813403627,1751
207.6024402096051,1732
210.01592592360964,1695
212.42874547908548,1785
214.84089907914665,1785
217.2523869269868,1741
219.66320922587727,1748
222.0733661791695,1735
224.48285799029293,1788
226.8916848627572,1786
229.29984700014882,1778
231.7073446061355,1787
234.11417788446204,1818
236.520347038953,1862
238.92585227351185,1793
241.33069379212054,1843
243.73487179884035,1877
246.1383864978112,1898
248.541238093252,1903
250.9434267894609,1855
253.34495279081432,1848
255.74581630176783,1980
258.1460175268563,1975
260.54555667069314,1918
262.9444339379703,1937
265.3426495334594,1915
267.7402036620107,1893
270.1370965285529,1852
272.53332833809407,1895
274.9288992957214,1772
277.32380960660055,1836
279.718059475976,1783
282.1116491091717,1811
284.5045787115897,1764
286.89684848871195,1805
289.2884586460981,1784
291.67940938938807,1717
294.0697009242996,1753
296.4593334566299,1791
298.84830719225477,1752
301.23662233712923,1702
303.6242790972866,1641
306.01127767884,1732
308.39761828798066,1688
310.78330113097934,1707
313.16832641418534,1729
315.5526943440269,1587
317.9364051270112,1646
320.3194589697242,1606
322.70185607883093,1652
325.0835966610754,1607
327.4646809232805,1609
329.8451090723478,1592
332.2248813152577,1588
334.6039978590701,1621
336.9824589109231,1542
339.36026467803447,1535
341.7374153677,1539
344.113911187295,1543
346.48975234427337,1611
348.8649390461686,1626
351.2394715005918,1566
353.61334991523415,1449
355.9865744978655,1539
358.35914545633375,1525
360.73106299856715,1485
363.10232733257146,1523
365.47293866643247,1548
367.84289720831396,1470
370.2122031664593,1502
372.5808567491905,1375
374.9488581649083,1476
377.31620762209275,1486
379.6829053293021,1441
382.0489514951745,1464
384.4143463284262,1411
386.7790900378528,1443
389.14318283232853,1438
391.50662492080653,1399
393.86941651231916,1393
396.23155781597745,1476
398.5930490409713,1396
400.9538903965696,1472
403.3140820921202,1450
405.6736243370498,1446
408.03251734086336,1406
410.3907613131465,1412
412.74835646356166,1435
415.10530300185144,1418
417.4616011378372,1422
419.81725108141893,1369
422.1722530425758,1385
424.5266072313656,1384
426.880313857925,1410
429.2333731324701,1408
431.58578526529516,1336
433.9375504667738,1342
436.2886689473588,1324
438.63914091758113,1374
440.9889665880513,1411
443.33814616945835,1384
445.68667987257015,1399
448.03456790823395,1369
450.3818104873759,1374
452.72840782100013,1335
455.07436012019105,1277
457.41966759611057,1323
459.7643304600007,1341
462.10834892318155,1299
464.4517231970525,1285
466.79445349309174,1351
469.1365400228566,1319
471.4779829979826,1341
473.81878263018564,1293
476.15893913125876,1329
478.4984527130747,1373
480.8373235875855,1393
483.17555196682144,1342
485.5131380628919,1433
487.8500820879857,1465
490.1863842543697,1473
492.52204477439034,1523
494.8570638604725,1582
497.1914417251204,1716
499.52517858091653,1872
501.85827464052306,2081
504.19073011668036,2301
506.5225452222086,2414
508.85372017000566,2456
511.18425517304956,2523
513.514150444396,2544
515.8434061971808,2925
518.1720226446176,3365
520.4999999999999,3516
522.8273384766991,3358
525.1540382881666,2950
527.480099647932,2609
529.8055227696037,2257
532.1303078668694,1857
534.454455153496,1676
536.777964843328,1496
539.1008371502907,1470
541.4230722883866,1432
543.744670471698,1407
546.0656319143858,1455
548.3859568306899,1471
550.7056454349294,1315
553.0246979415016,1371
555.3431145648834,1382
557.6608955196306,1332
559.978041020377,1400
562.2945512818363,1351
564.6104265188006,1369
566.9256669461412,1361
569.2402727788082,1297
571.5542442318302,1375
573.8675815203156,1414
576.1802848594508,1398
578.4923544645015,1396
580.8037905508126,1398
583.114593333807,1366
585.4247630289875,1468
587.7342998519354,1416
590.0432040183106,1404
592.3514757438526,1400
594.6591152443794,1382
596.9661227357875,1399
599.2724984340531,1389
601.578242555231,1366
603.8833553154542,1417
606.1878369309362,1416
608.4916876179676,1441
610.7949075929192,1401
613.0974970722403,1405
615.3994562724587,1393
617.7007854101818,1399
620.0014847020951,1393
622.3015543649641,1378
624.6009946156324,1316
626.8998056710224,1453
629.1979877481361,1378
631.4955410640538,1401
633.7924658359349,1468
636.0887622810175,1460
638.3844306166192,1404
640.6794710601358,1395
642.9738838290426,1428
645.2676691408932,1453
647.5608272133207,1488
649.853358264037,1456
652.1452625108324,1397
654.4365401715764,1429
656.7271914642178,1425
659.0172166067838,1418
661.3066158173809,1418
663.5953893141935,1454
665.8835373154867,1460
668.1710600396028,1420
670.4579577049639,1429
672.7442305300709,1428
675.0298787335033,1436
677.3149025339197,1387
679.599302150058,1386
681.8830778007342,1365
684.1662297048437,1416
686.4487580813608,1425
688.7306631493387,1456
691.0119451279091,1410
693.2926042362834,1390
695.5726406937516,1393
697.8520547196814,1392
700.1308465335215,1428
702.4090163547982,1447
704.6865644031171,1440
706.9634908981619,1441
709.2397960596965,1397
711.5154801075631,1380
713.7905432616823,1465
716.0649857420548,1408
718.3388077687592,1371
720.612009561953,1431
722.8845913418733,1407
725.1565533288352,1392
727.427895743234,1421
729.6986188055427,1448
731.9687227363137,1399
734.238207756178,1389
736.5070740858458,1399
738.7753219461066,1456
741.0429515578281,1465
743.3099631419569,1433
745.5763569195191,1370
747.8421331116193,1434
750.1072919394409,1417
752.3718336242467,1442
754.6357583873777,1392
756.8990664502545,1430
759.1617580343765,1477
761.423833361321,1397
763.6852926527457,1400
765.9461361303862,1437
768.206364016058,1442
770.4659765316536,1434
772.7249738991469,1448
774.9833563405886,1457
777.2411240781092,1409
779.4982773339183,1461
781.7548163303044,1457
784.010741289634,1462
786.2660524343538,1497
788.5207499869881,1496
790.7748341701416,1470
793.0283052064964,1462
795.2811633188143,1451
797.5334087299362,1419
799.7850416627813,1467
802.0360623403484,1439
804.2864709857143,1427
806.5362678220353,1430
808.7854530725468,1478
811.0340269605625,1475
813.2819897094754,1511
815.5293415427581,1481
817.77608268396,1431
820.0222133567116,1442
822.2677337847211,1482
824.5126441917765,1457
826.7569448017433,1528
829.0006358385675,1479
831.2437175262731,1478
833.4861900889629,1410
835.7280537508192,1424
837.9693087361026,1492
840.2099552691533,1475
842.4499935743896,1468
844.689423876309,1456
846.9282463994886,1516
849.1664613685833,1449
851.4040690083276,1395
853.6410695435349,1409
855.877463199097,1453
858.1132501999847,1467
860.3484307712487,1482
862.5830051380175,1480
864.8169735254988,1486
867.0503361589791,1478
869.2830932638243,1540
871.5152450654786,1480
873.7467917894654,1479
875.9777336613873,1454
878.2080709069252,1473
880.4378037518389,1463
882.666932421968,1472
884.8954571432301,1479
887.1233781416219,1446
889.3506956432192,1503
891.5774098741766,1471
893.803521060728,1464
896.0290294291852,1469
898.2539352059397,1489
900.4782386174619,1546
902.7019398903011,1511
904.925039251085,1531
907.147536926521,1434
909.3694331433943,1452
911.59072812857,1524
913.8114221089921,1444
916.0315153116827,1442
918.2510079637437,1487
920.4699002923547,1428
922.6881925247761,1400
924.905884888345,1462
927.1229776104793,1474
929.3394709186747,1446
931.555365040506,1428
933.7706602036275,1461
935.9853566357709,1461
938.1994545647489,1476
940.4129542184515,1476
942.6258558248488,1476
944.8381596119883,1449
947.0498658079974,1421
949.2609746410825,1438
951.4714863395287,1505
953.6814011316998,1436
955.8907192460387,1419
958.0994409110671,1398
960.3075663553858,1444
962.5150958076741,1388
964.7220294966913,1439
966.928367651274,1392
969.1341105003388,1388
971.3392582728806,1459
973.5438111979742,1424
975.747769504772,1339
977.9511334225061,1402
980.153903180487,1425
982.3560790081052,1392
984.5576611348289,1358
986.7586497902058,1358
988.9590452038618,1321
991.158847605503,1365
993.3580572249133,1385
995.5566742919558,1350
997.7546990365728,1298
999.952131688785,1248
1002.1489724786926,1305
1004.3452216364743,1258
1006.5408793923874,1255
1008.7359459767691,1232
1010.9304216200343,1172
1013.1243065526781,1224
1015.3176010052733,1263
1017.510305208472,1174
1019.7024193930064,1215
1021.8939437896848,1265
1024.0848786293977,1221
1026.2752241431122,1147
1028.4649805618747,1171
1030.6541481168115,1220
1032.842727039127,1176
1035.0307175601051,1231
1037.2181199111074,1221
1039.4049343235752,1222
1041.591161029029,1176
1043.7768002590683,1172
1045.9618522453698,1196
1048.1463172196918,1235
1050.3301954138697,1214
1052.513487059818,1187
1054.69619238953,1173
1056.8783116350783,1184
1059.0598450286152,1180
1061.2407928023704,1188
1063.4211551886528,1181
1065.6009324198508,1226
1067.780124728432,1171
1069.9587323469414,1217
1072.1367555080046,1185
1074.314194444325,1199
1076.4910493886855,1160
1078.667320573947,1157
1080.843008233051,1121
1083.0181125990161,1172
1085.1926339049414,1156
1087.3665723840027,1174
1089.5399282694575,1161
1091.7127017946405,1140
1093.8848931929647,1175
1096.0565026979243,1096
1098.2275305430899,1160
1100.3979769621128,1136
1102.567842188722,1138
1104.737126456726,1132
1106.9058300000124,1137
1109.0739530525475,1161
1111.2414958483764,1092
1113.4084586216231,1092
1115.5748416064907,1118
1117.7406450372605,1128
1119.9058691482942,1156
1122.0705141740304,1117
1124.2345803489884,1130
1126.3980679077658,1154
1128.5609770850388,1086
1130.7233081155623,1104
1132.8850612341707,1105
1135.0462366757774,1128
1137.2068346753745,1127
1139.3668554680326,1161
1141.526299288901,1103
1143.68516637321,1132
1145.8434569562655,1159
1148.001171273455,1149
1150.158309560244,1122
1152.3148720521767,1072
1154.470858984876,1128
1156.626270594044,1104
1158.7811071154629,1101
1160.9353687849912,1084
1163.089055838569,1093
1165.242168512213,1105
1167.3947070420209,1080
1169.5466716641677,1075
1171.6980626149075,1096
1173.8488801305748,1089
1175.9991244475814,1115
1178.1487958024186,1069
1180.2978944316555,1101
1182.4464205719428,1043
1184.5943744600072,1102
1186.7417563326567,1126
1188.8885664267755,1094
1191.0348049793297,1128
1193.1804722273619,1099
1195.325568407995,1118
1197.4700937584303,1117
1199.614048515948,1113
1201.7574329179074,1076
1203.900247201746,1103
1206.042491604982,1089
1208.1841663652099,1108
1210.3252717201053,1128
1212.465807907422,1129
1214.6057751649923,1120
1216.7451737307279,1106
1218.8840038426192,1086
1221.0222657387353,1138
1223.1599596572241,1163
1225.2970858363137,1142
1227.4336445143094,1148
1229.5696359295966,1205
1231.705060320639,1143
1233.8399179259786,1093
1235.9742089842384,1103
1238.107933734118,1114
1240.2410924143974,1138
1242.373685263935,1116
1244.5057125216676,1156
1246.6371744266116,1112
1248.7680712178621,1175
1250.898403134593,1126
1253.028170416058,1134
1255.1573733015875,1148
1257.2860120305932,1126
1259.4140868425648,1186
1261.54159797707,1123
1263.6685456737569,1169
1265.7949301723515,1142
1267.9207517126597,1157
1270.046010534565,1200
1272.1707068780306,1232
1274.2948409830983,1175
1276.4184130898889,1201
1278.541423438603,1174
1280.6638722695184,1175
1282.785759822993,1165
1284.9070863394636,1190
1287.0278520594447,1167
1289.1480572235314,1240
1291.2677020723963,1212
1293.3867868467923,1209
1295.5053117875495,1212
1297.623277135579,1252
1299.740683131868,1240
1301.8575300174857,1261
1303.973818033578,1229
1306.0895474213703,1232
1308.2047184221678,1207
1310.3193312773528,1270
1312.4333862283888,1220
1314.5468835168163,1262
1316.659823384255,1300
1318.7722060724045,1275
1320.8840318230418,1267
1322.9953008780249,1270
1325.1060134792888,1250
1327.2161698688478,1324
1329.3257702887959,1283
1331.4348149813054,1258
1333.5433041886276,1287
1335.6512381530933,1287
1337.7586171171101,1262
1339.8654413231675,1249
1341.9717110138317,1235
1344.0774264317488,1296
1346.1825878196432,1348
1348.2871954203192,1264
1350.3912494766587,1244
1352.4947502316231,1269
1354.5976979282532,1257
1356.7000928096686,1285
1358.8019351190665,1277
1360.9032250997243,1257
1363.0039629949988,1250
1365.1041490483235,1252
1367.2037835032133,1261
1369.3028666032606,1251
1371.401398592137,1268
1373.4993797135926,1205
1375.5968102114575,1170
1377.6936903296396,1198
1379.7900203121262,1215
1381.8858004029835,1224
1383.9810308463561,1230
1386.075711886469,1188
1388.1698437676241,1243
1390.2634267342032,1189
1392.356461030667,1225
1394.4489469015557,1249
1396.5408845914872,1200
1398.6322743451592,1201
1400.7231164073469,1204
1402.813411022907,1271
1404.903158436773,1240
1406.9923588939578,1200
1409.0810126395531,1246
1411.1691199187303,1308
1413.2566809767386,1197
1415.343696058907,1244
1417.4301654106425,1270
1419.5160892774315,1296
1421.6014679048399,1228
1423.6863015385125,1234
1425.7705904241707,1236
1427.8543348076178,1230
1429.9375349347342,1250
1432.0201910514802,1280
1434.102303403894,1328
1436.1838722380944,1282
1438.2648978002767,1264
1440.3453803367174,1275
1442.4253200937692,1286
1444.5047173178677,1277
1446.5835722555234,1334
1448.6618851533285,1307
1450.739656257952,1275
1452.8168858161434,1326
1454.8935740747306,1317
1456.96972128062,1302
1459.045327680797,1310
1461.120393522327,1351
1463.1949190523528,1367
1465.2689045180973,1421
1467.3423501668608,1369
1469.415256246024,1407
1471.4876230030463,1444
1473.559450685465,1422
1475.6307395408976,1412
1477.7014898170391,1395
1479.771701761665,1422
1481.8413756226287,1469
1483.9105116478618,1486
1485.9791100853772,1481
1488.0471711832643,1543
1490.1146951896926,1563
1492.1816823529098,1538
1494.2481329212433,1547
1496.3140471430984,1532
1498.3794252669609,1552
1500.4442675413939,1547
1502.5085742150404,1541
1504.572345536622,1532
1506.6355817549388,1526
1508.6982831188702,1615
1510.7604498773744,1611
1512.8220822794883,1589
1514.8831805743293,1594
1516.9437450110909,1575
1519.003775839048,1651
1521.0632733075522,1636
1523.1222376660367,1644
1525.1806691640113,1618
1527.2385680510652,1554
1529.2959345768668,1647
1531.3527689911643,1637
1533.4090715437833,1682
1535.4648424846291,1656
1537.5200820636855,1625
1539.5747905310159,1693
1541.6289681367616,1719
1543.6826151311434,1676
1545.7357317644614,1754
1547.7883182870937,1720
1549.8403749494987,1754
1551.8919020022113,1833
1553.9428996958477,1832
1555.9933682811015,1852
1558.0433080087469,1962
1560.0927191296346,1969
1562.1416018946961,1854
1564.1899565549415,1935
1566.2377833614592,2034
1568.2850825654164,2011
1570.3318544180606,2030
1572.3780991707158,1953
1574.423817074788,2043
1576.4690083817595,1939
1578.5136733431923,1858
1580.5578122107272,1840
1582.601425236085,1750
1584.6445126710646,1817
1586.6870747675434,1660
1588.7291117774776,1646
1590.7706239529034,1638
1592.8116115459347,1556
1594.8520748087658,1568
1596.8920139936686,1498
1598.9314293529933,1517
1600.9703211391711,1454
1603.008689604711,1475
1605.0465350022005,1442
1607.0838575843068,1418
1609.1206576037753,1424
1611.1569353134305,1338
1613.1926909661765,1335
1615.2279248149953,1293
1617.2626371129481,1274
1619.2968281131757,1234
1621.3304980688963,1248
1623.3636472334088,1220
1625.39627586009,1236
1627.428384202396,1257
1629.459972513861,1258
1631.4910410480993,1179
1633.5215900588028,1219
1635.551619799744,1220
1637.5811305247717,1164
1639.6101224878166,1187
1641.6385959428862,1205
1643.6665511440683,1192
1645.693988345528,1154
1647.7209078015112,1158
1649.7473097663405,1130
1651.7731944944203,1119
1653.7985622402307,1163
1655.823413258333,1143
1657.847747803366,1125
1659.8715661300494,1150
1661.8948684931793,1105
1663.9176551476316,1156
1665.9399263483624,1121
1667.9616823504057,1148
1669.982923408873,1166
1672.0036497789574,1174
1674.0238617159293,1132
1676.043559475138,1157
1678.0627433120121,1116
1680.081413482059,1113
1682.0995702408654,1143
1684.117213844096,1099
1686.134344547495,1116
1688.1509626068864,1135
1690.1670682781705,1149
1692.182661817329,1193
1694.1977434804217,1124
1696.2123135235875,1128
1698.226372203043,1152
1700.2399197750851,1094
1702.2529564960905,1148
1704.2654826225112,1125
1706.277498410882,1110
1708.2890041178139,1088
1710.2999999999988,1113
1712.3104863142066,1083
1714.3204633172854,1052
1716.329931266163,1084
1718.3388904178469,1092
1720.3473410294214,1102
1722.3552833580516,1083
1724.3627176609807,1111
1726.3696441955308,1136
1728.3760632191033,1113
1730.3819749891782,1114
1732.3873797633146,1119
1734.3922777991502,1084
1736.3966693544012,1062
1738.4005546868639,1116
1740.4039340544127,1134
1742.406807715001,1060
1744.4091759266616,1085
1746.4110389475054,1131
1748.4123970357223,1082
1750.413250449582,1110
1752.4135994474318,1124
1754.4134442876993,1110
1756.4127852288902,1149
1758.4116225295893,1062
1760.4099564484595,1117
1762.407787244244,1057
1764.405115175764,1082
1766.4019405019203,1097
1768.3982634816916,1152
1770.3940843741357,1085
1772.3894034383907,1100
1774.3842209336717,1079
1776.378537119274,1037
1778.372352254571,1055
1780.3656665990156,1083
1782.3584804121397,1085
1784.3507939535534,1074
1786.3426074829463,1110
1788.3339212600863,1132
1790.3247355448211,1100
1792.3150505970766,1082
1794.3048666768573,1020
1796.2941840442477,1120
1798.2830029594106,1124
1800.2713236825884,1029
1802.2591464741004,1086
1804.2464715943465,1045
1806.2332993038058,1084
1808.2196298630352,1044
1810.2054635326708,1073
1812.190800573428,1108
1814.175641246101,1049
1816.1599858115628,1068
1818.1438345307652,1037
1820.127187664738,1097
1822.1100454745924,1032
1824.092408221516,1084
1826.0742761667766,1090
1828.055649571721,1120
1830.0365286977735,1070
1832.0169138064398,1111
1833.9968051593014,1037
1835.9762030180214,1060
1837.9551076443408,1068
1839.9335193000788,1066
1841.9114382471344,1050
1843.888864747485,1063
1845.8657990631878,1069
1847.842241456378,1027
1849.8181921892697,1066
1851.7936515241558,1037
1853.7686197234098,1096
1855.7430970494815,1058
1857.7170837649014,1106
1859.6905801322787,1071
1861.6635864143004,1083
1863.6361028737338,1101
1865.608129773424,1033
1867.5796673762961,1120
1869.5507159453537,1109
1871.521275743678,1133
1873.4913470344313,1110
1875.4609300808534,1100
1877.4300251462632,1078
1879.3986324940588,1133
1881.366752387717,1108
1883.3343850907936,1102
1885.3015308669228,1093
1887.268189979819,1121
1889.2343626932739,1072
1891.2000492711595,1094
1893.1652499774254,1063
1895.1299650761011,1066
1897.0941948312952,1093
1899.0579395071945,1069
1901.0211993680641,1112
1902.98397467825,1112
1904.9462657021745,1098
1906.9080727043415,1115
1908.869395949332,1106
1910.8302357018065,1129
1912.790592226504,1121
1914.7504657882428,1147
1916.7098566519212,1067
1918.6687650825133,1053
1920.6271913450764,1087
1922.5851357047422,1125
1924.5425984267245,1113
1926.499579776314,1127
1928.4560800188833,1130
1930.4120994198802,1142
1932.367638244833,1090
1934.32269675935,1079
1936.2772752291175,1082
1938.231373919899,1098
1940.1849930975404,1158
1942.1381330279637,1073
1944.0907939771696,1067
1946.0429762112412,1101
1947.9946799963363,1084
1949.9459055986945,1095
1951.896653284633,1081
1953.8469233205478,1058
1955.7967159729142,1100
1957.7460315082863,1135
1959.6948701932974,1075
1961.6432322946594,1087
1963.5911180791632,1068
1965.5385278136787,1023
1967.4854617651545,1104
1969.4319202006182,1042
1971.377903387176,1069
1973.3234115920136,1061
1975.268445082395,1116
1977.2130041256642,1106
1979.1570889892423,1094
1981.1006999406304,1053
1983.04383724741,1094
1984.986501177238,1029
1986.928691997853,1082
1988.8704099770712,1065
1990.811655382789,1067
1992.7524284829801,1107
1994.692729545698,1053
1996.6325588390755,1077
1998.5719166313224,1058
2000.5108031907307,1084
2002.4492187856677,1039
2004.387163684583,1074
2006.3246381560011,1072
2008.2616424685298,1099
2010.1981768908527,1058
2012.1342416917332,1084
2014.069837140014,1055
2016.0049635046162,1037
2017.9396210545406,1098
2019.8738100588666,1040
2021.8075307867502,1059
2023.740783507431,1114
2025.6735684902228,1017
2027.6058860045214,1016
2029.5377363198004,1072
2031.4691197056118,1077
2033.4000364315875,1075
2035.3304867674374,1070
2037.260470982952,1057
2039.189989347998,1062
2041.1190421325232,1061
2043.047629606554,1047
2044.9757520401945,1055
2046.9034097036288,1089
2048.8306028671195,1052
2050.7573318010086,1040
2052.683596775716,1024
2054.609398061742,1046
2056.5347359296647,1027
2058.4596106501403,1033
2060.384022493906,1029
2062.3079717317764,1070
2064.231458634646,1043
2066.1544834734873,1032
2068.077046519352,1026
2069.99914804337,1069
2071.9207883167524,1058
2073.8419676107865,1027
2075.7626861968406,1063
2077.6829443463607,1080
2079.6027423308715,1028
2081.522080421977,1025
2083.440958891362,1040
2085.359378010786,1084
2087.2773380520907,1013
2089.194839287196,1045
2091.111881988101,1029
2093.0284664268825,1075
2094.9445928756973,992
2096.86026160678,1053
2098.775472892446,1071
2100.690227005088,1045
2102.604524217178,1098
2104.5183648012676,1029
2106.431749029985,1054
2108.34467717604,1022
2110.2571495122206,1066
2112.169166311393,1010
2114.080727846503,1048
2115.9918343905747,1061
2117.902486216711,1026
2119.8126835980956,1067
2121.722426807987,1029
2123.6317161197285,1020
2125.5405518067364,1066
2127.448934142509,1048
2129.356863400624,1108
2131.264339854737,1066
2133.1713637785815,1010
2135.077935445972,1052
2136.9840551308002,1076
2138.889723107037,1057
2140.7949396487334,1099
2142.699705030018,1077
2144.6040195250994,1013
2146.507883408264,1041
2148.4112969538774,1060
2150.3142604363848,1055
2152.2167741303097,1101
2154.1188383102535,1022
2156.0204532508997,1081
2157.9216192270064,1050
2159.822336513414,1118
2161.7226053850413,1087
2163.622426116884,1058
2165.5217989840185,1064
2167.4207242616,1033
2169.319202224862,1035
2171.2172331491165,1030
2173.1148173097563,1067
2175.0119549822507,1091
2176.90864644215,1090
2178.8048919650823,1072
2180.7006918267534,1118
2182.596046302952,1141
2184.4909556695407,1120
2186.3854202024645,1112
2188.279440177746,1068
2190.173015871487,1058
2192.066147559868,1139
2193.958835519149,1064
2195.851080025667,1090
2197.7428813558417,1037
2199.6342397861667,1062
2201.5251555932186,1083
2203.415629053651,1089
2205.3056604441986,1090
2207.19525004167,1081
2209.084398122958,1109
2210.9731049650327,1102
2212.861370844941,1092
2214.749196039812,1135
2216.636580826851,1133
2218.523525483344,1117
2220.410030286655,1071
2222.296095514226,1098
2224.1817214435805,1080
2226.066908352319,1084
2227.951656518121,1130
2229.835966218746,1079
2231.71983773203,1093
2233.6032713358913,1118
2235.486267308324,1102
2237.3688259274036,1105
2239.2509474712824,1061
2241.132632218193,1067
2243.013880446447,1135
2244.8946924344323,1088
2246.7750684606203,1145
2248.6550088035574,1134
2250.534513741871,1101
2252.413583554265,1131
2254.292218519526,1129
2256.170418916517,1086
2258.0481850241786,1090
2259.925517121534,1116
2261.8024154876825,1097
2263.678880401803,1135
2265.5549121431536,1102
2267.430510991071,1151
2269.305677224971,1134
2271.180411124348,1139
2273.0547129687766,1131
2274.9285830379076,1090
2276.8020216114737,1050
2278.6750289692845,1129
2280.5476053912294,1079
2282.4197511572766,1098
2284.2914665474727,1118
2286.162751841943,1111
2288.0336073208937,1136
2289.904033264608,1136
2291.774029953448,1154
2293.6435976678554,1108
2295.5127366883517,1076
2297.381447295534,1092
2299.2497297700825,1045
2301.1175843927526,1048
2302.9850114443825,1049
2304.852011205885,986
2306.7185839582553,975
2308.5847299825664,1000
2310.4504495599676,961
2312.3157429716925,1025
2314.1806104990483,962
2316.0450524234247,945
2317.9090690262888,970
2319.772660589186,999
2321.635827393742,990
2323.498569721661,1001
2325.3608878547248,1001
2327.2227820747967,950
2329.0842526638157,967
2330.945299903803,977
2332.805924076857,964
2334.6661254651535,983
2336.525904350951,1010
2338.3852610165827,990
2340.244195744464,1005
2342.102708817088,972
2343.9608005170253,999
2345.8184711269287,959
2347.675720929526,989
2349.532550207628,984
2351.38895924412,988
2353.24494832197,964
2355.100517724223,995
2356.955667734004,979
2358.810398634514,990
2360.664710709037,1019
2362.5186042409337,997
2364.3720795136437,1036
2366.225136810686,952
2368.0777764156583,983
2369.929998612237,994
2371.7818036841777,986
2373.633191915315,1015
2375.484163589562,1005
2377.3347189909114,969
2379.184858403434,988
2381.03458211128,982
2382.8838903986775,1020
2384.732783549936,987
2386.5812618494406,1044
2388.4293255816588,942
2390.2769750311327,1053
2392.1242104824883,982
2393.971032220427,1026
2395.8174405297295,1008
2397.6634356952563,1050
2399.509018001947,1016
2401.3541877348193,1005
2403.1989451789705,1004
2405.043290619576,988
2406.8872243418905,1014
2408.730746631247,1026
2410.5738577730594,975
2412.4165580528183,1007
2414.258847756095,994
2416.100727168537,1007
2417.9421965758734,994
2419.783256263912,1029
2421.623906518538,1028
2423.4641476257157,1038
2425.303979871491,1013
2427.143403541984,973
2428.9824189233977,1000
2430.821026302012,1006
2432.6592259641866,1001
2434.497018196361,1033
2436.33440328505,1058
2438.171381516851,987
2440.00795317844,1020
2441.844118556569,996
2443.6798779380724,1034
2445.5152316098606,1008
2447.3501798589255,1018
2449.1847229723357,1029
2451.0188612372403,1066
2452.8525949408663,985
2454.6859243705203,1021
2456.518849813587,1003
2458.3513715575314,1016
2460.183489889895,1017
2462.015205098301,1016
2463.8465174704493,984
2465.67742729412,1011
2467.5079348571717,1011
2469.338040447542,987
2471.1677443532476,1031
2472.9970468623833,998
2474.825948263123,1018
2476.6544488437207,1046
2478.482548892508,988
2480.310248697896,1034
2482.137548548374,971
2483.9644487325118,1029
2485.790949538956,1004
2487.617051256433,1011
2489.44275417375,1046
2491.26805857979,1017
2493.0929647635157,1055
2494.917473013971,1039
2496.741583620276,1004
2498.5652968716304,1014
2500.3886130573137,1018
2502.2115324666834,1026
2504.0340553891765,1038
2505.856182114308,1015
2507.6779129316733,1010
2509.499248130945,1045
2511.3201880018764,1059
2513.140732834298,1011
2514.9608829181198,1084
2516.780638543331,1021
2518.6,1023
2520.418967578273,1020
2522.237541568376,1015
2524.0557222606144,1039
2525.8735099453706,1018
2527.6909049131086,1050
2529.507907454368,1036
2531.32451785977,1050
2533.140736420014,1045
2534.9565634258774,1060
2536.771999168218,1032
2538.5870439379714,1061
2540.4016980261526,1048
2542.2159617238544,1046
2544.02983532225,1075
2545.8433191125914,1089
2547.656413386209,1035
2549.4691184345115,1045
2551.2814345489874,1110
2553.093362021204,1061
2554.904901142808,1080
2556.716052205523,1122
2558.526815501153,1066
2560.3371913215824,1124
2562.147179958771,1170
2563.956781704761,1139
2565.7659968516705,1170
2567.5748256916986,1127
2569.3832685171224,1166
2571.1913256202984,1177
2572.9989972936614,1132
2574.806283829725,1187
2576.613185521084,1171
2578.4197026604074,1122
2580.2258355404483,1203
2582.031584454035,1206
2583.836949694077,1247
2585.6419315535613,1184
2587.4465303255533,1182
2589.2507463032002,1203
2591.0545797797245,1172
2592.8580310484303,1204
2594.6611004026995,1230
2596.463788135992,1176
2598.266094541849,1233
2600.0680199138874,1207
2601.869564545807,1191
2603.670728731383,1170
2605.4715127644704,1200
2607.2719169390048,1200
2609.071941548998,1187
2610.8715868885433,1205
2612.670853251811,1152
2614.469740933052,1132
2616.268250226594,1177
2618.0663814268455,1149
2619.864134828292,1179
2621.6615107255006,1156
2623.458509413115,1152
2625.2551311858597,1116
2627.0513763385347,1129
2628.8472451660223,1172
2630.6427379632833,1114
2632.4378550253564,1168
2634.232596647359,1140
2636.026963124488,1162
2637.8209547520187,1135
2639.6145718253065,1125
2641.407814639785,1164
2643.200683490966,1146
2644.9931786744414,1117
2646.7853004858807,1131
2648.577049221034,1187
2650.3684251757277,1113
2652.1594286458712,1081
2653.9500599274484,1127
2655.740319316525,1076
2657.5302071092437,1060
2659.3197236018286,1146
2661.10886909058,1061
2662.8976438718782,1083
2664.686048242183,1062
2666.4740824980327,1072
2668.2617469360443,1096
2670.0490418529134,1032
2671.8359675454153,1087
2673.622524310403,1086
2675.408712444811,1043
2677.1945322456495,1070
2678.979984010009,996
2680.76506803506,1073
2682.5497846180497,1033
2684.334134056306,1033
2686.1181166472343,1050
2687.9017326883213,1039
2689.6849824771293,1011
2691.4678663113013,1010
2693.2503844885596,1027
2695.032537306705,1022
2696.8143250636167,1041
2698.5957480572542,985
2700.3768065856534,1069
2702.1575009469316,995
2703.937831439283,1023
2705.717798360982,1031
2707.4974020103837,991
2709.276642685917,967
2711.055520686095,1029
2712.834036309506,994
2714.612189854819,990
2716.389981620782,1022
2718.1674119062204,1021
2719.944481010041,979
2721.721189231226,992
2723.4975368688415,1001
2725.273524222027,1023
2727.0491515900053,979
2728.824419272075,978
2730.5993275676146,1018
2732.3738767760838,979
2734.148067197016,1012
2735.921899130031,980
2737.6953728748194,975
2739.468488731156,986
2741.2412469988926,979
2743.0136479779617,966
2744.785691968372,972
2746.5573792702116,962
2748.3287101836504,963
2750.099685008934,987
2751.870304046388,1032
2753.640567596418,961
2755.4104759595057,1014
2757.1800294362156,995
2758.949228327187,964
2760.7180729331412,1024
2762.486563554877,975
2764.254700493272,1026
2766.022484049284,993
2767.789914523947,999
2769.5569922183786,957
2771.3237174337705,914
2773.090090471394,1020
2774.8561116326036,988
2776.6217812188274,984
2778.3870995315756,957
2780.1520668724356,962
2781.9166835430747,953
2783.6809498452394,938
2785.444866080754,1004
2787.2084325515225,952
2788.971649559527,985
2790.73451740683,985
2792.4970363955713,1011
2794.2592068279705,1047
2796.0210290063264,969
2797.7825032330147,1018
2799.543629810493,973
2801.304409041296,952
2803.0648412280366,968
2804.8249266734088,977
2806.5846656801846,1012
2808.344058551212,996
2810.1031055894246,950
2811.8618070978273,975
2813.6201633795085,956
2815.378174737636,982
2817.1358414754536,979
2818.893163896285,978
2820.6501423035334,1005
2822.4067770006814,991
2824.1630682912883,958
2825.9190164789957,983
2827.6746218675207,966
2829.429884760661,964
2831.184805462294,972
2832.9393842763743,969
2834.693621506936,982
2836.4475174580916,976
2838.201072434034,981
2839.954286739034,1001
2841.707160677441,979
2843.459694553685,994
2845.2118886722724,968
2846.96374333779,1005
2848.7152588549034,980
2850.4664355283567,977
2852.217273662973,983
2853.9677735636546,1000
2855.7179355353833,978
2857.4677598832186,943
2859.217246912299,978
2860.9663969278427,964
2862.715210235146,961
2864.4636871395846,936
2866.211827946614,983
2867.9596329617652,1003
2869.7071024906536,964
2871.4542368389684,1017
2873.20103631248,943
2874.947501217038,1000
2876.6936318585695,984
2878.4394285430812,989
2880.1848915766604,961
2881.9300212654707,954
2883.6748179157553,1017
2885.4192818338374,985
2887.1634133261173,968
2888.907212699077,1004
2890.6506802592744,1001
2892.393816313348,997
2894.1366211680142,967
2895.8790951300693,1022
2897.621238506388,967
2899.363051603925,990
2901.1045347297118,948
2902.8456881908596,965
2904.58651229456,996
2906.327007348081,966
2908.067173658772,991
2909.8070115340597,1006
2911.5465212814497,1016
2913.285703208527,976
2915.0245576229563,922
2916.7630848324807,935
2918.5012851449196,965
2920.2391588681758,975
2921.976706310227,968
2923.7139277791334,983
2925.4508235830313,955
2927.187394030137,966
2928.923639428745,977
2930.6595600872306,993
2932.395156314046,944
2934.1304284177218,991
2935.8653767068713,977
2937.6000014901815,996
2939.3343030764227,950
2941.068281774442,968
2942.8019378931644,1008
2944.5352717415976,1002
2946.2682836288236,968
2948.0009738640065,1020
2949.7333427563885,993
2951.465390615289,925
2953.1971177501086,994
2954.9285244703265,1007
2956.6596110855,1015
2958.3903779052657,948
2960.1208252393385,977
2961.8509533975125,980
2963.5807626896617,983
2965.3102534257378,987
2967.0394259157715,989
2968.768280469873,972
2970.496817398232,974
2972.2250370111146,965
2973.952939618869,998
2975.6805255319196,975
2977.4077950607707,986
2979.134748516006,972
2980.861386208289,987
2982.587708448359,984
2984.313715547037,1020
2986.039407815222,971
2987.764785563891,999
2989.489849104102,977
2991.2145987469908,988
2992.9390348037705,987
2994.6631575857346,955
2996.3869674042576,965
2998.1104645707887,996
2999.83364939686,951
3001.5565221940783,1019
3003.2790832741334,948
3005.0013329487924,938
3006.7232715298996,947
3008.4448993293804,958
3010.166216659239,964
3011.887223831558,998
3013.607921158498,951
3015.3283089522993,1003
3017.0483875252826,989
3018.7681571898443,994
3020.4876182584626,976
3022.2067710436927,967
3023.9256158581707,973
3025.644153014609,949
3027.362382825801,964
3029.0803056046193,954
3030.797921664012,953
3032.5152313170106,1006
3034.2322348767225,974
3035.9489326563353,977
3037.665324969115,936
3039.3814121284063,948
3041.097194447633,970
3042.812672240299,959
3044.5278458199855,911
3046.2427155003525,994
3047.9572815951406,962
3049.671544418167,926
3051.38550428333,955
3053.0991615046073,979
3054.812516396051,1000
3056.5255692717974,933
3058.2383204460575,931
3059.9507702331257,932
3061.662918947372,970
3063.3747669032446,966
3065.0863144152736,973
3066.7975617980674,1007
3068.508509366309,1009
3070.219157434767,995
3071.9295063182844,971
3073.639556331785,968
3075.3493077902704,950
3077.058761008821,911
3078.7679163025964,979
3080.476773986837,950
3082.1853343768594,921
3083.89359778806,928
3085.6015645359153,972
3087.3092349359786,982
3089.016609303884,953
3090.7236879553434,970
3092.4304712061476,951
3094.136959372166,911
3095.843152769349,992
3097.5490517137237,914
3099.2546565213966,952
3100.959967508554,992
3102.66498499146,937
3104.3697092864577,945
3106.0741407099695,971
3107.778279578498,925
3109.482126208622,986
3111.1856809170004,945
3112.8889440203716,951
3114.5919158355528,1012
3116.294596679439,963
3117.996986869006,1013
3119.6990867213062,1023
3121.4008965534726,967
3123.102416682717,971
3124.803647426329,963
3126.5045891016784,971
3128.205242026213,946
3129.90560651746,1006
3131.605682893025,997
3133.3054714705922,948
3135.0049725679282,1004
3136.7041865028714,978
3138.4031135933465,1004
3140.101754157353,940
3141.800108512971,953
3143.498176978357,968
3145.1959598717494,975
3146.8934575114636,934
3148.5906702158954,929
3150.2875983035183,925
3151.9842420928853,948
3153.680601902627,957
3155.376678051456,931
3157.07247085816,971
3158.767980641609,981
3160.463207720748,977
3162.158152414606,937
3163.8528150422862,966
3165.5471959229726,930
3167.2412953759303,978
3168.9351137204976,973
3170.628651276098,938
3172.3219083622307,950
3174.014885298474,951
3175.707582404485,943
3177.4000000000005,961
3179.092138404835,956
3180.7839979388846,924
3182.47557892212,989
3184.166881674594,931
3185.8579065164386,901
3187.5486537678626,940
3189.2391237491547,977
3190.9293167806827,921
3192.6192331828934,999
3194.3088732763117,959
3195.998237381542,959
3197.687325819268,948
3199.376138910251,933
3201.064676975334,972
3202.7529403354347,991
3204.4409293115523,956
3206.1286442247647,987
3207.816085396229,976
3209.5032531471825,982
3211.190147798936,985
3212.8767696728846,934
3214.5631190905015,952
3216.2491963733373,918
3217.9350018430214,979
3219.6205358212637,904
3221.305798629851,906
3222.990790590651,918
3224.6755120256103,939
3226.359963256751,973
3228.0441446061795,894
3229.7280563960758,962
3231.411698948703,946
3233.0950725863995,971
3234.778177631587,958
3236.461014406761,916
3238.1435832345005,941
3239.8258844374595,969
3241.507918338374,949
3243.1896852600576,945
3244.8711855254023,982
3246.552419457381,945
3248.233387379042,974
3249.914089613516,1007
3251.59452648401,992
3253.274698313813,957
3254.95460542629,970
3256.6342481448855,952
3258.313626793125,926
3259.9927416946084,931
3261.6715931730196,926
3263.3501815521176,875
3265.0285071557437,930
3266.706570307815,922
3268.3843713323286,920
3270.0619105533615,985
3271.739188295068,931
3273.4162048816834,937
3275.0929606375184,945
3276.769455886966,954
3278.445690954498,972
3280.1216661646613,986
3281.797381842087,921
3283.4728383114807,952
3285.1480358976296,992
3286.8229749253996,932
3288.4976557197333,938
3290.172078605655,970
3291.846243908266,943
3293.5201519527463,951
3295.193803064357,917
3296.8671975684374,948
3298.5403357904024,947
3300.21321805575,923
3301.8858446900567,961
3303.558216018975,956
3305.23033236824,953
3306.9021940636603,967
3308.57380143113,967
3310.2451547966184,974
3311.916254486174,980
3313.5871008259246,912
3315.2576941420766,932
3316.9280347609147,956
3318.5981230088046,916
3320.2679592121895,945
3321.9375436975924,917
3323.606876791612,952
3325.27595882093,975
3326.944790112305,916
3328.6133709925753,916
3330.2817017886573,940
3331.949782827547,950
3333.617614436319,950
3335.2851969421245,911
3336.952530672199,940
3338.619615953853,948
3340.286453114475,941
3341.9530424815357,930
3343.619384382583,946
3345.2854791452437,939
3346.951327097224,954
3348.6169285663073,952
3350.2822838803577,936
3351.947393367319,984
3353.61225735521,968
3355.2768761721345,969
3356.9412501462693,940
3358.605379605873,955
3360.2692648792827,939
3361.9329062949146,970
3363.596304181263,897
