CollectionTime,7/11/2024 1:44:54 PM
ExposureUsed,3
CalibratedSpectrum
-962.7078968117929,452
-959.9714848408522,430
-957.2358232597828,451
-954.5009119013725,443
-951.7667505983302,445
-949.0333391832855,454
-946.3006774887896,487
-943.5687653473143,446
-940.837602591253,444
-938.1071890529199,439
-935.3775245645503,455
-932.6486089583007,448
-929.9204420662485,459
-927.1930237203925,480
-924.4663537526524,464
-921.7404319948689,440
-919.0152582788041,449
-916.2908324361409,502
-913.5671542984834,483
-910.8442236973568,427
-908.1220404642074,471
-905.4006044304027,489
-902.679915427231,475
-899.959973285902,441
-897.2407778375464,444
-894.5223289132158,430
-891.8046263438832,451
-889.0876699604426,451
-886.3714595937089,447
-883.6559950744183,441
-880.9412762332282,418
-878.2273029007168,439
-875.5140749073835,454
-872.8015920836489,447
-870.0898542598545,452
-867.3788612662631,445
-864.6686129330585,458
-861.9591090903457,466
-859.2503495681506,461
-856.5423341964203,457
-853.8350628050229,457
-851.1285352237478,454
-848.4227512823054,440
-845.7177108103272,460
-843.0134136373656,446
-840.3098595928943,459
-837.6070485063082,467
-834.9049802069229,441
-832.2036545239757,472
-829.5030712866244,458
-826.8032303239481,451
-824.1041314649472,467
-821.4057745385428,453
-818.7081593735775,464
-816.0112857988148,459
-813.3151536429393,460
-810.6197627345566,490
-807.9251129021936,464
-805.2312039742981,471
-802.5380357792392,470
-799.8456081453069,468
-797.1539209007124,492
-794.462973873588,474
-791.772766891987,483
-789.083299783884,493
-786.3945723771743,491
-783.7065844996748,468
-781.0193359791231,456
-778.3328266431781,479
-775.6470563194197,473
-772.9620248353489,469
-770.2777320183878,473
-767.5941776958798,480
-764.9113616950891,480
-762.2292838432011,468
-759.5479439673222,480
-756.8673418944801,494
-754.1874774516235,459
-751.5083504656222,472
-748.8299607632671,477
-746.15230817127,466
-743.475392516264,475
-740.7992136248035,510
-738.1237713233636,468
-735.4490654383407,478
-732.7750957960521,488
-730.1018622227365,491
-727.4293645445534,487
-724.7576025875837,503
-722.0865761778291,481
-719.4162851412126,484
-716.7467293035781,511
-714.0779084906909,515
-711.409822528237,520
-708.7424712418238,500
-706.0758544569796,486
-703.4099719991541,496
-700.7448236937178,509
-698.0804093659622,519
-695.4167288411002,513
-692.7537819442656,490
-690.0915685005134,506
-687.4300883348199,504
-684.7693412720819,487
-682.1093271371178,501
-679.4500457546669,495
-676.7914969493897,497
-674.1336805458676,500
-671.4765963686034,507
-668.8202442420206,518
-666.1646239904642,518
-663.5097354382001,514
-660.8555784094151,499
-658.2021527282176,514
-655.5494582186366,532
-652.8974947046223,526
-650.2462620100463,526
-647.5957599587009,533
-644.9459883742998,519
-642.2969470804776,515
-639.6486359007902,558
-637.0010546587141,516
-634.3542031776476,526
-631.7080812809096,529
-629.0626887917401,559
-626.4180255333008,531
-623.7740913286734,515
-621.1308860008619,553
-618.4884093727904,555
-615.8466612673046,553
-613.2056415071715,528
-610.5653499150785,515
-607.9257863136347,565
-605.28695052537,576
-602.6488423727357,548
-600.0114616781036,547
-597.3748082637674,539
-594.7388819519412,534
-592.1036825647604,574
-589.4692099242818,579
-586.8354638524829,558
-584.2024441712624,595
-581.5701507024403,579
-578.9385832677575,539
-576.3077416888759,575
-573.6776257873787,592
-571.0482353847704,571
-568.4195703024757,576
-565.7916303618415,552
-563.164415384135,595
-560.5379251905453,565
-557.9121596021815,539
-555.2871184400748,569
-552.6628015251767,561
-550.0392086783606,586
-547.4163397204204,567
-544.794194472071,552
-542.1727727539491,575
-539.5520743866118,586
-536.9320991905377,596
-534.3128469861261,616
-531.6943175936979,662
-529.0765108334947,635
-526.4594265256793,646
-523.8430644903358,750
-521.2274245474689,830
-518.612506517005,883
-515.9983102187913,867
-513.3848354725959,929
-510.77208209810846,996
-508.16004991493924,1106
-505.5487387426199,1192
-502.9381484006032,1214
-500.3282787082628,1106
-497.71912948489364,994
-495.1107005497117,924
-492.5029917218539,820
-489.8960028203786,747
-487.28973366426493,694
-484.68418407241325,695
-482.07935386364494,679
-479.47524285670266,618
-476.87185087025,673
-474.2691777228715,679
-471.66722323307334,706
-469.0659872192821,700
-466.4654694998459,662
-463.86566989303384,668
-461.26658821703614,654
-458.66822428996414,648
-456.07057792985,699
-453.4736489546475,685
-450.877437182231,674
-448.28194243039627,670
-445.68716451686,639
-443.09310325926003,687
-440.49975847515555,687
-437.9071299820263,673
-435.31521759727354,674
-432.72402113821954,676
-430.13354042210767,684
-427.5437752661022,693
-424.95472548728867,684
-422.36639090267386,727
-419.7787713291855,742
-417.1918665836721,703
-414.60567648290385,727
-412.0202008435715,762
-409.4354394822874,684
-406.8513922155845,703
-404.26805885991723,768
-401.685439231661,738
-399.103533147112,733
-396.522340422488,743
-393.9418608739278,755
-391.3620943174908,707
-388.7830405691583,700
-386.2046994448317,697
-383.6270707603344,627
-381.05015433141045,664
-378.473949973725,609
-375.8984575028645,580
-373.32367673433623,548
-370.74960748356875,541
-368.1762495659117,516
-365.60360279663576,511
-363.03166699093265,475
-360.4604419639154,458
-357.8899275306178,451
-355.32012350599507,433
-352.7510297049233,412
-350.1826459421999,430
-347.61497203254316,399
-345.04800779059235,414
-342.4817530309082,459
-339.91620756797226,416
-337.35137121618743,424
-334.7872437898774,419
-332.22382510328725,457
-329.66111497058273,453
-327.09911320585127,433
-324.53781962310075,458
-321.9772340362607,460
-319.4173562591816,419
-316.8581861056348,405
-314.2997233893127,448
-311.7419679238294,413
-309.1849195227194,424
-306.62857799943856,429
-304.0729431673641,486
-301.51801483979375,446
-298.963792829947,464
-296.41027695096386,440
-293.85746701590574,495
-291.3053628377552,517
-288.7539642294155,529
-286.2032710037115,474
-283.65328297338897,446
-281.1039999511146,478
-278.5554217494762,513
-276.007548180983,506
-273.4603790580651,520
-270.9139141930734,490
-268.3681533982807,498
-265.8230964858798,526
-263.27874326798565,552
-260.7350935566336,576
-258.1921471637804,518
-255.6499039013039,495
-253.10836358100266,516
-250.56752601459698,523
-248.02739101372765,505
-245.48795838995704,523
-242.94922795476816,500
-240.41119951956557,548
-237.8738728956746,596
-235.33724789434166,633
-232.80132432673452,518
-230.2661020039418,541
-227.73158073697357,544
-225.19776033676033,530
-222.66464061415422,519
-220.1322213799284,554
-217.60050244477725,554
-215.06948361931552,535
-212.53916471408013,544
-210.00954553952818,555
-207.48062590603843,545
-204.9524056239104,517
-202.4248845033651,547
-199.8980623545441,549
-197.37193898751036,572
-194.84651421224817,601
-192.32178783866232,600
-189.79775967657952,636
-187.27442953574644,617
-184.7517972258321,660
-182.2298625564256,626
-179.7086253370378,639
-177.18808537710026,592
-174.66824248596583,604
-172.14909647290835,577
-169.6306471471229,594
-167.11289431772548,657
-164.59583779375328,685
-162.07947738416453,652
-159.5638128978386,660
-157.04884414357605,689
-154.53457093009854,743
-152.02099306604828,717
-149.50811035998936,681
-146.99592262040665,680
-144.48442965570587,783
-141.97363127421409,700
-139.46352728417958,721
-136.95411749377126,748
-134.44540171107985,738
-131.93737974411636,666
-129.43005140081357,668
-126.92341648902493,767
-124.41747481652521,1057
-121.91222619101006,1206
-119.40767042009657,1473
-116.90380731132257,1623
-114.40063667214702,1726
-111.8981583099503,1730
-109.3963720320337,1478
-106.89527764561933,1296
-104.39487495785067,1176
-101.89516377579241,1531
-99.39614390642998,2120
-96.89781515667039,2398
-94.40017733334128,2169
-91.90323024319173,2220
-89.40697369289148,2930
-86.91140748903172,3601
-84.41653143812482,4177
-81.92234534660395,3923
-79.42884902082358,2833
-76.93604226705907,3425
-74.4439248915071,6671
-71.95249670028534,10497
-69.46175749943245,14045
-66.97170709490854,14967
-64.48234529259423,14027
-61.99367189829195,11600
-59.50568671772464,9195
-57.01838955653636,7994
-54.53178022029283,7063
-52.045858514480074,5896
-49.560624244506016,6056
-47.07607721569923,7237
-44.59221723330904,7191
-42.10904410250669,6399
-39.62655762838392,6553
-37.14475761595372,6390
-34.66364387015028,6286
-32.18321619582866,7681
-29.70347439776515,9444
-27.224418280657005,9057
-24.74604764912317,9187
-22.26836230770266,11782
-19.7913620608565,17745
-17.315046712966478,27777
-14.83941606833514,35060
-12.36446993118659,44444
-9.89020810566592,65039
-7.416630395839093,65039
-4.94373660569363,65039
-2.471526539137585,65039
-6.821210263296962E-13,65039
2.47084320796705,65039
4.941003281093458,65039
7.410480415786196,65039
9.879274808531363,65039
12.347386655893956,65039
14.814816154518212,65039
17.28156350112681,65039
19.74762889252179,65039
22.21301252558385,65039
24.67771459727237,19786
27.141735304626195,3451
29.605074844762612,2206
32.06773341487792,2006
34.52971121224755,1930
36.99100843422559,1885
39.45162527824516,1592
41.91156194181792,1324
44.370818622535126,1448
46.82939551806646,1324
49.287292826160524,1203
51.74451074464503,1336
54.201049471426245,1334
56.65690920448981,1513
59.112090141899785,1224
61.56659248179983,1149
64.02041642241159,1025
66.4735621620365,953
68.92602989905402,823
71.37781983192338,890
73.82893215918205,1009
76.27936707944684,1164
78.72912479141326,1057
81.17820549385567,1026
83.62660938562783,1157
86.07433666566146,1100
88.5213875329681,888
90.96776218663751,787
93.41346082583925,742
95.85848364982041,788
98.30283085790859,994
100.7465026495089,969
103.18949922410604,930
105.63182078126385,859
108.07346752062438,848
110.51443964190923,822
112.95473734491827,774
115.39436082953114,823
117.83331029570547,774
120.27158594347827,751
122.7091879729652,824
125.1461165843615,947
127.58237197794062,889
130.01795435405518,857
132.4528639131364,841
134.88710085569494,769
137.32066538231982,680
139.75355769367923,719
142.1857779905207,756
144.61732647366978,739
147.04820334403132,710
149.47840880258934,752
151.90794305040674,791
154.33680628862487,828
156.76499871846443,940
159.19252054122433,1065
161.61937195828352,1074
164.04555317109896,1185
166.47106438120693,1280
168.89590579022217,1356
171.320077599839,1473
173.7435800118302,1501
176.16641322804742,1540
178.58857745042144,1558
181.01007288096173,1649
183.43089972175687,1630
185.85105817497413,1648
188.27054844285988,1617
190.6893707277394,1683
193.10752523201643,1660
195.5250121581745,1689
197.9418317087751,1768
200.3579840864594,1750
202.7734694939469,1711
205.18828813403627,1719
207.6024402096051,1864
210.01592592360964,1792
212.42874547908548,1859
214.84089907914665,1832
217.2523869269868,1824
219.66320922587727,1846
222.0733661791695,1866
224.48285799029293,1862
226.8916848627572,1823
229.29984700014882,1895
231.7073446061355,1926
234.11417788446204,1872
236.520347038953,1893
238.92585227351185,1922
241.33069379212054,1943
243.73487179884035,1913
246.1383864978112,1958
248.541238093252,1953
250.9434267894609,1922
253.34495279081432,1961
255.74581630176783,2068
258.1460175268563,2070
260.54555667069314,2085
262.9444339379703,2108
265.3426495334594,2001
267.7402036620107,2045
270.1370965285529,1980
272.53332833809407,1958
274.9288992957214,1981
277.32380960660055,1807
279.718059475976,1843
282.1116491091717,1907
284.5045787115897,1877
286.89684848871195,1863
289.2884586460981,1859
291.67940938938807,1814
294.0697009242996,1907
296.4593334566299,1862
298.84830719225477,1835
301.23662233712923,1779
303.6242790972866,1833
306.01127767884,1746
308.39761828798066,1790
310.78330113097934,1799
313.16832641418534,1769
315.5526943440269,1659
317.9364051270112,1691
320.3194589697242,1707
322.70185607883093,1659
325.0835966610754,1666
327.4646809232805,1642
329.8451090723478,1673
332.2248813152577,1631
334.6039978590701,1605
336.9824589109231,1584
339.36026467803447,1554
341.7374153677,1586
344.113911187295,1576
346.48975234427337,1632
348.8649390461686,1602
351.2394715005918,1527
353.61334991523415,1574
355.9865744978655,1546
358.35914545633375,1591
360.73106299856715,1605
363.10232733257146,1548
365.47293866643247,1568
367.84289720831396,1524
370.2122031664593,1490
372.5808567491905,1499
374.9488581649083,1521
377.31620762209275,1504
379.6829053293021,1513
382.0489514951745,1470
384.4143463284262,1484
386.7790900378528,1493
389.14318283232853,1502
391.50662492080653,1515
393.86941651231916,1474
396.23155781597745,1531
398.5930490409713,1505
400.9538903965696,1523
403.3140820921202,1462
405.6736243370498,1427
408.03251734086336,1503
410.3907613131465,1445
412.74835646356166,1429
415.10530300185144,1422
417.4616011378372,1398
419.81725108141893,1419
422.1722530425758,1428
424.5266072313656,1447
426.880313857925,1448
429.2333731324701,1501
431.58578526529516,1425
433.9375504667738,1371
436.2886689473588,1445
438.63914091758113,1439
440.9889665880513,1443
443.33814616945835,1388
445.68667987257015,1383
448.03456790823395,1406
450.3818104873759,1357
452.72840782100013,1416
455.07436012019105,1373
457.41966759611057,1464
459.7643304600007,1437
462.10834892318155,1402
464.4517231970525,1373
466.79445349309174,1316
469.1365400228566,1329
471.4779829979826,1420
473.81878263018564,1464
476.15893913125876,1335
478.4984527130747,1425
480.8373235875855,1396
483.17555196682144,1454
485.5131380628919,1483
487.8500820879857,1460
490.1863842543697,1478
492.52204477439034,1584
494.8570638604725,1662
497.1914417251204,1784
499.52517858091653,1998
501.85827464052306,2301
504.19073011668036,2492
506.5225452222086,2692
508.85372017000566,2736
511.18425517304956,2693
513.514150444396,2803
515.8434061971808,3225
518.1720226446176,3640
520.4999999999999,3609
522.8273384766991,3313
525.1540382881666,3175
527.480099647932,2779
529.8055227696037,2265
532.1303078668694,1897
534.454455153496,1615
536.777964843328,1549
539.1008371502907,1550
541.4230722883866,1564
543.744670471698,1494
546.0656319143858,1504
548.3859568306899,1488
550.7056454349294,1482
553.0246979415016,1425
555.3431145648834,1416
557.6608955196306,1401
559.978041020377,1431
562.2945512818363,1397
564.6104265188006,1431
566.9256669461412,1470
569.2402727788082,1436
571.5542442318302,1492
573.8675815203156,1451
576.1802848594508,1411
578.4923544645015,1449
580.8037905508126,1505
583.114593333807,1410
585.4247630289875,1413
587.7342998519354,1489
590.0432040183106,1452
592.3514757438526,1500
594.6591152443794,1435
596.9661227357875,1467
599.2724984340531,1484
601.578242555231,1415
603.8833553154542,1459
606.1878369309362,1437
608.4916876179676,1397
610.7949075929192,1462
613.0974970722403,1508
615.3994562724587,1457
617.7007854101818,1404
620.0014847020951,1481
622.3015543649641,1440
624.6009946156324,1424
626.8998056710224,1482
629.1979877481361,1482
631.4955410640538,1417
633.7924658359349,1499
636.0887622810175,1386
638.3844306166192,1409
640.6794710601358,1502
642.9738838290426,1465
645.2676691408932,1503
647.5608272133207,1493
649.853358264037,1444
652.1452625108324,1481
654.4365401715764,1551
656.7271914642178,1508
659.0172166067838,1517
661.3066158173809,1470
663.5953893141935,1491
665.8835373154867,1480
668.1710600396028,1493
670.4579577049639,1459
672.7442305300709,1463
675.0298787335033,1464
677.3149025339197,1507
679.599302150058,1447
681.8830778007342,1502
684.1662297048437,1442
686.4487580813608,1467
688.7306631493387,1487
691.0119451279091,1454
693.2926042362834,1503
695.5726406937516,1502
697.8520547196814,1515
700.1308465335215,1508
702.4090163547982,1424
704.6865644031171,1459
706.9634908981619,1508
709.2397960596965,1498
711.5154801075631,1443
713.7905432616823,1490
716.0649857420548,1493
718.3388077687592,1452
720.612009561953,1463
722.8845913418733,1477
725.1565533288352,1410
727.427895743234,1410
729.6986188055427,1417
731.9687227363137,1474
734.238207756178,1470
736.5070740858458,1488
738.7753219461066,1425
741.0429515578281,1425
743.3099631419569,1493
745.5763569195191,1453
747.8421331116193,1516
750.1072919394409,1480
752.3718336242467,1518
754.6357583873777,1502
756.8990664502545,1493
759.1617580343765,1458
761.423833361321,1438
763.6852926527457,1464
765.9461361303862,1517
768.206364016058,1476
770.4659765316536,1376
772.7249738991469,1477
774.9833563405886,1529
777.2411240781092,1471
779.4982773339183,1507
781.7548163303044,1470
784.010741289634,1486
786.2660524343538,1617
788.5207499869881,1476
790.7748341701416,1523
793.0283052064964,1519
795.2811633188143,1528
797.5334087299362,1521
799.7850416627813,1474
802.0360623403484,1552
804.2864709857143,1524
806.5362678220353,1537
808.7854530725468,1557
811.0340269605625,1479
813.2819897094754,1495
815.5293415427581,1515
817.77608268396,1536
820.0222133567116,1588
822.2677337847211,1473
824.5126441917765,1469
826.7569448017433,1559
829.0006358385675,1504
831.2437175262731,1445
833.4861900889629,1455
835.7280537508192,1555
837.9693087361026,1446
840.2099552691533,1482
842.4499935743896,1490
844.689423876309,1452
846.9282463994886,1487
849.1664613685833,1470
851.4040690083276,1511
853.6410695435349,1504
855.877463199097,1467
858.1132501999847,1408
860.3484307712487,1522
862.5830051380175,1497
864.8169735254988,1458
867.0503361589791,1502
869.2830932638243,1484
871.5152450654786,1535
873.7467917894654,1504
875.9777336613873,1524
878.2080709069252,1564
880.4378037518389,1486
882.666932421968,1553
884.8954571432301,1521
887.1233781416219,1532
889.3506956432192,1563
891.5774098741766,1513
893.803521060728,1477
896.0290294291852,1538
898.2539352059397,1481
900.4782386174619,1484
902.7019398903011,1501
904.925039251085,1565
907.147536926521,1514
909.3694331433943,1523
911.59072812857,1533
913.8114221089921,1500
916.0315153116827,1489
918.2510079637437,1475
920.4699002923547,1536
922.6881925247761,1520
924.905884888345,1472
927.1229776104793,1526
929.3394709186747,1409
931.555365040506,1483
933.7706602036275,1525
935.9853566357709,1475
938.1994545647489,1472
940.4129542184515,1543
942.6258558248488,1476
944.8381596119883,1452
947.0498658079974,1467
949.2609746410825,1521
951.4714863395287,1449
953.6814011316998,1423
955.8907192460387,1441
958.0994409110671,1444
960.3075663553858,1448
962.5150958076741,1435
964.7220294966913,1445
966.928367651274,1417
969.1341105003388,1383
971.3392582728806,1411
973.5438111979742,1426
975.747769504772,1415
977.9511334225061,1452
980.153903180487,1392
982.3560790081052,1441
984.5576611348289,1437
986.7586497902058,1391
988.9590452038618,1386
991.158847605503,1383
993.3580572249133,1411
995.5566742919558,1358
997.7546990365728,1355
999.952131688785,1328
1002.1489724786926,1302
1004.3452216364743,1299
1006.5408793923874,1293
1008.7359459767691,1290
1010.9304216200343,1293
1013.1243065526781,1272
1015.3176010052733,1256
1017.510305208472,1270
1019.7024193930064,1252
1021.8939437896848,1256
1024.0848786293977,1280
1026.2752241431122,1241
1028.4649805618747,1240
1030.6541481168115,1243
1032.842727039127,1213
1035.0307175601051,1211
1037.2181199111074,1216
1039.4049343235752,1240
1041.591161029029,1169
1043.7768002590683,1164
1045.9618522453698,1217
1048.1463172196918,1182
1050.3301954138697,1199
1052.513487059818,1186
1054.69619238953,1259
1056.8783116350783,1205
1059.0598450286152,1194
1061.2407928023704,1174
1063.4211551886528,1210
1065.6009324198508,1250
1067.780124728432,1230
1069.9587323469414,1252
1072.1367555080046,1203
1074.314194444325,1177
1076.4910493886855,1183
1078.667320573947,1207
1080.843008233051,1143
1083.0181125990161,1166
1085.1926339049414,1173
1087.3665723840027,1201
1089.5399282694575,1197
1091.7127017946405,1181
1093.8848931929647,1177
1096.0565026979243,1171
1098.2275305430899,1187
1100.3979769621128,1123
1102.567842188722,1135
1104.737126456726,1137
1106.9058300000124,1191
1109.0739530525475,1166
1111.2414958483764,1175
1113.4084586216231,1124
1115.5748416064907,1073
1117.7406450372605,1124
1119.9058691482942,1165
1122.0705141740304,1177
1124.2345803489884,1094
1126.3980679077658,1135
1128.5609770850388,1169
1130.7233081155623,1157
1132.8850612341707,1170
1135.0462366757774,1165
1137.2068346753745,1164
1139.3668554680326,1111
1141.526299288901,1125
1143.68516637321,1114
1145.8434569562655,1143
1148.001171273455,1124
1150.158309560244,1105
1152.3148720521767,1119
1154.470858984876,1136
1156.626270594044,1128
1158.7811071154629,1127
1160.9353687849912,1097
1163.089055838569,1126
1165.242168512213,1133
1167.3947070420209,1079
1169.5466716641677,1075
1171.6980626149075,1039
1173.8488801305748,1063
1175.9991244475814,1103
1178.1487958024186,1080
1180.2978944316555,1117
1182.4464205719428,1072
1184.5943744600072,1142
1186.7417563326567,1126
1188.8885664267755,1118
1191.0348049793297,1140
1193.1804722273619,1161
1195.325568407995,1091
1197.4700937584303,1119
1199.614048515948,1141
1201.7574329179074,1166
1203.900247201746,1053
1206.042491604982,1090
1208.1841663652099,1106
1210.3252717201053,1095
1212.465807907422,1159
1214.6057751649923,1123
1216.7451737307279,1127
1218.8840038426192,1153
1221.0222657387353,1133
1223.1599596572241,1127
1225.2970858363137,1142
1227.4336445143094,1093
1229.5696359295966,1087
1231.705060320639,1119
1233.8399179259786,1169
1235.9742089842384,1148
1238.107933734118,1134
1240.2410924143974,1157
1242.373685263935,1153
1244.5057125216676,1158
1246.6371744266116,1105
1248.7680712178621,1143
1250.898403134593,1155
1253.028170416058,1128
1255.1573733015875,1189
1257.2860120305932,1150
1259.4140868425648,1178
1261.54159797707,1138
1263.6685456737569,1085
1265.7949301723515,1173
1267.9207517126597,1203
1270.046010534565,1207
1272.1707068780306,1129
1274.2948409830983,1160
1276.4184130898889,1222
1278.541423438603,1181
1280.6638722695184,1187
1282.785759822993,1214
1284.9070863394636,1188
1287.0278520594447,1181
1289.1480572235314,1204
1291.2677020723963,1178
1293.3867868467923,1161
1295.5053117875495,1235
1297.623277135579,1186
1299.740683131868,1194
1301.8575300174857,1209
1303.973818033578,1289
1306.0895474213703,1263
1308.2047184221678,1260
1310.3193312773528,1300
1312.4333862283888,1256
1314.5468835168163,1299
1316.659823384255,1278
1318.7722060724045,1249
1320.8840318230418,1278
1322.9953008780249,1247
1325.1060134792888,1256
1327.2161698688478,1268
1329.3257702887959,1311
1331.4348149813054,1278
1333.5433041886276,1260
1335.6512381530933,1270
1337.7586171171101,1229
1339.8654413231675,1273
1341.9717110138317,1251
1344.0774264317488,1222
1346.1825878196432,1252
1348.2871954203192,1293
1350.3912494766587,1213
1352.4947502316231,1202
1354.5976979282532,1275
1356.7000928096686,1243
1358.8019351190665,1222
1360.9032250997243,1237
1363.0039629949988,1267
1365.1041490483235,1289
1367.2037835032133,1232
1369.3028666032606,1235
1371.401398592137,1246
1373.4993797135926,1243
1375.5968102114575,1225
1377.6936903296396,1219
1379.7900203121262,1252
1381.8858004029835,1258
1383.9810308463561,1236
1386.075711886469,1258
1388.1698437676241,1207
1390.2634267342032,1248
1392.356461030667,1218
1394.4489469015557,1202
1396.5408845914872,1244
1398.6322743451592,1210
1400.7231164073469,1231
1402.813411022907,1213
1404.903158436773,1235
1406.9923588939578,1260
1409.0810126395531,1249
1411.1691199187303,1214
1413.2566809767386,1262
1415.343696058907,1254
1417.4301654106425,1308
1419.5160892774315,1268
1421.6014679048399,1269
1423.6863015385125,1244
1425.7705904241707,1240
1427.8543348076178,1261
1429.9375349347342,1308
1432.0201910514802,1281
1434.102303403894,1250
1436.1838722380944,1244
1438.2648978002767,1304
1440.3453803367174,1324
1442.4253200937692,1348
1444.5047173178677,1284
1446.5835722555234,1287
1448.6618851533285,1341
1450.739656257952,1315
1452.8168858161434,1256
1454.8935740747306,1384
1456.96972128062,1275
1459.045327680797,1390
1461.120393522327,1365
1463.1949190523528,1356
1465.2689045180973,1410
1467.3423501668608,1432
1469.415256246024,1467
1471.4876230030463,1433
1473.559450685465,1440
1475.6307395408976,1430
1477.7014898170391,1439
1479.771701761665,1472
1481.8413756226287,1467
1483.9105116478618,1500
1485.9791100853772,1532
1488.0471711832643,1545
1490.1146951896926,1495
1492.1816823529098,1566
1494.2481329212433,1476
1496.3140471430984,1566
1498.3794252669609,1561
1500.4442675413939,1602
1502.5085742150404,1585
1504.572345536622,1618
1506.6355817549388,1668
1508.6982831188702,1549
1510.7604498773744,1666
1512.8220822794883,1610
1514.8831805743293,1666
1516.9437450110909,1644
1519.003775839048,1618
1521.0632733075522,1623
1523.1222376660367,1612
1525.1806691640113,1675
1527.2385680510652,1623
1529.2959345768668,1667
1531.3527689911643,1643
1533.4090715437833,1620
1535.4648424846291,1708
1537.5200820636855,1741
1539.5747905310159,1664
1541.6289681367616,1699
1543.6826151311434,1752
1545.7357317644614,1806
1547.7883182870937,1766
1549.8403749494987,1800
1551.8919020022113,1812
1553.9428996958477,1775
1555.9933682811015,1807
1558.0433080087469,1850
1560.0927191296346,1916
1562.1416018946961,1923
1564.1899565549415,1953
1566.2377833614592,1987
1568.2850825654164,2027
1570.3318544180606,2058
1572.3780991707158,2001
1574.423817074788,1907
1576.4690083817595,1946
1578.5136733431923,1925
1580.5578122107272,1887
1582.601425236085,1812
1584.6445126710646,1840
1586.6870747675434,1739
1588.7291117774776,1675
1590.7706239529034,1672
1592.8116115459347,1589
1594.8520748087658,1607
1596.8920139936686,1521
1598.9314293529933,1550
1600.9703211391711,1397
1603.008689604711,1460
1605.0465350022005,1460
1607.0838575843068,1442
1609.1206576037753,1356
1611.1569353134305,1371
1613.1926909661765,1335
1615.2279248149953,1338
1617.2626371129481,1330
1619.2968281131757,1322
1621.3304980688963,1310
1623.3636472334088,1260
1625.39627586009,1284
1627.428384202396,1300
1629.459972513861,1212
1631.4910410480993,1156
1633.5215900588028,1206
1635.551619799744,1234
1637.5811305247717,1193
1639.6101224878166,1175
1641.6385959428862,1202
1643.6665511440683,1180
1645.693988345528,1206
1647.7209078015112,1169
1649.7473097663405,1179
1651.7731944944203,1153
1653.7985622402307,1194
1655.823413258333,1168
1657.847747803366,1149
1659.8715661300494,1136
1661.8948684931793,1117
1663.9176551476316,1106
1665.9399263483624,1166
1667.9616823504057,1169
1669.982923408873,1156
1672.0036497789574,1083
1674.0238617159293,1122
1676.043559475138,1139
1678.0627433120121,1122
1680.081413482059,1117
1682.0995702408654,1153
1684.117213844096,1197
1686.134344547495,1114
1688.1509626068864,1124
1690.1670682781705,1111
1692.182661817329,1167
1694.1977434804217,1123
1696.2123135235875,1165
1698.226372203043,1196
1700.2399197750851,1192
1702.2529564960905,1145
1704.2654826225112,1165
1706.277498410882,1162
1708.2890041178139,1130
1710.2999999999988,1128
1712.3104863142066,1142
1714.3204633172854,1166
1716.329931266163,1146
1718.3388904178469,1129
1720.3473410294214,1176
1722.3552833580516,1177
1724.3627176609807,1154
1726.3696441955308,1137
1728.3760632191033,1147
1730.3819749891782,1154
1732.3873797633146,1119
1734.3922777991502,1109
1736.3966693544012,1155
1738.4005546868639,1104
1740.4039340544127,1116
1742.406807715001,1151
1744.4091759266616,1120
1746.4110389475054,1120
1748.4123970357223,1139
1750.413250449582,1165
1752.4135994474318,1144
1754.4134442876993,1119
1756.4127852288902,1096
1758.4116225295893,1098
1760.4099564484595,1121
1762.407787244244,1096
1764.405115175764,1141
1766.4019405019203,1116
1768.3982634816916,1160
1770.3940843741357,1098
1772.3894034383907,1107
1774.3842209336717,1103
1776.378537119274,1075
1778.372352254571,1150
1780.3656665990156,1088
1782.3584804121397,1171
1784.3507939535534,1080
1786.3426074829463,1143
1788.3339212600863,1125
1790.3247355448211,1104
1792.3150505970766,1110
1794.3048666768573,1133
1796.2941840442477,1081
1798.2830029594106,1130
1800.2713236825884,1119
1802.2591464741004,1081
1804.2464715943465,1110
1806.2332993038058,1089
1808.2196298630352,1081
1810.2054635326708,1090
1812.190800573428,1092
1814.175641246101,1109
1816.1599858115628,1107
1818.1438345307652,1093
1820.127187664738,1143
1822.1100454745924,1133
1824.092408221516,1104
1826.0742761667766,1111
1828.055649571721,1094
1830.0365286977735,1118
1832.0169138064398,1045
1833.9968051593014,1109
1835.9762030180214,1090
1837.9551076443408,1122
1839.9335193000788,1126
1841.9114382471344,1112
1843.888864747485,1086
1845.8657990631878,1155
1847.842241456378,1069
1849.8181921892697,1036
1851.7936515241558,1142
1853.7686197234098,1092
1855.7430970494815,1092
1857.7170837649014,1093
1859.6905801322787,1051
1861.6635864143004,1144
1863.6361028737338,1064
1865.608129773424,1089
1867.5796673762961,1095
1869.5507159453537,1090
1871.521275743678,1155
1873.4913470344313,1072
1875.4609300808534,1071
1877.4300251462632,1080
1879.3986324940588,1093
1881.366752387717,1115
1883.3343850907936,1091
1885.3015308669228,1093
1887.268189979819,1126
1889.2343626932739,1140
1891.2000492711595,1144
1893.1652499774254,1144
1895.1299650761011,1160
1897.0941948312952,1142
1899.0579395071945,1142
1901.0211993680641,1087
1902.98397467825,1131
1904.9462657021745,1155
1906.9080727043415,1100
1908.869395949332,1099
1910.8302357018065,1107
1912.790592226504,1041
1914.7504657882428,1139
1916.7098566519212,1133
1918.6687650825133,1106
1920.6271913450764,1167
1922.5851357047422,1135
1924.5425984267245,1107
1926.499579776314,1105
1928.4560800188833,1113
1930.4120994198802,1125
1932.367638244833,1106
1934.32269675935,1159
1936.2772752291175,1112
1938.231373919899,1097
1940.1849930975404,1162
1942.1381330279637,1119
1944.0907939771696,1100
1946.0429762112412,1109
1947.9946799963363,1083
1949.9459055986945,1086
1951.896653284633,1094
1953.8469233205478,1081
1955.7967159729142,1116
1957.7460315082863,1145
1959.6948701932974,1069
1961.6432322946594,1089
1963.5911180791632,1129
1965.5385278136787,1113
1967.4854617651545,1067
1969.4319202006182,1103
1971.377903387176,1054
1973.3234115920136,1060
1975.268445082395,1111
1977.2130041256642,1093
1979.1570889892423,1088
1981.1006999406304,1120
1983.04383724741,1122
1984.986501177238,1110
1986.928691997853,1097
1988.8704099770712,1137
1990.811655382789,1087
1992.7524284829801,1097
1994.692729545698,1120
1996.6325588390755,1098
1998.5719166313224,1039
2000.5108031907307,1103
2002.4492187856677,1113
2004.387163684583,1061
2006.3246381560011,1098
2008.2616424685298,1071
2010.1981768908527,1103
2012.1342416917332,1101
2014.069837140014,1109
2016.0049635046162,1120
2017.9396210545406,1059
2019.8738100588666,1131
2021.8075307867502,1092
2023.740783507431,1073
2025.6735684902228,1117
2027.6058860045214,1115
2029.5377363198004,1046
2031.4691197056118,1077
2033.4000364315875,1043
2035.3304867674374,1066
2037.260470982952,1080
2039.189989347998,1028
2041.1190421325232,1140
2043.047629606554,1125
2044.9757520401945,1031
2046.9034097036288,1119
2048.8306028671195,1062
2050.7573318010086,1149
2052.683596775716,1056
2054.609398061742,1100
2056.5347359296647,1102
2058.4596106501403,1118
2060.384022493906,1059
2062.3079717317764,1095
2064.231458634646,1058
2066.1544834734873,1085
2068.077046519352,1042
2069.99914804337,1051
2071.9207883167524,1113
2073.8419676107865,1060
2075.7626861968406,1061
2077.6829443463607,1066
2079.6027423308715,1051
2081.522080421977,1061
2083.440958891362,1067
2085.359378010786,1066
2087.2773380520907,1067
2089.194839287196,1014
2091.111881988101,1094
2093.0284664268825,1052
2094.9445928756973,1073
2096.86026160678,1093
2098.775472892446,1101
2100.690227005088,1094
2102.604524217178,1072
2104.5183648012676,1111
2106.431749029985,1104
2108.34467717604,1037
2110.2571495122206,1019
2112.169166311393,1096
2114.080727846503,1039
2115.9918343905747,1060
2117.902486216711,1091
2119.8126835980956,1055
2121.722426807987,1085
2123.6317161197285,1044
2125.5405518067364,1094
2127.448934142509,1129
2129.356863400624,1058
2131.264339854737,1106
2133.1713637785815,1043
2135.077935445972,1059
2136.9840551308002,1091
2138.889723107037,1068
2140.7949396487334,1074
2142.699705030018,1096
2144.6040195250994,1052
2146.507883408264,1088
2148.4112969538774,1086
2150.3142604363848,1064
2152.2167741303097,1064
2154.1188383102535,1066
2156.0204532508997,1108
2157.9216192270064,1076
2159.822336513414,1055
2161.7226053850413,1015
2163.622426116884,1047
2165.5217989840185,1110
2167.4207242616,1017
2169.319202224862,1059
2171.2172331491165,1071
2173.1148173097563,1082
2175.0119549822507,1068
2176.90864644215,1140
2178.8048919650823,1075
2180.7006918267534,1076
2182.596046302952,1070
2184.4909556695407,1120
2186.3854202024645,1085
2188.279440177746,1092
2190.173015871487,1104
2192.066147559868,1097
2193.958835519149,1076
2195.851080025667,1087
2197.7428813558417,1103
2199.6342397861667,1119
2201.5251555932186,1096
2203.415629053651,1137
2205.3056604441986,1071
2207.19525004167,1112
2209.084398122958,1039
2210.9731049650327,1117
2212.861370844941,1157
2214.749196039812,1108
2216.636580826851,1075
2218.523525483344,1122
2220.410030286655,1121
2222.296095514226,1215
2224.1817214435805,1117
2226.066908352319,1114
2227.951656518121,1174
2229.835966218746,1112
2231.71983773203,1148
2233.6032713358913,1176
2235.486267308324,1123
2237.3688259274036,1124
2239.2509474712824,1101
2241.132632218193,1128
2243.013880446447,1160
2244.8946924344323,1137
2246.7750684606203,1138
2248.6550088035574,1147
2250.534513741871,1144
2252.413583554265,1205
2254.292218519526,1145
2256.170418916517,1124
2258.0481850241786,1128
2259.925517121534,1119
2261.8024154876825,1159
2263.678880401803,1107
2265.5549121431536,1141
2267.430510991071,1128
2269.305677224971,1152
2271.180411124348,1105
2273.0547129687766,1113
2274.9285830379076,1105
2276.8020216114737,1099
2278.6750289692845,1142
2280.5476053912294,1150
2282.4197511572766,1151
2284.2914665474727,1148
2286.162751841943,1159
2288.0336073208937,1121
2289.904033264608,1149
2291.774029953448,1148
2293.6435976678554,1148
2295.5127366883517,1158
2297.381447295534,1149
2299.2497297700825,1079
2301.1175843927526,1118
2302.9850114443825,1079
2304.852011205885,1025
2306.7185839582553,1016
2308.5847299825664,1009
2310.4504495599676,965
2312.3157429716925,994
2314.1806104990483,966
2316.0450524234247,1012
2317.9090690262888,1004
2319.772660589186,955
2321.635827393742,990
2323.498569721661,1060
2325.3608878547248,988
2327.2227820747967,978
2329.0842526638157,1001
2330.945299903803,993
2332.805924076857,952
2334.6661254651535,996
2336.525904350951,997
2338.3852610165827,967
2340.244195744464,990
2342.102708817088,984
2343.9608005170253,954
2345.8184711269287,971
2347.675720929526,1046
2349.532550207628,982
2351.38895924412,1021
2353.24494832197,1014
2355.100517724223,1024
2356.955667734004,1030
2358.810398634514,995
2360.664710709037,1008
2362.5186042409337,996
2364.3720795136437,991
2366.225136810686,994
2368.0777764156583,983
2369.929998612237,986
2371.7818036841777,1018
2373.633191915315,996
2375.484163589562,993
2377.3347189909114,997
2379.184858403434,967
2381.03458211128,1003
2382.8838903986775,1039
2384.732783549936,1009
2386.5812618494406,1019
2388.4293255816588,1031
2390.2769750311327,986
2392.1242104824883,1005
2393.971032220427,971
2395.8174405297295,1052
2397.6634356952563,1015
2399.509018001947,1039
2401.3541877348193,1051
2403.1989451789705,976
2405.043290619576,1026
2406.8872243418905,1059
2408.730746631247,1052
2410.5738577730594,988
2412.4165580528183,1006
2414.258847756095,1041
2416.100727168537,988
2417.9421965758734,1038
2419.783256263912,1052
2421.623906518538,1007
2423.4641476257157,980
2425.303979871491,1022
2427.143403541984,986
2428.9824189233977,983
2430.821026302012,977
2432.6592259641866,994
2434.497018196361,981
2436.33440328505,959
2438.171381516851,995
2440.00795317844,1002
2441.844118556569,1035
2443.6798779380724,1041
2445.5152316098606,1022
2447.3501798589255,1034
2449.1847229723357,972
2451.0188612372403,1021
2452.8525949408663,1036
2454.6859243705203,1078
2456.518849813587,987
2458.3513715575314,982
2460.183489889895,1048
2462.015205098301,1033
2463.8465174704493,1046
2465.67742729412,1019
2467.5079348571717,1025
2469.338040447542,952
2471.1677443532476,1034
2472.9970468623833,1041
2474.825948263123,1011
2476.6544488437207,1058
2478.482548892508,1015
2480.310248697896,1006
2482.137548548374,1030
2483.9644487325118,1031
2485.790949538956,1018
2487.617051256433,1004
2489.44275417375,1050
2491.26805857979,1000
2493.0929647635157,1065
2494.917473013971,1071
2496.741583620276,1034
2498.5652968716304,1068
2500.3886130573137,1073
2502.2115324666834,1070
2504.0340553891765,1051
2505.856182114308,1068
2507.6779129316733,1079
2509.499248130945,1094
2511.3201880018764,1095
2513.140732834298,1057
2514.9608829181198,1058
2516.780638543331,1051
2518.6,1089
2520.418967578273,1035
2522.237541568376,1073
2524.0557222606144,1120
2525.8735099453706,1021
2527.6909049131086,1065
2529.507907454368,1075
2531.32451785977,1065
2533.140736420014,1078
2534.9565634258774,1083
2536.771999168218,1102
2538.5870439379714,1120
2540.4016980261526,1043
2542.2159617238544,1071
2544.02983532225,1073
2545.8433191125914,1056
2547.656413386209,1073
2549.4691184345115,1128
2551.2814345489874,1107
2553.093362021204,1151
2554.904901142808,1136
2556.716052205523,1109
2558.526815501153,1152
2560.3371913215824,1171
2562.147179958771,1166
2563.956781704761,1165
2565.7659968516705,1132
2567.5748256916986,1157
2569.3832685171224,1186
2571.1913256202984,1182
2572.9989972936614,1182
2574.806283829725,1166
2576.613185521084,1137
2578.4197026604074,1195
2580.2258355404483,1178
2582.031584454035,1168
2583.836949694077,1185
2585.6419315535613,1144
2587.4465303255533,1148
2589.2507463032002,1178
2591.0545797797245,1198
2592.8580310484303,1134
2594.6611004026995,1184
2596.463788135992,1202
2598.266094541849,1225
2600.0680199138874,1258
2601.869564545807,1199
2603.670728731383,1252
2605.4715127644704,1114
2607.2719169390048,1210
2609.071941548998,1170
2610.8715868885433,1198
2612.670853251811,1264
2614.469740933052,1150
2616.268250226594,1129
2618.0663814268455,1171
2619.864134828292,1199
2621.6615107255006,1139
2623.458509413115,1154
2625.2551311858597,1165
2627.0513763385347,1139
2628.8472451660223,1174
2630.6427379632833,1180
2632.4378550253564,1207
2634.232596647359,1122
2636.026963124488,1161
2637.8209547520187,1131
2639.6145718253065,1156
2641.407814639785,1124
2643.200683490966,1127
2644.9931786744414,1171
2646.7853004858807,1146
2648.577049221034,1106
2650.3684251757277,1135
2652.1594286458712,1098
2653.9500599274484,1089
2655.740319316525,1049
2657.5302071092437,1103
2659.3197236018286,1110
2661.10886909058,1107
2662.8976438718782,1077
2664.686048242183,1078
2666.4740824980327,1103
2668.2617469360443,1112
2670.0490418529134,1054
2671.8359675454153,1099
2673.622524310403,1094
2675.408712444811,1123
2677.1945322456495,1078
2678.979984010009,1107
2680.76506803506,1095
2682.5497846180497,1020
2684.334134056306,1059
2686.1181166472343,1054
2687.9017326883213,1078
2689.6849824771293,1043
2691.4678663113013,1012
2693.2503844885596,1049
2695.032537306705,1049
2696.8143250636167,1039
2698.5957480572542,1037
2700.3768065856534,999
2702.1575009469316,986
2703.937831439283,1071
2705.717798360982,1012
2707.4974020103837,1024
2709.276642685917,992
2711.055520686095,1023
2712.834036309506,1020
2714.612189854819,1000
2716.389981620782,1001
2718.1674119062204,1049
2719.944481010041,1076
2721.721189231226,1019
2723.4975368688415,1007
2725.273524222027,1002
2727.0491515900053,1015
2728.824419272075,1050
2730.5993275676146,983
2732.3738767760838,1038
2734.148067197016,985
2735.921899130031,1001
2737.6953728748194,971
2739.468488731156,1001
2741.2412469988926,950
2743.0136479779617,1030
2744.785691968372,994
2746.5573792702116,1027
2748.3287101836504,990
2750.099685008934,1007
2751.870304046388,1014
2753.640567596418,1015
2755.4104759595057,1000
2757.1800294362156,995
2758.949228327187,957
2760.7180729331412,957
2762.486563554877,1003
2764.254700493272,965
2766.022484049284,984
2767.789914523947,984
2769.5569922183786,1045
2771.3237174337705,990
2773.090090471394,962
2774.8561116326036,999
2776.6217812188274,1004
2778.3870995315756,1036
2780.1520668724356,978
2781.9166835430747,997
2783.6809498452394,1002
2785.444866080754,1045
2787.2084325515225,991
2788.971649559527,989
2790.73451740683,1002
2792.4970363955713,980
2794.2592068279705,1008
2796.0210290063264,1015
2797.7825032330147,956
2799.543629810493,1011
2801.304409041296,1000
2803.0648412280366,999
2804.8249266734088,991
2806.5846656801846,1011
2808.344058551212,1008
2810.1031055894246,983
2811.8618070978273,952
2813.6201633795085,988
2815.378174737636,997
2817.1358414754536,962
2818.893163896285,983
2820.6501423035334,976
2822.4067770006814,997
2824.1630682912883,1066
2825.9190164789957,1009
2827.6746218675207,1004
2829.429884760661,994
2831.184805462294,994
2832.9393842763743,1025
2834.693621506936,967
2836.4475174580916,1008
2838.201072434034,994
2839.954286739034,990
2841.707160677441,956
2843.459694553685,975
2845.2118886722724,1008
2846.96374333779,935
2848.7152588549034,996
2850.4664355283567,974
2852.217273662973,947
2853.9677735636546,961
2855.7179355353833,1051
2857.4677598832186,990
2859.217246912299,1006
2860.9663969278427,984
2862.715210235146,990
2864.4636871395846,993
2866.211827946614,996
2867.9596329617652,998
2869.7071024906536,1006
2871.4542368389684,1000
2873.20103631248,1029
2874.947501217038,1014
2876.6936318585695,1027
2878.4394285430812,1001
2880.1848915766604,1006
2881.9300212654707,1002
2883.6748179157553,1023
2885.4192818338374,995
2887.1634133261173,972
2888.907212699077,991
2890.6506802592744,969
2892.393816313348,981
2894.1366211680142,1010
2895.8790951300693,998
2897.621238506388,1028
2899.363051603925,992
2901.1045347297118,997
2902.8456881908596,971
2904.58651229456,978
2906.327007348081,1015
2908.067173658772,994
2909.8070115340597,1013
2911.5465212814497,956
2913.285703208527,984
2915.0245576229563,1027
2916.7630848324807,984
2918.5012851449196,993
2920.2391588681758,1031
2921.976706310227,971
2923.7139277791334,982
2925.4508235830313,980
2927.187394030137,947
2928.923639428745,977
2930.6595600872306,993
2932.395156314046,1008
2934.1304284177218,1010
2935.8653767068713,1020
2937.6000014901815,1015
2939.3343030764227,997
2941.068281774442,1030
2942.8019378931644,1015
2944.5352717415976,971
2946.2682836288236,994
2948.0009738640065,1000
2949.7333427563885,975
2951.465390615289,982
2953.1971177501086,1034
2954.9285244703265,981
2956.6596110855,1014
2958.3903779052657,952
2960.1208252393385,977
2961.8509533975125,1023
2963.5807626896617,1029
2965.3102534257378,984
2967.0394259157715,987
2968.768280469873,979
2970.496817398232,1026
2972.2250370111146,1010
2973.952939618869,1014
2975.6805255319196,974
2977.4077950607707,961
2979.134748516006,1000
2980.861386208289,974
2982.587708448359,974
2984.313715547037,1002
2986.039407815222,957
2987.764785563891,953
2989.489849104102,991
2991.2145987469908,987
2992.9390348037705,972
2994.6631575857346,972
2996.3869674042576,1011
2998.1104645707887,973
2999.83364939686,913
3001.5565221940783,1009
3003.2790832741334,971
3005.0013329487924,975
3006.7232715298996,1003
3008.4448993293804,967
3010.166216659239,935
3011.887223831558,937
3013.607921158498,992
3015.3283089522993,1000
3017.0483875252826,1007
3018.7681571898443,954
3020.4876182584626,1012
3022.2067710436927,963
3023.9256158581707,943
3025.644153014609,1018
3027.362382825801,995
3029.0803056046193,939
3030.797921664012,981
3032.5152313170106,937
3034.2322348767225,978
3035.9489326563353,966
3037.665324969115,983
3039.3814121284063,961
3041.097194447633,975
3042.812672240299,968
3044.5278458199855,972
3046.2427155003525,937
3047.9572815951406,986
3049.671544418167,963
3051.38550428333,988
3053.0991615046073,973
3054.812516396051,940
3056.5255692717974,1011
3058.2383204460575,987
3059.9507702331257,986
3061.662918947372,932
3063.3747669032446,989
3065.0863144152736,957
3066.7975617980674,987
3068.508509366309,950
3070.219157434767,968
3071.9295063182844,989
3073.639556331785,979
3075.3493077902704,981
3077.058761008821,986
3078.7679163025964,1028
3080.476773986837,952
3082.1853343768594,940
3083.89359778806,1009
3085.6015645359153,970
3087.3092349359786,999
3089.016609303884,982
3090.7236879553434,980
3092.4304712061476,1008
3094.136959372166,983
3095.843152769349,971
3097.5490517137237,960
3099.2546565213966,979
3100.959967508554,980
3102.66498499146,956
3104.3697092864577,961
3106.0741407099695,941
3107.778279578498,1014
3109.482126208622,944
3111.1856809170004,1003
3112.8889440203716,944
3114.5919158355528,976
3116.294596679439,967
3117.996986869006,1009
3119.6990867213062,993
3121.4008965534726,987
3123.102416682717,1024
3124.803647426329,989
3126.5045891016784,976
3128.205242026213,982
3129.90560651746,1000
3131.605682893025,1017
3133.3054714705922,1018
3135.0049725679282,992
3136.7041865028714,965
3138.4031135933465,971
3140.101754157353,964
3141.800108512971,995
3143.498176978357,982
3145.1959598717494,964
3146.8934575114636,1016
3148.5906702158954,949
3150.2875983035183,985
3151.9842420928853,964
3153.680601902627,980
3155.376678051456,980
3157.07247085816,976
3158.767980641609,945
3160.463207720748,952
3162.158152414606,973
3163.8528150422862,925
3165.5471959229726,1004
3167.2412953759303,971
3168.9351137204976,973
3170.628651276098,1002
3172.3219083622307,978
3174.014885298474,993
3175.707582404485,982
3177.4000000000005,943
3179.092138404835,988
3180.7839979388846,978
3182.47557892212,950
3184.166881674594,987
3185.8579065164386,1005
3187.5486537678626,950
3189.2391237491547,1012
3190.9293167806827,988
3192.6192331828934,946
3194.3088732763117,958
3195.998237381542,944
3197.687325819268,986
3199.376138910251,933
3201.064676975334,978
3202.7529403354347,977
3204.4409293115523,995
3206.1286442247647,949
3207.816085396229,963
3209.5032531471825,956
3211.190147798936,986
3212.8767696728846,920
3214.5631190905015,975
3216.2491963733373,959
3217.9350018430214,977
3219.6205358212637,943
3221.305798629851,941
3222.990790590651,957
3224.6755120256103,959
3226.359963256751,981
3228.0441446061795,960
3229.7280563960758,948
3231.411698948703,936
3233.0950725863995,901
3234.778177631587,966
3236.461014406761,950
3238.1435832345005,966
3239.8258844374595,954
3241.507918338374,983
3243.1896852600576,948
3244.8711855254023,1014
3246.552419457381,987
3248.233387379042,962
3249.914089613516,971
3251.59452648401,996
3253.274698313813,978
3254.95460542629,977
3256.6342481448855,945
3258.313626793125,954
3259.9927416946084,961
3261.6715931730196,944
3263.3501815521176,974
3265.0285071557437,975
3266.706570307815,949
3268.3843713323286,937
3270.0619105533615,912
3271.739188295068,930
3273.4162048816834,911
3275.0929606375184,957
3276.769455886966,942
3278.445690954498,943
3280.1216661646613,979
3281.797381842087,1010
3283.4728383114807,987
3285.1480358976296,947
3286.8229749253996,937
3288.4976557197333,928
3290.172078605655,970
3291.846243908266,975
3293.5201519527463,990
3295.193803064357,961
3296.8671975684374,992
3298.5403357904024,940
3300.21321805575,950
3301.8858446900567,961
3303.558216018975,974
3305.23033236824,913
3306.9021940636603,971
3308.57380143113,968
3310.2451547966184,948
3311.916254486174,953
3313.5871008259246,969
3315.2576941420766,967
3316.9280347609147,956
3318.5981230088046,973
3320.2679592121895,961
3321.9375436975924,936
3323.606876791612,986
3325.27595882093,931
3326.944790112305,947
3328.6133709925753,930
3330.2817017886573,967
3331.949782827547,985
3333.617614436319,973
3335.2851969421245,965
3336.952530672199,984
3338.619615953853,969
3340.286453114475,956
3341.9530424815357,988
3343.619384382583,966
3345.2854791452437,993
3346.951327097224,939
3348.6169285663073,964
3350.2822838803577,982
3351.947393367319,927
3353.61225735521,968
3355.2768761721345,977
3356.9412501462693,928
3358.605379605873,973
3360.2692648792827,972
3361.9329062949146,927
3363.596304181263,935
