CollectionTime,7/11/2024 1:46:50 PM
ExposureUsed,3
CalibratedSpectrum
-962.7078968117929,439
-959.9714848408522,453
-957.2358232597828,456
-954.5009119013725,459
-951.7667505983302,483
-949.0333391832855,465
-946.3006774887896,476
-943.5687653473143,459
-940.837602591253,468
-938.1071890529199,455
-935.3775245645503,459
-932.6486089583007,454
-929.9204420662485,475
-927.1930237203925,461
-924.4663537526524,458
-921.7404319948689,455
-919.0152582788041,450
-916.2908324361409,486
-913.5671542984834,481
-910.8442236973568,459
-908.1220404642074,471
-905.4006044304027,448
-902.679915427231,459
-899.959973285902,467
-897.2407778375464,455
-894.5223289132158,439
-891.8046263438832,446
-889.0876699604426,456
-886.3714595937089,449
-883.6559950744183,471
-880.9412762332282,458
-878.2273029007168,471
-875.5140749073835,461
-872.8015920836489,455
-870.0898542598545,484
-867.3788612662631,459
-864.6686129330585,487
-861.9591090903457,485
-859.2503495681506,442
-856.5423341964203,470
-853.8350628050229,450
-851.1285352237478,471
-848.4227512823054,469
-845.7177108103272,476
-843.0134136373656,465
-840.3098595928943,470
-837.6070485063082,485
-834.9049802069229,454
-832.2036545239757,479
-829.5030712866244,480
-826.8032303239481,461
-824.1041314649472,476
-821.4057745385428,471
-818.7081593735775,462
-816.0112857988148,464
-813.3151536429393,458
-810.6197627345566,477
-807.9251129021936,472
-805.2312039742981,447
-802.5380357792392,477
-799.8456081453069,492
-797.1539209007124,476
-794.462973873588,482
-791.772766891987,467
-789.083299783884,487
-786.3945723771743,461
-783.7065844996748,443
-781.0193359791231,481
-778.3328266431781,478
-775.6470563194197,505
-772.9620248353489,510
-770.2777320183878,474
-767.5941776958798,465
-764.9113616950891,494
-762.2292838432011,468
-759.5479439673222,492
-756.8673418944801,485
-754.1874774516235,488
-751.5083504656222,465
-748.8299607632671,487
-746.15230817127,466
-743.475392516264,497
-740.7992136248035,513
-738.1237713233636,504
-735.4490654383407,488
-732.7750957960521,477
-730.1018622227365,469
-727.4293645445534,482
-724.7576025875837,510
-722.0865761778291,492
-719.4162851412126,524
-716.7467293035781,529
-714.0779084906909,489
-711.409822528237,512
-708.7424712418238,500
-706.0758544569796,526
-703.4099719991541,511
-700.7448236937178,507
-698.0804093659622,520
-695.4167288411002,483
-692.7537819442656,518
-690.0915685005134,507
-687.4300883348199,524
-684.7693412720819,516
-682.1093271371178,509
-679.4500457546669,517
-676.7914969493897,505
-674.1336805458676,528
-671.4765963686034,521
-668.8202442420206,520
-666.1646239904642,521
-663.5097354382001,509
-660.8555784094151,509
-658.2021527282176,540
-655.5494582186366,527
-652.8974947046223,529
-650.2462620100463,520
-647.5957599587009,519
-644.9459883742998,542
-642.2969470804776,528
-639.6486359007902,519
-637.0010546587141,564
-634.3542031776476,540
-631.7080812809096,550
-629.0626887917401,524
-626.4180255333008,528
-623.7740913286734,541
-621.1308860008619,539
-618.4884093727904,542
-615.8466612673046,556
-613.2056415071715,542
-610.5653499150785,526
-607.9257863136347,539
-605.28695052537,531
-602.6488423727357,530
-600.0114616781036,540
-597.3748082637674,551
-594.7388819519412,539
-592.1036825647604,530
-589.4692099242818,584
-586.8354638524829,567
-584.2024441712624,552
-581.5701507024403,547
-578.9385832677575,552
-576.3077416888759,579
-573.6776257873787,564
-571.0482353847704,552
-568.4195703024757,547
-565.7916303618415,567
-563.164415384135,577
-560.5379251905453,524
-557.9121596021815,564
-555.2871184400748,564
-552.6628015251767,524
-550.0392086783606,562
-547.4163397204204,565
-544.794194472071,584
-542.1727727539491,555
-539.5520743866118,624
-536.9320991905377,607
-534.3128469861261,621
-531.6943175936979,620
-529.0765108334947,632
-526.4594265256793,688
-523.8430644903358,727
-521.2274245474689,784
-518.612506517005,848
-515.9983102187913,868
-513.3848354725959,849
-510.77208209810846,898
-508.16004991493924,968
-505.5487387426199,1017
-502.9381484006032,1075
-500.3282787082628,1032
-497.71912948489364,930
-495.1107005497117,891
-492.5029917218539,795
-489.8960028203786,718
-487.28973366426493,736
-484.68418407241325,649
-482.07935386364494,683
-479.47524285670266,647
-476.87185087025,648
-474.2691777228715,668
-471.66722323307334,669
-469.0659872192821,717
-466.4654694998459,663
-463.86566989303384,668
-461.26658821703614,676
-458.66822428996414,665
-456.07057792985,665
-453.4736489546475,676
-450.877437182231,650
-448.28194243039627,689
-445.68716451686,664
-443.09310325926003,679
-440.49975847515555,626
-437.9071299820263,654
-435.31521759727354,655
-432.72402113821954,685
-430.13354042210767,717
-427.5437752661022,670
-424.95472548728867,677
-422.36639090267386,693
-419.7787713291855,684
-417.1918665836721,703
-414.60567648290385,685
-412.0202008435715,721
-409.4354394822874,699
-406.8513922155845,776
-404.26805885991723,723
-401.685439231661,717
-399.103533147112,720
-396.522340422488,717
-393.9418608739278,733
-391.3620943174908,750
-388.7830405691583,692
-386.2046994448317,703
-383.6270707603344,662
-381.05015433141045,598
-378.473949973725,626
-375.8984575028645,577
-373.32367673433623,522
-370.74960748356875,525
-368.1762495659117,516
-365.60360279663576,476
-363.03166699093265,436
-360.4604419639154,436
-357.8899275306178,443
-355.32012350599507,420
-352.7510297049233,413
-350.1826459421999,401
-347.61497203254316,392
-345.04800779059235,406
-342.4817530309082,424
-339.91620756797226,403
-337.35137121618743,383
-334.7872437898774,394
-332.22382510328725,402
-329.66111497058273,422
-327.09911320585127,429
-324.53781962310075,418
-321.9772340362607,411
-319.4173562591816,425
-316.8581861056348,422
-314.2997233893127,405
-311.7419679238294,403
-309.1849195227194,395
-306.62857799943856,417
-304.0729431673641,421
-301.51801483979375,433
-298.963792829947,429
-296.41027695096386,413
-293.85746701590574,425
-291.3053628377552,480
-288.7539642294155,459
-286.2032710037115,438
-283.65328297338897,424
-281.1039999511146,447
-278.5554217494762,500
-276.007548180983,508
-273.4603790580651,548
-270.9139141930734,482
-268.3681533982807,508
-265.8230964858798,518
-263.27874326798565,518
-260.7350935566336,517
-258.1921471637804,494
-255.6499039013039,469
-253.10836358100266,478
-250.56752601459698,480
-248.02739101372765,465
-245.48795838995704,470
-242.94922795476816,477
-240.41119951956557,486
-237.8738728956746,547
-235.33724789434166,558
-232.80132432673452,537
-230.2661020039418,498
-227.73158073697357,507
-225.19776033676033,499
-222.66464061415422,503
-220.1322213799284,526
-217.60050244477725,518
-215.06948361931552,534
-212.53916471408013,537
-210.00954553952818,530
-207.48062590603843,514
-204.9524056239104,528
-202.4248845033651,534
-199.8980623545441,492
-197.37193898751036,550
-194.84651421224817,565
-192.32178783866232,572
-189.79775967657952,587
-187.27442953574644,594
-184.7517972258321,619
-182.2298625564256,571
-179.7086253370378,652
-177.18808537710026,579
-174.66824248596583,544
-172.14909647290835,571
-169.6306471471229,599
-167.11289431772548,658
-164.59583779375328,621
-162.07947738416453,591
-159.5638128978386,639
-157.04884414357605,643
-154.53457093009854,640
-152.02099306604828,657
-149.50811035998936,661
-146.99592262040665,687
-144.48442965570587,684
-141.97363127421409,704
-139.46352728417958,758
-136.95411749377126,676
-134.44540171107985,696
-131.93737974411636,648
-129.43005140081357,645
-126.92341648902493,751
-124.41747481652521,906
-121.91222619101006,1058
-119.40767042009657,1203
-116.90380731132257,1296
-114.40063667214702,1375
-111.8981583099503,1419
-109.3963720320337,1283
-106.89527764561933,1084
-104.39487495785067,994
-101.89516377579241,1104
-99.39614390642998,1387
-96.89781515667039,1686
-94.40017733334128,1802
-91.90323024319173,2111
-89.40697369289148,2517
-86.91140748903172,2724
-84.41653143812482,2739
-81.92234534660395,2236
-79.42884902082358,1714
-76.93604226705907,2064
-74.4439248915071,3509
-71.95249670028534,5612
-69.46175749943245,7580
-66.97170709490854,8904
-64.48234529259423,9047
-61.99367189829195,8522
-59.50568671772464,7242
-57.01838955653636,6591
-54.53178022029283,5904
-52.045858514480074,5384
-49.560624244506016,6141
-47.07607721569923,7305
-44.59221723330904,7116
-42.10904410250669,6805
-39.62655762838392,6795
-37.14475761595372,6642
-34.66364387015028,7082
-32.18321619582866,8547
-29.70347439776515,10137
-27.224418280657005,9883
-24.74604764912317,9957
-22.26836230770266,11149
-19.7913620608565,15696
-17.315046712966478,23185
-14.83941606833514,27845
-12.36446993118659,34521
-9.89020810566592,65040
-7.416630395839093,65040
-4.94373660569363,65040
-2.471526539137585,65040
-6.821210263296962E-13,65040
2.47084320796705,65040
4.941003281093458,65040
7.410480415786196,65040
9.879274808531363,65040
12.347386655893956,65040
14.814816154518212,65040
17.28156350112681,65040
19.74762889252179,65040
22.21301252558385,65040
24.67771459727237,18276
27.141735304626195,3045
29.605074844762612,1820
32.06773341487792,1675
34.52971121224755,1564
36.99100843422559,1444
39.45162527824516,1469
41.91156194181792,1309
44.370818622535126,1208
46.82939551806646,1122
49.287292826160524,1066
51.74451074464503,1115
54.201049471426245,1172
56.65690920448981,1195
59.112090141899785,1028
61.56659248179983,1089
64.02041642241159,1057
66.4735621620365,939
68.92602989905402,795
71.37781983192338,811
73.82893215918205,935
76.27936707944684,1022
78.72912479141326,946
81.17820549385567,850
83.62660938562783,898
86.07433666566146,882
88.5213875329681,772
90.96776218663751,713
93.41346082583925,704
95.85848364982041,740
98.30283085790859,764
100.7465026495089,877
103.18949922410604,812
105.63182078126385,773
108.07346752062438,776
110.51443964190923,781
112.95473734491827,777
115.39436082953114,738
117.83331029570547,693
120.27158594347827,752
122.7091879729652,801
125.1461165843615,879
127.58237197794062,837
130.01795435405518,848
132.4528639131364,837
134.88710085569494,797
137.32066538231982,728
139.75355769367923,768
142.1857779905207,754
144.61732647366978,745
147.04820334403132,677
149.47840880258934,734
151.90794305040674,800
154.33680628862487,851
156.76499871846443,920
159.19252054122433,1011
161.61937195828352,1021
164.04555317109896,1135
166.47106438120693,1226
168.89590579022217,1248
171.320077599839,1407
173.7435800118302,1400
176.16641322804742,1477
178.58857745042144,1520
181.01007288096173,1591
183.43089972175687,1571
185.85105817497413,1566
188.27054844285988,1598
190.6893707277394,1673
193.10752523201643,1653
195.5250121581745,1741
197.9418317087751,1702
200.3579840864594,1704
202.7734694939469,1660
205.18828813403627,1804
207.6024402096051,1720
210.01592592360964,1798
212.42874547908548,1740
214.84089907914665,1780
217.2523869269868,1781
219.66320922587727,1817
222.0733661791695,1741
224.48285799029293,1873
226.8916848627572,1842
229.29984700014882,1858
231.7073446061355,1899
234.11417788446204,1900
236.520347038953,1883
238.92585227351185,1876
241.33069379212054,1946
243.73487179884035,1897
246.1383864978112,1931
248.541238093252,1940
250.9434267894609,1930
253.34495279081432,1973
255.74581630176783,1995
258.1460175268563,1937
260.54555667069314,1951
262.9444339379703,2036
265.3426495334594,1940
267.7402036620107,2047
270.1370965285529,1948
272.53332833809407,1850
274.9288992957214,1833
277.32380960660055,1827
279.718059475976,1790
282.1116491091717,1858
284.5045787115897,1717
286.89684848871195,1791
289.2884586460981,1788
291.67940938938807,1832
294.0697009242996,1808
296.4593334566299,1764
298.84830719225477,1745
301.23662233712923,1758
303.6242790972866,1739
306.01127767884,1748
308.39761828798066,1691
310.78330113097934,1715
313.16832641418534,1729
315.5526943440269,1674
317.9364051270112,1607
320.3194589697242,1672
322.70185607883093,1659
325.0835966610754,1638
327.4646809232805,1645
329.8451090723478,1583
332.2248813152577,1591
334.6039978590701,1542
336.9824589109231,1527
339.36026467803447,1628
341.7374153677,1584
344.113911187295,1551
346.48975234427337,1588
348.8649390461686,1508
351.2394715005918,1581
353.61334991523415,1561
355.9865744978655,1538
358.35914545633375,1479
360.73106299856715,1508
363.10232733257146,1546
365.47293866643247,1569
367.84289720831396,1577
370.2122031664593,1481
372.5808567491905,1451
374.9488581649083,1523
377.31620762209275,1460
379.6829053293021,1538
382.0489514951745,1428
384.4143463284262,1424
386.7790900378528,1422
389.14318283232853,1495
391.50662492080653,1492
393.86941651231916,1449
396.23155781597745,1517
398.5930490409713,1459
400.9538903965696,1430
403.3140820921202,1482
405.6736243370498,1501
408.03251734086336,1475
410.3907613131465,1470
412.74835646356166,1392
415.10530300185144,1432
417.4616011378372,1398
419.81725108141893,1383
422.1722530425758,1460
424.5266072313656,1435
426.880313857925,1405
429.2333731324701,1417
431.58578526529516,1385
433.9375504667738,1431
436.2886689473588,1401
438.63914091758113,1382
440.9889665880513,1451
443.33814616945835,1364
445.68667987257015,1421
448.03456790823395,1367
450.3818104873759,1338
452.72840782100013,1355
455.07436012019105,1378
457.41966759611057,1383
459.7643304600007,1377
462.10834892318155,1384
464.4517231970525,1374
466.79445349309174,1409
469.1365400228566,1410
471.4779829979826,1423
473.81878263018564,1369
476.15893913125876,1367
478.4984527130747,1348
480.8373235875855,1384
483.17555196682144,1378
485.5131380628919,1456
487.8500820879857,1455
490.1863842543697,1511
492.52204477439034,1514
494.8570638604725,1607
497.1914417251204,1719
499.52517858091653,1888
501.85827464052306,2119
504.19073011668036,2290
506.5225452222086,2331
508.85372017000566,2442
511.18425517304956,2423
513.514150444396,2451
515.8434061971808,2863
518.1720226446176,3400
520.4999999999999,3503
522.8273384766991,3295
525.1540382881666,3030
527.480099647932,2669
529.8055227696037,2267
532.1303078668694,1835
534.454455153496,1697
536.777964843328,1587
539.1008371502907,1506
541.4230722883866,1501
543.744670471698,1495
546.0656319143858,1490
548.3859568306899,1480
550.7056454349294,1448
553.0246979415016,1399
555.3431145648834,1426
557.6608955196306,1399
559.978041020377,1396
562.2945512818363,1453
564.6104265188006,1407
566.9256669461412,1459
569.2402727788082,1368
571.5542442318302,1414
573.8675815203156,1402
576.1802848594508,1426
578.4923544645015,1419
580.8037905508126,1414
583.114593333807,1471
585.4247630289875,1403
587.7342998519354,1369
590.0432040183106,1372
592.3514757438526,1396
594.6591152443794,1438
596.9661227357875,1399
599.2724984340531,1444
601.578242555231,1419
603.8833553154542,1463
606.1878369309362,1433
608.4916876179676,1375
610.7949075929192,1453
613.0974970722403,1487
615.3994562724587,1383
617.7007854101818,1402
620.0014847020951,1395
622.3015543649641,1402
624.6009946156324,1468
626.8998056710224,1418
629.1979877481361,1390
631.4955410640538,1430
633.7924658359349,1398
636.0887622810175,1445
638.3844306166192,1448
640.6794710601358,1412
642.9738838290426,1443
645.2676691408932,1415
647.5608272133207,1424
649.853358264037,1432
652.1452625108324,1462
654.4365401715764,1461
656.7271914642178,1467
659.0172166067838,1428
661.3066158173809,1428
663.5953893141935,1412
665.8835373154867,1417
668.1710600396028,1455
670.4579577049639,1423
672.7442305300709,1428
675.0298787335033,1437
677.3149025339197,1435
679.599302150058,1468
681.8830778007342,1450
684.1662297048437,1409
686.4487580813608,1403
688.7306631493387,1436
691.0119451279091,1415
693.2926042362834,1442
695.5726406937516,1461
697.8520547196814,1462
700.1308465335215,1401
702.4090163547982,1442
704.6865644031171,1478
706.9634908981619,1433
709.2397960596965,1419
711.5154801075631,1423
713.7905432616823,1438
716.0649857420548,1409
718.3388077687592,1471
720.612009561953,1425
722.8845913418733,1418
725.1565533288352,1448
727.427895743234,1468
729.6986188055427,1435
731.9687227363137,1417
734.238207756178,1494
736.5070740858458,1474
738.7753219461066,1449
741.0429515578281,1486
743.3099631419569,1447
745.5763569195191,1499
747.8421331116193,1401
750.1072919394409,1433
752.3718336242467,1455
754.6357583873777,1479
756.8990664502545,1401
759.1617580343765,1419
761.423833361321,1418
763.6852926527457,1482
765.9461361303862,1474
768.206364016058,1461
770.4659765316536,1470
772.7249738991469,1468
774.9833563405886,1443
777.2411240781092,1404
779.4982773339183,1434
781.7548163303044,1456
784.010741289634,1469
786.2660524343538,1568
788.5207499869881,1439
790.7748341701416,1486
793.0283052064964,1499
795.2811633188143,1524
797.5334087299362,1474
799.7850416627813,1517
802.0360623403484,1484
804.2864709857143,1491
806.5362678220353,1475
808.7854530725468,1478
811.0340269605625,1476
813.2819897094754,1504
815.5293415427581,1475
817.77608268396,1407
820.0222133567116,1447
822.2677337847211,1481
824.5126441917765,1467
826.7569448017433,1480
829.0006358385675,1450
831.2437175262731,1469
833.4861900889629,1419
835.7280537508192,1473
837.9693087361026,1485
840.2099552691533,1488
842.4499935743896,1488
844.689423876309,1452
846.9282463994886,1469
849.1664613685833,1441
851.4040690083276,1532
853.6410695435349,1439
855.877463199097,1477
858.1132501999847,1481
860.3484307712487,1503
862.5830051380175,1519
864.8169735254988,1434
867.0503361589791,1481
869.2830932638243,1506
871.5152450654786,1533
873.7467917894654,1538
875.9777336613873,1537
878.2080709069252,1457
880.4378037518389,1506
882.666932421968,1485
884.8954571432301,1489
887.1233781416219,1540
889.3506956432192,1520
891.5774098741766,1561
893.803521060728,1472
896.0290294291852,1485
898.2539352059397,1418
900.4782386174619,1465
902.7019398903011,1470
904.925039251085,1459
907.147536926521,1478
909.3694331433943,1486
911.59072812857,1462
913.8114221089921,1475
916.0315153116827,1470
918.2510079637437,1460
920.4699002923547,1465
922.6881925247761,1504
924.905884888345,1466
927.1229776104793,1417
929.3394709186747,1419
931.555365040506,1447
933.7706602036275,1459
935.9853566357709,1426
938.1994545647489,1474
940.4129542184515,1463
942.6258558248488,1449
944.8381596119883,1378
947.0498658079974,1412
949.2609746410825,1434
951.4714863395287,1438
953.6814011316998,1398
955.8907192460387,1425
958.0994409110671,1506
960.3075663553858,1478
962.5150958076741,1443
964.7220294966913,1382
966.928367651274,1456
969.1341105003388,1438
971.3392582728806,1396
973.5438111979742,1346
975.747769504772,1404
977.9511334225061,1420
980.153903180487,1393
982.3560790081052,1368
984.5576611348289,1414
986.7586497902058,1412
988.9590452038618,1400
991.158847605503,1389
993.3580572249133,1370
995.5566742919558,1344
997.7546990365728,1320
999.952131688785,1303
1002.1489724786926,1304
1004.3452216364743,1307
1006.5408793923874,1301
1008.7359459767691,1302
1010.9304216200343,1326
1013.1243065526781,1235
1015.3176010052733,1277
1017.510305208472,1246
1019.7024193930064,1254
1021.8939437896848,1245
1024.0848786293977,1242
1026.2752241431122,1210
1028.4649805618747,1236
1030.6541481168115,1240
1032.842727039127,1241
1035.0307175601051,1241
1037.2181199111074,1236
1039.4049343235752,1220
1041.591161029029,1228
1043.7768002590683,1241
1045.9618522453698,1236
1048.1463172196918,1253
1050.3301954138697,1164
1052.513487059818,1193
1054.69619238953,1218
1056.8783116350783,1141
1059.0598450286152,1175
1061.2407928023704,1218
1063.4211551886528,1191
1065.6009324198508,1164
1067.780124728432,1240
1069.9587323469414,1219
1072.1367555080046,1191
1074.314194444325,1229
1076.4910493886855,1186
1078.667320573947,1218
1080.843008233051,1182
1083.0181125990161,1204
1085.1926339049414,1160
1087.3665723840027,1167
1089.5399282694575,1179
1091.7127017946405,1207
1093.8848931929647,1162
1096.0565026979243,1136
1098.2275305430899,1149
1100.3979769621128,1128
1102.567842188722,1157
1104.737126456726,1143
1106.9058300000124,1154
1109.0739530525475,1159
1111.2414958483764,1151
1113.4084586216231,1126
1115.5748416064907,1188
1117.7406450372605,1132
1119.9058691482942,1165
1122.0705141740304,1135
1124.2345803489884,1185
1126.3980679077658,1176
1128.5609770850388,1142
1130.7233081155623,1140
1132.8850612341707,1135
1135.0462366757774,1127
1137.2068346753745,1121
1139.3668554680326,1126
1141.526299288901,1109
1143.68516637321,1082
1145.8434569562655,1127
1148.001171273455,1136
1150.158309560244,1128
1152.3148720521767,1156
1154.470858984876,1135
1156.626270594044,1167
1158.7811071154629,1172
1160.9353687849912,1137
1163.089055838569,1075
1165.242168512213,1072
1167.3947070420209,1129
1169.5466716641677,1159
1171.6980626149075,1171
1173.8488801305748,1086
1175.9991244475814,1050
1178.1487958024186,1112
1180.2978944316555,1143
1182.4464205719428,1179
1184.5943744600072,1155
1186.7417563326567,1121
1188.8885664267755,1051
1191.0348049793297,1110
1193.1804722273619,1104
1195.325568407995,1131
1197.4700937584303,1100
1199.614048515948,1072
1201.7574329179074,1158
1203.900247201746,1070
1206.042491604982,1162
1208.1841663652099,1123
1210.3252717201053,1115
1212.465807907422,1138
1214.6057751649923,1173
1216.7451737307279,1099
1218.8840038426192,1153
1221.0222657387353,1138
1223.1599596572241,1107
1225.2970858363137,1121
1227.4336445143094,1141
1229.5696359295966,1136
1231.705060320639,1158
1233.8399179259786,1134
1235.9742089842384,1075
1238.107933734118,1138
1240.2410924143974,1087
1242.373685263935,1147
1244.5057125216676,1158
1246.6371744266116,1133
1248.7680712178621,1127
1250.898403134593,1130
1253.028170416058,1142
1255.1573733015875,1183
1257.2860120305932,1194
1259.4140868425648,1205
1261.54159797707,1141
1263.6685456737569,1141
1265.7949301723515,1164
1267.9207517126597,1204
1270.046010534565,1162
1272.1707068780306,1241
1274.2948409830983,1195
1276.4184130898889,1191
1278.541423438603,1196
1280.6638722695184,1186
1282.785759822993,1224
1284.9070863394636,1260
1287.0278520594447,1207
1289.1480572235314,1232
1291.2677020723963,1195
1293.3867868467923,1188
1295.5053117875495,1197
1297.623277135579,1200
1299.740683131868,1233
1301.8575300174857,1217
1303.973818033578,1289
1306.0895474213703,1274
1308.2047184221678,1304
1310.3193312773528,1264
1312.4333862283888,1278
1314.5468835168163,1223
1316.659823384255,1256
1318.7722060724045,1291
1320.8840318230418,1292
1322.9953008780249,1249
1325.1060134792888,1348
1327.2161698688478,1299
1329.3257702887959,1328
1331.4348149813054,1323
1333.5433041886276,1303
1335.6512381530933,1296
1337.7586171171101,1320
1339.8654413231675,1303
1341.9717110138317,1294
1344.0774264317488,1353
1346.1825878196432,1246
1348.2871954203192,1293
1350.3912494766587,1212
1352.4947502316231,1240
1354.5976979282532,1316
1356.7000928096686,1252
1358.8019351190665,1256
1360.9032250997243,1220
1363.0039629949988,1225
1365.1041490483235,1235
1367.2037835032133,1262
1369.3028666032606,1264
1371.401398592137,1251
1373.4993797135926,1238
1375.5968102114575,1267
1377.6936903296396,1232
1379.7900203121262,1240
1381.8858004029835,1216
1383.9810308463561,1192
1386.075711886469,1265
1388.1698437676241,1280
1390.2634267342032,1238
1392.356461030667,1266
1394.4489469015557,1244
1396.5408845914872,1272
1398.6322743451592,1241
1400.7231164073469,1202
1402.813411022907,1206
1404.903158436773,1283
1406.9923588939578,1229
1409.0810126395531,1299
1411.1691199187303,1222
1413.2566809767386,1301
1415.343696058907,1244
1417.4301654106425,1231
1419.5160892774315,1273
1421.6014679048399,1219
1423.6863015385125,1230
1425.7705904241707,1304
1427.8543348076178,1243
1429.9375349347342,1294
1432.0201910514802,1266
1434.102303403894,1289
1436.1838722380944,1264
1438.2648978002767,1299
1440.3453803367174,1280
1442.4253200937692,1327
1444.5047173178677,1316
1446.5835722555234,1312
1448.6618851533285,1315
1450.739656257952,1329
1452.8168858161434,1299
1454.8935740747306,1310
1456.96972128062,1308
1459.045327680797,1379
1461.120393522327,1322
1463.1949190523528,1386
1465.2689045180973,1434
1467.3423501668608,1371
1469.415256246024,1404
1471.4876230030463,1418
1473.559450685465,1428
1475.6307395408976,1441
1477.7014898170391,1499
1479.771701761665,1459
1481.8413756226287,1492
1483.9105116478618,1575
1485.9791100853772,1538
1488.0471711832643,1499
1490.1146951896926,1496
1492.1816823529098,1533
1494.2481329212433,1548
1496.3140471430984,1566
1498.3794252669609,1501
1500.4442675413939,1546
1502.5085742150404,1533
1504.572345536622,1574
1506.6355817549388,1577
1508.6982831188702,1540
1510.7604498773744,1618
1512.8220822794883,1616
1514.8831805743293,1577
1516.9437450110909,1669
1519.003775839048,1598
1521.0632733075522,1640
1523.1222376660367,1611
1525.1806691640113,1685
1527.2385680510652,1671
1529.2959345768668,1698
1531.3527689911643,1582
1533.4090715437833,1679
1535.4648424846291,1672
1537.5200820636855,1697
1539.5747905310159,1726
1541.6289681367616,1716
1543.6826151311434,1768
1545.7357317644614,1800
1547.7883182870937,1894
1549.8403749494987,1781
1551.8919020022113,1838
1553.9428996958477,1887
1555.9933682811015,1868
1558.0433080087469,1963
1560.0927191296346,2006
1562.1416018946961,2030
1564.1899565549415,1962
1566.2377833614592,2050
1568.2850825654164,1966
1570.3318544180606,1972
1572.3780991707158,1963
1574.423817074788,1998
1576.4690083817595,1989
1578.5136733431923,1864
1580.5578122107272,1809
1582.601425236085,1791
1584.6445126710646,1776
1586.6870747675434,1686
1588.7291117774776,1672
1590.7706239529034,1613
1592.8116115459347,1632
1594.8520748087658,1589
1596.8920139936686,1513
1598.9314293529933,1491
1600.9703211391711,1479
1603.008689604711,1498
1605.0465350022005,1416
1607.0838575843068,1358
1609.1206576037753,1401
1611.1569353134305,1358
1613.1926909661765,1301
1615.2279248149953,1332
1617.2626371129481,1301
1619.2968281131757,1238
1621.3304980688963,1297
1623.3636472334088,1259
1625.39627586009,1252
1627.428384202396,1202
1629.459972513861,1217
1631.4910410480993,1277
1633.5215900588028,1216
1635.551619799744,1258
1637.5811305247717,1198
1639.6101224878166,1210
1641.6385959428862,1230
1643.6665511440683,1177
1645.693988345528,1202
1647.7209078015112,1149
1649.7473097663405,1184
1651.7731944944203,1162
1653.7985622402307,1175
1655.823413258333,1145
1657.847747803366,1181
1659.8715661300494,1190
1661.8948684931793,1134
1663.9176551476316,1108
1665.9399263483624,1142
1667.9616823504057,1090
1669.982923408873,1162
1672.0036497789574,1164
1674.0238617159293,1163
1676.043559475138,1192
1678.0627433120121,1170
1680.081413482059,1145
1682.0995702408654,1179
1684.117213844096,1198
1686.134344547495,1188
1688.1509626068864,1137
1690.1670682781705,1113
1692.182661817329,1149
1694.1977434804217,1110
1696.2123135235875,1072
1698.226372203043,1119
1700.2399197750851,1146
1702.2529564960905,1094
1704.2654826225112,1116
1706.277498410882,1126
1708.2890041178139,1116
1710.2999999999988,1140
1712.3104863142066,1080
1714.3204633172854,1132
1716.329931266163,1112
1718.3388904178469,1165
1720.3473410294214,1132
1722.3552833580516,1149
1724.3627176609807,1162
1726.3696441955308,1124
1728.3760632191033,1120
1730.3819749891782,1146
1732.3873797633146,1104
1734.3922777991502,1144
1736.3966693544012,1093
1738.4005546868639,1096
1740.4039340544127,1122
1742.406807715001,1112
1744.4091759266616,1084
1746.4110389475054,1104
1748.4123970357223,1129
1750.413250449582,1148
1752.4135994474318,1112
1754.4134442876993,1108
1756.4127852288902,1103
1758.4116225295893,1104
1760.4099564484595,1124
1762.407787244244,1061
1764.405115175764,1128
1766.4019405019203,1161
1768.3982634816916,1169
1770.3940843741357,1129
1772.3894034383907,1151
1774.3842209336717,1110
1776.378537119274,1089
1778.372352254571,1086
1780.3656665990156,1072
1782.3584804121397,1113
1784.3507939535534,1131
1786.3426074829463,1160
1788.3339212600863,1106
1790.3247355448211,1135
1792.3150505970766,1097
1794.3048666768573,1127
1796.2941840442477,1115
1798.2830029594106,1104
1800.2713236825884,1140
1802.2591464741004,1112
1804.2464715943465,1113
1806.2332993038058,1113
1808.2196298630352,1121
1810.2054635326708,1144
1812.190800573428,1075
1814.175641246101,1121
1816.1599858115628,1056
1818.1438345307652,1106
1820.127187664738,1090
1822.1100454745924,1077
1824.092408221516,1078
1826.0742761667766,1092
1828.055649571721,1099
1830.0365286977735,1159
1832.0169138064398,1091
1833.9968051593014,1093
1835.9762030180214,1125
1837.9551076443408,1111
1839.9335193000788,1092
1841.9114382471344,1106
1843.888864747485,1041
1845.8657990631878,1018
1847.842241456378,1083
1849.8181921892697,1085
1851.7936515241558,1124
1853.7686197234098,1092
1855.7430970494815,1080
1857.7170837649014,1137
1859.6905801322787,1109
1861.6635864143004,1081
1863.6361028737338,1087
1865.608129773424,1111
1867.5796673762961,1092
1869.5507159453537,1088
1871.521275743678,1085
1873.4913470344313,1117
1875.4609300808534,1092
1877.4300251462632,1069
1879.3986324940588,1159
1881.366752387717,1130
1883.3343850907936,1125
1885.3015308669228,1104
1887.268189979819,1162
1889.2343626932739,1168
1891.2000492711595,1156
1893.1652499774254,1149
1895.1299650761011,1153
1897.0941948312952,1122
1899.0579395071945,1140
1901.0211993680641,1139
1902.98397467825,1126
1904.9462657021745,1142
1906.9080727043415,1175
1908.869395949332,1119
1910.8302357018065,1111
1912.790592226504,1149
1914.7504657882428,1062
1916.7098566519212,1096
1918.6687650825133,1146
1920.6271913450764,1080
1922.5851357047422,1108
1924.5425984267245,1177
1926.499579776314,1135
1928.4560800188833,1121
1930.4120994198802,1109
1932.367638244833,1165
1934.32269675935,1154
1936.2772752291175,1095
1938.231373919899,1141
1940.1849930975404,1119
1942.1381330279637,1146
1944.0907939771696,1129
1946.0429762112412,1121
1947.9946799963363,1183
1949.9459055986945,1123
1951.896653284633,1100
1953.8469233205478,1072
1955.7967159729142,1131
1957.7460315082863,1158
1959.6948701932974,1126
1961.6432322946594,1122
1963.5911180791632,1111
1965.5385278136787,1113
1967.4854617651545,1099
1969.4319202006182,1105
1971.377903387176,1136
1973.3234115920136,1079
1975.268445082395,1124
1977.2130041256642,1128
1979.1570889892423,1156
1981.1006999406304,1122
1983.04383724741,1082
1984.986501177238,1120
1986.928691997853,1142
1988.8704099770712,1077
1990.811655382789,1109
1992.7524284829801,1105
1994.692729545698,1124
1996.6325588390755,1100
1998.5719166313224,1120
2000.5108031907307,1140
2002.4492187856677,1117
2004.387163684583,1101
2006.3246381560011,1096
2008.2616424685298,1105
2010.1981768908527,1061
2012.1342416917332,1115
2014.069837140014,1075
2016.0049635046162,1034
2017.9396210545406,1109
2019.8738100588666,1057
2021.8075307867502,1070
2023.740783507431,1091
2025.6735684902228,1072
2027.6058860045214,1088
2029.5377363198004,1095
2031.4691197056118,1104
2033.4000364315875,1102
2035.3304867674374,1114
2037.260470982952,1108
2039.189989347998,1085
2041.1190421325232,1084
2043.047629606554,1128
2044.9757520401945,1096
2046.9034097036288,1039
2048.8306028671195,1065
2050.7573318010086,1076
2052.683596775716,1106
2054.609398061742,1114
2056.5347359296647,1062
2058.4596106501403,1097
2060.384022493906,1067
2062.3079717317764,1092
2064.231458634646,1071
2066.1544834734873,1094
2068.077046519352,1076
2069.99914804337,1087
2071.9207883167524,1085
2073.8419676107865,1059
2075.7626861968406,1082
2077.6829443463607,1082
2079.6027423308715,1046
2081.522080421977,1108
2083.440958891362,1074
2085.359378010786,1117
2087.2773380520907,1068
2089.194839287196,1121
2091.111881988101,1103
2093.0284664268825,1086
2094.9445928756973,1028
2096.86026160678,1078
2098.775472892446,1039
2100.690227005088,1085
2102.604524217178,1088
2104.5183648012676,1042
2106.431749029985,1065
2108.34467717604,1057
2110.2571495122206,1055
2112.169166311393,1104
2114.080727846503,1093
2115.9918343905747,1050
2117.902486216711,1069
2119.8126835980956,1091
2121.722426807987,1104
2123.6317161197285,1040
2125.5405518067364,1096
2127.448934142509,1117
2129.356863400624,1121
2131.264339854737,1082
2133.1713637785815,1082
2135.077935445972,1122
2136.9840551308002,1079
2138.889723107037,1114
2140.7949396487334,1122
2142.699705030018,1118
2144.6040195250994,1099
2146.507883408264,1102
2148.4112969538774,1108
2150.3142604363848,1130
2152.2167741303097,1079
2154.1188383102535,1124
2156.0204532508997,1109
2157.9216192270064,1039
2159.822336513414,1158
2161.7226053850413,1111
2163.622426116884,1116
2165.5217989840185,1091
2167.4207242616,1110
2169.319202224862,1077
2171.2172331491165,1095
2173.1148173097563,1171
2175.0119549822507,1050
2176.90864644215,1134
2178.8048919650823,1128
2180.7006918267534,1119
2182.596046302952,1107
2184.4909556695407,1112
2186.3854202024645,1130
2188.279440177746,1164
2190.173015871487,1108
2192.066147559868,1148
2193.958835519149,1144
2195.851080025667,1110
2197.7428813558417,1117
2199.6342397861667,1134
2201.5251555932186,1129
2203.415629053651,1168
2205.3056604441986,1136
2207.19525004167,1155
2209.084398122958,1128
2210.9731049650327,1125
2212.861370844941,1143
2214.749196039812,1127
2216.636580826851,1110
2218.523525483344,1095
2220.410030286655,1105
2222.296095514226,1175
2224.1817214435805,1174
2226.066908352319,1146
2227.951656518121,1096
2229.835966218746,1177
2231.71983773203,1110
2233.6032713358913,1116
2235.486267308324,1067
2237.3688259274036,1144
2239.2509474712824,1108
2241.132632218193,1145
2243.013880446447,1157
2244.8946924344323,1098
2246.7750684606203,1167
2248.6550088035574,1115
2250.534513741871,1151
2252.413583554265,1111
2254.292218519526,1149
2256.170418916517,1150
2258.0481850241786,1084
2259.925517121534,1124
2261.8024154876825,1107
2263.678880401803,1156
2265.5549121431536,1140
2267.430510991071,1122
2269.305677224971,1109
2271.180411124348,1094
2273.0547129687766,1120
2274.9285830379076,1109
2276.8020216114737,1142
2278.6750289692845,1126
2280.5476053912294,1132
2282.4197511572766,1177
2284.2914665474727,1187
2286.162751841943,1124
2288.0336073208937,1138
2289.904033264608,1150
2291.774029953448,1153
2293.6435976678554,1119
2295.5127366883517,1148
2297.381447295534,1091
2299.2497297700825,1141
2301.1175843927526,1105
2302.9850114443825,1064
2304.852011205885,1012
2306.7185839582553,1085
2308.5847299825664,1039
2310.4504495599676,1011
2312.3157429716925,1039
2314.1806104990483,1002
2316.0450524234247,1020
2317.9090690262888,1039
2319.772660589186,1020
2321.635827393742,1084
2323.498569721661,1044
2325.3608878547248,1012
2327.2227820747967,1011
2329.0842526638157,1038
2330.945299903803,993
2332.805924076857,1041
2334.6661254651535,1008
2336.525904350951,1026
2338.3852610165827,1039
2340.244195744464,1034
2342.102708817088,1055
2343.9608005170253,1030
2345.8184711269287,1050
2347.675720929526,1051
2349.532550207628,1017
2351.38895924412,1028
2353.24494832197,1031
2355.100517724223,1017
2356.955667734004,1040
2358.810398634514,1065
2360.664710709037,1028
2362.5186042409337,1013
2364.3720795136437,1004
2366.225136810686,1012
2368.0777764156583,1056
2369.929998612237,1030
2371.7818036841777,1051
2373.633191915315,1089
2375.484163589562,1028
2377.3347189909114,1069
2379.184858403434,1079
2381.03458211128,1020
2382.8838903986775,1012
2384.732783549936,1053
2386.5812618494406,1082
2388.4293255816588,1059
2390.2769750311327,1050
2392.1242104824883,1031
2393.971032220427,1015
2395.8174405297295,1026
2397.6634356952563,1054
2399.509018001947,1083
2401.3541877348193,1037
2403.1989451789705,1029
2405.043290619576,1051
2406.8872243418905,1064
2408.730746631247,1075
2410.5738577730594,1057
2412.4165580528183,1102
2414.258847756095,1044
2416.100727168537,1049
2417.9421965758734,1104
2419.783256263912,1049
2421.623906518538,1026
2423.4641476257157,1059
2425.303979871491,1052
2427.143403541984,1053
2428.9824189233977,1024
2430.821026302012,1091
2432.6592259641866,1063
2434.497018196361,1045
2436.33440328505,1020
2438.171381516851,983
2440.00795317844,1013
2441.844118556569,1065
2443.6798779380724,1074
2445.5152316098606,1063
2447.3501798589255,1072
2449.1847229723357,1086
2451.0188612372403,1042
2452.8525949408663,1053
2454.6859243705203,989
2456.518849813587,1024
2458.3513715575314,1069
2460.183489889895,1088
2462.015205098301,1020
2463.8465174704493,979
2465.67742729412,1068
2467.5079348571717,1027
2469.338040447542,1079
2471.1677443532476,1046
2472.9970468623833,1065
2474.825948263123,1047
2476.6544488437207,1059
2478.482548892508,1077
2480.310248697896,1098
2482.137548548374,1053
2483.9644487325118,1036
2485.790949538956,1043
2487.617051256433,1093
2489.44275417375,1075
2491.26805857979,1077
2493.0929647635157,1063
2494.917473013971,1064
2496.741583620276,1129
2498.5652968716304,1047
2500.3886130573137,1079
2502.2115324666834,1077
2504.0340553891765,1105
2505.856182114308,1069
2507.6779129316733,1077
2509.499248130945,1112
2511.3201880018764,1041
2513.140732834298,1096
2514.9608829181198,1112
2516.780638543331,1105
2518.6,1072
2520.418967578273,1100
2522.237541568376,1089
2524.0557222606144,1093
2525.8735099453706,1086
2527.6909049131086,1059
2529.507907454368,1067
2531.32451785977,1125
2533.140736420014,1074
2534.9565634258774,1074
2536.771999168218,1074
2538.5870439379714,1104
2540.4016980261526,1141
2542.2159617238544,1160
2544.02983532225,1166
2545.8433191125914,1148
2547.656413386209,1120
2549.4691184345115,1175
2551.2814345489874,1126
2553.093362021204,1168
2554.904901142808,1175
2556.716052205523,1159
2558.526815501153,1142
2560.3371913215824,1212
2562.147179958771,1175
2563.956781704761,1128
2565.7659968516705,1192
2567.5748256916986,1158
2569.3832685171224,1175
2571.1913256202984,1202
2572.9989972936614,1215
2574.806283829725,1231
2576.613185521084,1204
2578.4197026604074,1210
2580.2258355404483,1249
2582.031584454035,1195
2583.836949694077,1203
2585.6419315535613,1170
2587.4465303255533,1255
2589.2507463032002,1204
2591.0545797797245,1239
2592.8580310484303,1234
2594.6611004026995,1217
2596.463788135992,1201
2598.266094541849,1227
2600.0680199138874,1209
2601.869564545807,1240
2603.670728731383,1183
2605.4715127644704,1233
2607.2719169390048,1225
2609.071941548998,1218
2610.8715868885433,1174
2612.670853251811,1171
2614.469740933052,1212
2616.268250226594,1196
2618.0663814268455,1190
2619.864134828292,1171
2621.6615107255006,1175
2623.458509413115,1238
2625.2551311858597,1212
2627.0513763385347,1199
2628.8472451660223,1189
2630.6427379632833,1199
2632.4378550253564,1171
2634.232596647359,1218
2636.026963124488,1176
2637.8209547520187,1178
2639.6145718253065,1177
2641.407814639785,1225
2643.200683490966,1150
2644.9931786744414,1130
2646.7853004858807,1161
2648.577049221034,1200
2650.3684251757277,1131
2652.1594286458712,1137
2653.9500599274484,1172
2655.740319316525,1139
2657.5302071092437,1140
2659.3197236018286,1122
2661.10886909058,1139
2662.8976438718782,1107
2664.686048242183,1126
2666.4740824980327,1146
2668.2617469360443,1130
2670.0490418529134,1125
2671.8359675454153,1132
2673.622524310403,1088
2675.408712444811,1129
2677.1945322456495,1077
2678.979984010009,1088
2680.76506803506,1067
2682.5497846180497,1097
2684.334134056306,1069
2686.1181166472343,1058
2687.9017326883213,1094
2689.6849824771293,1063
2691.4678663113013,1073
2693.2503844885596,1099
2695.032537306705,1076
2696.8143250636167,1058
2698.5957480572542,1057
2700.3768065856534,1098
2702.1575009469316,1051
2703.937831439283,1036
2705.717798360982,1120
2707.4974020103837,1061
2709.276642685917,1076
2711.055520686095,1062
2712.834036309506,1060
2714.612189854819,1068
2716.389981620782,1052
2718.1674119062204,1053
2719.944481010041,1022
2721.721189231226,1027
2723.4975368688415,1012
2725.273524222027,1013
2727.0491515900053,1002
2728.824419272075,1030
2730.5993275676146,1039
2732.3738767760838,1082
2734.148067197016,1026
2735.921899130031,1034
2737.6953728748194,1039
2739.468488731156,1020
2741.2412469988926,1020
2743.0136479779617,1016
2744.785691968372,984
2746.5573792702116,1030
2748.3287101836504,964
2750.099685008934,1036
2751.870304046388,1001
2753.640567596418,1049
2755.4104759595057,1028
2757.1800294362156,1003
2758.949228327187,1024
2760.7180729331412,1008
2762.486563554877,1025
2764.254700493272,1012
2766.022484049284,1023
2767.789914523947,1015
2769.5569922183786,1056
2771.3237174337705,993
2773.090090471394,993
2774.8561116326036,986
2776.6217812188274,993
2778.3870995315756,1016
2780.1520668724356,994
2781.9166835430747,985
2783.6809498452394,1001
2785.444866080754,1017
2787.2084325515225,1017
2788.971649559527,1009
2790.73451740683,977
2792.4970363955713,982
2794.2592068279705,982
2796.0210290063264,1071
2797.7825032330147,1003
2799.543629810493,1081
2801.304409041296,1028
2803.0648412280366,1017
2804.8249266734088,1040
2806.5846656801846,1012
2808.344058551212,1055
2810.1031055894246,1041
2811.8618070978273,1031
2813.6201633795085,1026
2815.378174737636,1033
2817.1358414754536,1024
2818.893163896285,1040
2820.6501423035334,1028
2822.4067770006814,965
2824.1630682912883,984
2825.9190164789957,991
2827.6746218675207,1028
2829.429884760661,1018
2831.184805462294,974
2832.9393842763743,1064
2834.693621506936,1025
2836.4475174580916,1046
2838.201072434034,1015
2839.954286739034,997
2841.707160677441,1062
2843.459694553685,1011
2845.2118886722724,1025
2846.96374333779,1030
2848.7152588549034,1030
2850.4664355283567,998
2852.217273662973,1015
2853.9677735636546,1017
2855.7179355353833,1021
2857.4677598832186,997
2859.217246912299,1026
2860.9663969278427,1030
2862.715210235146,1040
2864.4636871395846,952
2866.211827946614,1037
2867.9596329617652,1003
2869.7071024906536,1045
2871.4542368389684,1042
2873.20103631248,1011
2874.947501217038,1011
2876.6936318585695,1015
2878.4394285430812,1014
2880.1848915766604,1036
2881.9300212654707,979
2883.6748179157553,1010
2885.4192818338374,1004
2887.1634133261173,1026
2888.907212699077,997
2890.6506802592744,995
2892.393816313348,1076
2894.1366211680142,1044
2895.8790951300693,1045
2897.621238506388,1006
2899.363051603925,1024
2901.1045347297118,1020
2902.8456881908596,1018
2904.58651229456,1030
2906.327007348081,1035
2908.067173658772,1003
2909.8070115340597,1066
2911.5465212814497,997
2913.285703208527,1027
2915.0245576229563,972
2916.7630848324807,1009
2918.5012851449196,1045
2920.2391588681758,1001
2921.976706310227,1007
2923.7139277791334,989
2925.4508235830313,986
2927.187394030137,1033
2928.923639428745,1001
2930.6595600872306,1004
2932.395156314046,968
2934.1304284177218,1012
2935.8653767068713,1021
2937.6000014901815,1017
2939.3343030764227,1014
2941.068281774442,1024
2942.8019378931644,1001
2944.5352717415976,990
2946.2682836288236,1039
2948.0009738640065,1024
2949.7333427563885,1061
2951.465390615289,995
2953.1971177501086,985
2954.9285244703265,1026
2956.6596110855,1047
2958.3903779052657,1034
2960.1208252393385,1012
2961.8509533975125,998
2963.5807626896617,1034
2965.3102534257378,1029
2967.0394259157715,960
2968.768280469873,966
2970.496817398232,985
2972.2250370111146,997
2973.952939618869,1034
2975.6805255319196,1032
2977.4077950607707,1050
2979.134748516006,1015
2980.861386208289,1038
2982.587708448359,1006
2984.313715547037,999
2986.039407815222,1018
2987.764785563891,1025
2989.489849104102,1015
2991.2145987469908,1003
2992.9390348037705,992
2994.6631575857346,1001
2996.3869674042576,1059
2998.1104645707887,984
2999.83364939686,1014
3001.5565221940783,962
3003.2790832741334,987
3005.0013329487924,997
3006.7232715298996,963
3008.4448993293804,1041
3010.166216659239,1004
3011.887223831558,985
3013.607921158498,999
3015.3283089522993,993
3017.0483875252826,1033
3018.7681571898443,1005
3020.4876182584626,976
3022.2067710436927,999
3023.9256158581707,1000
3025.644153014609,943
3027.362382825801,997
3029.0803056046193,1047
3030.797921664012,977
3032.5152313170106,1027
3034.2322348767225,1026
3035.9489326563353,997
3037.665324969115,990
3039.3814121284063,1022
3041.097194447633,954
3042.812672240299,992
3044.5278458199855,1013
3046.2427155003525,953
3047.9572815951406,963
3049.671544418167,984
3051.38550428333,950
3053.0991615046073,950
3054.812516396051,997
3056.5255692717974,972
3058.2383204460575,986
3059.9507702331257,1030
3061.662918947372,974
3063.3747669032446,1028
3065.0863144152736,1016
3066.7975617980674,972
3068.508509366309,1021
3070.219157434767,956
3071.9295063182844,964
3073.639556331785,962
3075.3493077902704,983
3077.058761008821,1010
3078.7679163025964,958
3080.476773986837,983
3082.1853343768594,980
3083.89359778806,1018
3085.6015645359153,975
3087.3092349359786,1052
3089.016609303884,974
3090.7236879553434,1016
3092.4304712061476,973
3094.136959372166,1022
3095.843152769349,1018
3097.5490517137237,999
3099.2546565213966,1015
3100.959967508554,1020
3102.66498499146,1013
3104.3697092864577,973
3106.0741407099695,1045
3107.778279578498,986
3109.482126208622,951
3111.1856809170004,1000
3112.8889440203716,1031
3114.5919158355528,989
3116.294596679439,1001
3117.996986869006,1009
3119.6990867213062,959
3121.4008965534726,1036
3123.102416682717,1012
3124.803647426329,1009
3126.5045891016784,965
3128.205242026213,1016
3129.90560651746,1044
3131.605682893025,984
3133.3054714705922,967
3135.0049725679282,1018
3136.7041865028714,1020
3138.4031135933465,1005
3140.101754157353,962
3141.800108512971,1012
3143.498176978357,989
3145.1959598717494,999
3146.8934575114636,978
3148.5906702158954,1043
3150.2875983035183,977
3151.9842420928853,985
3153.680601902627,957
3155.376678051456,1011
3157.07247085816,956
3158.767980641609,988
3160.463207720748,1016
3162.158152414606,990
3163.8528150422862,1028
3165.5471959229726,1000
3167.2412953759303,997
3168.9351137204976,996
3170.628651276098,957
3172.3219083622307,971
3174.014885298474,998
3175.707582404485,992
3177.4000000000005,982
3179.092138404835,1023
3180.7839979388846,980
3182.47557892212,1003
3184.166881674594,1020
3185.8579065164386,994
3187.5486537678626,983
3189.2391237491547,991
3190.9293167806827,996
3192.6192331828934,1016
3194.3088732763117,1028
3195.998237381542,973
3197.687325819268,949
3199.376138910251,1005
3201.064676975334,972
3202.7529403354347,994
3204.4409293115523,999
3206.1286442247647,996
3207.816085396229,984
3209.5032531471825,995
3211.190147798936,994
3212.8767696728846,969
3214.5631190905015,991
3216.2491963733373,993
3217.9350018430214,993
3219.6205358212637,950
3221.305798629851,957
3222.990790590651,1026
3224.6755120256103,958
3226.359963256751,932
3228.0441446061795,941
3229.7280563960758,989
3231.411698948703,999
3233.0950725863995,1009
3234.778177631587,982
3236.461014406761,923
3238.1435832345005,970
3239.8258844374595,1019
3241.507918338374,1012
3243.1896852600576,1035
3244.8711855254023,1020
3246.552419457381,986
3248.233387379042,1000
3249.914089613516,1021
3251.59452648401,1056
3253.274698313813,1010
3254.95460542629,951
3256.6342481448855,998
3258.313626793125,973
3259.9927416946084,961
3261.6715931730196,945
3263.3501815521176,936
3265.0285071557437,959
3266.706570307815,970
3268.3843713323286,983
3270.0619105533615,1001
3271.739188295068,997
3273.4162048816834,999
3275.0929606375184,979
3276.769455886966,936
3278.445690954498,991
3280.1216661646613,993
3281.797381842087,975
3283.4728383114807,971
3285.1480358976296,1002
3286.8229749253996,960
3288.4976557197333,934
3290.172078605655,938
3291.846243908266,958
3293.5201519527463,976
3295.193803064357,1020
3296.8671975684374,954
3298.5403357904024,1002
3300.21321805575,1002
3301.8858446900567,956
3303.558216018975,940
3305.23033236824,967
3306.9021940636603,947
3308.57380143113,998
3310.2451547966184,976
3311.916254486174,968
3313.5871008259246,951
3315.2576941420766,988
3316.9280347609147,1034
3318.5981230088046,975
3320.2679592121895,968
3321.9375436975924,974
3323.606876791612,969
3325.27595882093,964
3326.944790112305,914
3328.6133709925753,993
3330.2817017886573,976
3331.949782827547,991
3333.617614436319,994
3335.2851969421245,980
3336.952530672199,993
3338.619615953853,993
3340.286453114475,956
3341.9530424815357,1001
3343.619384382583,990
3345.2854791452437,978
3346.951327097224,975
3348.6169285663073,963
3350.2822838803577,1010
3351.947393367319,1038
3353.61225735521,986
3355.2768761721345,989
3356.9412501462693,1013
3358.605379605873,966
3360.2692648792827,1002
3361.9329062949146,973
3363.596304181263,1016
