CollectionTime,7/11/2024 1:45:24 PM
ExposureUsed,3
CalibratedSpectrum
-962.7078968117929,429
-959.9714848408522,463
-957.2358232597828,477
-954.5009119013725,442
-951.7667505983302,447
-949.0333391832855,492
-946.3006774887896,469
-943.5687653473143,467
-940.837602591253,446
-938.1071890529199,446
-935.3775245645503,469
-932.6486089583007,464
-929.9204420662485,488
-927.1930237203925,481
-924.4663537526524,460
-921.7404319948689,472
-919.0152582788041,477
-916.2908324361409,535
-913.5671542984834,499
-910.8442236973568,455
-908.1220404642074,445
-905.4006044304027,476
-902.679915427231,491
-899.959973285902,471
-897.2407778375464,440
-894.5223289132158,473
-891.8046263438832,462
-889.0876699604426,459
-886.3714595937089,453
-883.6559950744183,456
-880.9412762332282,446
-878.2273029007168,443
-875.5140749073835,472
-872.8015920836489,459
-870.0898542598545,436
-867.3788612662631,469
-864.6686129330585,455
-861.9591090903457,455
-859.2503495681506,467
-856.5423341964203,451
-853.8350628050229,453
-851.1285352237478,447
-848.4227512823054,463
-845.7177108103272,461
-843.0134136373656,462
-840.3098595928943,458
-837.6070485063082,458
-834.9049802069229,471
-832.2036545239757,471
-829.5030712866244,481
-826.8032303239481,463
-824.1041314649472,480
-821.4057745385428,466
-818.7081593735775,451
-816.0112857988148,459
-813.3151536429393,474
-810.6197627345566,462
-807.9251129021936,468
-805.2312039742981,486
-802.5380357792392,485
-799.8456081453069,474
-797.1539209007124,493
-794.462973873588,482
-791.772766891987,495
-789.083299783884,472
-786.3945723771743,482
-783.7065844996748,483
-781.0193359791231,463
-778.3328266431781,470
-775.6470563194197,471
-772.9620248353489,471
-770.2777320183878,456
-767.5941776958798,475
-764.9113616950891,510
-762.2292838432011,498
-759.5479439673222,476
-756.8673418944801,472
-754.1874774516235,486
-751.5083504656222,489
-748.8299607632671,480
-746.15230817127,496
-743.475392516264,494
-740.7992136248035,498
-738.1237713233636,480
-735.4490654383407,488
-732.7750957960521,497
-730.1018622227365,495
-727.4293645445534,509
-724.7576025875837,482
-722.0865761778291,499
-719.4162851412126,495
-716.7467293035781,510
-714.0779084906909,505
-711.409822528237,493
-708.7424712418238,530
-706.0758544569796,504
-703.4099719991541,512
-700.7448236937178,519
-698.0804093659622,527
-695.4167288411002,495
-692.7537819442656,520
-690.0915685005134,489
-687.4300883348199,488
-684.7693412720819,522
-682.1093271371178,480
-679.4500457546669,474
-676.7914969493897,491
-674.1336805458676,519
-671.4765963686034,517
-668.8202442420206,530
-666.1646239904642,512
-663.5097354382001,527
-660.8555784094151,529
-658.2021527282176,511
-655.5494582186366,551
-652.8974947046223,509
-650.2462620100463,525
-647.5957599587009,514
-644.9459883742998,518
-642.2969470804776,544
-639.6486359007902,533
-637.0010546587141,530
-634.3542031776476,555
-631.7080812809096,534
-629.0626887917401,539
-626.4180255333008,560
-623.7740913286734,557
-621.1308860008619,546
-618.4884093727904,529
-615.8466612673046,533
-613.2056415071715,551
-610.5653499150785,550
-607.9257863136347,547
-605.28695052537,526
-602.6488423727357,522
-600.0114616781036,529
-597.3748082637674,582
-594.7388819519412,572
-592.1036825647604,563
-589.4692099242818,586
-586.8354638524829,576
-584.2024441712624,567
-581.5701507024403,583
-578.9385832677575,606
-576.3077416888759,585
-573.6776257873787,568
-571.0482353847704,566
-568.4195703024757,574
-565.7916303618415,562
-563.164415384135,569
-560.5379251905453,552
-557.9121596021815,569
-555.2871184400748,553
-552.6628015251767,563
-550.0392086783606,587
-547.4163397204204,577
-544.794194472071,567
-542.1727727539491,589
-539.5520743866118,627
-536.9320991905377,596
-534.3128469861261,623
-531.6943175936979,642
-529.0765108334947,664
-526.4594265256793,709
-523.8430644903358,752
-521.2274245474689,869
-518.612506517005,906
-515.9983102187913,869
-513.3848354725959,888
-510.77208209810846,996
-508.16004991493924,1028
-505.5487387426199,1129
-502.9381484006032,1176
-500.3282787082628,1127
-497.71912948489364,1023
-495.1107005497117,978
-492.5029917218539,863
-489.8960028203786,784
-487.28973366426493,725
-484.68418407241325,723
-482.07935386364494,679
-479.47524285670266,672
-476.87185087025,700
-474.2691777228715,689
-471.66722323307334,719
-469.0659872192821,693
-466.4654694998459,663
-463.86566989303384,692
-461.26658821703614,699
-458.66822428996414,723
-456.07057792985,709
-453.4736489546475,720
-450.877437182231,705
-448.28194243039627,702
-445.68716451686,725
-443.09310325926003,688
-440.49975847515555,709
-437.9071299820263,664
-435.31521759727354,657
-432.72402113821954,698
-430.13354042210767,711
-427.5437752661022,676
-424.95472548728867,712
-422.36639090267386,711
-419.7787713291855,699
-417.1918665836721,767
-414.60567648290385,789
-412.0202008435715,743
-409.4354394822874,720
-406.8513922155845,756
-404.26805885991723,717
-401.685439231661,766
-399.103533147112,741
-396.522340422488,789
-393.9418608739278,730
-391.3620943174908,763
-388.7830405691583,714
-386.2046994448317,695
-383.6270707603344,672
-381.05015433141045,662
-378.473949973725,612
-375.8984575028645,587
-373.32367673433623,560
-370.74960748356875,569
-368.1762495659117,553
-365.60360279663576,498
-363.03166699093265,468
-360.4604419639154,460
-357.8899275306178,462
-355.32012350599507,439
-352.7510297049233,417
-350.1826459421999,415
-347.61497203254316,399
-345.04800779059235,415
-342.4817530309082,433
-339.91620756797226,430
-337.35137121618743,421
-334.7872437898774,438
-332.22382510328725,455
-329.66111497058273,430
-327.09911320585127,415
-324.53781962310075,434
-321.9772340362607,442
-319.4173562591816,437
-316.8581861056348,422
-314.2997233893127,434
-311.7419679238294,414
-309.1849195227194,435
-306.62857799943856,468
-304.0729431673641,448
-301.51801483979375,429
-298.963792829947,452
-296.41027695096386,465
-293.85746701590574,476
-291.3053628377552,468
-288.7539642294155,443
-286.2032710037115,473
-283.65328297338897,461
-281.1039999511146,479
-278.5554217494762,518
-276.007548180983,498
-273.4603790580651,473
-270.9139141930734,464
-268.3681533982807,498
-265.8230964858798,484
-263.27874326798565,494
-260.7350935566336,495
-258.1921471637804,527
-255.6499039013039,473
-253.10836358100266,483
-250.56752601459698,518
-248.02739101372765,539
-245.48795838995704,556
-242.94922795476816,548
-240.41119951956557,492
-237.8738728956746,517
-235.33724789434166,548
-232.80132432673452,520
-230.2661020039418,522
-227.73158073697357,505
-225.19776033676033,550
-222.66464061415422,588
-220.1322213799284,635
-217.60050244477725,587
-215.06948361931552,566
-212.53916471408013,589
-210.00954553952818,572
-207.48062590603843,562
-204.9524056239104,543
-202.4248845033651,577
-199.8980623545441,563
-197.37193898751036,592
-194.84651421224817,617
-192.32178783866232,652
-189.79775967657952,644
-187.27442953574644,607
-184.7517972258321,653
-182.2298625564256,677
-179.7086253370378,713
-177.18808537710026,659
-174.66824248596583,622
-172.14909647290835,641
-169.6306471471229,663
-167.11289431772548,706
-164.59583779375328,628
-162.07947738416453,618
-159.5638128978386,650
-157.04884414357605,708
-154.53457093009854,726
-152.02099306604828,669
-149.50811035998936,690
-146.99592262040665,694
-144.48442965570587,771
-141.97363127421409,718
-139.46352728417958,753
-136.95411749377126,760
-134.44540171107985,745
-131.93737974411636,729
-129.43005140081357,803
-126.92341648902493,894
-124.41747481652521,990
-121.91222619101006,1111
-119.40767042009657,1442
-116.90380731132257,1719
-114.40063667214702,1842
-111.8981583099503,1650
-109.3963720320337,1416
-106.89527764561933,1289
-104.39487495785067,1134
-101.89516377579241,1469
-99.39614390642998,1763
-96.89781515667039,2067
-94.40017733334128,2086
-91.90323024319173,2380
-89.40697369289148,3150
-86.91140748903172,3870
-84.41653143812482,4106
-81.92234534660395,3439
-79.42884902082358,2378
-76.93604226705907,2933
-74.4439248915071,5563
-71.95249670028534,9206
-69.46175749943245,11899
-66.97170709490854,13052
-64.48234529259423,12201
-61.99367189829195,10413
-59.50568671772464,7990
-57.01838955653636,7397
-54.53178022029283,7276
-52.045858514480074,6784
-49.560624244506016,8416
-47.07607721569923,10039
-44.59221723330904,10619
-42.10904410250669,10138
-39.62655762838392,8706
-37.14475761595372,7445
-34.66364387015028,7436
-32.18321619582866,8271
-29.70347439776515,9598
-27.224418280657005,10137
-24.74604764912317,11040
-22.26836230770266,12254
-19.7913620608565,16856
-17.315046712966478,26457
-14.83941606833514,33726
-12.36446993118659,41956
-9.89020810566592,65039
-7.416630395839093,65039
-4.94373660569363,65039
-2.471526539137585,65039
-6.821210263296962E-13,65039
2.47084320796705,65039
4.941003281093458,65039
7.410480415786196,65039
9.879274808531363,65039
12.347386655893956,65039
14.814816154518212,65039
17.28156350112681,65039
19.74762889252179,65039
22.21301252558385,65039
24.67771459727237,19907
27.141735304626195,3333
29.605074844762612,2067
32.06773341487792,1946
34.52971121224755,1677
36.99100843422559,1641
39.45162527824516,1720
41.91156194181792,1385
44.370818622535126,1227
46.82939551806646,1298
49.287292826160524,1306
51.74451074464503,1367
54.201049471426245,1608
56.65690920448981,1345
59.112090141899785,1180
61.56659248179983,1338
64.02041642241159,1253
66.4735621620365,1158
68.92602989905402,961
71.37781983192338,893
73.82893215918205,922
76.27936707944684,961
78.72912479141326,977
81.17820549385567,1032
83.62660938562783,1046
86.07433666566146,1094
88.5213875329681,834
90.96776218663751,745
93.41346082583925,802
95.85848364982041,926
98.30283085790859,962
100.7465026495089,909
103.18949922410604,913
105.63182078126385,879
108.07346752062438,943
110.51443964190923,808
112.95473734491827,776
115.39436082953114,778
117.83331029570547,754
120.27158594347827,778
122.7091879729652,836
125.1461165843615,811
127.58237197794062,785
130.01795435405518,825
132.4528639131364,952
134.88710085569494,912
137.32066538231982,837
139.75355769367923,794
142.1857779905207,789
144.61732647366978,689
147.04820334403132,691
149.47840880258934,748
151.90794305040674,762
154.33680628862487,907
156.76499871846443,1055
159.19252054122433,1032
161.61937195828352,1146
164.04555317109896,1270
166.47106438120693,1262
168.89590579022217,1349
171.320077599839,1430
173.7435800118302,1458
176.16641322804742,1554
178.58857745042144,1633
181.01007288096173,1701
183.43089972175687,1712
185.85105817497413,1717
188.27054844285988,1727
190.6893707277394,1697
193.10752523201643,1730
195.5250121581745,1769
197.9418317087751,1794
200.3579840864594,1770
202.7734694939469,1796
205.18828813403627,1839
207.6024402096051,1851
210.01592592360964,1928
212.42874547908548,1855
214.84089907914665,1940
217.2523869269868,1911
219.66320922587727,1949
222.0733661791695,1901
224.48285799029293,1959
226.8916848627572,1923
229.29984700014882,1942
231.7073446061355,1987
234.11417788446204,1995
236.520347038953,1914
238.92585227351185,1999
241.33069379212054,1924
243.73487179884035,2085
246.1383864978112,2033
248.541238093252,2159
250.9434267894609,2046
253.34495279081432,2104
255.74581630176783,2140
258.1460175268563,2032
260.54555667069314,2122
262.9444339379703,2091
265.3426495334594,1949
267.7402036620107,2047
270.1370965285529,1995
272.53332833809407,1975
274.9288992957214,1992
277.32380960660055,1949
279.718059475976,1924
282.1116491091717,1920
284.5045787115897,1861
286.89684848871195,1880
289.2884586460981,1833
291.67940938938807,2003
294.0697009242996,1927
296.4593334566299,1954
298.84830719225477,1902
301.23662233712923,1911
303.6242790972866,1888
306.01127767884,1789
308.39761828798066,1810
310.78330113097934,1786
313.16832641418534,1746
315.5526943440269,1719
317.9364051270112,1761
320.3194589697242,1715
322.70185607883093,1780
325.0835966610754,1699
327.4646809232805,1747
329.8451090723478,1678
332.2248813152577,1646
334.6039978590701,1670
336.9824589109231,1719
339.36026467803447,1709
341.7374153677,1671
344.113911187295,1627
346.48975234427337,1672
348.8649390461686,1626
351.2394715005918,1586
353.61334991523415,1632
355.9865744978655,1598
358.35914545633375,1607
360.73106299856715,1596
363.10232733257146,1628
365.47293866643247,1644
367.84289720831396,1631
370.2122031664593,1622
372.5808567491905,1624
374.9488581649083,1574
377.31620762209275,1522
379.6829053293021,1509
382.0489514951745,1582
384.4143463284262,1451
386.7790900378528,1554
389.14318283232853,1545
391.50662492080653,1562
393.86941651231916,1544
396.23155781597745,1507
398.5930490409713,1530
400.9538903965696,1518
403.3140820921202,1581
405.6736243370498,1591
408.03251734086336,1555
410.3907613131465,1488
412.74835646356166,1453
415.10530300185144,1484
417.4616011378372,1463
419.81725108141893,1486
422.1722530425758,1499
424.5266072313656,1461
426.880313857925,1497
429.2333731324701,1436
431.58578526529516,1511
433.9375504667738,1513
436.2886689473588,1510
438.63914091758113,1458
440.9889665880513,1454
443.33814616945835,1544
445.68667987257015,1459
448.03456790823395,1483
450.3818104873759,1519
452.72840782100013,1433
455.07436012019105,1453
457.41966759611057,1411
459.7643304600007,1419
462.10834892318155,1467
464.4517231970525,1373
466.79445349309174,1435
469.1365400228566,1467
471.4779829979826,1383
473.81878263018564,1481
476.15893913125876,1454
478.4984527130747,1473
480.8373235875855,1479
483.17555196682144,1505
485.5131380628919,1524
487.8500820879857,1559
490.1863842543697,1607
492.52204477439034,1670
494.8570638604725,1769
497.1914417251204,1948
499.52517858091653,2158
501.85827464052306,2395
504.19073011668036,2534
506.5225452222086,2709
508.85372017000566,2637
511.18425517304956,2612
513.514150444396,2690
515.8434061971808,3126
518.1720226446176,3563
520.4999999999999,3787
522.8273384766991,3452
525.1540382881666,3206
527.480099647932,2871
529.8055227696037,2371
532.1303078668694,1936
534.454455153496,1660
536.777964843328,1563
539.1008371502907,1560
541.4230722883866,1602
543.744670471698,1495
546.0656319143858,1468
548.3859568306899,1461
550.7056454349294,1537
553.0246979415016,1431
555.3431145648834,1417
557.6608955196306,1510
559.978041020377,1451
562.2945512818363,1470
564.6104265188006,1401
566.9256669461412,1395
569.2402727788082,1377
571.5542442318302,1479
573.8675815203156,1443
576.1802848594508,1479
578.4923544645015,1511
580.8037905508126,1435
583.114593333807,1519
585.4247630289875,1459
587.7342998519354,1463
590.0432040183106,1453
592.3514757438526,1499
594.6591152443794,1434
596.9661227357875,1470
599.2724984340531,1459
601.578242555231,1495
603.8833553154542,1434
606.1878369309362,1506
608.4916876179676,1459
610.7949075929192,1454
613.0974970722403,1465
615.3994562724587,1527
617.7007854101818,1463
620.0014847020951,1495
622.3015543649641,1506
624.6009946156324,1519
626.8998056710224,1501
629.1979877481361,1510
631.4955410640538,1464
633.7924658359349,1586
636.0887622810175,1523
638.3844306166192,1497
640.6794710601358,1503
642.9738838290426,1587
645.2676691408932,1533
647.5608272133207,1522
649.853358264037,1544
652.1452625108324,1500
654.4365401715764,1498
656.7271914642178,1536
659.0172166067838,1525
661.3066158173809,1566
663.5953893141935,1496
665.8835373154867,1497
668.1710600396028,1541
670.4579577049639,1551
672.7442305300709,1595
675.0298787335033,1558
677.3149025339197,1515
679.599302150058,1468
681.8830778007342,1550
684.1662297048437,1509
686.4487580813608,1524
688.7306631493387,1507
691.0119451279091,1522
693.2926042362834,1561
695.5726406937516,1586
697.8520547196814,1549
700.1308465335215,1532
702.4090163547982,1527
704.6865644031171,1519
706.9634908981619,1548
709.2397960596965,1536
711.5154801075631,1529
713.7905432616823,1512
716.0649857420548,1534
718.3388077687592,1503
720.612009561953,1525
722.8845913418733,1464
725.1565533288352,1478
727.427895743234,1532
729.6986188055427,1478
731.9687227363137,1433
734.238207756178,1487
736.5070740858458,1504
738.7753219461066,1527
741.0429515578281,1517
743.3099631419569,1516
745.5763569195191,1592
747.8421331116193,1535
750.1072919394409,1538
752.3718336242467,1503
754.6357583873777,1491
756.8990664502545,1531
759.1617580343765,1553
761.423833361321,1506
763.6852926527457,1554
765.9461361303862,1525
768.206364016058,1538
770.4659765316536,1543
772.7249738991469,1474
774.9833563405886,1557
777.2411240781092,1523
779.4982773339183,1514
781.7548163303044,1527
784.010741289634,1544
786.2660524343538,1674
788.5207499869881,1561
790.7748341701416,1540
793.0283052064964,1531
795.2811633188143,1548
797.5334087299362,1592
799.7850416627813,1524
802.0360623403484,1596
804.2864709857143,1528
806.5362678220353,1555
808.7854530725468,1566
811.0340269605625,1515
813.2819897094754,1572
815.5293415427581,1538
817.77608268396,1572
820.0222133567116,1547
822.2677337847211,1537
824.5126441917765,1589
826.7569448017433,1503
829.0006358385675,1577
831.2437175262731,1539
833.4861900889629,1541
835.7280537508192,1507
837.9693087361026,1549
840.2099552691533,1499
842.4499935743896,1573
844.689423876309,1558
846.9282463994886,1569
849.1664613685833,1602
851.4040690083276,1553
853.6410695435349,1553
855.877463199097,1527
858.1132501999847,1572
860.3484307712487,1534
862.5830051380175,1612
864.8169735254988,1620
867.0503361589791,1589
869.2830932638243,1619
871.5152450654786,1609
873.7467917894654,1643
875.9777336613873,1613
878.2080709069252,1591
880.4378037518389,1580
882.666932421968,1598
884.8954571432301,1607
887.1233781416219,1596
889.3506956432192,1571
891.5774098741766,1527
893.803521060728,1665
896.0290294291852,1589
898.2539352059397,1565
900.4782386174619,1585
902.7019398903011,1571
904.925039251085,1580
907.147536926521,1559
909.3694331433943,1494
911.59072812857,1569
913.8114221089921,1564
916.0315153116827,1561
918.2510079637437,1570
920.4699002923547,1550
922.6881925247761,1524
924.905884888345,1516
927.1229776104793,1568
929.3394709186747,1534
931.555365040506,1539
933.7706602036275,1523
935.9853566357709,1505
938.1994545647489,1539
940.4129542184515,1604
942.6258558248488,1557
944.8381596119883,1585
947.0498658079974,1500
949.2609746410825,1484
951.4714863395287,1501
953.6814011316998,1544
955.8907192460387,1517
958.0994409110671,1473
960.3075663553858,1534
962.5150958076741,1498
964.7220294966913,1506
966.928367651274,1452
969.1341105003388,1438
971.3392582728806,1482
973.5438111979742,1475
975.747769504772,1443
977.9511334225061,1474
980.153903180487,1410
982.3560790081052,1477
984.5576611348289,1516
986.7586497902058,1457
988.9590452038618,1473
991.158847605503,1400
993.3580572249133,1431
995.5566742919558,1418
997.7546990365728,1405
999.952131688785,1394
1002.1489724786926,1330
1004.3452216364743,1399
1006.5408793923874,1299
1008.7359459767691,1323
1010.9304216200343,1331
1013.1243065526781,1322
1015.3176010052733,1296
1017.510305208472,1321
1019.7024193930064,1326
1021.8939437896848,1329
1024.0848786293977,1331
1026.2752241431122,1222
1028.4649805618747,1311
1030.6541481168115,1321
1032.842727039127,1280
1035.0307175601051,1301
1037.2181199111074,1301
1039.4049343235752,1289
1041.591161029029,1233
1043.7768002590683,1213
1045.9618522453698,1238
1048.1463172196918,1266
1050.3301954138697,1259
1052.513487059818,1257
1054.69619238953,1232
1056.8783116350783,1276
1059.0598450286152,1199
1061.2407928023704,1260
1063.4211551886528,1225
1065.6009324198508,1312
1067.780124728432,1262
1069.9587323469414,1244
1072.1367555080046,1263
1074.314194444325,1242
1076.4910493886855,1210
1078.667320573947,1213
1080.843008233051,1232
1083.0181125990161,1237
1085.1926339049414,1219
1087.3665723840027,1181
1089.5399282694575,1163
1091.7127017946405,1253
1093.8848931929647,1134
1096.0565026979243,1161
1098.2275305430899,1201
1100.3979769621128,1223
1102.567842188722,1181
1104.737126456726,1175
1106.9058300000124,1167
1109.0739530525475,1181
1111.2414958483764,1183
1113.4084586216231,1207
1115.5748416064907,1188
1117.7406450372605,1209
1119.9058691482942,1196
1122.0705141740304,1242
1124.2345803489884,1188
1126.3980679077658,1195
1128.5609770850388,1139
1130.7233081155623,1200
1132.8850612341707,1162
1135.0462366757774,1148
1137.2068346753745,1162
1139.3668554680326,1173
1141.526299288901,1184
1143.68516637321,1133
1145.8434569562655,1108
1148.001171273455,1170
1150.158309560244,1190
1152.3148720521767,1186
1154.470858984876,1132
1156.626270594044,1163
1158.7811071154629,1154
1160.9353687849912,1161
1163.089055838569,1148
1165.242168512213,1084
1167.3947070420209,1166
1169.5466716641677,1151
1171.6980626149075,1120
1173.8488801305748,1134
1175.9991244475814,1145
1178.1487958024186,1153
1180.2978944316555,1206
1182.4464205719428,1176
1184.5943744600072,1164
1186.7417563326567,1111
1188.8885664267755,1155
1191.0348049793297,1116
1193.1804722273619,1098
1195.325568407995,1154
1197.4700937584303,1148
1199.614048515948,1161
1201.7574329179074,1154
1203.900247201746,1199
1206.042491604982,1132
1208.1841663652099,1145
1210.3252717201053,1126
1212.465807907422,1170
1214.6057751649923,1153
1216.7451737307279,1120
1218.8840038426192,1161
1221.0222657387353,1120
1223.1599596572241,1166
1225.2970858363137,1169
1227.4336445143094,1144
1229.5696359295966,1132
1231.705060320639,1173
1233.8399179259786,1220
1235.9742089842384,1140
1238.107933734118,1162
1240.2410924143974,1189
1242.373685263935,1210
1244.5057125216676,1197
1246.6371744266116,1176
1248.7680712178621,1219
1250.898403134593,1192
1253.028170416058,1198
1255.1573733015875,1167
1257.2860120305932,1211
1259.4140868425648,1144
1261.54159797707,1241
1263.6685456737569,1174
1265.7949301723515,1243
1267.9207517126597,1268
1270.046010534565,1219
1272.1707068780306,1168
1274.2948409830983,1213
1276.4184130898889,1197
1278.541423438603,1241
1280.6638722695184,1236
1282.785759822993,1217
1284.9070863394636,1239
1287.0278520594447,1268
1289.1480572235314,1256
1291.2677020723963,1272
1293.3867868467923,1304
1295.5053117875495,1276
1297.623277135579,1273
1299.740683131868,1332
1301.8575300174857,1289
1303.973818033578,1307
1306.0895474213703,1303
1308.2047184221678,1295
1310.3193312773528,1313
1312.4333862283888,1300
1314.5468835168163,1302
1316.659823384255,1353
1318.7722060724045,1352
1320.8840318230418,1381
1322.9953008780249,1324
1325.1060134792888,1366
1327.2161698688478,1326
1329.3257702887959,1325
1331.4348149813054,1363
1333.5433041886276,1311
1335.6512381530933,1328
1337.7586171171101,1361
1339.8654413231675,1324
1341.9717110138317,1309
1344.0774264317488,1333
1346.1825878196432,1307
1348.2871954203192,1328
1350.3912494766587,1326
1352.4947502316231,1274
1354.5976979282532,1301
1356.7000928096686,1214
1358.8019351190665,1310
1360.9032250997243,1323
1363.0039629949988,1287
1365.1041490483235,1253
1367.2037835032133,1342
1369.3028666032606,1261
1371.401398592137,1267
1373.4993797135926,1301
1375.5968102114575,1237
1377.6936903296396,1217
1379.7900203121262,1329
1381.8858004029835,1258
1383.9810308463561,1292
1386.075711886469,1259
1388.1698437676241,1328
1390.2634267342032,1313
1392.356461030667,1271
1394.4489469015557,1287
1396.5408845914872,1279
1398.6322743451592,1319
1400.7231164073469,1280
1402.813411022907,1307
1404.903158436773,1273
1406.9923588939578,1330
1409.0810126395531,1359
1411.1691199187303,1294
1413.2566809767386,1296
1415.343696058907,1353
1417.4301654106425,1318
1419.5160892774315,1299
1421.6014679048399,1288
1423.6863015385125,1328
1425.7705904241707,1269
1427.8543348076178,1289
1429.9375349347342,1308
1432.0201910514802,1310
1434.102303403894,1261
1436.1838722380944,1297
1438.2648978002767,1300
1440.3453803367174,1309
1442.4253200937692,1304
1444.5047173178677,1332
1446.5835722555234,1329
1448.6618851533285,1390
1450.739656257952,1345
1452.8168858161434,1304
1454.8935740747306,1390
1456.96972128062,1383
1459.045327680797,1391
1461.120393522327,1405
1463.1949190523528,1396
1465.2689045180973,1475
1467.3423501668608,1421
1469.415256246024,1453
1471.4876230030463,1496
1473.559450685465,1514
1475.6307395408976,1518
1477.7014898170391,1483
1479.771701761665,1525
1481.8413756226287,1522
1483.9105116478618,1550
1485.9791100853772,1540
1488.0471711832643,1556
1490.1146951896926,1615
1492.1816823529098,1521
1494.2481329212433,1581
1496.3140471430984,1587
1498.3794252669609,1612
1500.4442675413939,1598
1502.5085742150404,1572
1504.572345536622,1584
1506.6355817549388,1640
1508.6982831188702,1559
1510.7604498773744,1660
1512.8220822794883,1678
1514.8831805743293,1646
1516.9437450110909,1684
1519.003775839048,1637
1521.0632733075522,1649
1523.1222376660367,1692
1525.1806691640113,1681
1527.2385680510652,1701
1529.2959345768668,1645
1531.3527689911643,1679
1533.4090715437833,1685
1535.4648424846291,1732
1537.5200820636855,1723
1539.5747905310159,1723
1541.6289681367616,1763
1543.6826151311434,1802
1545.7357317644614,1820
1547.7883182870937,1858
1549.8403749494987,1872
1551.8919020022113,1845
1553.9428996958477,1962
1555.9933682811015,1958
1558.0433080087469,1972
1560.0927191296346,2062
1562.1416018946961,2029
1564.1899565549415,2082
1566.2377833614592,1987
1568.2850825654164,2000
1570.3318544180606,2006
1572.3780991707158,2003
1574.423817074788,1983
1576.4690083817595,1958
1578.5136733431923,1900
1580.5578122107272,1809
1582.601425236085,1793
1584.6445126710646,1719
1586.6870747675434,1729
1588.7291117774776,1681
1590.7706239529034,1724
1592.8116115459347,1602
1594.8520748087658,1554
1596.8920139936686,1470
1598.9314293529933,1567
1600.9703211391711,1515
1603.008689604711,1548
1605.0465350022005,1379
1607.0838575843068,1447
1609.1206576037753,1451
1611.1569353134305,1424
1613.1926909661765,1397
1615.2279248149953,1350
1617.2626371129481,1305
1619.2968281131757,1288
1621.3304980688963,1324
1623.3636472334088,1360
1625.39627586009,1308
1627.428384202396,1290
1629.459972513861,1308
1631.4910410480993,1284
1633.5215900588028,1288
1635.551619799744,1220
1637.5811305247717,1269
1639.6101224878166,1264
1641.6385959428862,1197
1643.6665511440683,1202
1645.693988345528,1223
1647.7209078015112,1217
1649.7473097663405,1195
1651.7731944944203,1210
1653.7985622402307,1220
1655.823413258333,1197
1657.847747803366,1185
1659.8715661300494,1191
1661.8948684931793,1221
1663.9176551476316,1202
1665.9399263483624,1204
1667.9616823504057,1171
1669.982923408873,1171
1672.0036497789574,1133
1674.0238617159293,1155
1676.043559475138,1241
1678.0627433120121,1259
1680.081413482059,1140
1682.0995702408654,1204
1684.117213844096,1180
1686.134344547495,1199
1688.1509626068864,1179
1690.1670682781705,1147
1692.182661817329,1164
1694.1977434804217,1166
1696.2123135235875,1208
1698.226372203043,1168
1700.2399197750851,1181
1702.2529564960905,1169
1704.2654826225112,1157
1706.277498410882,1180
1708.2890041178139,1239
1710.2999999999988,1193
1712.3104863142066,1203
1714.3204633172854,1182
1716.329931266163,1187
1718.3388904178469,1160
1720.3473410294214,1238
1722.3552833580516,1173
1724.3627176609807,1165
1726.3696441955308,1185
1728.3760632191033,1106
1730.3819749891782,1221
1732.3873797633146,1135
1734.3922777991502,1167
1736.3966693544012,1138
1738.4005546868639,1184
1740.4039340544127,1144
1742.406807715001,1175
1744.4091759266616,1155
1746.4110389475054,1156
1748.4123970357223,1150
1750.413250449582,1148
1752.4135994474318,1137
1754.4134442876993,1109
1756.4127852288902,1132
1758.4116225295893,1159
1760.4099564484595,1144
1762.407787244244,1196
1764.405115175764,1189
1766.4019405019203,1155
1768.3982634816916,1141
1770.3940843741357,1152
1772.3894034383907,1161
1774.3842209336717,1117
1776.378537119274,1115
1778.372352254571,1125
1780.3656665990156,1120
1782.3584804121397,1168
1784.3507939535534,1092
1786.3426074829463,1147
1788.3339212600863,1107
1790.3247355448211,1126
1792.3150505970766,1179
1794.3048666768573,1143
1796.2941840442477,1127
1798.2830029594106,1149
1800.2713236825884,1141
1802.2591464741004,1100
1804.2464715943465,1214
1806.2332993038058,1133
1808.2196298630352,1116
1810.2054635326708,1213
1812.190800573428,1115
1814.175641246101,1092
1816.1599858115628,1175
1818.1438345307652,1143
1820.127187664738,1132
1822.1100454745924,1134
1824.092408221516,1168
1826.0742761667766,1136
1828.055649571721,1116
1830.0365286977735,1164
1832.0169138064398,1138
1833.9968051593014,1167
1835.9762030180214,1089
1837.9551076443408,1179
1839.9335193000788,1126
1841.9114382471344,1098
1843.888864747485,1113
1845.8657990631878,1116
1847.842241456378,1135
1849.8181921892697,1140
1851.7936515241558,1144
1853.7686197234098,1154
1855.7430970494815,1144
1857.7170837649014,1156
1859.6905801322787,1163
1861.6635864143004,1119
1863.6361028737338,1117
1865.608129773424,1139
1867.5796673762961,1145
1869.5507159453537,1160
1871.521275743678,1135
1873.4913470344313,1161
1875.4609300808534,1149
1877.4300251462632,1149
1879.3986324940588,1166
1881.366752387717,1157
1883.3343850907936,1095
1885.3015308669228,1183
1887.268189979819,1222
1889.2343626932739,1137
1891.2000492711595,1134
1893.1652499774254,1133
1895.1299650761011,1204
1897.0941948312952,1176
1899.0579395071945,1164
1901.0211993680641,1181
1902.98397467825,1189
1904.9462657021745,1196
1906.9080727043415,1167
1908.869395949332,1222
1910.8302357018065,1186
1912.790592226504,1173
1914.7504657882428,1137
1916.7098566519212,1165
1918.6687650825133,1191
1920.6271913450764,1172
1922.5851357047422,1127
1924.5425984267245,1092
1926.499579776314,1131
1928.4560800188833,1144
1930.4120994198802,1177
1932.367638244833,1102
1934.32269675935,1179
1936.2772752291175,1148
1938.231373919899,1150
1940.1849930975404,1136
1942.1381330279637,1143
1944.0907939771696,1171
1946.0429762112412,1095
1947.9946799963363,1073
1949.9459055986945,1134
1951.896653284633,1161
1953.8469233205478,1128
1955.7967159729142,1168
1957.7460315082863,1152
1959.6948701932974,1143
1961.6432322946594,1107
1963.5911180791632,1155
1965.5385278136787,1160
1967.4854617651545,1171
1969.4319202006182,1149
1971.377903387176,1128
1973.3234115920136,1128
1975.268445082395,1162
1977.2130041256642,1102
1979.1570889892423,1128
1981.1006999406304,1181
1983.04383724741,1134
1984.986501177238,1164
1986.928691997853,1157
1988.8704099770712,1135
1990.811655382789,1146
1992.7524284829801,1104
1994.692729545698,1123
1996.6325588390755,1106
1998.5719166313224,1136
2000.5108031907307,1090
2002.4492187856677,1101
2004.387163684583,1075
2006.3246381560011,1177
2008.2616424685298,1086
2010.1981768908527,1188
2012.1342416917332,1110
2014.069837140014,1107
2016.0049635046162,1186
2017.9396210545406,1107
2019.8738100588666,1109
2021.8075307867502,1173
2023.740783507431,1111
2025.6735684902228,1093
2027.6058860045214,1099
2029.5377363198004,1113
2031.4691197056118,1134
2033.4000364315875,1123
2035.3304867674374,1085
2037.260470982952,1069
2039.189989347998,1091
2041.1190421325232,1138
2043.047629606554,1108
2044.9757520401945,1128
2046.9034097036288,1095
2048.8306028671195,1080
2050.7573318010086,1120
2052.683596775716,1094
2054.609398061742,1164
2056.5347359296647,1072
2058.4596106501403,1083
2060.384022493906,1099
2062.3079717317764,1109
2064.231458634646,1071
2066.1544834734873,1108
2068.077046519352,1051
2069.99914804337,1038
2071.9207883167524,1113
2073.8419676107865,1104
2075.7626861968406,1162
2077.6829443463607,1128
2079.6027423308715,1071
2081.522080421977,1048
2083.440958891362,1108
2085.359378010786,1091
2087.2773380520907,1112
2089.194839287196,1102
2091.111881988101,1119
2093.0284664268825,1113
2094.9445928756973,1142
2096.86026160678,1097
2098.775472892446,1103
2100.690227005088,1113
2102.604524217178,1073
2104.5183648012676,1108
2106.431749029985,1144
2108.34467717604,1122
2110.2571495122206,1128
2112.169166311393,1136
2114.080727846503,1110
2115.9918343905747,1093
2117.902486216711,1135
2119.8126835980956,1103
2121.722426807987,1121
2123.6317161197285,1117
2125.5405518067364,1137
2127.448934142509,1067
2129.356863400624,1117
2131.264339854737,1085
2133.1713637785815,1077
2135.077935445972,1142
2136.9840551308002,1113
2138.889723107037,1152
2140.7949396487334,1166
2142.699705030018,1110
2144.6040195250994,1140
2146.507883408264,1094
2148.4112969538774,1121
2150.3142604363848,1112
2152.2167741303097,1144
2154.1188383102535,1123
2156.0204532508997,1150
2157.9216192270064,1131
2159.822336513414,1165
2161.7226053850413,1139
2163.622426116884,1131
2165.5217989840185,1123
2167.4207242616,1150
2169.319202224862,1192
2171.2172331491165,1159
2173.1148173097563,1161
2175.0119549822507,1105
2176.90864644215,1146
2178.8048919650823,1148
2180.7006918267534,1156
2182.596046302952,1170
2184.4909556695407,1171
2186.3854202024645,1164
2188.279440177746,1094
2190.173015871487,1142
2192.066147559868,1189
2193.958835519149,1146
2195.851080025667,1146
2197.7428813558417,1166
2199.6342397861667,1163
2201.5251555932186,1150
2203.415629053651,1144
2205.3056604441986,1168
2207.19525004167,1165
2209.084398122958,1189
2210.9731049650327,1166
2212.861370844941,1178
2214.749196039812,1201
2216.636580826851,1175
2218.523525483344,1207
2220.410030286655,1233
2222.296095514226,1167
2224.1817214435805,1197
2226.066908352319,1166
2227.951656518121,1170
2229.835966218746,1165
2231.71983773203,1189
2233.6032713358913,1206
2235.486267308324,1189
2237.3688259274036,1181
2239.2509474712824,1206
2241.132632218193,1182
2243.013880446447,1166
2244.8946924344323,1156
2246.7750684606203,1215
2248.6550088035574,1132
2250.534513741871,1157
2252.413583554265,1239
2254.292218519526,1211
2256.170418916517,1159
2258.0481850241786,1163
2259.925517121534,1170
2261.8024154876825,1180
2263.678880401803,1187
2265.5549121431536,1197
2267.430510991071,1108
2269.305677224971,1246
2271.180411124348,1189
2273.0547129687766,1185
2274.9285830379076,1185
2276.8020216114737,1153
2278.6750289692845,1206
2280.5476053912294,1163
2282.4197511572766,1181
2284.2914665474727,1200
2286.162751841943,1258
2288.0336073208937,1259
2289.904033264608,1229
2291.774029953448,1212
2293.6435976678554,1206
2295.5127366883517,1179
2297.381447295534,1172
2299.2497297700825,1136
2301.1175843927526,1116
2302.9850114443825,1203
2304.852011205885,1067
2306.7185839582553,1102
2308.5847299825664,1081
2310.4504495599676,1033
2312.3157429716925,1044
2314.1806104990483,1044
2316.0450524234247,1036
2317.9090690262888,1098
2319.772660589186,1067
2321.635827393742,1096
2323.498569721661,1036
2325.3608878547248,1069
2327.2227820747967,1077
2329.0842526638157,1040
2330.945299903803,1040
2332.805924076857,1030
2334.6661254651535,1018
2336.525904350951,984
2338.3852610165827,1034
2340.244195744464,1046
2342.102708817088,1060
2343.9608005170253,1027
2345.8184711269287,970
2347.675720929526,1053
2349.532550207628,1055
2351.38895924412,1083
2353.24494832197,1068
2355.100517724223,997
2356.955667734004,1033
2358.810398634514,1020
2360.664710709037,1056
2362.5186042409337,986
2364.3720795136437,1063
2366.225136810686,1036
2368.0777764156583,1024
2369.929998612237,1053
2371.7818036841777,1028
2373.633191915315,1032
2375.484163589562,1072
2377.3347189909114,1037
2379.184858403434,1036
2381.03458211128,1057
2382.8838903986775,1046
2384.732783549936,1084
2386.5812618494406,994
2388.4293255816588,1007
2390.2769750311327,1046
2392.1242104824883,1075
2393.971032220427,1047
2395.8174405297295,1026
2397.6634356952563,1044
2399.509018001947,1014
2401.3541877348193,1052
2403.1989451789705,1060
2405.043290619576,1047
2406.8872243418905,1028
2408.730746631247,1019
2410.5738577730594,1036
2412.4165580528183,993
2414.258847756095,1017
2416.100727168537,1023
2417.9421965758734,995
2419.783256263912,1046
2421.623906518538,1095
2423.4641476257157,1081
2425.303979871491,1105
2427.143403541984,1044
2428.9824189233977,1028
2430.821026302012,1017
2432.6592259641866,1023
2434.497018196361,1101
2436.33440328505,1041
2438.171381516851,1041
2440.00795317844,1075
2441.844118556569,1069
2443.6798779380724,1036
2445.5152316098606,1073
2447.3501798589255,1076
2449.1847229723357,1071
2451.0188612372403,1020
2452.8525949408663,1090
2454.6859243705203,1073
2456.518849813587,1065
2458.3513715575314,1034
2460.183489889895,1053
2462.015205098301,1090
2463.8465174704493,1050
2465.67742729412,1104
2467.5079348571717,1077
2469.338040447542,1081
2471.1677443532476,1062
2472.9970468623833,1072
2474.825948263123,1103
2476.6544488437207,1056
2478.482548892508,1066
2480.310248697896,1042
2482.137548548374,1073
2483.9644487325118,1082
2485.790949538956,1038
2487.617051256433,1061
2489.44275417375,1067
2491.26805857979,1055
2493.0929647635157,1110
2494.917473013971,1108
2496.741583620276,1048
2498.5652968716304,1062
2500.3886130573137,1059
2502.2115324666834,1120
2504.0340553891765,1064
2505.856182114308,1137
2507.6779129316733,1102
2509.499248130945,1129
2511.3201880018764,1094
2513.140732834298,1066
2514.9608829181198,1105
2516.780638543331,1117
2518.6,1122
2520.418967578273,1062
2522.237541568376,1127
2524.0557222606144,1086
2525.8735099453706,1093
2527.6909049131086,1133
2529.507907454368,1132
2531.32451785977,1108
2533.140736420014,1083
2534.9565634258774,1109
2536.771999168218,1137
2538.5870439379714,1093
2540.4016980261526,1105
2542.2159617238544,1171
2544.02983532225,1127
2545.8433191125914,1131
2547.656413386209,1143
2549.4691184345115,1127
2551.2814345489874,1105
2553.093362021204,1202
2554.904901142808,1149
2556.716052205523,1161
2558.526815501153,1131
2560.3371913215824,1185
2562.147179958771,1174
2563.956781704761,1216
2565.7659968516705,1218
2567.5748256916986,1228
2569.3832685171224,1197
2571.1913256202984,1218
2572.9989972936614,1239
2574.806283829725,1179
2576.613185521084,1268
2578.4197026604074,1187
2580.2258355404483,1239
2582.031584454035,1206
2583.836949694077,1226
2585.6419315535613,1201
2587.4465303255533,1256
2589.2507463032002,1220
2591.0545797797245,1241
2592.8580310484303,1267
2594.6611004026995,1203
2596.463788135992,1230
2598.266094541849,1217
2600.0680199138874,1214
2601.869564545807,1205
2603.670728731383,1216
2605.4715127644704,1242
2607.2719169390048,1203
2609.071941548998,1232
2610.8715868885433,1168
2612.670853251811,1184
2614.469740933052,1246
2616.268250226594,1254
2618.0663814268455,1217
2619.864134828292,1158
2621.6615107255006,1177
2623.458509413115,1191
2625.2551311858597,1213
2627.0513763385347,1207
2628.8472451660223,1152
2630.6427379632833,1186
2632.4378550253564,1198
2634.232596647359,1194
2636.026963124488,1191
2637.8209547520187,1182
2639.6145718253065,1198
2641.407814639785,1176
2643.200683490966,1140
2644.9931786744414,1146
2646.7853004858807,1118
2648.577049221034,1182
2650.3684251757277,1141
2652.1594286458712,1167
2653.9500599274484,1155
2655.740319316525,1157
2657.5302071092437,1144
2659.3197236018286,1144
2661.10886909058,1113
2662.8976438718782,1137
2664.686048242183,1134
2666.4740824980327,1136
2668.2617469360443,1141
2670.0490418529134,1086
2671.8359675454153,1112
2673.622524310403,1091
2675.408712444811,1119
2677.1945322456495,1108
2678.979984010009,1051
2680.76506803506,1038
2682.5497846180497,1065
2684.334134056306,1101
2686.1181166472343,1122
2687.9017326883213,1073
2689.6849824771293,1112
2691.4678663113013,1073
2693.2503844885596,1060
2695.032537306705,1109
2696.8143250636167,1095
2698.5957480572542,1078
2700.3768065856534,1028
2702.1575009469316,1073
2703.937831439283,1105
2705.717798360982,1083
2707.4974020103837,1073
2709.276642685917,1015
2711.055520686095,1059
2712.834036309506,1048
2714.612189854819,1011
2716.389981620782,1049
2718.1674119062204,1026
2719.944481010041,1039
2721.721189231226,1027
2723.4975368688415,1068
2725.273524222027,1024
2727.0491515900053,998
2728.824419272075,1042
2730.5993275676146,1029
2732.3738767760838,1041
2734.148067197016,1023
2735.921899130031,1035
2737.6953728748194,1055
2739.468488731156,1042
2741.2412469988926,1078
2743.0136479779617,1071
2744.785691968372,1081
2746.5573792702116,1057
2748.3287101836504,991
2750.099685008934,1035
2751.870304046388,1014
2753.640567596418,1048
2755.4104759595057,998
2757.1800294362156,1018
2758.949228327187,1039
2760.7180729331412,1007
2762.486563554877,1043
2764.254700493272,1048
2766.022484049284,1041
2767.789914523947,1044
2769.5569922183786,1034
2771.3237174337705,1003
2773.090090471394,1046
2774.8561116326036,1059
2776.6217812188274,1037
2778.3870995315756,1045
2780.1520668724356,1009
2781.9166835430747,1031
2783.6809498452394,1033
2785.444866080754,1003
2787.2084325515225,1029
2788.971649559527,999
2790.73451740683,998
2792.4970363955713,1041
2794.2592068279705,999
2796.0210290063264,1003
2797.7825032330147,999
2799.543629810493,1036
2801.304409041296,997
2803.0648412280366,1075
2804.8249266734088,1029
2806.5846656801846,1019
2808.344058551212,1026
2810.1031055894246,1057
2811.8618070978273,1000
2813.6201633795085,1047
2815.378174737636,1034
2817.1358414754536,1072
2818.893163896285,1067
2820.6501423035334,973
2822.4067770006814,1060
2824.1630682912883,1004
2825.9190164789957,1062
2827.6746218675207,1031
2829.429884760661,1029
2831.184805462294,1046
2832.9393842763743,1038
2834.693621506936,1058
2836.4475174580916,1042
2838.201072434034,1037
2839.954286739034,1007
2841.707160677441,1028
2843.459694553685,996
2845.2118886722724,1029
2846.96374333779,1009
2848.7152588549034,1017
2850.4664355283567,1030
2852.217273662973,1058
2853.9677735636546,1040
2855.7179355353833,1035
2857.4677598832186,1066
2859.217246912299,984
2860.9663969278427,1008
2862.715210235146,1052
2864.4636871395846,1002
2866.211827946614,1024
2867.9596329617652,1051
2869.7071024906536,1073
2871.4542368389684,1049
2873.20103631248,1010
2874.947501217038,1041
2876.6936318585695,1020
2878.4394285430812,1038
2880.1848915766604,1024
2881.9300212654707,1033
2883.6748179157553,1051
2885.4192818338374,1056
2887.1634133261173,1060
2888.907212699077,1051
2890.6506802592744,1048
2892.393816313348,1030
2894.1366211680142,1036
2895.8790951300693,1055
2897.621238506388,1051
2899.363051603925,1044
2901.1045347297118,1046
2902.8456881908596,1065
2904.58651229456,1116
2906.327007348081,1005
2908.067173658772,1053
2909.8070115340597,1010
2911.5465212814497,1010
2913.285703208527,1067
2915.0245576229563,1032
2916.7630848324807,1032
2918.5012851449196,1019
2920.2391588681758,1018
2921.976706310227,1024
2923.7139277791334,1032
2925.4508235830313,1008
2927.187394030137,1006
2928.923639428745,1053
2930.6595600872306,1006
2932.395156314046,1058
2934.1304284177218,1029
2935.8653767068713,1011
2937.6000014901815,1005
2939.3343030764227,996
2941.068281774442,1070
2942.8019378931644,1051
2944.5352717415976,1050
2946.2682836288236,1031
2948.0009738640065,1042
2949.7333427563885,1041
2951.465390615289,1028
2953.1971177501086,1037
2954.9285244703265,1008
2956.6596110855,1028
2958.3903779052657,1009
2960.1208252393385,1001
2961.8509533975125,1014
2963.5807626896617,1017
2965.3102534257378,993
2967.0394259157715,1022
2968.768280469873,1029
2970.496817398232,1012
2972.2250370111146,1071
2973.952939618869,1059
2975.6805255319196,1036
2977.4077950607707,1020
2979.134748516006,1058
2980.861386208289,1051
2982.587708448359,1062
2984.313715547037,1043
2986.039407815222,1059
2987.764785563891,1017
2989.489849104102,1024
2991.2145987469908,1018
2992.9390348037705,989
2994.6631575857346,1021
2996.3869674042576,1028
2998.1104645707887,1071
2999.83364939686,991
3001.5565221940783,1049
3003.2790832741334,1036
3005.0013329487924,1034
3006.7232715298996,982
3008.4448993293804,987
3010.166216659239,974
3011.887223831558,1017
3013.607921158498,1060
3015.3283089522993,1044
3017.0483875252826,1039
3018.7681571898443,1039
3020.4876182584626,1040
3022.2067710436927,997
3023.9256158581707,995
3025.644153014609,1027
3027.362382825801,1026
3029.0803056046193,1010
3030.797921664012,1010
3032.5152313170106,1044
3034.2322348767225,1004
3035.9489326563353,1017
3037.665324969115,1020
3039.3814121284063,1014
3041.097194447633,969
3042.812672240299,1004
3044.5278458199855,1002
3046.2427155003525,1014
3047.9572815951406,1037
3049.671544418167,1028
3051.38550428333,1037
3053.0991615046073,990
3054.812516396051,1021
3056.5255692717974,1035
3058.2383204460575,984
3059.9507702331257,999
3061.662918947372,1008
3063.3747669032446,1001
3065.0863144152736,976
3066.7975617980674,981
3068.508509366309,1020
3070.219157434767,1018
3071.9295063182844,1011
3073.639556331785,997
3075.3493077902704,999
3077.058761008821,1009
3078.7679163025964,1023
3080.476773986837,1021
3082.1853343768594,1011
3083.89359778806,1048
3085.6015645359153,996
3087.3092349359786,998
3089.016609303884,1035
3090.7236879553434,1035
3092.4304712061476,1057
3094.136959372166,992
3095.843152769349,1016
3097.5490517137237,1066
3099.2546565213966,989
3100.959967508554,1056
3102.66498499146,982
3104.3697092864577,1004
3106.0741407099695,1029
3107.778279578498,1038
3109.482126208622,1049
3111.1856809170004,1023
3112.8889440203716,1017
3114.5919158355528,1004
3116.294596679439,1004
3117.996986869006,1008
3119.6990867213062,1048
3121.4008965534726,1061
3123.102416682717,1046
3124.803647426329,1004
3126.5045891016784,985
3128.205242026213,1014
3129.90560651746,1031
3131.605682893025,1083
3133.3054714705922,1044
3135.0049725679282,1038
3136.7041865028714,990
3138.4031135933465,975
3140.101754157353,1035
3141.800108512971,980
3143.498176978357,1002
3145.1959598717494,1006
3146.8934575114636,979
3148.5906702158954,1006
3150.2875983035183,1032
3151.9842420928853,985
3153.680601902627,1012
3155.376678051456,1028
3157.07247085816,1050
3158.767980641609,1051
3160.463207720748,1035
3162.158152414606,1074
3163.8528150422862,1021
3165.5471959229726,1061
3167.2412953759303,984
3168.9351137204976,1081
3170.628651276098,1025
3172.3219083622307,1049
3174.014885298474,1076
3175.707582404485,1029
3177.4000000000005,1048
3179.092138404835,1040
3180.7839979388846,1016
3182.47557892212,990
3184.166881674594,977
3185.8579065164386,1016
3187.5486537678626,1072
3189.2391237491547,1014
3190.9293167806827,1028
3192.6192331828934,1062
3194.3088732763117,1036
3195.998237381542,1025
3197.687325819268,1011
3199.376138910251,987
3201.064676975334,1009
3202.7529403354347,996
3204.4409293115523,1001
3206.1286442247647,998
3207.816085396229,1018
3209.5032531471825,972
3211.190147798936,990
3212.8767696728846,994
3214.5631190905015,1005
3216.2491963733373,1020
3217.9350018430214,1034
3219.6205358212637,991
3221.305798629851,975
3222.990790590651,1026
3224.6755120256103,981
3226.359963256751,1048
3228.0441446061795,977
3229.7280563960758,1015
3231.411698948703,1013
3233.0950725863995,999
3234.778177631587,1038
3236.461014406761,1017
3238.1435832345005,1024
3239.8258844374595,1015
3241.507918338374,1047
3243.1896852600576,974
3244.8711855254023,996
3246.552419457381,986
3248.233387379042,1002
3249.914089613516,989
3251.59452648401,1000
3253.274698313813,1027
3254.95460542629,997
3256.6342481448855,1055
3258.313626793125,993
3259.9927416946084,994
3261.6715931730196,979
3263.3501815521176,983
3265.0285071557437,961
3266.706570307815,954
3268.3843713323286,998
3270.0619105533615,1036
3271.739188295068,1048
3273.4162048816834,989
3275.0929606375184,1049
3276.769455886966,1020
3278.445690954498,1033
3280.1216661646613,1001
3281.797381842087,1001
3283.4728383114807,1043
3285.1480358976296,947
3286.8229749253996,984
3288.4976557197333,1007
3290.172078605655,999
3291.846243908266,960
3293.5201519527463,1035
3295.193803064357,977
3296.8671975684374,999
3298.5403357904024,1004
3300.21321805575,995
3301.8858446900567,967
3303.558216018975,1030
3305.23033236824,979
3306.9021940636603,1009
3308.57380143113,980
3310.2451547966184,992
3311.916254486174,1000
3313.5871008259246,1034
3315.2576941420766,1010
3316.9280347609147,1006
3318.5981230088046,1010
3320.2679592121895,1010
3321.9375436975924,1028
3323.606876791612,994
3325.27595882093,994
3326.944790112305,994
3328.6133709925753,958
3330.2817017886573,998
3331.949782827547,987
3333.617614436319,966
3335.2851969421245,1027
3336.952530672199,961
3338.619615953853,1017
3340.286453114475,990
3341.9530424815357,1016
3343.619384382583,1020
3345.2854791452437,979
3346.951327097224,1006
3348.6169285663073,993
3350.2822838803577,979
3351.947393367319,1007
3353.61225735521,1000
3355.2768761721345,980
3356.9412501462693,957
3358.605379605873,1049
3360.2692648792827,998
3361.9329062949146,1047
3363.596304181263,981
