CollectionTime,7/11/2024 1:47:23 PM
ExposureUsed,3
CalibratedSpectrum
-962.7078968117929,414
-959.9714848408522,424
-957.2358232597828,440
-954.5009119013725,421
-951.7667505983302,411
-949.0333391832855,455
-946.3006774887896,445
-943.5687653473143,445
-940.837602591253,436
-938.1071890529199,439
-935.3775245645503,441
-932.6486089583007,447
-929.9204420662485,461
-927.1930237203925,467
-924.4663537526524,439
-921.7404319948689,440
-919.0152582788041,424
-916.2908324361409,471
-913.5671542984834,432
-910.8442236973568,441
-908.1220404642074,457
-905.4006044304027,456
-902.679915427231,447
-899.959973285902,432
-897.2407778375464,436
-894.5223289132158,453
-891.8046263438832,445
-889.0876699604426,452
-886.3714595937089,438
-883.6559950744183,446
-880.9412762332282,435
-878.2273029007168,429
-875.5140749073835,427
-872.8015920836489,429
-870.0898542598545,460
-867.3788612662631,443
-864.6686129330585,436
-861.9591090903457,456
-859.2503495681506,457
-856.5423341964203,441
-853.8350628050229,441
-851.1285352237478,456
-848.4227512823054,454
-845.7177108103272,445
-843.0134136373656,447
-840.3098595928943,460
-837.6070485063082,459
-834.9049802069229,448
-832.2036545239757,448
-829.5030712866244,451
-826.8032303239481,454
-824.1041314649472,461
-821.4057745385428,452
-818.7081593735775,438
-816.0112857988148,453
-813.3151536429393,468
-810.6197627345566,442
-807.9251129021936,441
-805.2312039742981,464
-802.5380357792392,473
-799.8456081453069,473
-797.1539209007124,478
-794.462973873588,477
-791.772766891987,449
-789.083299783884,464
-786.3945723771743,462
-783.7065844996748,468
-781.0193359791231,462
-778.3328266431781,450
-775.6470563194197,458
-772.9620248353489,451
-770.2777320183878,471
-767.5941776958798,457
-764.9113616950891,462
-762.2292838432011,479
-759.5479439673222,468
-756.8673418944801,467
-754.1874774516235,477
-751.5083504656222,461
-748.8299607632671,476
-746.15230817127,483
-743.475392516264,489
-740.7992136248035,468
-738.1237713233636,475
-735.4490654383407,468
-732.7750957960521,485
-730.1018622227365,479
-727.4293645445534,480
-724.7576025875837,471
-722.0865761778291,445
-719.4162851412126,493
-716.7467293035781,479
-714.0779084906909,486
-711.409822528237,496
-708.7424712418238,493
-706.0758544569796,495
-703.4099719991541,507
-700.7448236937178,517
-698.0804093659622,486
-695.4167288411002,493
-692.7537819442656,508
-690.0915685005134,485
-687.4300883348199,494
-684.7693412720819,492
-682.1093271371178,493
-679.4500457546669,476
-676.7914969493897,460
-674.1336805458676,507
-671.4765963686034,495
-668.8202442420206,499
-666.1646239904642,515
-663.5097354382001,511
-660.8555784094151,513
-658.2021527282176,507
-655.5494582186366,475
-652.8974947046223,500
-650.2462620100463,516
-647.5957599587009,498
-644.9459883742998,525
-642.2969470804776,528
-639.6486359007902,525
-637.0010546587141,505
-634.3542031776476,540
-631.7080812809096,505
-629.0626887917401,494
-626.4180255333008,495
-623.7740913286734,527
-621.1308860008619,531
-618.4884093727904,508
-615.8466612673046,527
-613.2056415071715,491
-610.5653499150785,510
-607.9257863136347,536
-605.28695052537,517
-602.6488423727357,550
-600.0114616781036,498
-597.3748082637674,533
-594.7388819519412,541
-592.1036825647604,537
-589.4692099242818,555
-586.8354638524829,559
-584.2024441712624,515
-581.5701507024403,549
-578.9385832677575,572
-576.3077416888759,529
-573.6776257873787,536
-571.0482353847704,551
-568.4195703024757,537
-565.7916303618415,536
-563.164415384135,558
-560.5379251905453,548
-557.9121596021815,567
-555.2871184400748,538
-552.6628015251767,553
-550.0392086783606,533
-547.4163397204204,558
-544.794194472071,546
-542.1727727539491,532
-539.5520743866118,591
-536.9320991905377,589
-534.3128469861261,563
-531.6943175936979,589
-529.0765108334947,645
-526.4594265256793,641
-523.8430644903358,726
-521.2274245474689,786
-518.612506517005,821
-515.9983102187913,804
-513.3848354725959,817
-510.77208209810846,835
-508.16004991493924,911
-505.5487387426199,963
-502.9381484006032,1019
-500.3282787082628,998
-497.71912948489364,872
-495.1107005497117,841
-492.5029917218539,755
-489.8960028203786,722
-487.28973366426493,689
-484.68418407241325,665
-482.07935386364494,673
-479.47524285670266,630
-476.87185087025,644
-474.2691777228715,668
-471.66722323307334,656
-469.0659872192821,659
-466.4654694998459,674
-463.86566989303384,658
-461.26658821703614,666
-458.66822428996414,649
-456.07057792985,674
-453.4736489546475,679
-450.877437182231,668
-448.28194243039627,681
-445.68716451686,699
-443.09310325926003,657
-440.49975847515555,662
-437.9071299820263,665
-435.31521759727354,631
-432.72402113821954,695
-430.13354042210767,664
-427.5437752661022,681
-424.95472548728867,670
-422.36639090267386,698
-419.7787713291855,671
-417.1918665836721,715
-414.60567648290385,711
-412.0202008435715,705
-409.4354394822874,713
-406.8513922155845,698
-404.26805885991723,676
-401.685439231661,692
-399.103533147112,714
-396.522340422488,745
-393.9418608739278,740
-391.3620943174908,712
-388.7830405691583,666
-386.2046994448317,658
-383.6270707603344,649
-381.05015433141045,621
-378.473949973725,616
-375.8984575028645,577
-373.32367673433623,512
-370.74960748356875,518
-368.1762495659117,491
-365.60360279663576,481
-363.03166699093265,469
-360.4604419639154,439
-357.8899275306178,433
-355.32012350599507,417
-352.7510297049233,398
-350.1826459421999,383
-347.61497203254316,389
-345.04800779059235,394
-342.4817530309082,409
-339.91620756797226,392
-337.35137121618743,386
-334.7872437898774,402
-332.22382510328725,408
-329.66111497058273,418
-327.09911320585127,411
-324.53781962310075,421
-321.9772340362607,441
-319.4173562591816,424
-316.8581861056348,389
-314.2997233893127,409
-311.7419679238294,397
-309.1849195227194,407
-306.62857799943856,437
-304.0729431673641,418
-301.51801483979375,443
-298.963792829947,427
-296.41027695096386,430
-293.85746701590574,438
-291.3053628377552,433
-288.7539642294155,433
-286.2032710037115,438
-283.65328297338897,422
-281.1039999511146,430
-278.5554217494762,489
-276.007548180983,510
-273.4603790580651,481
-270.9139141930734,477
-268.3681533982807,489
-265.8230964858798,484
-263.27874326798565,497
-260.7350935566336,486
-258.1921471637804,480
-255.6499039013039,469
-253.10836358100266,480
-250.56752601459698,479
-248.02739101372765,488
-245.48795838995704,490
-242.94922795476816,489
-240.41119951956557,482
-237.8738728956746,503
-235.33724789434166,554
-232.80132432673452,514
-230.2661020039418,483
-227.73158073697357,484
-225.19776033676033,485
-222.66464061415422,519
-220.1322213799284,556
-217.60050244477725,526
-215.06948361931552,502
-212.53916471408013,548
-210.00954553952818,528
-207.48062590603843,511
-204.9524056239104,523
-202.4248845033651,509
-199.8980623545441,526
-197.37193898751036,559
-194.84651421224817,526
-192.32178783866232,578
-189.79775967657952,582
-187.27442953574644,572
-184.7517972258321,590
-182.2298625564256,584
-179.7086253370378,623
-177.18808537710026,576
-174.66824248596583,543
-172.14909647290835,565
-169.6306471471229,596
-167.11289431772548,652
-164.59583779375328,606
-162.07947738416453,598
-159.5638128978386,585
-157.04884414357605,661
-154.53457093009854,647
-152.02099306604828,624
-149.50811035998936,619
-146.99592262040665,663
-144.48442965570587,763
-141.97363127421409,751
-139.46352728417958,794
-136.95411749377126,740
-134.44540171107985,772
-131.93737974411636,708
-129.43005140081357,677
-126.92341648902493,754
-124.41747481652521,850
-121.91222619101006,976
-119.40767042009657,1149
-116.90380731132257,1281
-114.40063667214702,1261
-111.8981583099503,1126
-109.3963720320337,1014
-106.89527764561933,942
-104.39487495785067,934
-101.89516377579241,1087
-99.39614390642998,1357
-96.89781515667039,1493
-94.40017733334128,1591
-91.90323024319173,1849
-89.40697369289148,2159
-86.91140748903172,2356
-84.41653143812482,2319
-81.92234534660395,1902
-79.42884902082358,1527
-76.93604226705907,1763
-74.4439248915071,2834
-71.95249670028534,4529
-69.46175749943245,6073
-66.97170709490854,7154
-64.48234529259423,7523
-61.99367189829195,7220
-59.50568671772464,6559
-57.01838955653636,6260
-54.53178022029283,5784
-52.045858514480074,5460
-49.560624244506016,6954
-47.07607721569923,8071
-44.59221723330904,8301
-42.10904410250669,8190
-39.62655762838392,7511
-37.14475761595372,7326
-34.66364387015028,7468
-32.18321619582866,8513
-29.70347439776515,9901
-27.224418280657005,9843
-24.74604764912317,10067
-22.26836230770266,10562
-19.7913620608565,14909
-17.315046712966478,22048
-14.83941606833514,27605
-12.36446993118659,35446
-9.89020810566592,65040
-7.416630395839093,65040
-4.94373660569363,65040
-2.471526539137585,65040
-6.821210263296962E-13,65040
2.47084320796705,65040
4.941003281093458,65040
7.410480415786196,65040
9.879274808531363,65040
12.347386655893956,65040
14.814816154518212,65040
17.28156350112681,65040
19.74762889252179,65040
22.21301252558385,24299
24.67771459727237,3632
27.141735304626195,2014
29.605074844762612,1776
32.06773341487792,1604
34.52971121224755,1435
36.99100843422559,1324
39.45162527824516,1426
41.91156194181792,1297
44.370818622535126,1147
46.82939551806646,1195
49.287292826160524,1074
51.74451074464503,1094
54.201049471426245,1200
56.65690920448981,1104
59.112090141899785,978
61.56659248179983,1202
64.02041642241159,1111
66.4735621620365,1007
68.92602989905402,875
71.37781983192338,856
73.82893215918205,843
76.27936707944684,992
78.72912479141326,902
81.17820549385567,888
83.62660938562783,804
86.07433666566146,867
88.5213875329681,760
90.96776218663751,710
93.41346082583925,715
95.85848364982041,787
98.30283085790859,872
100.7465026495089,842
103.18949922410604,853
105.63182078126385,783
108.07346752062438,773
110.51443964190923,819
112.95473734491827,746
115.39436082953114,732
117.83331029570547,695
120.27158594347827,751
122.7091879729652,764
125.1461165843615,776
127.58237197794062,756
130.01795435405518,801
132.4528639131364,828
134.88710085569494,830
137.32066538231982,765
139.75355769367923,793
142.1857779905207,730
144.61732647366978,687
147.04820334403132,664
149.47840880258934,737
151.90794305040674,752
154.33680628862487,823
156.76499871846443,905
159.19252054122433,980
161.61937195828352,1066
164.04555317109896,1145
166.47106438120693,1215
168.89590579022217,1313
171.320077599839,1376
173.7435800118302,1418
176.16641322804742,1439
178.58857745042144,1504
181.01007288096173,1608
183.43089972175687,1534
185.85105817497413,1619
188.27054844285988,1539
190.6893707277394,1605
193.10752523201643,1616
195.5250121581745,1653
197.9418317087751,1640
200.3579840864594,1672
202.7734694939469,1712
205.18828813403627,1770
207.6024402096051,1769
210.01592592360964,1748
212.42874547908548,1774
214.84089907914665,1725
217.2523869269868,1782
219.66320922587727,1729
222.0733661791695,1715
224.48285799029293,1749
226.8916848627572,1798
229.29984700014882,1823
231.7073446061355,1894
234.11417788446204,1846
236.520347038953,1835
238.92585227351185,1887
241.33069379212054,1828
243.73487179884035,1919
246.1383864978112,1927
248.541238093252,1905
250.9434267894609,1843
253.34495279081432,1912
255.74581630176783,1920
258.1460175268563,1902
260.54555667069314,1890
262.9444339379703,1924
265.3426495334594,1933
267.7402036620107,1903
270.1370965285529,1908
272.53332833809407,1910
274.9288992957214,1711
277.32380960660055,1784
279.718059475976,1772
282.1116491091717,1733
284.5045787115897,1702
286.89684848871195,1741
289.2884586460981,1781
291.67940938938807,1748
294.0697009242996,1766
296.4593334566299,1782
298.84830719225477,1752
301.23662233712923,1804
303.6242790972866,1794
306.01127767884,1717
308.39761828798066,1696
310.78330113097934,1659
313.16832641418534,1647
315.5526943440269,1657
317.9364051270112,1567
320.3194589697242,1629
322.70185607883093,1586
325.0835966610754,1603
327.4646809232805,1598
329.8451090723478,1599
332.2248813152577,1532
334.6039978590701,1600
336.9824589109231,1524
339.36026467803447,1584
341.7374153677,1553
344.113911187295,1532
346.48975234427337,1544
348.8649390461686,1536
351.2394715005918,1478
353.61334991523415,1487
355.9865744978655,1463
358.35914545633375,1537
360.73106299856715,1551
363.10232733257146,1462
365.47293866643247,1497
367.84289720831396,1507
370.2122031664593,1466
372.5808567491905,1471
374.9488581649083,1433
377.31620762209275,1501
379.6829053293021,1425
382.0489514951745,1367
384.4143463284262,1431
386.7790900378528,1448
389.14318283232853,1485
391.50662492080653,1412
393.86941651231916,1414
396.23155781597745,1482
398.5930490409713,1453
400.9538903965696,1407
403.3140820921202,1454
405.6736243370498,1463
408.03251734086336,1407
410.3907613131465,1417
412.74835646356166,1456
415.10530300185144,1445
417.4616011378372,1453
419.81725108141893,1399
422.1722530425758,1371
424.5266072313656,1432
426.880313857925,1391
429.2333731324701,1373
431.58578526529516,1411
433.9375504667738,1411
436.2886689473588,1369
438.63914091758113,1386
440.9889665880513,1339
443.33814616945835,1318
445.68667987257015,1331
448.03456790823395,1331
450.3818104873759,1367
452.72840782100013,1342
455.07436012019105,1315
457.41966759611057,1351
459.7643304600007,1344
462.10834892318155,1341
464.4517231970525,1352
466.79445349309174,1309
469.1365400228566,1323
471.4779829979826,1359
473.81878263018564,1335
476.15893913125876,1337
478.4984527130747,1381
480.8373235875855,1397
483.17555196682144,1392
485.5131380628919,1398
487.8500820879857,1427
490.1863842543697,1458
492.52204477439034,1510
494.8570638604725,1597
497.1914417251204,1652
499.52517858091653,1858
501.85827464052306,2068
504.19073011668036,2168
506.5225452222086,2296
508.85372017000566,2252
511.18425517304956,2336
513.514150444396,2322
515.8434061971808,2750
518.1720226446176,3237
520.4999999999999,3466
522.8273384766991,3328
525.1540382881666,2986
527.480099647932,2624
529.8055227696037,2217
532.1303078668694,1806
534.454455153496,1618
536.777964843328,1471
539.1008371502907,1440
541.4230722883866,1513
543.744670471698,1427
546.0656319143858,1387
548.3859568306899,1415
550.7056454349294,1389
553.0246979415016,1354
555.3431145648834,1377
557.6608955196306,1350
559.978041020377,1336
562.2945512818363,1353
564.6104265188006,1318
566.9256669461412,1351
569.2402727788082,1369
571.5542442318302,1378
573.8675815203156,1398
576.1802848594508,1381
578.4923544645015,1450
580.8037905508126,1381
583.114593333807,1405
585.4247630289875,1345
587.7342998519354,1294
590.0432040183106,1338
592.3514757438526,1349
594.6591152443794,1342
596.9661227357875,1411
599.2724984340531,1401
601.578242555231,1376
603.8833553154542,1398
606.1878369309362,1408
608.4916876179676,1332
610.7949075929192,1376
613.0974970722403,1391
615.3994562724587,1370
617.7007854101818,1316
620.0014847020951,1365
622.3015543649641,1404
624.6009946156324,1417
626.8998056710224,1413
629.1979877481361,1336
631.4955410640538,1382
633.7924658359349,1359
636.0887622810175,1368
638.3844306166192,1392
640.6794710601358,1425
642.9738838290426,1425
645.2676691408932,1384
647.5608272133207,1400
649.853358264037,1375
652.1452625108324,1388
654.4365401715764,1408
656.7271914642178,1372
659.0172166067838,1364
661.3066158173809,1342
663.5953893141935,1421
665.8835373154867,1400
668.1710600396028,1395
670.4579577049639,1391
672.7442305300709,1425
675.0298787335033,1359
677.3149025339197,1333
679.599302150058,1397
681.8830778007342,1444
684.1662297048437,1344
686.4487580813608,1423
688.7306631493387,1397
691.0119451279091,1418
693.2926042362834,1325
695.5726406937516,1385
697.8520547196814,1394
700.1308465335215,1432
702.4090163547982,1380
704.6865644031171,1385
706.9634908981619,1419
709.2397960596965,1429
711.5154801075631,1366
713.7905432616823,1355
716.0649857420548,1431
718.3388077687592,1392
720.612009561953,1414
722.8845913418733,1404
725.1565533288352,1389
727.427895743234,1445
729.6986188055427,1421
731.9687227363137,1452
734.238207756178,1415
736.5070740858458,1357
738.7753219461066,1379
741.0429515578281,1442
743.3099631419569,1425
745.5763569195191,1383
747.8421331116193,1401
750.1072919394409,1435
752.3718336242467,1398
754.6357583873777,1416
756.8990664502545,1403
759.1617580343765,1422
761.423833361321,1380
763.6852926527457,1423
765.9461361303862,1417
768.206364016058,1384
770.4659765316536,1418
772.7249738991469,1444
774.9833563405886,1416
777.2411240781092,1426
779.4982773339183,1460
781.7548163303044,1438
784.010741289634,1453
786.2660524343538,1504
788.5207499869881,1461
790.7748341701416,1412
793.0283052064964,1473
795.2811633188143,1466
797.5334087299362,1423
799.7850416627813,1474
802.0360623403484,1452
804.2864709857143,1412
806.5362678220353,1445
808.7854530725468,1448
811.0340269605625,1451
813.2819897094754,1423
815.5293415427581,1446
817.77608268396,1432
820.0222133567116,1432
822.2677337847211,1460
824.5126441917765,1454
826.7569448017433,1473
829.0006358385675,1440
831.2437175262731,1471
833.4861900889629,1438
835.7280537508192,1493
837.9693087361026,1482
840.2099552691533,1437
842.4499935743896,1437
844.689423876309,1387
846.9282463994886,1419
849.1664613685833,1450
851.4040690083276,1429
853.6410695435349,1431
855.877463199097,1476
858.1132501999847,1431
860.3484307712487,1388
862.5830051380175,1475
864.8169735254988,1481
867.0503361589791,1472
869.2830932638243,1509
871.5152450654786,1501
873.7467917894654,1517
875.9777336613873,1469
878.2080709069252,1444
880.4378037518389,1457
882.666932421968,1476
884.8954571432301,1421
887.1233781416219,1454
889.3506956432192,1446
891.5774098741766,1485
893.803521060728,1441
896.0290294291852,1457
898.2539352059397,1467
900.4782386174619,1444
902.7019398903011,1465
904.925039251085,1429
907.147536926521,1438
909.3694331433943,1450
911.59072812857,1425
913.8114221089921,1420
916.0315153116827,1388
918.2510079637437,1454
920.4699002923547,1418
922.6881925247761,1425
924.905884888345,1463
927.1229776104793,1400
929.3394709186747,1379
931.555365040506,1403
933.7706602036275,1368
935.9853566357709,1397
938.1994545647489,1448
940.4129542184515,1473
942.6258558248488,1415
944.8381596119883,1385
947.0498658079974,1390
949.2609746410825,1419
951.4714863395287,1393
953.6814011316998,1374
955.8907192460387,1374
958.0994409110671,1451
960.3075663553858,1433
962.5150958076741,1368
964.7220294966913,1335
966.928367651274,1371
969.1341105003388,1414
971.3392582728806,1407
973.5438111979742,1359
975.747769504772,1305
977.9511334225061,1368
980.153903180487,1366
982.3560790081052,1371
984.5576611348289,1362
986.7586497902058,1349
988.9590452038618,1330
991.158847605503,1295
993.3580572249133,1336
995.5566742919558,1253
997.7546990365728,1300
999.952131688785,1293
1002.1489724786926,1224
1004.3452216364743,1355
1006.5408793923874,1257
1008.7359459767691,1172
1010.9304216200343,1230
1013.1243065526781,1239
1015.3176010052733,1199
1017.510305208472,1184
1019.7024193930064,1181
1021.8939437896848,1220
1024.0848786293977,1255
1026.2752241431122,1175
1028.4649805618747,1204
1030.6541481168115,1208
1032.842727039127,1176
1035.0307175601051,1261
1037.2181199111074,1204
1039.4049343235752,1180
1041.591161029029,1139
1043.7768002590683,1171
1045.9618522453698,1188
1048.1463172196918,1182
1050.3301954138697,1184
1052.513487059818,1195
1054.69619238953,1227
1056.8783116350783,1198
1059.0598450286152,1126
1061.2407928023704,1159
1063.4211551886528,1203
1065.6009324198508,1172
1067.780124728432,1185
1069.9587323469414,1198
1072.1367555080046,1188
1074.314194444325,1124
1076.4910493886855,1158
1078.667320573947,1126
1080.843008233051,1130
1083.0181125990161,1182
1085.1926339049414,1128
1087.3665723840027,1171
1089.5399282694575,1088
1091.7127017946405,1117
1093.8848931929647,1106
1096.0565026979243,1111
1098.2275305430899,1069
1100.3979769621128,1159
1102.567842188722,1124
1104.737126456726,1098
1106.9058300000124,1166
1109.0739530525475,1097
1111.2414958483764,1200
1113.4084586216231,1062
1115.5748416064907,1077
1117.7406450372605,1123
1119.9058691482942,1099
1122.0705141740304,1098
1124.2345803489884,1139
1126.3980679077658,1123
1128.5609770850388,1128
1130.7233081155623,1082
1132.8850612341707,1068
1135.0462366757774,1081
1137.2068346753745,1116
1139.3668554680326,1126
1141.526299288901,1104
1143.68516637321,1086
1145.8434569562655,1075
1148.001171273455,1076
1150.158309560244,1137
1152.3148720521767,1131
1154.470858984876,1096
1156.626270594044,1065
1158.7811071154629,1124
1160.9353687849912,1122
1163.089055838569,1090
1165.242168512213,1077
1167.3947070420209,1104
1169.5466716641677,1063
1171.6980626149075,1037
1173.8488801305748,1113
1175.9991244475814,1085
1178.1487958024186,1072
1180.2978944316555,1063
1182.4464205719428,1052
1184.5943744600072,1080
1186.7417563326567,1079
1188.8885664267755,1024
1191.0348049793297,1067
1193.1804722273619,1100
1195.325568407995,1062
1197.4700937584303,1090
1199.614048515948,1113
1201.7574329179074,1101
1203.900247201746,1079
1206.042491604982,1057
1208.1841663652099,1108
1210.3252717201053,1087
1212.465807907422,1108
1214.6057751649923,1098
1216.7451737307279,1107
1218.8840038426192,1107
1221.0222657387353,1069
1223.1599596572241,1110
1225.2970858363137,1107
1227.4336445143094,1111
1229.5696359295966,1122
1231.705060320639,1097
1233.8399179259786,1132
1235.9742089842384,1114
1238.107933734118,1111
1240.2410924143974,1119
1242.373685263935,1103
1244.5057125216676,1087
1246.6371744266116,1088
1248.7680712178621,1108
1250.898403134593,1123
1253.028170416058,1108
1255.1573733015875,1123
1257.2860120305932,1103
1259.4140868425648,1124
1261.54159797707,1101
1263.6685456737569,1158
1265.7949301723515,1116
1267.9207517126597,1102
1270.046010534565,1162
1272.1707068780306,1127
1274.2948409830983,1159
1276.4184130898889,1142
1278.541423438603,1154
1280.6638722695184,1157
1282.785759822993,1183
1284.9070863394636,1173
1287.0278520594447,1170
1289.1480572235314,1193
1291.2677020723963,1214
1293.3867868467923,1161
1295.5053117875495,1161
1297.623277135579,1220
1299.740683131868,1195
1301.8575300174857,1270
1303.973818033578,1226
1306.0895474213703,1260
1308.2047184221678,1273
1310.3193312773528,1321
1312.4333862283888,1272
1314.5468835168163,1315
1316.659823384255,1267
1318.7722060724045,1304
1320.8840318230418,1336
1322.9953008780249,1278
1325.1060134792888,1226
1327.2161698688478,1284
1329.3257702887959,1271
1331.4348149813054,1296
1333.5433041886276,1306
1335.6512381530933,1284
1337.7586171171101,1189
1339.8654413231675,1242
1341.9717110138317,1241
1344.0774264317488,1316
1346.1825878196432,1308
1348.2871954203192,1256
1350.3912494766587,1231
1352.4947502316231,1229
1354.5976979282532,1196
1356.7000928096686,1255
1358.8019351190665,1266
1360.9032250997243,1250
1363.0039629949988,1253
1365.1041490483235,1176
1367.2037835032133,1188
1369.3028666032606,1232
1371.401398592137,1215
1373.4993797135926,1240
1375.5968102114575,1202
1377.6936903296396,1228
1379.7900203121262,1188
1381.8858004029835,1233
1383.9810308463561,1168
1386.075711886469,1210
1388.1698437676241,1218
1390.2634267342032,1184
1392.356461030667,1224
1394.4489469015557,1183
1396.5408845914872,1236
1398.6322743451592,1225
1400.7231164073469,1228
1402.813411022907,1166
1404.903158436773,1237
1406.9923588939578,1219
1409.0810126395531,1242
1411.1691199187303,1227
1413.2566809767386,1229
1415.343696058907,1257
1417.4301654106425,1182
1419.5160892774315,1201
1421.6014679048399,1179
1423.6863015385125,1180
1425.7705904241707,1245
1427.8543348076178,1277
1429.9375349347342,1276
1432.0201910514802,1250
1434.102303403894,1231
1436.1838722380944,1264
1438.2648978002767,1260
1440.3453803367174,1289
1442.4253200937692,1232
1444.5047173178677,1287
1446.5835722555234,1310
1448.6618851533285,1301
1450.739656257952,1353
1452.8168858161434,1314
1454.8935740747306,1298
1456.96972128062,1346
1459.045327680797,1353
1461.120393522327,1368
1463.1949190523528,1322
1465.2689045180973,1360
1467.3423501668608,1417
1469.415256246024,1414
1471.4876230030463,1407
1473.559450685465,1392
1475.6307395408976,1482
1477.7014898170391,1389
1479.771701761665,1425
1481.8413756226287,1450
1483.9105116478618,1442
1485.9791100853772,1491
1488.0471711832643,1446
1490.1146951896926,1468
1492.1816823529098,1490
1494.2481329212433,1502
1496.3140471430984,1494
1498.3794252669609,1557
1500.4442675413939,1538
1502.5085742150404,1508
1504.572345536622,1559
1506.6355817549388,1554
1508.6982831188702,1562
1510.7604498773744,1531
1512.8220822794883,1531
1514.8831805743293,1645
1516.9437450110909,1507
1519.003775839048,1581
1521.0632733075522,1644
1523.1222376660367,1599
1525.1806691640113,1642
1527.2385680510652,1663
1529.2959345768668,1645
1531.3527689911643,1667
1533.4090715437833,1644
1535.4648424846291,1700
1537.5200820636855,1651
1539.5747905310159,1712
1541.6289681367616,1761
1543.6826151311434,1763
1545.7357317644614,1777
1547.7883182870937,1788
1549.8403749494987,1868
1551.8919020022113,1792
1553.9428996958477,1876
1555.9933682811015,1906
1558.0433080087469,1933
1560.0927191296346,1989
1562.1416018946961,1974
1564.1899565549415,1985
1566.2377833614592,1972
1568.2850825654164,1945
1570.3318544180606,2006
1572.3780991707158,1977
1574.423817074788,1943
1576.4690083817595,1857
1578.5136733431923,1869
1580.5578122107272,1806
1582.601425236085,1791
1584.6445126710646,1730
1586.6870747675434,1663
1588.7291117774776,1634
1590.7706239529034,1545
1592.8116115459347,1584
1594.8520748087658,1539
1596.8920139936686,1514
1598.9314293529933,1512
1600.9703211391711,1431
1603.008689604711,1441
1605.0465350022005,1354
1607.0838575843068,1380
1609.1206576037753,1400
1611.1569353134305,1317
1613.1926909661765,1269
1615.2279248149953,1280
1617.2626371129481,1320
1619.2968281131757,1301
1621.3304980688963,1243
1623.3636472334088,1256
1625.39627586009,1260
1627.428384202396,1274
1629.459972513861,1272
1631.4910410480993,1186
1633.5215900588028,1232
1635.551619799744,1146
1637.5811305247717,1175
1639.6101224878166,1186
1641.6385959428862,1171
1643.6665511440683,1145
1645.693988345528,1144
1647.7209078015112,1163
1649.7473097663405,1098
1651.7731944944203,1175
1653.7985622402307,1120
1655.823413258333,1089
1657.847747803366,1141
1659.8715661300494,1094
1661.8948684931793,1140
1663.9176551476316,1121
1665.9399263483624,1091
1667.9616823504057,1137
1669.982923408873,1112
1672.0036497789574,1072
1674.0238617159293,1053
1676.043559475138,1052
1678.0627433120121,1134
1680.081413482059,1125
1682.0995702408654,1074
1684.117213844096,1111
1686.134344547495,1090
1688.1509626068864,1082
1690.1670682781705,1110
1692.182661817329,1086
1694.1977434804217,1142
1696.2123135235875,1087
1698.226372203043,1146
1700.2399197750851,1094
1702.2529564960905,1071
1704.2654826225112,1115
1706.277498410882,1144
1708.2890041178139,1108
1710.2999999999988,1068
1712.3104863142066,1131
1714.3204633172854,1131
1716.329931266163,1112
1718.3388904178469,1108
1720.3473410294214,1083
1722.3552833580516,1070
1724.3627176609807,1055
1726.3696441955308,1114
1728.3760632191033,1141
1730.3819749891782,1103
1732.3873797633146,1070
1734.3922777991502,1089
1736.3966693544012,1074
1738.4005546868639,1051
1740.4039340544127,1106
1742.406807715001,1061
1744.4091759266616,1114
1746.4110389475054,1101
1748.4123970357223,1108
1750.413250449582,1084
1752.4135994474318,1101
1754.4134442876993,1068
1756.4127852288902,1068
1758.4116225295893,1081
1760.4099564484595,1019
1762.407787244244,1108
1764.405115175764,1080
1766.4019405019203,1085
1768.3982634816916,1072
1770.3940843741357,1048
1772.3894034383907,1084
1774.3842209336717,1065
1776.378537119274,1068
1778.372352254571,1069
1780.3656665990156,1044
1782.3584804121397,1062
1784.3507939535534,1075
1786.3426074829463,1058
1788.3339212600863,1115
1790.3247355448211,1085
1792.3150505970766,1089
1794.3048666768573,1086
1796.2941840442477,1086
1798.2830029594106,1074
1800.2713236825884,1109
1802.2591464741004,1015
1804.2464715943465,1080
1806.2332993038058,1125
1808.2196298630352,1019
1810.2054635326708,1084
1812.190800573428,1104
1814.175641246101,1049
1816.1599858115628,1061
1818.1438345307652,1104
1820.127187664738,1034
1822.1100454745924,1050
1824.092408221516,1083
1826.0742761667766,1088
1828.055649571721,1053
1830.0365286977735,1051
1832.0169138064398,1059
1833.9968051593014,1089
1835.9762030180214,1057
1837.9551076443408,1072
1839.9335193000788,1029
1841.9114382471344,1042
1843.888864747485,1071
1845.8657990631878,1056
1847.842241456378,1025
1849.8181921892697,1052
1851.7936515241558,1101
1853.7686197234098,1049
1855.7430970494815,1051
1857.7170837649014,1092
1859.6905801322787,1082
1861.6635864143004,1094
1863.6361028737338,1072
1865.608129773424,1039
1867.5796673762961,1075
1869.5507159453537,1073
1871.521275743678,1067
1873.4913470344313,1099
1875.4609300808534,1079
1877.4300251462632,1118
1879.3986324940588,1076
1881.366752387717,1084
1883.3343850907936,1095
1885.3015308669228,1101
1887.268189979819,1092
1889.2343626932739,1054
1891.2000492711595,1136
1893.1652499774254,1063
1895.1299650761011,1071
1897.0941948312952,1082
1899.0579395071945,1047
1901.0211993680641,1149
1902.98397467825,1080
1904.9462657021745,1108
1906.9080727043415,1084
1908.869395949332,1121
1910.8302357018065,1070
1912.790592226504,1050
1914.7504657882428,1047
1916.7098566519212,1078
1918.6687650825133,1069
1920.6271913450764,1049
1922.5851357047422,1079
1924.5425984267245,1142
1926.499579776314,1032
1928.4560800188833,1054
1930.4120994198802,1108
1932.367638244833,1090
1934.32269675935,1094
1936.2772752291175,1140
1938.231373919899,1115
1940.1849930975404,1074
1942.1381330279637,1070
1944.0907939771696,1048
1946.0429762112412,1132
1947.9946799963363,1061
1949.9459055986945,1041
1951.896653284633,1034
1953.8469233205478,1052
1955.7967159729142,1107
1957.7460315082863,1027
1959.6948701932974,1074
1961.6432322946594,1092
1963.5911180791632,1097
1965.5385278136787,1093
1967.4854617651545,1092
1969.4319202006182,1067
1971.377903387176,1068
1973.3234115920136,1042
1975.268445082395,1037
1977.2130041256642,1070
1979.1570889892423,1071
1981.1006999406304,1053
1983.04383724741,1039
1984.986501177238,1029
1986.928691997853,1033
1988.8704099770712,1073
1990.811655382789,1044
1992.7524284829801,1064
1994.692729545698,1026
1996.6325588390755,1054
1998.5719166313224,1026
2000.5108031907307,1089
2002.4492187856677,1025
2004.387163684583,1095
2006.3246381560011,1091
2008.2616424685298,1068
2010.1981768908527,1089
2012.1342416917332,1055
2014.069837140014,1081
2016.0049635046162,1047
2017.9396210545406,1068
2019.8738100588666,1085
2021.8075307867502,1072
2023.740783507431,1021
2025.6735684902228,1087
2027.6058860045214,1090
2029.5377363198004,1049
2031.4691197056118,1056
2033.4000364315875,1015
2035.3304867674374,1060
2037.260470982952,1109
2039.189989347998,1065
2041.1190421325232,1058
2043.047629606554,1103
2044.9757520401945,1056
2046.9034097036288,1030
2048.8306028671195,1041
2050.7573318010086,1057
2052.683596775716,1003
2054.609398061742,1081
2056.5347359296647,1062
2058.4596106501403,1019
2060.384022493906,1026
2062.3079717317764,1022
2064.231458634646,1037
2066.1544834734873,1119
2068.077046519352,1065
2069.99914804337,1048
2071.9207883167524,1039
2073.8419676107865,1005
2075.7626861968406,1015
2077.6829443463607,1023
2079.6027423308715,1029
2081.522080421977,1041
2083.440958891362,1066
2085.359378010786,1060
2087.2773380520907,1055
2089.194839287196,1080
2091.111881988101,1051
2093.0284664268825,1036
2094.9445928756973,1057
2096.86026160678,1074
2098.775472892446,1045
2100.690227005088,1068
2102.604524217178,1059
2104.5183648012676,1014
2106.431749029985,1096
2108.34467717604,1023
2110.2571495122206,1042
2112.169166311393,1076
2114.080727846503,986
2115.9918343905747,1045
2117.902486216711,1043
2119.8126835980956,1073
2121.722426807987,1091
2123.6317161197285,1047
2125.5405518067364,1034
2127.448934142509,1026
2129.356863400624,1092
2131.264339854737,1067
2133.1713637785815,1060
2135.077935445972,1071
2136.9840551308002,1013
2138.889723107037,1042
2140.7949396487334,1085
2142.699705030018,1099
2144.6040195250994,1050
2146.507883408264,1017
2148.4112969538774,1068
2150.3142604363848,1069
2152.2167741303097,1078
2154.1188383102535,1038
2156.0204532508997,1087
2157.9216192270064,1097
2159.822336513414,1095
2161.7226053850413,1103
2163.622426116884,1070
2165.5217989840185,1059
2167.4207242616,1063
2169.319202224862,1036
2171.2172331491165,1120
2173.1148173097563,1084
2175.0119549822507,1095
2176.90864644215,1047
2178.8048919650823,1059
2180.7006918267534,1062
2182.596046302952,1036
2184.4909556695407,1030
2186.3854202024645,1065
2188.279440177746,1071
2190.173015871487,1095
2192.066147559868,1056
2193.958835519149,1101
2195.851080025667,1058
2197.7428813558417,1062
2199.6342397861667,1071
2201.5251555932186,1051
2203.415629053651,1081
2205.3056604441986,1107
2207.19525004167,1086
2209.084398122958,1104
2210.9731049650327,1060
2212.861370844941,1089
2214.749196039812,1065
2216.636580826851,1051
2218.523525483344,1073
2220.410030286655,1072
2222.296095514226,1065
2224.1817214435805,1049
2226.066908352319,1085
2227.951656518121,1122
2229.835966218746,1060
2231.71983773203,1056
2233.6032713358913,1083
2235.486267308324,1079
2237.3688259274036,1071
2239.2509474712824,1101
2241.132632218193,1048
2243.013880446447,1082
2244.8946924344323,1116
2246.7750684606203,1109
2248.6550088035574,1103
2250.534513741871,1131
2252.413583554265,1070
2254.292218519526,1046
2256.170418916517,1064
2258.0481850241786,1073
2259.925517121534,1078
2261.8024154876825,1080
2263.678880401803,1081
2265.5549121431536,1082
2267.430510991071,1056
2269.305677224971,1061
2271.180411124348,1076
2273.0547129687766,1113
2274.9285830379076,1106
2276.8020216114737,1116
2278.6750289692845,1133
2280.5476053912294,1092
2282.4197511572766,1076
2284.2914665474727,1156
2286.162751841943,1116
2288.0336073208937,1172
2289.904033264608,1121
2291.774029953448,1123
2293.6435976678554,1087
2295.5127366883517,1025
2297.381447295534,1094
2299.2497297700825,1085
2301.1175843927526,1090
2302.9850114443825,1112
2304.852011205885,1028
2306.7185839582553,968
2308.5847299825664,1032
2310.4504495599676,1033
2312.3157429716925,1035
2314.1806104990483,1007
2316.0450524234247,960
2317.9090690262888,948
2319.772660589186,1038
2321.635827393742,1025
2323.498569721661,977
2325.3608878547248,992
2327.2227820747967,1031
2329.0842526638157,1009
2330.945299903803,985
2332.805924076857,984
2334.6661254651535,958
2336.525904350951,1001
2338.3852610165827,949
2340.244195744464,975
2342.102708817088,998
2343.9608005170253,1008
2345.8184711269287,980
2347.675720929526,986
2349.532550207628,954
2351.38895924412,980
2353.24494832197,966
2355.100517724223,1012
2356.955667734004,1020
2358.810398634514,962
2360.664710709037,1045
2362.5186042409337,1010
2364.3720795136437,989
2366.225136810686,979
2368.0777764156583,973
2369.929998612237,1016
2371.7818036841777,1003
2373.633191915315,1027
2375.484163589562,1022
2377.3347189909114,988
2379.184858403434,964
2381.03458211128,1006
2382.8838903986775,993
2384.732783549936,1024
2386.5812618494406,1015
2388.4293255816588,1046
2390.2769750311327,1004
2392.1242104824883,993
2393.971032220427,1009
2395.8174405297295,1010
2397.6634356952563,1033
2399.509018001947,1007
2401.3541877348193,975
2403.1989451789705,1006
2405.043290619576,1029
2406.8872243418905,983
2408.730746631247,986
2410.5738577730594,1007
2412.4165580528183,1040
2414.258847756095,1028
2416.100727168537,1008
2417.9421965758734,1043
2419.783256263912,983
2421.623906518538,1035
2423.4641476257157,1035
2425.303979871491,1026
2427.143403541984,975
2428.9824189233977,1035
2430.821026302012,1034
2432.6592259641866,1016
2434.497018196361,1015
2436.33440328505,999
2438.171381516851,1000
2440.00795317844,1019
2441.844118556569,1041
2443.6798779380724,1052
2445.5152316098606,1048
2447.3501798589255,1017
2449.1847229723357,1040
2451.0188612372403,1022
2452.8525949408663,941
2454.6859243705203,1033
2456.518849813587,1016
2458.3513715575314,1045
2460.183489889895,1001
2462.015205098301,1014
2463.8465174704493,1026
2465.67742729412,991
2467.5079348571717,1045
2469.338040447542,1038
2471.1677443532476,1008
2472.9970468623833,1021
2474.825948263123,993
2476.6544488437207,1021
2478.482548892508,1001
2480.310248697896,1000
2482.137548548374,1000
2483.9644487325118,1011
2485.790949538956,1032
2487.617051256433,1049
2489.44275417375,1041
2491.26805857979,987
2493.0929647635157,1036
2494.917473013971,1015
2496.741583620276,991
2498.5652968716304,1056
2500.3886130573137,1055
2502.2115324666834,1027
2504.0340553891765,1061
2505.856182114308,1072
2507.6779129316733,1063
2509.499248130945,1060
2511.3201880018764,1059
2513.140732834298,1046
2514.9608829181198,1047
2516.780638543331,1041
2518.6,1055
2520.418967578273,1051
2522.237541568376,1062
2524.0557222606144,1057
2525.8735099453706,1110
2527.6909049131086,1032
2529.507907454368,1082
2531.32451785977,1088
2533.140736420014,1074
2534.9565634258774,1052
2536.771999168218,1106
2538.5870439379714,1075
2540.4016980261526,1066
2542.2159617238544,1088
2544.02983532225,1063
2545.8433191125914,1067
2547.656413386209,1114
2549.4691184345115,1079
2551.2814345489874,1108
2553.093362021204,1101
2554.904901142808,1104
2556.716052205523,1145
2558.526815501153,1194
2560.3371913215824,1144
2562.147179958771,1169
2563.956781704761,1165
2565.7659968516705,1183
2567.5748256916986,1134
2569.3832685171224,1162
2571.1913256202984,1216
2572.9989972936614,1211
2574.806283829725,1181
2576.613185521084,1196
2578.4197026604074,1175
2580.2258355404483,1204
2582.031584454035,1153
2583.836949694077,1217
2585.6419315535613,1164
2587.4465303255533,1221
2589.2507463032002,1157
2591.0545797797245,1173
2592.8580310484303,1165
2594.6611004026995,1249
2596.463788135992,1204
2598.266094541849,1204
2600.0680199138874,1174
2601.869564545807,1159
2603.670728731383,1166
2605.4715127644704,1178
2607.2719169390048,1187
2609.071941548998,1141
2610.8715868885433,1192
2612.670853251811,1206
2614.469740933052,1232
2616.268250226594,1203
2618.0663814268455,1136
2619.864134828292,1147
2621.6615107255006,1190
2623.458509413115,1143
2625.2551311858597,1131
2627.0513763385347,1148
2628.8472451660223,1186
2630.6427379632833,1145
2632.4378550253564,1138
2634.232596647359,1139
2636.026963124488,1167
2637.8209547520187,1192
2639.6145718253065,1107
2641.407814639785,1147
2643.200683490966,1168
2644.9931786744414,1131
2646.7853004858807,1101
2648.577049221034,1144
2650.3684251757277,1092
2652.1594286458712,1126
2653.9500599274484,1083
2655.740319316525,1095
2657.5302071092437,1121
2659.3197236018286,1096
2661.10886909058,1055
2662.8976438718782,1069
2664.686048242183,1084
2666.4740824980327,1059
2668.2617469360443,1094
2670.0490418529134,1048
2671.8359675454153,1078
2673.622524310403,1123
2675.408712444811,1037
2677.1945322456495,1089
2678.979984010009,1041
2680.76506803506,1126
2682.5497846180497,1062
2684.334134056306,1033
2686.1181166472343,1009
2687.9017326883213,1082
2689.6849824771293,1058
2691.4678663113013,1054
2693.2503844885596,1012
2695.032537306705,1016
2696.8143250636167,1043
2698.5957480572542,1035
2700.3768065856534,1042
2702.1575009469316,1001
2703.937831439283,1046
2705.717798360982,1012
2707.4974020103837,1005
2709.276642685917,1025
2711.055520686095,1025
2712.834036309506,1060
2714.612189854819,1039
2716.389981620782,1027
2718.1674119062204,970
2719.944481010041,973
2721.721189231226,1008
2723.4975368688415,1020
2725.273524222027,977
2727.0491515900053,987
2728.824419272075,968
2730.5993275676146,1004
2732.3738767760838,1023
2734.148067197016,995
2735.921899130031,991
2737.6953728748194,999
2739.468488731156,978
2741.2412469988926,968
2743.0136479779617,1019
2744.785691968372,1010
2746.5573792702116,976
2748.3287101836504,1006
2750.099685008934,968
2751.870304046388,1032
2753.640567596418,1012
2755.4104759595057,987
2757.1800294362156,986
2758.949228327187,1007
2760.7180729331412,987
2762.486563554877,1036
2764.254700493272,1039
2766.022484049284,997
2767.789914523947,1017
2769.5569922183786,970
2771.3237174337705,972
2773.090090471394,970
2774.8561116326036,985
2776.6217812188274,971
2778.3870995315756,992
2780.1520668724356,925
2781.9166835430747,986
2783.6809498452394,936
2785.444866080754,984
2787.2084325515225,979
2788.971649559527,981
2790.73451740683,972
2792.4970363955713,986
2794.2592068279705,996
2796.0210290063264,952
2797.7825032330147,994
2799.543629810493,983
2801.304409041296,982
2803.0648412280366,980
2804.8249266734088,980
2806.5846656801846,975
2808.344058551212,1001
2810.1031055894246,1001
2811.8618070978273,993
2813.6201633795085,1001
2815.378174737636,999
2817.1358414754536,989
2818.893163896285,1005
2820.6501423035334,1011
2822.4067770006814,948
2824.1630682912883,966
2825.9190164789957,982
2827.6746218675207,1000
2829.429884760661,1007
2831.184805462294,1023
2832.9393842763743,947
2834.693621506936,977
2836.4475174580916,993
2838.201072434034,978
2839.954286739034,989
2841.707160677441,991
2843.459694553685,987
2845.2118886722724,973
2846.96374333779,993
2848.7152588549034,978
2850.4664355283567,1013
2852.217273662973,1035
2853.9677735636546,1008
2855.7179355353833,1020
2857.4677598832186,999
2859.217246912299,1023
2860.9663969278427,988
2862.715210235146,947
2864.4636871395846,987
2866.211827946614,1004
2867.9596329617652,1002
2869.7071024906536,975
2871.4542368389684,1027
2873.20103631248,990
2874.947501217038,1024
2876.6936318585695,957
2878.4394285430812,1013
2880.1848915766604,941
2881.9300212654707,967
2883.6748179157553,1014
2885.4192818338374,975
2887.1634133261173,980
2888.907212699077,1003
2890.6506802592744,1002
2892.393816313348,992
2894.1366211680142,974
2895.8790951300693,995
2897.621238506388,992
2899.363051603925,999
2901.1045347297118,1021
2902.8456881908596,993
2904.58651229456,961
2906.327007348081,932
2908.067173658772,993
2909.8070115340597,967
2911.5465212814497,972
2913.285703208527,991
2915.0245576229563,976
2916.7630848324807,947
2918.5012851449196,977
2920.2391588681758,968
2921.976706310227,989
2923.7139277791334,998
2925.4508235830313,995
2927.187394030137,990
2928.923639428745,964
2930.6595600872306,971
2932.395156314046,953
2934.1304284177218,982
2935.8653767068713,961
2937.6000014901815,999
2939.3343030764227,947
2941.068281774442,959
2942.8019378931644,969
2944.5352717415976,975
2946.2682836288236,1013
2948.0009738640065,996
2949.7333427563885,1021
2951.465390615289,960
2953.1971177501086,1022
2954.9285244703265,1008
2956.6596110855,993
2958.3903779052657,972
2960.1208252393385,968
2961.8509533975125,995
2963.5807626896617,976
2965.3102534257378,992
2967.0394259157715,962
2968.768280469873,956
2970.496817398232,974
2972.2250370111146,932
2973.952939618869,979
2975.6805255319196,984
2977.4077950607707,975
2979.134748516006,1013
2980.861386208289,1010
2982.587708448359,992
2984.313715547037,945
2986.039407815222,998
2987.764785563891,977
2989.489849104102,959
2991.2145987469908,921
2992.9390348037705,935
2994.6631575857346,989
2996.3869674042576,975
2998.1104645707887,972
2999.83364939686,946
3001.5565221940783,974
3003.2790832741334,999
3005.0013329487924,941
3006.7232715298996,945
3008.4448993293804,961
3010.166216659239,956
3011.887223831558,980
3013.607921158498,975
3015.3283089522993,1000
3017.0483875252826,974
3018.7681571898443,971
3020.4876182584626,1018
3022.2067710436927,937
3023.9256158581707,942
3025.644153014609,965
3027.362382825801,958
3029.0803056046193,977
3030.797921664012,987
3032.5152313170106,975
3034.2322348767225,1010
3035.9489326563353,950
3037.665324969115,974
3039.3814121284063,968
3041.097194447633,987
3042.812672240299,975
3044.5278458199855,981
3046.2427155003525,940
3047.9572815951406,945
3049.671544418167,927
3051.38550428333,982
3053.0991615046073,967
3054.812516396051,970
3056.5255692717974,961
3058.2383204460575,982
3059.9507702331257,972
3061.662918947372,1002
3063.3747669032446,966
3065.0863144152736,990
3066.7975617980674,974
3068.508509366309,1031
3070.219157434767,967
3071.9295063182844,1007
3073.639556331785,963
3075.3493077902704,961
3077.058761008821,937
3078.7679163025964,975
3080.476773986837,1019
3082.1853343768594,952
3083.89359778806,990
3085.6015645359153,974
3087.3092349359786,964
3089.016609303884,925
3090.7236879553434,976
3092.4304712061476,965
3094.136959372166,967
3095.843152769349,961
3097.5490517137237,950
3099.2546565213966,951
3100.959967508554,929
3102.66498499146,948
3104.3697092864577,980
3106.0741407099695,977
3107.778279578498,955
3109.482126208622,979
3111.1856809170004,981
3112.8889440203716,951
3114.5919158355528,976
3116.294596679439,946
3117.996986869006,952
3119.6990867213062,985
3121.4008965534726,1010
3123.102416682717,979
3124.803647426329,979
3126.5045891016784,946
3128.205242026213,1016
3129.90560651746,933
3131.605682893025,985
3133.3054714705922,1022
3135.0049725679282,1025
3136.7041865028714,934
3138.4031135933465,1000
3140.101754157353,979
3141.800108512971,974
3143.498176978357,1024
3145.1959598717494,979
3146.8934575114636,956
3148.5906702158954,991
3150.2875983035183,971
3151.9842420928853,956
3153.680601902627,941
3155.376678051456,993
3157.07247085816,944
3158.767980641609,965
3160.463207720748,965
3162.158152414606,970
3163.8528150422862,952
3165.5471959229726,940
3167.2412953759303,983
3168.9351137204976,933
3170.628651276098,938
3172.3219083622307,892
3174.014885298474,969
3175.707582404485,995
3177.4000000000005,978
3179.092138404835,953
3180.7839979388846,951
3182.47557892212,999
3184.166881674594,980
3185.8579065164386,973
3187.5486537678626,974
3189.2391237491547,965
3190.9293167806827,953
3192.6192331828934,985
3194.3088732763117,929
3195.998237381542,966
3197.687325819268,994
3199.376138910251,985
3201.064676975334,943
3202.7529403354347,966
3204.4409293115523,920
3206.1286442247647,951
3207.816085396229,971
3209.5032531471825,956
3211.190147798936,943
3212.8767696728846,945
3214.5631190905015,986
3216.2491963733373,909
3217.9350018430214,959
3219.6205358212637,979
3221.305798629851,948
3222.990790590651,959
3224.6755120256103,970
3226.359963256751,935
3228.0441446061795,953
3229.7280563960758,970
3231.411698948703,992
3233.0950725863995,975
3234.778177631587,965
3236.461014406761,957
3238.1435832345005,990
3239.8258844374595,1014
3241.507918338374,1005
3243.1896852600576,955
3244.8711855254023,895
3246.552419457381,937
3248.233387379042,969
3249.914089613516,999
3251.59452648401,972
3253.274698313813,957
3254.95460542629,942
3256.6342481448855,904
3258.313626793125,943
3259.9927416946084,972
3261.6715931730196,920
3263.3501815521176,926
3265.0285071557437,912
3266.706570307815,936
3268.3843713323286,954
3270.0619105533615,964
3271.739188295068,934
3273.4162048816834,945
3275.0929606375184,926
3276.769455886966,954
3278.445690954498,937
3280.1216661646613,948
3281.797381842087,985
3283.4728383114807,969
3285.1480358976296,937
3286.8229749253996,959
3288.4976557197333,949
3290.172078605655,918
3291.846243908266,959
3293.5201519527463,931
3295.193803064357,942
3296.8671975684374,920
3298.5403357904024,962
3300.21321805575,948
3301.8858446900567,948
3303.558216018975,962
3305.23033236824,973
3306.9021940636603,953
3308.57380143113,970
3310.2451547966184,968
3311.916254486174,947
3313.5871008259246,921
3315.2576941420766,971
3316.9280347609147,945
3318.5981230088046,928
3320.2679592121895,918
3321.9375436975924,958
3323.606876791612,940
3325.27595882093,974
3326.944790112305,939
3328.6133709925753,939
3330.2817017886573,927
3331.949782827547,934
3333.617614436319,957
3335.2851969421245,942
3336.952530672199,949
3338.619615953853,963
3340.286453114475,964
3341.9530424815357,932
3343.619384382583,1001
3345.2854791452437,957
3346.951327097224,941
3348.6169285663073,939
3350.2822838803577,940
3351.947393367319,952
3353.61225735521,941
3355.2768761721345,918
3356.9412501462693,978
3358.605379605873,1003
3360.2692648792827,952
3361.9329062949146,932
3363.596304181263,902
