CollectionTime,9/25/2024 11:34:44 AM
ExposureUsed,3
CalibratedSpectrum
-962.7078968117929,467
-959.9714848408522,493
-957.2358232597828,494
-954.5009119013725,496
-951.7667505983302,527
-949.0333391832855,505
-946.3006774887896,528
-943.5687653473143,533
-940.837602591253,512
-938.1071890529199,511
-935.3775245645503,524
-932.6486089583007,514
-929.9204420662485,541
-927.1930237203925,564
-924.4663537526524,559
-921.7404319948689,556
-919.0152582788041,546
-916.2908324361409,575
-913.5671542984834,562
-910.8442236973568,565
-908.1220404642074,537
-905.4006044304027,535
-902.679915427231,560
-899.959973285902,529
-897.2407778375464,522
-894.5223289132158,529
-891.8046263438832,547
-889.0876699604426,535
-886.3714595937089,508
-883.6559950744183,546
-880.9412762332282,506
-878.2273029007168,506
-875.5140749073835,496
-872.8015920836489,514
-870.0898542598545,521
-867.3788612662631,492
-864.6686129330585,511
-861.9591090903457,489
-859.2503495681506,504
-856.5423341964203,497
-853.8350628050229,492
-851.1285352237478,510
-848.4227512823054,531
-845.7177108103272,532
-843.0134136373656,507
-840.3098595928943,523
-837.6070485063082,502
-834.9049802069229,523
-832.2036545239757,524
-829.5030712866244,525
-826.8032303239481,513
-824.1041314649472,518
-821.4057745385428,505
-818.7081593735775,495
-816.0112857988148,534
-813.3151536429393,551
-810.6197627345566,534
-807.9251129021936,511
-805.2312039742981,507
-802.5380357792392,491
-799.8456081453069,516
-797.1539209007124,533
-794.462973873588,512
-791.772766891987,534
-789.083299783884,540
-786.3945723771743,521
-783.7065844996748,547
-781.0193359791231,527
-778.3328266431781,538
-775.6470563194197,575
-772.9620248353489,511
-770.2777320183878,537
-767.5941776958798,514
-764.9113616950891,511
-762.2292838432011,540
-759.5479439673222,524
-756.8673418944801,504
-754.1874774516235,536
-751.5083504656222,541
-748.8299607632671,528
-746.15230817127,546
-743.475392516264,570
-740.7992136248035,548
-738.1237713233636,518
-735.4490654383407,532
-732.7750957960521,517
-730.1018622227365,558
-727.4293645445534,553
-724.7576025875837,567
-722.0865761778291,532
-719.4162851412126,547
-716.7467293035781,539
-714.0779084906909,570
-711.409822528237,556
-708.7424712418238,542
-706.0758544569796,573
-703.4099719991541,566
-700.7448236937178,562
-698.0804093659622,564
-695.4167288411002,552
-692.7537819442656,561
-690.0915685005134,555
-687.4300883348199,568
-684.7693412720819,575
-682.1093271371178,587
-679.4500457546669,578
-676.7914969493897,589
-674.1336805458676,548
-671.4765963686034,590
-668.8202442420206,574
-666.1646239904642,574
-663.5097354382001,566
-660.8555784094151,593
-658.2021527282176,547
-655.5494582186366,596
-652.8974947046223,590
-650.2462620100463,606
-647.5957599587009,591
-644.9459883742998,607
-642.2969470804776,580
-639.6486359007902,598
-637.0010546587141,576
-634.3542031776476,612
-631.7080812809096,636
-629.0626887917401,627
-626.4180255333008,621
-623.7740913286734,668
-621.1308860008619,702
-618.4884093727904,651
-615.8466612673046,602
-613.2056415071715,589
-610.5653499150785,618
-607.9257863136347,673
-605.28695052537,658
-602.6488423727357,642
-600.0114616781036,636
-597.3748082637674,664
-594.7388819519412,700
-592.1036825647604,711
-589.4692099242818,717
-586.8354638524829,664
-584.2024441712624,719
-581.5701507024403,708
-578.9385832677575,653
-576.3077416888759,655
-573.6776257873787,622
-571.0482353847704,635
-568.4195703024757,608
-565.7916303618415,652
-563.164415384135,628
-560.5379251905453,644
-557.9121596021815,629
-555.2871184400748,664
-552.6628015251767,644
-550.0392086783606,626
-547.4163397204204,668
-544.794194472071,707
-542.1727727539491,696
-539.5520743866118,693
-536.9320991905377,724
-534.3128469861261,725
-531.6943175936979,782
-529.0765108334947,835
-526.4594265256793,858
-523.8430644903358,995
-521.2274245474689,1084
-518.612506517005,1126
-515.9983102187913,1120
-513.3848354725959,1280
-510.77208209810846,1519
-508.16004991493924,1571
-505.5487387426199,1661
-502.9381484006032,1788
-500.3282787082628,1724
-497.71912948489364,1552
-495.1107005497117,1350
-492.5029917218539,1170
-489.8960028203786,1039
-487.28973366426493,931
-484.68418407241325,830
-482.07935386364494,827
-479.47524285670266,814
-476.87185087025,803
-474.2691777228715,752
-471.66722323307334,800
-469.0659872192821,818
-466.4654694998459,822
-463.86566989303384,816
-461.26658821703614,774
-458.66822428996414,812
-456.07057792985,825
-453.4736489546475,851
-450.877437182231,828
-448.28194243039627,812
-445.68716451686,787
-443.09310325926003,760
-440.49975847515555,809
-437.9071299820263,813
-435.31521759727354,793
-432.72402113821954,809
-430.13354042210767,852
-427.5437752661022,872
-424.95472548728867,804
-422.36639090267386,792
-419.7787713291855,850
-417.1918665836721,868
-414.60567648290385,915
-412.0202008435715,862
-409.4354394822874,883
-406.8513922155845,841
-404.26805885991723,908
-401.685439231661,942
-399.103533147112,850
-396.522340422488,844
-393.9418608739278,797
-391.3620943174908,820
-388.7830405691583,812
-386.2046994448317,836
-383.6270707603344,798
-381.05015433141045,772
-378.473949973725,715
-375.8984575028645,720
-373.32367673433623,714
-370.74960748356875,640
-368.1762495659117,607
-365.60360279663576,601
-363.03166699093265,525
-360.4604419639154,567
-357.8899275306178,531
-355.32012350599507,506
-352.7510297049233,544
-350.1826459421999,491
-347.61497203254316,495
-345.04800779059235,497
-342.4817530309082,500
-339.91620756797226,542
-337.35137121618743,566
-334.7872437898774,598
-332.22382510328725,564
-329.66111497058273,571
-327.09911320585127,578
-324.53781962310075,489
-321.9772340362607,506
-319.4173562591816,508
-316.8581861056348,481
-314.2997233893127,496
-311.7419679238294,471
-309.1849195227194,500
-306.62857799943856,503
-304.0729431673641,544
-301.51801483979375,578
-298.963792829947,577
-296.41027695096386,518
-293.85746701590574,550
-291.3053628377552,615
-288.7539642294155,612
-286.2032710037115,645
-283.65328297338897,613
-281.1039999511146,657
-278.5554217494762,749
-276.007548180983,806
-273.4603790580651,746
-270.9139141930734,620
-268.3681533982807,587
-265.8230964858798,633
-263.27874326798565,684
-260.7350935566336,643
-258.1921471637804,685
-255.6499039013039,729
-253.10836358100266,638
-250.56752601459698,668
-248.02739101372765,716
-245.48795838995704,787
-242.94922795476816,728
-240.41119951956557,673
-237.8738728956746,700
-235.33724789434166,739
-232.80132432673452,729
-230.2661020039418,701
-227.73158073697357,691
-225.19776033676033,795
-222.66464061415422,898
-220.1322213799284,825
-217.60050244477725,693
-215.06948361931552,716
-212.53916471408013,818
-210.00954553952818,955
-207.48062590603843,932
-204.9524056239104,826
-202.4248845033651,828
-199.8980623545441,770
-197.37193898751036,884
-194.84651421224817,958
-192.32178783866232,915
-189.79775967657952,930
-187.27442953574644,957
-184.7517972258321,1010
-182.2298625564256,973
-179.7086253370378,983
-177.18808537710026,972
-174.66824248596583,1036
-172.14909647290835,1113
-169.6306471471229,1043
-167.11289431772548,911
-164.59583779375328,868
-162.07947738416453,982
-159.5638128978386,1097
-157.04884414357605,1342
-154.53457093009854,1365
-152.02099306604828,1143
-149.50811035998936,867
-146.99592262040665,893
-144.48442965570587,1132
-141.97363127421409,1452
-139.46352728417958,1833
-136.95411749377126,1655
-134.44540171107985,1328
-131.93737974411636,1090
-129.43005140081357,1128
-126.92341648902493,1505
-124.41747481652521,2070
-121.91222619101006,2975
-119.40767042009657,3447
-116.90380731132257,3782
-114.40063667214702,3424
-111.8981583099503,3144
-109.3963720320337,3154
-106.89527764561933,3101
-104.39487495785067,3397
-101.89516377579241,4859
-99.39614390642998,6709
-96.89781515667039,9291
-94.40017733334128,9819
-91.90323024319173,9025
-89.40697369289148,8079
-86.91140748903172,6051
-84.41653143812482,5395
-81.92234534660395,7180
-79.42884902082358,10257
-76.93604226705907,12945
-74.4439248915071,16613
-71.95249670028534,22508
-69.46175749943245,29332
-66.97170709490854,34307
-64.48234529259423,37257
-61.99367189829195,38188
-59.50568671772464,33499
-57.01838955653636,25827
-54.53178022029283,22297
-52.045858514480074,21183
-49.560624244506016,19550
-47.07607721569923,16608
-44.59221723330904,14364
-42.10904410250669,12325
-39.62655762838392,11731
-37.14475761595372,11647
-34.66364387015028,13549
-32.18321619582866,13454
-29.70347439776515,15761
-27.224418280657005,19338
-24.74604764912317,24351
-22.26836230770266,38772
-19.7913620608565,65040
-17.315046712966478,65040
-14.83941606833514,65040
-12.36446993118659,65040
-9.89020810566592,65040
-7.416630395839093,65040
-4.94373660569363,65040
-2.471526539137585,65040
-6.821210263296962E-13,65040
2.47084320796705,65040
4.941003281093458,65040
7.410480415786196,65040
9.879274808531363,65040
12.347386655893956,65040
14.814816154518212,65040
17.28156350112681,65040
19.74762889252179,65040
22.21301252558385,23454
24.67771459727237,5638
27.141735304626195,3860
29.605074844762612,4611
32.06773341487792,5089
34.52971121224755,4319
36.99100843422559,3603
39.45162527824516,4720
41.91156194181792,4370
44.370818622535126,3306
46.82939551806646,3185
49.287292826160524,3111
51.74451074464503,3353
54.201049471426245,4075
56.65690920448981,3355
59.112090141899785,2831
61.56659248179983,2539
64.02041642241159,1891
66.4735621620365,2088
68.92602989905402,2267
71.37781983192338,2155
73.82893215918205,1825
76.27936707944684,1837
78.72912479141326,2143
81.17820549385567,1963
83.62660938562783,2089
86.07433666566146,2044
88.5213875329681,2276
90.96776218663751,1611
93.41346082583925,1243
95.85848364982041,1394
98.30283085790859,1606
100.7465026495089,1787
103.18949922410604,1814
105.63182078126385,2281
108.07346752062438,1684
110.51443964190923,1361
112.95473734491827,1230
115.39436082953114,1102
117.83331029570547,1239
120.27158594347827,1344
122.7091879729652,1255
125.1461165843615,1344
127.58237197794062,1278
130.01795435405518,1234
132.4528639131364,1241
134.88710085569494,1356
137.32066538231982,1318
139.75355769367923,1269
142.1857779905207,1138
144.61732647366978,1141
147.04820334403132,1119
149.47840880258934,1140
151.90794305040674,1152
154.33680628862487,1141
156.76499871846443,1172
159.19252054122433,1396
161.61937195828352,1452
164.04555317109896,1550
166.47106438120693,1639
168.89590579022217,1809
171.320077599839,1792
173.7435800118302,1859
176.16641322804742,1981
178.58857745042144,2168
181.01007288096173,2115
183.43089972175687,2084
185.85105817497413,2193
188.27054844285988,2120
190.6893707277394,2113
193.10752523201643,2024
195.5250121581745,2141
197.9418317087751,2225
200.3579840864594,2130
202.7734694939469,2193
205.18828813403627,2300
207.6024402096051,2308
210.01592592360964,2230
212.42874547908548,2243
214.84089907914665,2210
217.2523869269868,2200
219.66320922587727,2141
222.0733661791695,2193
224.48285799029293,2217
226.8916848627572,2300
229.29984700014882,2316
231.7073446061355,2361
234.11417788446204,2300
236.520347038953,2203
238.92585227351185,2251
241.33069379212054,2387
243.73487179884035,2320
246.1383864978112,2371
248.541238093252,2372
250.9434267894609,2310
253.34495279081432,2395
255.74581630176783,2393
258.1460175268563,2393
260.54555667069314,2291
262.9444339379703,2440
265.3426495334594,2383
267.7402036620107,2381
270.1370965285529,2473
272.53332833809407,2400
274.9288992957214,2368
277.32380960660055,2276
279.718059475976,2339
282.1116491091717,2289
284.5045787115897,2289
286.89684848871195,2166
289.2884586460981,2191
291.67940938938807,2277
294.0697009242996,2282
296.4593334566299,2255
298.84830719225477,2244
301.23662233712923,2342
303.6242790972866,2325
306.01127767884,2252
308.39761828798066,2168
310.78330113097934,2072
313.16832641418534,2022
315.5526943440269,2009
317.9364051270112,2049
320.3194589697242,2130
322.70185607883093,2024
325.0835966610754,2012
327.4646809232805,2024
329.8451090723478,1958
332.2248813152577,1963
334.6039978590701,1961
336.9824589109231,1996
339.36026467803447,1956
341.7374153677,1956
344.113911187295,1842
346.48975234427337,1920
348.8649390461686,1844
351.2394715005918,1898
353.61334991523415,1879
355.9865744978655,1927
358.35914545633375,1928
360.73106299856715,1917
363.10232733257146,1958
365.47293866643247,1884
367.84289720831396,1837
370.2122031664593,1798
372.5808567491905,1801
374.9488581649083,1832
377.31620762209275,1828
379.6829053293021,1772
382.0489514951745,1773
384.4143463284262,1766
386.7790900378528,1800
389.14318283232853,1766
391.50662492080653,1778
393.86941651231916,1806
396.23155781597745,1783
398.5930490409713,1775
400.9538903965696,1771
403.3140820921202,1813
405.6736243370498,1821
408.03251734086336,1731
410.3907613131465,1741
412.74835646356166,1695
415.10530300185144,1724
417.4616011378372,1753
419.81725108141893,1700
422.1722530425758,1676
424.5266072313656,1750
426.880313857925,1687
429.2333731324701,1651
431.58578526529516,1679
433.9375504667738,1705
436.2886689473588,1678
438.63914091758113,1677
440.9889665880513,1732
443.33814616945835,1673
445.68667987257015,1612
448.03456790823395,1589
450.3818104873759,1679
452.72840782100013,1696
455.07436012019105,1690
457.41966759611057,1725
459.7643304600007,1647
462.10834892318155,1649
464.4517231970525,1595
466.79445349309174,1627
469.1365400228566,1711
471.4779829979826,1743
473.81878263018564,1633
476.15893913125876,1641
478.4984527130747,1694
480.8373235875855,1833
483.17555196682144,1828
485.5131380628919,1844
487.8500820879857,1901
490.1863842543697,1845
492.52204477439034,2138
494.8570638604725,2170
497.1914417251204,2485
499.52517858091653,2837
501.85827464052306,3318
504.19073011668036,3712
506.5225452222086,3893
508.85372017000566,4041
511.18425517304956,4069
513.514150444396,4150
515.8434061971808,5030
518.1720226446176,5886
520.4999999999999,5857
522.8273384766991,5416
525.1540382881666,4844
527.480099647932,4248
529.8055227696037,3423
532.1303078668694,2545
534.454455153496,2019
536.777964843328,1902
539.1008371502907,1824
541.4230722883866,1724
543.744670471698,1656
546.0656319143858,1769
548.3859568306899,1710
550.7056454349294,1685
553.0246979415016,1778
555.3431145648834,1716
557.6608955196306,1702
559.978041020377,1734
562.2945512818363,1711
564.6104265188006,1679
566.9256669461412,1660
569.2402727788082,1634
571.5542442318302,1732
573.8675815203156,1648
576.1802848594508,1648
578.4923544645015,1712
580.8037905508126,1686
583.114593333807,1694
585.4247630289875,1692
587.7342998519354,1627
590.0432040183106,1636
592.3514757438526,1670
594.6591152443794,1654
596.9661227357875,1657
599.2724984340531,1659
601.578242555231,1703
603.8833553154542,1697
606.1878369309362,1651
608.4916876179676,1648
610.7949075929192,1648
613.0974970722403,1675
615.3994562724587,1651
617.7007854101818,1687
620.0014847020951,1634
622.3015543649641,1667
624.6009946156324,1682
626.8998056710224,1628
629.1979877481361,1635
631.4955410640538,1590
633.7924658359349,1728
636.0887622810175,1687
638.3844306166192,1656
640.6794710601358,1592
642.9738838290426,1725
645.2676691408932,1822
647.5608272133207,1680
649.853358264037,1709
652.1452625108324,1727
654.4365401715764,1681
656.7271914642178,1745
659.0172166067838,1715
661.3066158173809,1689
663.5953893141935,1699
665.8835373154867,1747
668.1710600396028,1664
670.4579577049639,1714
672.7442305300709,1754
675.0298787335033,1684
677.3149025339197,1780
679.599302150058,1658
681.8830778007342,1690
684.1662297048437,1657
686.4487580813608,1802
688.7306631493387,1724
691.0119451279091,1649
693.2926042362834,1733
695.5726406937516,1732
697.8520547196814,1630
700.1308465335215,1746
702.4090163547982,1656
704.6865644031171,1681
706.9634908981619,1709
709.2397960596965,1666
711.5154801075631,1669
713.7905432616823,1689
716.0649857420548,1684
718.3388077687592,1689
720.612009561953,1670
722.8845913418733,1648
725.1565533288352,1653
727.427895743234,1720
729.6986188055427,1687
731.9687227363137,1713
734.238207756178,1657
736.5070740858458,1661
738.7753219461066,1668
741.0429515578281,1584
743.3099631419569,1734
745.5763569195191,1687
747.8421331116193,1696
750.1072919394409,1680
752.3718336242467,1695
754.6357583873777,1724
756.8990664502545,1719
759.1617580343765,1644
761.423833361321,1709
763.6852926527457,1698
765.9461361303862,1675
768.206364016058,1759
770.4659765316536,1712
772.7249738991469,1665
774.9833563405886,1705
777.2411240781092,1733
779.4982773339183,1637
781.7548163303044,1700
784.010741289634,1720
786.2660524343538,1756
788.5207499869881,1723
790.7748341701416,1713
793.0283052064964,1780
795.2811633188143,1754
797.5334087299362,1684
799.7850416627813,1727
802.0360623403484,1769
804.2864709857143,1752
806.5362678220353,1747
808.7854530725468,1751
811.0340269605625,1775
813.2819897094754,1729
815.5293415427581,1786
817.77608268396,1697
820.0222133567116,1734
822.2677337847211,1694
824.5126441917765,1792
826.7569448017433,1797
829.0006358385675,1756
831.2437175262731,1744
833.4861900889629,1797
835.7280537508192,1751
837.9693087361026,1765
840.2099552691533,1787
842.4499935743896,1761
844.689423876309,1758
846.9282463994886,1760
849.1664613685833,1746
851.4040690083276,1734
853.6410695435349,1737
855.877463199097,1689
858.1132501999847,1748
860.3484307712487,1676
862.5830051380175,1692
864.8169735254988,1714
867.0503361589791,1714
869.2830932638243,1746
871.5152450654786,1770
873.7467917894654,1748
875.9777336613873,1745
878.2080709069252,1721
880.4378037518389,1753
882.666932421968,1822
884.8954571432301,1804
887.1233781416219,1752
889.3506956432192,1742
891.5774098741766,1758
893.803521060728,1745
896.0290294291852,1779
898.2539352059397,1757
900.4782386174619,1800
902.7019398903011,1793
904.925039251085,1755
907.147536926521,1834
909.3694331433943,1771
911.59072812857,1840
913.8114221089921,1806
916.0315153116827,1839
918.2510079637437,1773
920.4699002923547,1765
922.6881925247761,1750
924.905884888345,1753
927.1229776104793,1810
929.3394709186747,1782
931.555365040506,1779
933.7706602036275,1755
935.9853566357709,1798
938.1994545647489,1815
940.4129542184515,1828
942.6258558248488,1876
944.8381596119883,1843
947.0498658079974,1769
949.2609746410825,1848
951.4714863395287,1796
953.6814011316998,1802
955.8907192460387,1776
958.0994409110671,1882
960.3075663553858,1778
962.5150958076741,1871
964.7220294966913,1806
966.928367651274,1793
969.1341105003388,1770
971.3392582728806,1733
973.5438111979742,1743
975.747769504772,1771
977.9511334225061,1724
980.153903180487,1702
982.3560790081052,1728
984.5576611348289,1689
986.7586497902058,1690
988.9590452038618,1699
991.158847605503,1664
993.3580572249133,1661
995.5566742919558,1623
997.7546990365728,1642
999.952131688785,1522
1002.1489724786926,1554
1004.3452216364743,1548
1006.5408793923874,1549
1008.7359459767691,1483
1010.9304216200343,1486
1013.1243065526781,1437
1015.3176010052733,1434
1017.510305208472,1376
1019.7024193930064,1470
1021.8939437896848,1433
1024.0848786293977,1415
1026.2752241431122,1377
1028.4649805618747,1436
1030.6541481168115,1397
1032.842727039127,1380
1035.0307175601051,1396
1037.2181199111074,1438
1039.4049343235752,1407
1041.591161029029,1359
1043.7768002590683,1347
1045.9618522453698,1412
1048.1463172196918,1389
1050.3301954138697,1400
1052.513487059818,1436
1054.69619238953,1403
1056.8783116350783,1408
1059.0598450286152,1442
1061.2407928023704,1395
1063.4211551886528,1392
1065.6009324198508,1319
1067.780124728432,1365
1069.9587323469414,1405
1072.1367555080046,1356
1074.314194444325,1358
1076.4910493886855,1344
1078.667320573947,1399
1080.843008233051,1310
1083.0181125990161,1366
1085.1926339049414,1353
1087.3665723840027,1315
1089.5399282694575,1357
1091.7127017946405,1298
1093.8848931929647,1394
1096.0565026979243,1314
1098.2275305430899,1365
1100.3979769621128,1299
1102.567842188722,1298
1104.737126456726,1358
1106.9058300000124,1314
1109.0739530525475,1322
1111.2414958483764,1346
1113.4084586216231,1295
1115.5748416064907,1320
1117.7406450372605,1325
1119.9058691482942,1305
1122.0705141740304,1358
1124.2345803489884,1310
1126.3980679077658,1301
1128.5609770850388,1324
1130.7233081155623,1301
1132.8850612341707,1296
1135.0462366757774,1331
1137.2068346753745,1255
1139.3668554680326,1284
1141.526299288901,1331
1143.68516637321,1267
1145.8434569562655,1331
1148.001171273455,1284
1150.158309560244,1343
1152.3148720521767,1270
1154.470858984876,1307
1156.626270594044,1326
1158.7811071154629,1281
1160.9353687849912,1332
1163.089055838569,1253
1165.242168512213,1336
1167.3947070420209,1298
1169.5466716641677,1311
1171.6980626149075,1309
1173.8488801305748,1284
1175.9991244475814,1319
1178.1487958024186,1331
1180.2978944316555,1339
1182.4464205719428,1342
1184.5943744600072,1320
1186.7417563326567,1302
1188.8885664267755,1291
1191.0348049793297,1316
1193.1804722273619,1344
1195.325568407995,1319
1197.4700937584303,1314
1199.614048515948,1353
1201.7574329179074,1318
1203.900247201746,1347
1206.042491604982,1359
1208.1841663652099,1296
1210.3252717201053,1295
1212.465807907422,1277
1214.6057751649923,1307
1216.7451737307279,1352
1218.8840038426192,1383
1221.0222657387353,1356
1223.1599596572241,1329
1225.2970858363137,1319
1227.4336445143094,1287
1229.5696359295966,1353
1231.705060320639,1384
1233.8399179259786,1339
1235.9742089842384,1342
1238.107933734118,1328
1240.2410924143974,1354
1242.373685263935,1366
1244.5057125216676,1360
1246.6371744266116,1371
1248.7680712178621,1358
1250.898403134593,1338
1253.028170416058,1331
1255.1573733015875,1312
1257.2860120305932,1409
1259.4140868425648,1434
1261.54159797707,1408
1263.6685456737569,1410
1265.7949301723515,1386
1267.9207517126597,1429
1270.046010534565,1366
1272.1707068780306,1361
1274.2948409830983,1417
1276.4184130898889,1436
1278.541423438603,1380
1280.6638722695184,1379
1282.785759822993,1446
1284.9070863394636,1412
1287.0278520594447,1449
1289.1480572235314,1496
1291.2677020723963,1433
1293.3867868467923,1463
1295.5053117875495,1477
1297.623277135579,1392
1299.740683131868,1486
1301.8575300174857,1506
1303.973818033578,1506
1306.0895474213703,1562
1308.2047184221678,1527
1310.3193312773528,1545
1312.4333862283888,1548
1314.5468835168163,1504
1316.659823384255,1504
1318.7722060724045,1576
1320.8840318230418,1582
1322.9953008780249,1537
1325.1060134792888,1538
1327.2161698688478,1538
1329.3257702887959,1587
1331.4348149813054,1564
1333.5433041886276,1498
1335.6512381530933,1458
1337.7586171171101,1497
1339.8654413231675,1621
1341.9717110138317,1587
1344.0774264317488,1541
1346.1825878196432,1535
1348.2871954203192,1504
1350.3912494766587,1498
1352.4947502316231,1502
1354.5976979282532,1491
1356.7000928096686,1442
1358.8019351190665,1456
1360.9032250997243,1512
1363.0039629949988,1471
1365.1041490483235,1485
1367.2037835032133,1492
1369.3028666032606,1512
1371.401398592137,1480
1373.4993797135926,1509
1375.5968102114575,1491
1377.6936903296396,1468
1379.7900203121262,1475
1381.8858004029835,1422
1383.9810308463561,1398
1386.075711886469,1474
1388.1698437676241,1439
1390.2634267342032,1433
1392.356461030667,1524
1394.4489469015557,1453
1396.5408845914872,1452
1398.6322743451592,1411
1400.7231164073469,1475
1402.813411022907,1490
1404.903158436773,1467
1406.9923588939578,1540
1409.0810126395531,1493
1411.1691199187303,1471
1413.2566809767386,1467
1415.343696058907,1476
1417.4301654106425,1540
1419.5160892774315,1496
1421.6014679048399,1538
1423.6863015385125,1497
1425.7705904241707,1504
1427.8543348076178,1529
1429.9375349347342,1485
1432.0201910514802,1545
1434.102303403894,1457
1436.1838722380944,1446
1438.2648978002767,1466
1440.3453803367174,1504
1442.4253200937692,1502
1444.5047173178677,1531
1446.5835722555234,1450
1448.6618851533285,1498
1450.739656257952,1510
1452.8168858161434,1548
1454.8935740747306,1573
1456.96972128062,1519
1459.045327680797,1604
1461.120393522327,1594
1463.1949190523528,1578
1465.2689045180973,1609
1467.3423501668608,1559
1469.415256246024,1583
1471.4876230030463,1684
1473.559450685465,1618
1475.6307395408976,1644
1477.7014898170391,1681
1479.771701761665,1675
1481.8413756226287,1744
1483.9105116478618,1648
1485.9791100853772,1687
1488.0471711832643,1728
1490.1146951896926,1733
1492.1816823529098,1768
1494.2481329212433,1764
1496.3140471430984,1718
1498.3794252669609,1807
1500.4442675413939,1728
1502.5085742150404,1804
1504.572345536622,1769
1506.6355817549388,1805
1508.6982831188702,1783
1510.7604498773744,1804
1512.8220822794883,1865
1514.8831805743293,1805
1516.9437450110909,1792
1519.003775839048,1804
1521.0632733075522,1855
1523.1222376660367,1895
1525.1806691640113,1940
1527.2385680510652,1820
1529.2959345768668,1944
1531.3527689911643,1842
1533.4090715437833,1885
1535.4648424846291,1906
1537.5200820636855,1860
1539.5747905310159,1962
1541.6289681367616,1941
1543.6826151311434,2001
1545.7357317644614,1957
1547.7883182870937,2007
1549.8403749494987,1964
1551.8919020022113,2044
1553.9428996958477,2110
1555.9933682811015,2104
1558.0433080087469,2180
1560.0927191296346,2262
1562.1416018946961,2152
1564.1899565549415,2274
1566.2377833614592,2356
1568.2850825654164,2328
1570.3318544180606,2310
1572.3780991707158,2288
1574.423817074788,2266
1576.4690083817595,2276
1578.5136733431923,2219
1580.5578122107272,2093
1582.601425236085,2127
1584.6445126710646,2060
1586.6870747675434,1970
1588.7291117774776,1974
1590.7706239529034,1929
1592.8116115459347,1870
1594.8520748087658,1871
1596.8920139936686,1809
1598.9314293529933,1795
1600.9703211391711,1668
1603.008689604711,1712
1605.0465350022005,1671
1607.0838575843068,1688
1609.1206576037753,1602
1611.1569353134305,1617
1613.1926909661765,1539
1615.2279248149953,1526
1617.2626371129481,1551
1619.2968281131757,1594
1621.3304980688963,1526
1623.3636472334088,1504
1625.39627586009,1539
1627.428384202396,1496
1629.459972513861,1469
1631.4910410480993,1442
1633.5215900588028,1375
1635.551619799744,1426
1637.5811305247717,1451
1639.6101224878166,1448
1641.6385959428862,1406
1643.6665511440683,1363
1645.693988345528,1427
1647.7209078015112,1365
1649.7473097663405,1360
1651.7731944944203,1357
1653.7985622402307,1379
1655.823413258333,1383
1657.847747803366,1364
1659.8715661300494,1366
1661.8948684931793,1395
1663.9176551476316,1378
1665.9399263483624,1332
1667.9616823504057,1341
1669.982923408873,1375
1672.0036497789574,1348
1674.0238617159293,1369
1676.043559475138,1349
1678.0627433120121,1324
1680.081413482059,1317
1682.0995702408654,1317
1684.117213844096,1299
1686.134344547495,1307
1688.1509626068864,1300
1690.1670682781705,1337
1692.182661817329,1341
1694.1977434804217,1328
1696.2123135235875,1353
1698.226372203043,1340
1700.2399197750851,1379
1702.2529564960905,1365
1704.2654826225112,1286
1706.277498410882,1321
1708.2890041178139,1350
1710.2999999999988,1328
1712.3104863142066,1290
1714.3204633172854,1311
1716.329931266163,1338
1718.3388904178469,1374
1720.3473410294214,1350
1722.3552833580516,1339
1724.3627176609807,1340
1726.3696441955308,1385
1728.3760632191033,1329
1730.3819749891782,1340
1732.3873797633146,1311
1734.3922777991502,1313
1736.3966693544012,1348
1738.4005546868639,1325
1740.4039340544127,1302
1742.406807715001,1284
1744.4091759266616,1303
1746.4110389475054,1290
1748.4123970357223,1336
1750.413250449582,1360
1752.4135994474318,1314
1754.4134442876993,1316
1756.4127852288902,1298
1758.4116225295893,1292
1760.4099564484595,1315
1762.407787244244,1266
1764.405115175764,1335
1766.4019405019203,1307
1768.3982634816916,1260
1770.3940843741357,1302
1772.3894034383907,1302
1774.3842209336717,1281
1776.378537119274,1312
1778.372352254571,1293
1780.3656665990156,1278
1782.3584804121397,1282
1784.3507939535534,1305
1786.3426074829463,1315
1788.3339212600863,1284
1790.3247355448211,1284
1792.3150505970766,1287
1794.3048666768573,1288
1796.2941840442477,1274
1798.2830029594106,1288
1800.2713236825884,1309
1802.2591464741004,1262
1804.2464715943465,1271
1806.2332993038058,1300
1808.2196298630352,1289
1810.2054635326708,1302
1812.190800573428,1285
1814.175641246101,1309
1816.1599858115628,1311
1818.1438345307652,1248
1820.127187664738,1208
1822.1100454745924,1304
1824.092408221516,1247
1826.0742761667766,1297
1828.055649571721,1250
1830.0365286977735,1271
1832.0169138064398,1295
1833.9968051593014,1321
1835.9762030180214,1255
1837.9551076443408,1276
1839.9335193000788,1259
1841.9114382471344,1300
1843.888864747485,1250
1845.8657990631878,1307
1847.842241456378,1310
1849.8181921892697,1284
1851.7936515241558,1338
1853.7686197234098,1245
1855.7430970494815,1300
1857.7170837649014,1283
1859.6905801322787,1280
1861.6635864143004,1275
1863.6361028737338,1273
1865.608129773424,1285
1867.5796673762961,1296
1869.5507159453537,1281
1871.521275743678,1332
1873.4913470344313,1327
1875.4609300808534,1328
1877.4300251462632,1288
1879.3986324940588,1269
1881.366752387717,1325
1883.3343850907936,1290
1885.3015308669228,1307
1887.268189979819,1318
1889.2343626932739,1309
1891.2000492711595,1278
1893.1652499774254,1296
1895.1299650761011,1310
1897.0941948312952,1308
1899.0579395071945,1366
1901.0211993680641,1350
1902.98397467825,1328
1904.9462657021745,1389
1906.9080727043415,1329
1908.869395949332,1313
1910.8302357018065,1300
1912.790592226504,1309
1914.7504657882428,1309
1916.7098566519212,1310
1918.6687650825133,1338
1920.6271913450764,1278
1922.5851357047422,1311
1924.5425984267245,1281
1926.499579776314,1248
1928.4560800188833,1276
1930.4120994198802,1307
1932.367638244833,1304
1934.32269675935,1312
1936.2772752291175,1322
1938.231373919899,1290
1940.1849930975404,1280
1942.1381330279637,1337
1944.0907939771696,1249
1946.0429762112412,1265
1947.9946799963363,1318
1949.9459055986945,1257
1951.896653284633,1210
1953.8469233205478,1238
1955.7967159729142,1277
1957.7460315082863,1226
1959.6948701932974,1275
1961.6432322946594,1307
1963.5911180791632,1221
1965.5385278136787,1260
1967.4854617651545,1263
1969.4319202006182,1315
1971.377903387176,1276
1973.3234115920136,1247
1975.268445082395,1306
1977.2130041256642,1301
1979.1570889892423,1289
1981.1006999406304,1240
1983.04383724741,1238
1984.986501177238,1297
1986.928691997853,1251
1988.8704099770712,1287
1990.811655382789,1264
1992.7524284829801,1199
1994.692729545698,1293
1996.6325588390755,1267
1998.5719166313224,1261
2000.5108031907307,1285
2002.4492187856677,1228
2004.387163684583,1226
2006.3246381560011,1319
2008.2616424685298,1293
2010.1981768908527,1296
2012.1342416917332,1266
2014.069837140014,1213
2016.0049635046162,1284
2017.9396210545406,1280
2019.8738100588666,1241
2021.8075307867502,1226
2023.740783507431,1235
2025.6735684902228,1215
2027.6058860045214,1271
2029.5377363198004,1222
2031.4691197056118,1192
2033.4000364315875,1249
2035.3304867674374,1278
2037.260470982952,1242
2039.189989347998,1242
2041.1190421325232,1245
2043.047629606554,1251
2044.9757520401945,1268
2046.9034097036288,1286
2048.8306028671195,1269
2050.7573318010086,1291
2052.683596775716,1228
2054.609398061742,1226
2056.5347359296647,1288
2058.4596106501403,1281
2060.384022493906,1156
2062.3079717317764,1231
2064.231458634646,1211
2066.1544834734873,1260
2068.077046519352,1245
2069.99914804337,1203
2071.9207883167524,1224
2073.8419676107865,1234
2075.7626861968406,1251
2077.6829443463607,1228
2079.6027423308715,1211
2081.522080421977,1238
2083.440958891362,1214
2085.359378010786,1227
2087.2773380520907,1260
2089.194839287196,1219
2091.111881988101,1223
2093.0284664268825,1220
2094.9445928756973,1256
2096.86026160678,1268
2098.775472892446,1236
2100.690227005088,1233
2102.604524217178,1275
2104.5183648012676,1244
2106.431749029985,1248
2108.34467717604,1210
2110.2571495122206,1314
2112.169166311393,1269
2114.080727846503,1260
2115.9918343905747,1226
2117.902486216711,1234
2119.8126835980956,1238
2121.722426807987,1237
2123.6317161197285,1226
2125.5405518067364,1314
2127.448934142509,1220
2129.356863400624,1281
2131.264339854737,1248
2133.1713637785815,1301
2135.077935445972,1311
2136.9840551308002,1255
2138.889723107037,1257
2140.7949396487334,1273
2142.699705030018,1265
2144.6040195250994,1316
2146.507883408264,1294
2148.4112969538774,1218
2150.3142604363848,1208
2152.2167741303097,1238
2154.1188383102535,1207
2156.0204532508997,1247
2157.9216192270064,1248
2159.822336513414,1279
2161.7226053850413,1245
2163.622426116884,1288
2165.5217989840185,1321
2167.4207242616,1306
2169.319202224862,1219
2171.2172331491165,1260
2173.1148173097563,1291
2175.0119549822507,1270
2176.90864644215,1318
2178.8048919650823,1245
2180.7006918267534,1237
2182.596046302952,1257
2184.4909556695407,1298
2186.3854202024645,1265
2188.279440177746,1275
2190.173015871487,1251
2192.066147559868,1284
2193.958835519149,1275
2195.851080025667,1311
2197.7428813558417,1272
2199.6342397861667,1298
2201.5251555932186,1310
2203.415629053651,1348
2205.3056604441986,1258
2207.19525004167,1244
2209.084398122958,1299
2210.9731049650327,1301
2212.861370844941,1289
2214.749196039812,1268
2216.636580826851,1279
2218.523525483344,1324
2220.410030286655,1301
2222.296095514226,1264
2224.1817214435805,1278
2226.066908352319,1273
2227.951656518121,1365
2229.835966218746,1282
2231.71983773203,1339
2233.6032713358913,1309
2235.486267308324,1342
2237.3688259274036,1314
2239.2509474712824,1297
2241.132632218193,1323
2243.013880446447,1269
2244.8946924344323,1307
2246.7750684606203,1292
2248.6550088035574,1304
2250.534513741871,1275
2252.413583554265,1313
2254.292218519526,1325
2256.170418916517,1297
2258.0481850241786,1283
2259.925517121534,1273
2261.8024154876825,1286
2263.678880401803,1317
2265.5549121431536,1313
2267.430510991071,1286
2269.305677224971,1286
2271.180411124348,1267
2273.0547129687766,1261
2274.9285830379076,1268
2276.8020216114737,1292
2278.6750289692845,1268
2280.5476053912294,1309
2282.4197511572766,1303
2284.2914665474727,1314
2286.162751841943,1305
2288.0336073208937,1356
2289.904033264608,1365
2291.774029953448,1292
2293.6435976678554,1339
2295.5127366883517,1278
2297.381447295534,1270
2299.2497297700825,1279
2301.1175843927526,1207
2302.9850114443825,1229
2304.852011205885,1220
2306.7185839582553,1185
2308.5847299825664,1146
2310.4504495599676,1176
2312.3157429716925,1206
2314.1806104990483,1174
2316.0450524234247,1110
2317.9090690262888,1175
2319.772660589186,1140
2321.635827393742,1180
2323.498569721661,1103
2325.3608878547248,1097
2327.2227820747967,1114
2329.0842526638157,1147
2330.945299903803,1144
2332.805924076857,1176
2334.6661254651535,1110
2336.525904350951,1148
2338.3852610165827,1150
2340.244195744464,1135
2342.102708817088,1190
2343.9608005170253,1126
2345.8184711269287,1147
2347.675720929526,1109
2349.532550207628,1128
2351.38895924412,1175
2353.24494832197,1210
2355.100517724223,1180
2356.955667734004,1101
2358.810398634514,1152
2360.664710709037,1171
2362.5186042409337,1131
2364.3720795136437,1163
2366.225136810686,1163
2368.0777764156583,1116
2369.929998612237,1192
2371.7818036841777,1124
2373.633191915315,1119
2375.484163589562,1185
2377.3347189909114,1186
2379.184858403434,1124
2381.03458211128,1117
2382.8838903986775,1169
2384.732783549936,1149
2386.5812618494406,1157
2388.4293255816588,1135
2390.2769750311327,1179
2392.1242104824883,1129
2393.971032220427,1154
2395.8174405297295,1115
2397.6634356952563,1182
2399.509018001947,1167
2401.3541877348193,1175
2403.1989451789705,1166
2405.043290619576,1204
2406.8872243418905,1146
2408.730746631247,1157
2410.5738577730594,1188
2412.4165580528183,1245
2414.258847756095,1182
2416.100727168537,1154
2417.9421965758734,1137
2419.783256263912,1141
2421.623906518538,1202
2423.4641476257157,1202
2425.303979871491,1148
2427.143403541984,1181
2428.9824189233977,1180
2430.821026302012,1181
2432.6592259641866,1231
2434.497018196361,1166
2436.33440328505,1192
2438.171381516851,1181
2440.00795317844,1144
2441.844118556569,1158
2443.6798779380724,1181
2445.5152316098606,1179
2447.3501798589255,1174
2449.1847229723357,1219
2451.0188612372403,1187
2452.8525949408663,1168
2454.6859243705203,1192
2456.518849813587,1158
2458.3513715575314,1175
2460.183489889895,1162
2462.015205098301,1189
2463.8465174704493,1152
2465.67742729412,1122
2467.5079348571717,1178
2469.338040447542,1124
2471.1677443532476,1173
2472.9970468623833,1166
2474.825948263123,1173
2476.6544488437207,1191
2478.482548892508,1187
2480.310248697896,1179
2482.137548548374,1183
2483.9644487325118,1186
2485.790949538956,1184
2487.617051256433,1191
2489.44275417375,1192
2491.26805857979,1219
2493.0929647635157,1198
2494.917473013971,1172
2496.741583620276,1237
2498.5652968716304,1165
2500.3886130573137,1141
2502.2115324666834,1229
2504.0340553891765,1191
2505.856182114308,1214
2507.6779129316733,1224
2509.499248130945,1203
2511.3201880018764,1207
2513.140732834298,1221
2514.9608829181198,1197
2516.780638543331,1190
2518.6,1240
2520.418967578273,1228
2522.237541568376,1198
2524.0557222606144,1235
2525.8735099453706,1214
2527.6909049131086,1189
2529.507907454368,1233
2531.32451785977,1194
2533.140736420014,1249
2534.9565634258774,1247
2536.771999168218,1250
2538.5870439379714,1224
2540.4016980261526,1211
2542.2159617238544,1253
2544.02983532225,1246
2545.8433191125914,1293
2547.656413386209,1232
2549.4691184345115,1283
2551.2814345489874,1282
2553.093362021204,1271
2554.904901142808,1295
2556.716052205523,1329
2558.526815501153,1324
2560.3371913215824,1264
2562.147179958771,1251
2563.956781704761,1330
2565.7659968516705,1338
2567.5748256916986,1326
2569.3832685171224,1331
2571.1913256202984,1262
2572.9989972936614,1317
2574.806283829725,1326
2576.613185521084,1319
2578.4197026604074,1363
2580.2258355404483,1380
2582.031584454035,1346
2583.836949694077,1332
2585.6419315535613,1354
2587.4465303255533,1309
2589.2507463032002,1340
2591.0545797797245,1313
2592.8580310484303,1268
2594.6611004026995,1356
2596.463788135992,1312
2598.266094541849,1375
2600.0680199138874,1348
2601.869564545807,1339
2603.670728731383,1362
2605.4715127644704,1293
2607.2719169390048,1315
2609.071941548998,1320
2610.8715868885433,1342
2612.670853251811,1341
2614.469740933052,1356
2616.268250226594,1339
2618.0663814268455,1324
2619.864134828292,1345
2621.6615107255006,1338
2623.458509413115,1313
2625.2551311858597,1348
2627.0513763385347,1304
2628.8472451660223,1307
2630.6427379632833,1290
2632.4378550253564,1311
2634.232596647359,1298
2636.026963124488,1257
2637.8209547520187,1282
2639.6145718253065,1310
2641.407814639785,1266
2643.200683490966,1251
2644.9931786744414,1272
2646.7853004858807,1239
2648.577049221034,1290
2650.3684251757277,1246
2652.1594286458712,1225
2653.9500599274484,1261
2655.740319316525,1268
2657.5302071092437,1276
2659.3197236018286,1226
2661.10886909058,1197
2662.8976438718782,1273
2664.686048242183,1245
2666.4740824980327,1255
2668.2617469360443,1187
2670.0490418529134,1268
2671.8359675454153,1173
2673.622524310403,1241
2675.408712444811,1225
2677.1945322456495,1242
2678.979984010009,1233
2680.76506803506,1227
2682.5497846180497,1273
2684.334134056306,1192
2686.1181166472343,1194
2687.9017326883213,1174
2689.6849824771293,1181
2691.4678663113013,1193
2693.2503844885596,1237
2695.032537306705,1170
2696.8143250636167,1179
2698.5957480572542,1139
2700.3768065856534,1184
2702.1575009469316,1208
2703.937831439283,1166
2705.717798360982,1147
2707.4974020103837,1134
2709.276642685917,1148
2711.055520686095,1162
2712.834036309506,1206
2714.612189854819,1179
2716.389981620782,1193
2718.1674119062204,1162
2719.944481010041,1150
2721.721189231226,1181
2723.4975368688415,1186
2725.273524222027,1164
2727.0491515900053,1161
2728.824419272075,1154
2730.5993275676146,1143
2732.3738767760838,1127
2734.148067197016,1201
2735.921899130031,1165
2737.6953728748194,1171
2739.468488731156,1139
2741.2412469988926,1175
2743.0136479779617,1147
2744.785691968372,1150
2746.5573792702116,1105
2748.3287101836504,1159
2750.099685008934,1139
2751.870304046388,1128
2753.640567596418,1123
2755.4104759595057,1141
2757.1800294362156,1110
2758.949228327187,1110
2760.7180729331412,1123
2762.486563554877,1173
2764.254700493272,1190
2766.022484049284,1144
2767.789914523947,1068
2769.5569922183786,1184
2771.3237174337705,1200
2773.090090471394,1105
2774.8561116326036,1124
2776.6217812188274,1150
2778.3870995315756,1170
2780.1520668724356,1137
2781.9166835430747,1157
2783.6809498452394,1113
2785.444866080754,1156
2787.2084325515225,1127
2788.971649559527,1123
2790.73451740683,1085
2792.4970363955713,1121
2794.2592068279705,1117
2796.0210290063264,1089
2797.7825032330147,1114
2799.543629810493,1189
2801.304409041296,1162
2803.0648412280366,1134
2804.8249266734088,1090
2806.5846656801846,1170
2808.344058551212,1145
2810.1031055894246,1168
2811.8618070978273,1157
2813.6201633795085,1193
2815.378174737636,1157
2817.1358414754536,1104
2818.893163896285,1159
2820.6501423035334,1104
2822.4067770006814,1108
2824.1630682912883,1069
2825.9190164789957,1142
2827.6746218675207,1178
2829.429884760661,1111
2831.184805462294,1181
2832.9393842763743,1201
2834.693621506936,1142
2836.4475174580916,1153
2838.201072434034,1106
2839.954286739034,1111
2841.707160677441,1062
2843.459694553685,1119
2845.2118886722724,1151
2846.96374333779,1154
2848.7152588549034,1158
2850.4664355283567,1130
2852.217273662973,1125
2853.9677735636546,1149
2855.7179355353833,1155
2857.4677598832186,1151
2859.217246912299,1147
2860.9663969278427,1141
2862.715210235146,1088
2864.4636871395846,1134
2866.211827946614,1124
2867.9596329617652,1116
2869.7071024906536,1130
2871.4542368389684,1185
2873.20103631248,1112
2874.947501217038,1149
2876.6936318585695,1168
2878.4394285430812,1102
2880.1848915766604,1136
2881.9300212654707,1114
2883.6748179157553,1161
2885.4192818338374,1135
2887.1634133261173,1131
2888.907212699077,1128
2890.6506802592744,1118
2892.393816313348,1120
2894.1366211680142,1219
2895.8790951300693,1162
2897.621238506388,1166
2899.363051603925,1172
2901.1045347297118,1147
2902.8456881908596,1160
2904.58651229456,1078
2906.327007348081,1122
2908.067173658772,1136
2909.8070115340597,1137
2911.5465212814497,1103
2913.285703208527,1104
2915.0245576229563,1104
2916.7630848324807,1181
2918.5012851449196,1108
2920.2391588681758,1088
2921.976706310227,1137
2923.7139277791334,1121
2925.4508235830313,1119
2927.187394030137,1134
2928.923639428745,1106
2930.6595600872306,1120
2932.395156314046,1201
2934.1304284177218,1169
2935.8653767068713,1159
2937.6000014901815,1135
2939.3343030764227,1155
2941.068281774442,1142
2942.8019378931644,1140
2944.5352717415976,1164
2946.2682836288236,1177
2948.0009738640065,1169
2949.7333427563885,1192
2951.465390615289,1107
2953.1971177501086,1164
2954.9285244703265,1109
2956.6596110855,1145
2958.3903779052657,1160
2960.1208252393385,1114
2961.8509533975125,1106
2963.5807626896617,1147
2965.3102534257378,1192
2967.0394259157715,1184
2968.768280469873,1115
2970.496817398232,1072
2972.2250370111146,1177
2973.952939618869,1174
2975.6805255319196,1165
2977.4077950607707,1180
2979.134748516006,1171
2980.861386208289,1178
2982.587708448359,1157
2984.313715547037,1194
2986.039407815222,1097
2987.764785563891,1124
2989.489849104102,1121
2991.2145987469908,1125
2992.9390348037705,1110
2994.6631575857346,1102
2996.3869674042576,1164
2998.1104645707887,1082
2999.83364939686,1152
3001.5565221940783,1126
3003.2790832741334,1105
3005.0013329487924,1069
3006.7232715298996,1108
3008.4448993293804,1089
3010.166216659239,1107
3011.887223831558,1074
3013.607921158498,1122
3015.3283089522993,1116
3017.0483875252826,1156
3018.7681571898443,1126
3020.4876182584626,1107
3022.2067710436927,1113
3023.9256158581707,1170
3025.644153014609,1116
3027.362382825801,1161
3029.0803056046193,1145
3030.797921664012,1127
3032.5152313170106,1115
3034.2322348767225,1037
3035.9489326563353,1090
3037.665324969115,1116
3039.3814121284063,1139
3041.097194447633,1168
3042.812672240299,1140
3044.5278458199855,1171
3046.2427155003525,1143
3047.9572815951406,1157
3049.671544418167,1164
3051.38550428333,1123
3053.0991615046073,1186
3054.812516396051,1127
3056.5255692717974,1081
3058.2383204460575,1147
3059.9507702331257,1096
3061.662918947372,1134
3063.3747669032446,1123
3065.0863144152736,1099
3066.7975617980674,1099
3068.508509366309,1135
3070.219157434767,1100
3071.9295063182844,1091
3073.639556331785,1110
3075.3493077902704,1117
3077.058761008821,1126
3078.7679163025964,1087
3080.476773986837,1143
3082.1853343768594,1145
3083.89359778806,1121
3085.6015645359153,1142
3087.3092349359786,1108
3089.016609303884,1070
3090.7236879553434,1104
3092.4304712061476,1058
3094.136959372166,1129
3095.843152769349,1094
3097.5490517137237,1117
3099.2546565213966,1071
3100.959967508554,1100
3102.66498499146,1064
3104.3697092864577,1105
3106.0741407099695,1087
3107.778279578498,1081
3109.482126208622,1161
3111.1856809170004,1116
3112.8889440203716,1176
3114.5919158355528,1116
3116.294596679439,1118
3117.996986869006,1145
3119.6990867213062,1078
3121.4008965534726,1101
3123.102416682717,1153
3124.803647426329,1125
3126.5045891016784,1110
3128.205242026213,1100
3129.90560651746,1113
3131.605682893025,1151
3133.3054714705922,1121
3135.0049725679282,1110
3136.7041865028714,1173
3138.4031135933465,1156
3140.101754157353,1134
3141.800108512971,1114
3143.498176978357,1098
3145.1959598717494,1118
3146.8934575114636,1135
3148.5906702158954,1153
3150.2875983035183,1118
3151.9842420928853,1149
3153.680601902627,1139
3155.376678051456,1137
3157.07247085816,1108
3158.767980641609,1115
3160.463207720748,1116
3162.158152414606,1085
3163.8528150422862,1125
3165.5471959229726,1134
3167.2412953759303,1131
3168.9351137204976,1114
3170.628651276098,1104
3172.3219083622307,1106
3174.014885298474,1104
3175.707582404485,1112
3177.4000000000005,1172
3179.092138404835,1093
3180.7839979388846,1097
3182.47557892212,1071
3184.166881674594,1092
3185.8579065164386,1132
3187.5486537678626,1055
3189.2391237491547,1142
3190.9293167806827,1120
3192.6192331828934,1107
3194.3088732763117,1096
3195.998237381542,1139
3197.687325819268,1116
3199.376138910251,1099
3201.064676975334,1116
3202.7529403354347,1149
3204.4409293115523,1102
3206.1286442247647,1059
3207.816085396229,1101
3209.5032531471825,1148
3211.190147798936,1106
3212.8767696728846,1094
3214.5631190905015,1064
3216.2491963733373,1076
3217.9350018430214,1008
3219.6205358212637,1054
3221.305798629851,1047
3222.990790590651,1057
3224.6755120256103,1053
3226.359963256751,1036
3228.0441446061795,1042
3229.7280563960758,1085
3231.411698948703,1122
3233.0950725863995,1094
3234.778177631587,1127
3236.461014406761,1100
3238.1435832345005,1071
3239.8258844374595,1105
3241.507918338374,1083
3243.1896852600576,1096
3244.8711855254023,1056
3246.552419457381,1068
3248.233387379042,1114
3249.914089613516,1115
3251.59452648401,1128
3253.274698313813,1056
3254.95460542629,1113
3256.6342481448855,1081
3258.313626793125,1060
3259.9927416946084,1066
3261.6715931730196,1078
3263.3501815521176,1076
3265.0285071557437,1079
3266.706570307815,1070
3268.3843713323286,1076
3270.0619105533615,1064
3271.739188295068,1098
3273.4162048816834,1076
3275.0929606375184,1114
3276.769455886966,1146
3278.445690954498,1059
3280.1216661646613,1090
3281.797381842087,1116
3283.4728383114807,1107
3285.1480358976296,1127
3286.8229749253996,1121
3288.4976557197333,1112
3290.172078605655,1078
3291.846243908266,1097
3293.5201519527463,1088
3295.193803064357,1084
3296.8671975684374,1070
3298.5403357904024,1100
3300.21321805575,1074
3301.8858446900567,1125
3303.558216018975,1112
3305.23033236824,1129
3306.9021940636603,1072
3308.57380143113,1151
3310.2451547966184,1122
3311.916254486174,1141
3313.5871008259246,1095
3315.2576941420766,1135
3316.9280347609147,1142
3318.5981230088046,1062
3320.2679592121895,1079
3321.9375436975924,1063
3323.606876791612,1064
3325.27595882093,1121
3326.944790112305,1051
3328.6133709925753,1088
3330.2817017886573,1097
3331.949782827547,1085
3333.617614436319,1104
3335.2851969421245,1116
3336.952530672199,1182
3338.619615953853,1130
3340.286453114475,1079
3341.9530424815357,1108
3343.619384382583,1103
3345.2854791452437,1084
3346.951327097224,1089
3348.6169285663073,1148
3350.2822838803577,1099
3351.947393367319,1078
3353.61225735521,1143
3355.2768761721345,1097
3356.9412501462693,1093
3358.605379605873,1115
3360.2692648792827,1151
3361.9329062949146,1105
3363.596304181263,1023
