CollectionTime,9/25/2024 11:36:29 AM
ExposureUsed,3
CalibratedSpectrum
-962.7078968117929,482
-959.9714848408522,486
-957.2358232597828,487
-954.5009119013725,529
-951.7667505983302,500
-949.0333391832855,491
-946.3006774887896,493
-943.5687653473143,495
-940.837602591253,484
-938.1071890529199,483
-935.3775245645503,501
-932.6486089583007,507
-929.9204420662485,501
-927.1930237203925,522
-924.4663537526524,516
-921.7404319948689,491
-919.0152582788041,505
-916.2908324361409,480
-913.5671542984834,530
-910.8442236973568,494
-908.1220404642074,495
-905.4006044304027,518
-902.679915427231,510
-899.959973285902,508
-897.2407778375464,525
-894.5223289132158,512
-891.8046263438832,506
-889.0876699604426,490
-886.3714595937089,519
-883.6559950744183,494
-880.9412762332282,504
-878.2273029007168,503
-875.5140749073835,485
-872.8015920836489,492
-870.0898542598545,508
-867.3788612662631,482
-864.6686129330585,488
-861.9591090903457,494
-859.2503495681506,483
-856.5423341964203,490
-853.8350628050229,503
-851.1285352237478,511
-848.4227512823054,493
-845.7177108103272,497
-843.0134136373656,509
-840.3098595928943,493
-837.6070485063082,500
-834.9049802069229,488
-832.2036545239757,514
-829.5030712866244,499
-826.8032303239481,501
-824.1041314649472,500
-821.4057745385428,507
-818.7081593735775,520
-816.0112857988148,500
-813.3151536429393,507
-810.6197627345566,524
-807.9251129021936,497
-805.2312039742981,479
-802.5380357792392,496
-799.8456081453069,524
-797.1539209007124,509
-794.462973873588,518
-791.772766891987,499
-789.083299783884,538
-786.3945723771743,505
-783.7065844996748,554
-781.0193359791231,526
-778.3328266431781,531
-775.6470563194197,534
-772.9620248353489,520
-770.2777320183878,536
-767.5941776958798,524
-764.9113616950891,530
-762.2292838432011,514
-759.5479439673222,489
-756.8673418944801,505
-754.1874774516235,521
-751.5083504656222,512
-748.8299607632671,537
-746.15230817127,517
-743.475392516264,536
-740.7992136248035,538
-738.1237713233636,529
-735.4490654383407,527
-732.7750957960521,508
-730.1018622227365,524
-727.4293645445534,532
-724.7576025875837,573
-722.0865761778291,517
-719.4162851412126,533
-716.7467293035781,560
-714.0779084906909,569
-711.409822528237,581
-708.7424712418238,577
-706.0758544569796,533
-703.4099719991541,569
-700.7448236937178,544
-698.0804093659622,534
-695.4167288411002,541
-692.7537819442656,536
-690.0915685005134,533
-687.4300883348199,543
-684.7693412720819,571
-682.1093271371178,550
-679.4500457546669,542
-676.7914969493897,531
-674.1336805458676,571
-671.4765963686034,564
-668.8202442420206,544
-666.1646239904642,537
-663.5097354382001,572
-660.8555784094151,551
-658.2021527282176,550
-655.5494582186366,577
-652.8974947046223,558
-650.2462620100463,553
-647.5957599587009,594
-644.9459883742998,555
-642.2969470804776,575
-639.6486359007902,565
-637.0010546587141,559
-634.3542031776476,606
-631.7080812809096,577
-629.0626887917401,608
-626.4180255333008,586
-623.7740913286734,558
-621.1308860008619,578
-618.4884093727904,591
-615.8466612673046,579
-613.2056415071715,568
-610.5653499150785,590
-607.9257863136347,598
-605.28695052537,618
-602.6488423727357,589
-600.0114616781036,601
-597.3748082637674,599
-594.7388819519412,623
-592.1036825647604,615
-589.4692099242818,613
-586.8354638524829,611
-584.2024441712624,629
-581.5701507024403,617
-578.9385832677575,613
-576.3077416888759,604
-573.6776257873787,636
-571.0482353847704,584
-568.4195703024757,581
-565.7916303618415,606
-563.164415384135,601
-560.5379251905453,568
-557.9121596021815,603
-555.2871184400748,612
-552.6628015251767,596
-550.0392086783606,620
-547.4163397204204,618
-544.794194472071,643
-542.1727727539491,634
-539.5520743866118,628
-536.9320991905377,646
-534.3128469861261,662
-531.6943175936979,666
-529.0765108334947,716
-526.4594265256793,767
-523.8430644903358,948
-521.2274245474689,992
-518.612506517005,1057
-515.9983102187913,1065
-513.3848354725959,1087
-510.77208209810846,1130
-508.16004991493924,1218
-505.5487387426199,1397
-502.9381484006032,1368
-500.3282787082628,1329
-497.71912948489364,1181
-495.1107005497117,1107
-492.5029917218539,1036
-489.8960028203786,907
-487.28973366426493,884
-484.68418407241325,769
-482.07935386364494,738
-479.47524285670266,806
-476.87185087025,757
-474.2691777228715,763
-471.66722323307334,736
-469.0659872192821,759
-466.4654694998459,768
-463.86566989303384,764
-461.26658821703614,755
-458.66822428996414,781
-456.07057792985,757
-453.4736489546475,776
-450.877437182231,802
-448.28194243039627,798
-445.68716451686,791
-443.09310325926003,748
-440.49975847515555,741
-437.9071299820263,784
-435.31521759727354,766
-432.72402113821954,779
-430.13354042210767,724
-427.5437752661022,782
-424.95472548728867,789
-422.36639090267386,762
-419.7787713291855,793
-417.1918665836721,816
-414.60567648290385,835
-412.0202008435715,811
-409.4354394822874,846
-406.8513922155845,801
-404.26805885991723,863
-401.685439231661,864
-399.103533147112,782
-396.522340422488,803
-393.9418608739278,823
-391.3620943174908,771
-388.7830405691583,758
-386.2046994448317,792
-383.6270707603344,752
-381.05015433141045,753
-378.473949973725,711
-375.8984575028645,651
-373.32367673433623,631
-370.74960748356875,604
-368.1762495659117,570
-365.60360279663576,533
-363.03166699093265,509
-360.4604419639154,531
-357.8899275306178,504
-355.32012350599507,462
-352.7510297049233,486
-350.1826459421999,486
-347.61497203254316,450
-345.04800779059235,469
-342.4817530309082,477
-339.91620756797226,460
-337.35137121618743,447
-334.7872437898774,462
-332.22382510328725,487
-329.66111497058273,484
-327.09911320585127,476
-324.53781962310075,469
-321.9772340362607,486
-319.4173562591816,476
-316.8581861056348,473
-314.2997233893127,443
-311.7419679238294,438
-309.1849195227194,462
-306.62857799943856,504
-304.0729431673641,481
-301.51801483979375,492
-298.963792829947,506
-296.41027695096386,475
-293.85746701590574,469
-291.3053628377552,544
-288.7539642294155,525
-286.2032710037115,544
-283.65328297338897,535
-281.1039999511146,548
-278.5554217494762,641
-276.007548180983,653
-273.4603790580651,587
-270.9139141930734,616
-268.3681533982807,582
-265.8230964858798,548
-263.27874326798565,540
-260.7350935566336,542
-258.1921471637804,561
-255.6499039013039,621
-253.10836358100266,576
-250.56752601459698,545
-248.02739101372765,617
-245.48795838995704,703
-242.94922795476816,668
-240.41119951956557,570
-237.8738728956746,610
-235.33724789434166,667
-232.80132432673452,704
-230.2661020039418,657
-227.73158073697357,636
-225.19776033676033,702
-222.66464061415422,793
-220.1322213799284,731
-217.60050244477725,631
-215.06948361931552,667
-212.53916471408013,738
-210.00954553952818,759
-207.48062590603843,770
-204.9524056239104,706
-202.4248845033651,718
-199.8980623545441,826
-197.37193898751036,802
-194.84651421224817,799
-192.32178783866232,713
-189.79775967657952,797
-187.27442953574644,845
-184.7517972258321,865
-182.2298625564256,784
-179.7086253370378,711
-177.18808537710026,753
-174.66824248596583,1034
-172.14909647290835,1084
-169.6306471471229,935
-167.11289431772548,745
-164.59583779375328,725
-162.07947738416453,847
-159.5638128978386,949
-157.04884414357605,1087
-154.53457093009854,1118
-152.02099306604828,921
-149.50811035998936,851
-146.99592262040665,841
-144.48442965570587,1050
-141.97363127421409,1226
-139.46352728417958,1359
-136.95411749377126,1320
-134.44540171107985,1160
-131.93737974411636,954
-129.43005140081357,1027
-126.92341648902493,1430
-124.41747481652521,1887
-121.91222619101006,2514
-119.40767042009657,2920
-116.90380731132257,3106
-114.40063667214702,2912
-111.8981583099503,2386
-109.3963720320337,2160
-106.89527764561933,2287
-104.39487495785067,2692
-101.89516377579241,4002
-99.39614390642998,4992
-96.89781515667039,6347
-94.40017733334128,6324
-91.90323024319173,5871
-89.40697369289148,5351
-86.91140748903172,4138
-84.41653143812482,3743
-81.92234534660395,3473
-79.42884902082358,4380
-76.93604226705907,5065
-74.4439248915071,6099
-71.95249670028534,7748
-69.46175749943245,9640
-66.97170709490854,12299
-64.48234529259423,14216
-61.99367189829195,15531
-59.50568671772464,13922
-57.01838955653636,11124
-54.53178022029283,11188
-52.045858514480074,12963
-49.560624244506016,12709
-47.07607721569923,12894
-44.59221723330904,12057
-42.10904410250669,10839
-39.62655762838392,9550
-37.14475761595372,10196
-34.66364387015028,13828
-32.18321619582866,15039
-29.70347439776515,17414
-27.224418280657005,20939
-24.74604764912317,24368
-22.26836230770266,36159
-19.7913620608565,65040
-17.315046712966478,65040
-14.83941606833514,65040
-12.36446993118659,65040
-9.89020810566592,65040
-7.416630395839093,65040
-4.94373660569363,65040
-2.471526539137585,65040
-6.821210263296962E-13,65040
2.47084320796705,65040
4.941003281093458,65040
7.410480415786196,65040
9.879274808531363,65040
12.347386655893956,65040
14.814816154518212,65040
17.28156350112681,65040
19.74762889252179,65040
22.21301252558385,21533
24.67771459727237,4641
27.141735304626195,3351
29.605074844762612,3184
32.06773341487792,3067
34.52971121224755,2998
36.99100843422559,2373
39.45162527824516,2973
41.91156194181792,3253
44.370818622535126,2586
46.82939551806646,2227
49.287292826160524,2412
51.74451074464503,2129
54.201049471426245,2217
56.65690920448981,1795
59.112090141899785,1783
61.56659248179983,2111
64.02041642241159,1733
66.4735621620365,1623
68.92602989905402,1765
71.37781983192338,1769
73.82893215918205,1639
76.27936707944684,1573
78.72912479141326,1651
81.17820549385567,1539
83.62660938562783,1332
86.07433666566146,1274
88.5213875329681,1569
90.96776218663751,1357
93.41346082583925,1124
95.85848364982041,1105
98.30283085790859,1223
100.7465026495089,1341
103.18949922410604,1310
105.63182078126385,1537
108.07346752062438,1359
110.51443964190923,1127
112.95473734491827,1080
115.39436082953114,969
117.83331029570547,1031
120.27158594347827,1055
122.7091879729652,1107
125.1461165843615,1161
127.58237197794062,922
130.01795435405518,996
132.4528639131364,1025
134.88710085569494,1144
137.32066538231982,1097
139.75355769367923,899
142.1857779905207,902
144.61732647366978,982
147.04820334403132,967
149.47840880258934,982
151.90794305040674,936
154.33680628862487,1001
156.76499871846443,1057
159.19252054122433,1195
161.61937195828352,1277
164.04555317109896,1293
166.47106438120693,1474
168.89590579022217,1627
171.320077599839,1652
173.7435800118302,1766
176.16641322804742,1747
178.58857745042144,1836
181.01007288096173,1876
183.43089972175687,1885
185.85105817497413,1928
188.27054844285988,1870
190.6893707277394,1947
193.10752523201643,1952
195.5250121581745,1980
197.9418317087751,2031
200.3579840864594,1972
202.7734694939469,2016
205.18828813403627,2097
207.6024402096051,2099
210.01592592360964,1969
212.42874547908548,2051
214.84089907914665,2165
217.2523869269868,2092
219.66320922587727,2078
222.0733661791695,2094
224.48285799029293,2035
226.8916848627572,2107
229.29984700014882,2162
231.7073446061355,2144
234.11417788446204,2123
236.520347038953,2184
238.92585227351185,2162
241.33069379212054,2176
243.73487179884035,2177
246.1383864978112,2156
248.541238093252,2260
250.9434267894609,2165
253.34495279081432,2173
255.74581630176783,2283
258.1460175268563,2128
260.54555667069314,2245
262.9444339379703,2141
265.3426495334594,2207
267.7402036620107,2325
270.1370965285529,2190
272.53332833809407,2034
274.9288992957214,2101
277.32380960660055,2062
279.718059475976,2105
282.1116491091717,2051
284.5045787115897,2041
286.89684848871195,2126
289.2884586460981,2050
291.67940938938807,1999
294.0697009242996,2057
296.4593334566299,2053
298.84830719225477,2069
301.23662233712923,2040
303.6242790972866,2071
306.01127767884,2032
308.39761828798066,1926
310.78330113097934,2019
313.16832641418534,1900
315.5526943440269,1958
317.9364051270112,1849
320.3194589697242,1963
322.70185607883093,1956
325.0835966610754,1838
327.4646809232805,1816
329.8451090723478,1748
332.2248813152577,1752
334.6039978590701,1791
336.9824589109231,1760
339.36026467803447,1724
341.7374153677,1772
344.113911187295,1691
346.48975234427337,1732
348.8649390461686,1789
351.2394715005918,1748
353.61334991523415,1683
355.9865744978655,1722
358.35914545633375,1757
360.73106299856715,1679
363.10232733257146,1720
365.47293866643247,1722
367.84289720831396,1681
370.2122031664593,1711
372.5808567491905,1703
374.9488581649083,1662
377.31620762209275,1686
379.6829053293021,1623
382.0489514951745,1663
384.4143463284262,1583
386.7790900378528,1668
389.14318283232853,1628
391.50662492080653,1647
393.86941651231916,1606
396.23155781597745,1676
398.5930490409713,1607
400.9538903965696,1614
403.3140820921202,1615
405.6736243370498,1641
408.03251734086336,1686
410.3907613131465,1654
412.74835646356166,1665
415.10530300185144,1628
417.4616011378372,1583
419.81725108141893,1571
422.1722530425758,1635
424.5266072313656,1562
426.880313857925,1617
429.2333731324701,1571
431.58578526529516,1621
433.9375504667738,1636
436.2886689473588,1555
438.63914091758113,1595
440.9889665880513,1565
443.33814616945835,1597
445.68667987257015,1507
448.03456790823395,1550
450.3818104873759,1522
452.72840782100013,1586
455.07436012019105,1508
457.41966759611057,1512
459.7643304600007,1549
462.10834892318155,1550
464.4517231970525,1563
466.79445349309174,1518
469.1365400228566,1603
471.4779829979826,1551
473.81878263018564,1526
476.15893913125876,1597
478.4984527130747,1552
480.8373235875855,1661
483.17555196682144,1641
485.5131380628919,1695
487.8500820879857,1744
490.1863842543697,1792
492.52204477439034,1881
494.8570638604725,1969
497.1914417251204,2167
499.52517858091653,2466
501.85827464052306,2732
504.19073011668036,3003
506.5225452222086,3069
508.85372017000566,3063
511.18425517304956,3142
513.514150444396,3320
515.8434061971808,4328
518.1720226446176,5072
520.4999999999999,5128
522.8273384766991,4794
525.1540382881666,4274
527.480099647932,3900
529.8055227696037,3129
532.1303078668694,2333
534.454455153496,1882
536.777964843328,1749
539.1008371502907,1635
541.4230722883866,1648
543.744670471698,1610
546.0656319143858,1570
548.3859568306899,1587
550.7056454349294,1576
553.0246979415016,1548
555.3431145648834,1501
557.6608955196306,1540
559.978041020377,1557
562.2945512818363,1520
564.6104265188006,1551
566.9256669461412,1556
569.2402727788082,1569
571.5542442318302,1492
573.8675815203156,1557
576.1802848594508,1591
578.4923544645015,1546
580.8037905508126,1557
583.114593333807,1590
585.4247630289875,1593
587.7342998519354,1565
590.0432040183106,1546
592.3514757438526,1610
594.6591152443794,1611
596.9661227357875,1676
599.2724984340531,1556
601.578242555231,1532
603.8833553154542,1609
606.1878369309362,1547
608.4916876179676,1590
610.7949075929192,1493
613.0974970722403,1519
615.3994562724587,1544
617.7007854101818,1565
620.0014847020951,1504
622.3015543649641,1504
624.6009946156324,1537
626.8998056710224,1543
629.1979877481361,1571
631.4955410640538,1538
633.7924658359349,1544
636.0887622810175,1535
638.3844306166192,1528
640.6794710601358,1600
642.9738838290426,1587
645.2676691408932,1517
647.5608272133207,1537
649.853358264037,1621
652.1452625108324,1582
654.4365401715764,1550
656.7271914642178,1586
659.0172166067838,1592
661.3066158173809,1570
663.5953893141935,1577
665.8835373154867,1539
668.1710600396028,1539
670.4579577049639,1637
672.7442305300709,1669
675.0298787335033,1668
677.3149025339197,1634
679.599302150058,1608
681.8830778007342,1535
684.1662297048437,1579
686.4487580813608,1583
688.7306631493387,1693
691.0119451279091,1570
693.2926042362834,1579
695.5726406937516,1636
697.8520547196814,1616
700.1308465335215,1592
702.4090163547982,1557
704.6865644031171,1538
706.9634908981619,1562
709.2397960596965,1622
711.5154801075631,1613
713.7905432616823,1591
716.0649857420548,1649
718.3388077687592,1582
720.612009561953,1560
722.8845913418733,1606
725.1565533288352,1594
727.427895743234,1590
729.6986188055427,1601
731.9687227363137,1552
734.238207756178,1609
736.5070740858458,1583
738.7753219461066,1557
741.0429515578281,1569
743.3099631419569,1572
745.5763569195191,1583
747.8421331116193,1603
750.1072919394409,1599
752.3718336242467,1633
754.6357583873777,1607
756.8990664502545,1614
759.1617580343765,1592
761.423833361321,1551
763.6852926527457,1578
765.9461361303862,1543
768.206364016058,1605
770.4659765316536,1595
772.7249738991469,1628
774.9833563405886,1581
777.2411240781092,1577
779.4982773339183,1617
781.7548163303044,1547
784.010741289634,1668
786.2660524343538,1681
788.5207499869881,1579
790.7748341701416,1578
793.0283052064964,1676
795.2811633188143,1673
797.5334087299362,1655
799.7850416627813,1673
802.0360623403484,1644
804.2864709857143,1610
806.5362678220353,1583
808.7854530725468,1667
811.0340269605625,1635
813.2819897094754,1649
815.5293415427581,1678
817.77608268396,1621
820.0222133567116,1598
822.2677337847211,1600
824.5126441917765,1644
826.7569448017433,1603
829.0006358385675,1671
831.2437175262731,1638
833.4861900889629,1631
835.7280537508192,1646
837.9693087361026,1682
840.2099552691533,1643
842.4499935743896,1640
844.689423876309,1543
846.9282463994886,1614
849.1664613685833,1664
851.4040690083276,1618
853.6410695435349,1641
855.877463199097,1623
858.1132501999847,1587
860.3484307712487,1641
862.5830051380175,1593
864.8169735254988,1656
867.0503361589791,1660
869.2830932638243,1653
871.5152450654786,1628
873.7467917894654,1662
875.9777336613873,1651
878.2080709069252,1614
880.4378037518389,1588
882.666932421968,1641
884.8954571432301,1695
887.1233781416219,1658
889.3506956432192,1655
891.5774098741766,1650
893.803521060728,1672
896.0290294291852,1651
898.2539352059397,1660
900.4782386174619,1619
902.7019398903011,1637
904.925039251085,1651
907.147536926521,1665
909.3694331433943,1571
911.59072812857,1629
913.8114221089921,1615
916.0315153116827,1645
918.2510079637437,1654
920.4699002923547,1627
922.6881925247761,1649
924.905884888345,1612
927.1229776104793,1604
929.3394709186747,1608
931.555365040506,1599
933.7706602036275,1652
935.9853566357709,1636
938.1994545647489,1652
940.4129542184515,1665
942.6258558248488,1686
944.8381596119883,1720
947.0498658079974,1661
949.2609746410825,1672
951.4714863395287,1599
953.6814011316998,1672
955.8907192460387,1657
958.0994409110671,1663
960.3075663553858,1663
962.5150958076741,1643
964.7220294966913,1675
966.928367651274,1636
969.1341105003388,1585
971.3392582728806,1652
973.5438111979742,1636
975.747769504772,1598
977.9511334225061,1595
980.153903180487,1641
982.3560790081052,1563
984.5576611348289,1509
986.7586497902058,1582
988.9590452038618,1529
991.158847605503,1523
993.3580572249133,1557
995.5566742919558,1531
997.7546990365728,1511
999.952131688785,1512
1002.1489724786926,1456
1004.3452216364743,1504
1006.5408793923874,1402
1008.7359459767691,1402
1010.9304216200343,1388
1013.1243065526781,1322
1015.3176010052733,1380
1017.510305208472,1380
1019.7024193930064,1363
1021.8939437896848,1372
1024.0848786293977,1352
1026.2752241431122,1354
1028.4649805618747,1338
1030.6541481168115,1361
1032.842727039127,1373
1035.0307175601051,1302
1037.2181199111074,1272
1039.4049343235752,1316
1041.591161029029,1330
1043.7768002590683,1313
1045.9618522453698,1342
1048.1463172196918,1321
1050.3301954138697,1391
1052.513487059818,1355
1054.69619238953,1366
1056.8783116350783,1351
1059.0598450286152,1340
1061.2407928023704,1308
1063.4211551886528,1336
1065.6009324198508,1261
1067.780124728432,1354
1069.9587323469414,1295
1072.1367555080046,1291
1074.314194444325,1300
1076.4910493886855,1232
1078.667320573947,1209
1080.843008233051,1295
1083.0181125990161,1309
1085.1926339049414,1268
1087.3665723840027,1266
1089.5399282694575,1311
1091.7127017946405,1258
1093.8848931929647,1343
1096.0565026979243,1291
1098.2275305430899,1261
1100.3979769621128,1275
1102.567842188722,1270
1104.737126456726,1186
1106.9058300000124,1234
1109.0739530525475,1252
1111.2414958483764,1196
1113.4084586216231,1258
1115.5748416064907,1283
1117.7406450372605,1265
1119.9058691482942,1231
1122.0705141740304,1261
1124.2345803489884,1293
1126.3980679077658,1268
1128.5609770850388,1242
1130.7233081155623,1297
1132.8850612341707,1300
1135.0462366757774,1287
1137.2068346753745,1298
1139.3668554680326,1226
1141.526299288901,1280
1143.68516637321,1248
1145.8434569562655,1247
1148.001171273455,1261
1150.158309560244,1206
1152.3148720521767,1216
1154.470858984876,1239
1156.626270594044,1280
1158.7811071154629,1221
1160.9353687849912,1201
1163.089055838569,1184
1165.242168512213,1241
1167.3947070420209,1289
1169.5466716641677,1242
1171.6980626149075,1235
1173.8488801305748,1252
1175.9991244475814,1221
1178.1487958024186,1196
1180.2978944316555,1219
1182.4464205719428,1247
1184.5943744600072,1242
1186.7417563326567,1222
1188.8885664267755,1284
1191.0348049793297,1266
1193.1804722273619,1204
1195.325568407995,1211
1197.4700937584303,1287
1199.614048515948,1257
1201.7574329179074,1238
1203.900247201746,1252
1206.042491604982,1216
1208.1841663652099,1232
1210.3252717201053,1270
1212.465807907422,1258
1214.6057751649923,1311
1216.7451737307279,1253
1218.8840038426192,1256
1221.0222657387353,1265
1223.1599596572241,1283
1225.2970858363137,1289
1227.4336445143094,1342
1229.5696359295966,1257
1231.705060320639,1329
1233.8399179259786,1313
1235.9742089842384,1276
1238.107933734118,1293
1240.2410924143974,1329
1242.373685263935,1299
1244.5057125216676,1374
1246.6371744266116,1336
1248.7680712178621,1296
1250.898403134593,1297
1253.028170416058,1315
1255.1573733015875,1355
1257.2860120305932,1338
1259.4140868425648,1297
1261.54159797707,1363
1263.6685456737569,1333
1265.7949301723515,1363
1267.9207517126597,1321
1270.046010534565,1352
1272.1707068780306,1370
1274.2948409830983,1362
1276.4184130898889,1390
1278.541423438603,1418
1280.6638722695184,1388
1282.785759822993,1429
1284.9070863394636,1439
1287.0278520594447,1386
1289.1480572235314,1412
1291.2677020723963,1467
1293.3867868467923,1450
1295.5053117875495,1396
1297.623277135579,1466
1299.740683131868,1467
1301.8575300174857,1459
1303.973818033578,1519
1306.0895474213703,1488
1308.2047184221678,1517
1310.3193312773528,1570
1312.4333862283888,1575
1314.5468835168163,1565
1316.659823384255,1577
1318.7722060724045,1682
1320.8840318230418,1597
1322.9953008780249,1524
1325.1060134792888,1590
1327.2161698688478,1629
1329.3257702887959,1624
1331.4348149813054,1606
1333.5433041886276,1555
1335.6512381530933,1553
1337.7586171171101,1556
1339.8654413231675,1510
1341.9717110138317,1511
1344.0774264317488,1514
1346.1825878196432,1504
1348.2871954203192,1540
1350.3912494766587,1544
1352.4947502316231,1475
1354.5976979282532,1460
1356.7000928096686,1435
1358.8019351190665,1438
1360.9032250997243,1473
1363.0039629949988,1459
1365.1041490483235,1517
1367.2037835032133,1451
1369.3028666032606,1434
1371.401398592137,1449
1373.4993797135926,1463
1375.5968102114575,1459
1377.6936903296396,1437
1379.7900203121262,1421
1381.8858004029835,1432
1383.9810308463561,1430
1386.075711886469,1439
1388.1698437676241,1375
1390.2634267342032,1401
1392.356461030667,1404
1394.4489469015557,1414
1396.5408845914872,1378
1398.6322743451592,1436
1400.7231164073469,1400
1402.813411022907,1397
1404.903158436773,1488
1406.9923588939578,1445
1409.0810126395531,1424
1411.1691199187303,1443
1413.2566809767386,1460
1415.343696058907,1362
1417.4301654106425,1420
1419.5160892774315,1446
1421.6014679048399,1432
1423.6863015385125,1455
1425.7705904241707,1457
1427.8543348076178,1487
1429.9375349347342,1464
1432.0201910514802,1461
1434.102303403894,1464
1436.1838722380944,1399
1438.2648978002767,1470
1440.3453803367174,1511
1442.4253200937692,1550
1444.5047173178677,1465
1446.5835722555234,1487
1448.6618851533285,1492
1450.739656257952,1503
1452.8168858161434,1544
1454.8935740747306,1561
1456.96972128062,1597
1459.045327680797,1562
1461.120393522327,1567
1463.1949190523528,1605
1465.2689045180973,1564
1467.3423501668608,1556
1469.415256246024,1558
1471.4876230030463,1637
1473.559450685465,1654
1475.6307395408976,1710
1477.7014898170391,1668
1479.771701761665,1708
1481.8413756226287,1762
1483.9105116478618,1663
1485.9791100853772,1744
1488.0471711832643,1705
1490.1146951896926,1699
1492.1816823529098,1760
1494.2481329212433,1724
1496.3140471430984,1738
1498.3794252669609,1767
1500.4442675413939,1731
1502.5085742150404,1822
1504.572345536622,1858
1506.6355817549388,1861
1508.6982831188702,1827
1510.7604498773744,1819
1512.8220822794883,1821
1514.8831805743293,1903
1516.9437450110909,1864
1519.003775839048,1929
1521.0632733075522,1905
1523.1222376660367,1945
1525.1806691640113,1922
1527.2385680510652,1893
1529.2959345768668,1951
1531.3527689911643,1989
1533.4090715437833,1979
1535.4648424846291,2026
1537.5200820636855,2028
1539.5747905310159,2088
1541.6289681367616,2138
1543.6826151311434,2123
1545.7357317644614,2257
1547.7883182870937,2187
1549.8403749494987,2184
1551.8919020022113,2285
1553.9428996958477,2334
1555.9933682811015,2394
1558.0433080087469,2328
1560.0927191296346,2477
1562.1416018946961,2480
1564.1899565549415,2431
1566.2377833614592,2447
1568.2850825654164,2523
1570.3318544180606,2476
1572.3780991707158,2421
1574.423817074788,2394
1576.4690083817595,2336
1578.5136733431923,2289
1580.5578122107272,2254
1582.601425236085,2230
1584.6445126710646,2169
1586.6870747675434,2014
1588.7291117774776,2037
1590.7706239529034,2002
1592.8116115459347,1908
1594.8520748087658,1881
1596.8920139936686,1863
1598.9314293529933,1795
1600.9703211391711,1764
1603.008689604711,1725
1605.0465350022005,1719
1607.0838575843068,1630
1609.1206576037753,1646
1611.1569353134305,1584
1613.1926909661765,1558
1615.2279248149953,1510
1617.2626371129481,1611
1619.2968281131757,1511
1621.3304980688963,1480
1623.3636472334088,1527
1625.39627586009,1406
1627.428384202396,1406
1629.459972513861,1435
1631.4910410480993,1436
1633.5215900588028,1451
1635.551619799744,1444
1637.5811305247717,1326
1639.6101224878166,1332
1641.6385959428862,1345
1643.6665511440683,1318
1645.693988345528,1292
1647.7209078015112,1273
1649.7473097663405,1336
1651.7731944944203,1301
1653.7985622402307,1296
1655.823413258333,1315
1657.847747803366,1309
1659.8715661300494,1351
1661.8948684931793,1281
1663.9176551476316,1286
1665.9399263483624,1307
1667.9616823504057,1293
1669.982923408873,1272
1672.0036497789574,1226
1674.0238617159293,1281
1676.043559475138,1277
1678.0627433120121,1232
1680.081413482059,1266
1682.0995702408654,1280
1684.117213844096,1256
1686.134344547495,1234
1688.1509626068864,1310
1690.1670682781705,1196
1692.182661817329,1289
1694.1977434804217,1202
1696.2123135235875,1289
1698.226372203043,1307
1700.2399197750851,1321
1702.2529564960905,1311
1704.2654826225112,1276
1706.277498410882,1213
1708.2890041178139,1256
1710.2999999999988,1300
1712.3104863142066,1291
1714.3204633172854,1271
1716.329931266163,1272
1718.3388904178469,1284
1720.3473410294214,1300
1722.3552833580516,1211
1724.3627176609807,1259
1726.3696441955308,1268
1728.3760632191033,1188
1730.3819749891782,1246
1732.3873797633146,1205
1734.3922777991502,1267
1736.3966693544012,1169
1738.4005546868639,1266
1740.4039340544127,1232
1742.406807715001,1224
1744.4091759266616,1200
1746.4110389475054,1260
1748.4123970357223,1172
1750.413250449582,1162
1752.4135994474318,1208
1754.4134442876993,1245
1756.4127852288902,1173
1758.4116225295893,1235
1760.4099564484595,1197
1762.407787244244,1192
1764.405115175764,1192
1766.4019405019203,1208
1768.3982634816916,1199
1770.3940843741357,1255
1772.3894034383907,1257
1774.3842209336717,1194
1776.378537119274,1177
1778.372352254571,1193
1780.3656665990156,1184
1782.3584804121397,1197
1784.3507939535534,1181
1786.3426074829463,1203
1788.3339212600863,1224
1790.3247355448211,1170
1792.3150505970766,1203
1794.3048666768573,1161
1796.2941840442477,1243
1798.2830029594106,1265
1800.2713236825884,1202
1802.2591464741004,1204
1804.2464715943465,1161
1806.2332993038058,1220
1808.2196298630352,1195
1810.2054635326708,1154
1812.190800573428,1248
1814.175641246101,1231
1816.1599858115628,1255
1818.1438345307652,1211
1820.127187664738,1177
1822.1100454745924,1192
1824.092408221516,1167
1826.0742761667766,1197
1828.055649571721,1212
1830.0365286977735,1167
1832.0169138064398,1194
1833.9968051593014,1173
1835.9762030180214,1216
1837.9551076443408,1215
1839.9335193000788,1225
1841.9114382471344,1222
1843.888864747485,1197
1845.8657990631878,1148
1847.842241456378,1197
1849.8181921892697,1254
1851.7936515241558,1184
1853.7686197234098,1176
1855.7430970494815,1206
1857.7170837649014,1201
1859.6905801322787,1172
1861.6635864143004,1214
1863.6361028737338,1187
1865.608129773424,1197
1867.5796673762961,1223
1869.5507159453537,1180
1871.521275743678,1249
1873.4913470344313,1179
1875.4609300808534,1176
1877.4300251462632,1212
1879.3986324940588,1249
1881.366752387717,1228
1883.3343850907936,1228
1885.3015308669228,1250
1887.268189979819,1247
1889.2343626932739,1203
1891.2000492711595,1175
1893.1652499774254,1223
1895.1299650761011,1267
1897.0941948312952,1251
1899.0579395071945,1245
1901.0211993680641,1245
1902.98397467825,1197
1904.9462657021745,1250
1906.9080727043415,1267
1908.869395949332,1207
1910.8302357018065,1177
1912.790592226504,1214
1914.7504657882428,1153
1916.7098566519212,1240
1918.6687650825133,1216
1920.6271913450764,1252
1922.5851357047422,1246
1924.5425984267245,1182
1926.499579776314,1178
1928.4560800188833,1238
1930.4120994198802,1211
1932.367638244833,1214
1934.32269675935,1220
1936.2772752291175,1169
1938.231373919899,1257
1940.1849930975404,1202
1942.1381330279637,1251
1944.0907939771696,1222
1946.0429762112412,1145
1947.9946799963363,1205
1949.9459055986945,1195
1951.896653284633,1158
1953.8469233205478,1195
1955.7967159729142,1192
1957.7460315082863,1242
1959.6948701932974,1161
1961.6432322946594,1195
1963.5911180791632,1206
1965.5385278136787,1134
1967.4854617651545,1202
1969.4319202006182,1253
1971.377903387176,1171
1973.3234115920136,1185
1975.268445082395,1241
1977.2130041256642,1159
1979.1570889892423,1169
1981.1006999406304,1187
1983.04383724741,1216
1984.986501177238,1175
1986.928691997853,1169
1988.8704099770712,1181
1990.811655382789,1195
1992.7524284829801,1174
1994.692729545698,1213
1996.6325588390755,1189
1998.5719166313224,1162
2000.5108031907307,1156
2002.4492187856677,1180
2004.387163684583,1163
2006.3246381560011,1147
2008.2616424685298,1169
2010.1981768908527,1204
2012.1342416917332,1155
2014.069837140014,1168
2016.0049635046162,1211
2017.9396210545406,1168
2019.8738100588666,1200
2021.8075307867502,1186
2023.740783507431,1174
2025.6735684902228,1167
2027.6058860045214,1182
2029.5377363198004,1173
2031.4691197056118,1171
2033.4000364315875,1154
2035.3304867674374,1196
2037.260470982952,1166
2039.189989347998,1210
2041.1190421325232,1211
2043.047629606554,1156
2044.9757520401945,1145
2046.9034097036288,1161
2048.8306028671195,1215
2050.7573318010086,1179
2052.683596775716,1153
2054.609398061742,1206
2056.5347359296647,1144
2058.4596106501403,1172
2060.384022493906,1227
2062.3079717317764,1241
2064.231458634646,1168
2066.1544834734873,1139
2068.077046519352,1148
2069.99914804337,1126
2071.9207883167524,1210
2073.8419676107865,1156
2075.7626861968406,1145
2077.6829443463607,1163
2079.6027423308715,1163
2081.522080421977,1164
2083.440958891362,1183
2085.359378010786,1115
2087.2773380520907,1157
2089.194839287196,1201
2091.111881988101,1169
2093.0284664268825,1166
2094.9445928756973,1146
2096.86026160678,1149
2098.775472892446,1127
2100.690227005088,1161
2102.604524217178,1165
2104.5183648012676,1191
2106.431749029985,1159
2108.34467717604,1132
2110.2571495122206,1173
2112.169166311393,1135
2114.080727846503,1183
2115.9918343905747,1172
2117.902486216711,1146
2119.8126835980956,1119
2121.722426807987,1196
2123.6317161197285,1158
2125.5405518067364,1132
2127.448934142509,1160
2129.356863400624,1214
2131.264339854737,1153
2133.1713637785815,1224
2135.077935445972,1158
2136.9840551308002,1174
2138.889723107037,1198
2140.7949396487334,1124
2142.699705030018,1230
2144.6040195250994,1209
2146.507883408264,1162
2148.4112969538774,1163
2150.3142604363848,1233
2152.2167741303097,1176
2154.1188383102535,1242
2156.0204532508997,1190
2157.9216192270064,1221
2159.822336513414,1179
2161.7226053850413,1193
2163.622426116884,1189
2165.5217989840185,1210
2167.4207242616,1205
2169.319202224862,1209
2171.2172331491165,1182
2173.1148173097563,1250
2175.0119549822507,1188
2176.90864644215,1207
2178.8048919650823,1221
2180.7006918267534,1146
2182.596046302952,1177
2184.4909556695407,1188
2186.3854202024645,1218
2188.279440177746,1234
2190.173015871487,1197
2192.066147559868,1191
2193.958835519149,1208
2195.851080025667,1185
2197.7428813558417,1160
2199.6342397861667,1182
2201.5251555932186,1137
2203.415629053651,1236
2205.3056604441986,1254
2207.19525004167,1228
2209.084398122958,1171
2210.9731049650327,1211
2212.861370844941,1202
2214.749196039812,1229
2216.636580826851,1216
2218.523525483344,1225
2220.410030286655,1237
2222.296095514226,1169
2224.1817214435805,1198
2226.066908352319,1227
2227.951656518121,1192
2229.835966218746,1202
2231.71983773203,1197
2233.6032713358913,1205
2235.486267308324,1211
2237.3688259274036,1174
2239.2509474712824,1230
2241.132632218193,1239
2243.013880446447,1179
2244.8946924344323,1197
2246.7750684606203,1174
2248.6550088035574,1224
2250.534513741871,1238
2252.413583554265,1231
2254.292218519526,1254
2256.170418916517,1167
2258.0481850241786,1208
2259.925517121534,1209
2261.8024154876825,1202
2263.678880401803,1237
2265.5549121431536,1197
2267.430510991071,1191
2269.305677224971,1181
2271.180411124348,1197
2273.0547129687766,1217
2274.9285830379076,1190
2276.8020216114737,1225
2278.6750289692845,1191
2280.5476053912294,1241
2282.4197511572766,1262
2284.2914665474727,1182
2286.162751841943,1196
2288.0336073208937,1214
2289.904033264608,1281
2291.774029953448,1206
2293.6435976678554,1224
2295.5127366883517,1185
2297.381447295534,1157
2299.2497297700825,1160
2301.1175843927526,1201
2302.9850114443825,1169
2304.852011205885,1147
2306.7185839582553,1131
2308.5847299825664,1114
2310.4504495599676,1117
2312.3157429716925,1113
2314.1806104990483,1139
2316.0450524234247,1121
2317.9090690262888,1100
2319.772660589186,1104
2321.635827393742,1131
2323.498569721661,1138
2325.3608878547248,1104
2327.2227820747967,1112
2329.0842526638157,1141
2330.945299903803,1183
2332.805924076857,1101
2334.6661254651535,1108
2336.525904350951,1096
2338.3852610165827,1121
2340.244195744464,1087
2342.102708817088,1116
2343.9608005170253,1104
2345.8184711269287,1114
2347.675720929526,1141
2349.532550207628,1124
2351.38895924412,1143
2353.24494832197,1096
2355.100517724223,1133
2356.955667734004,1128
2358.810398634514,1108
2360.664710709037,1097
2362.5186042409337,1159
2364.3720795136437,1115
2366.225136810686,1180
2368.0777764156583,1140
2369.929998612237,1088
2371.7818036841777,1153
2373.633191915315,1156
2375.484163589562,1122
2377.3347189909114,1100
2379.184858403434,1114
2381.03458211128,1198
2382.8838903986775,1136
2384.732783549936,1133
2386.5812618494406,1120
2388.4293255816588,1148
2390.2769750311327,1127
2392.1242104824883,1097
2393.971032220427,1220
2395.8174405297295,1179
2397.6634356952563,1182
2399.509018001947,1153
2401.3541877348193,1128
2403.1989451789705,1112
2405.043290619576,1152
2406.8872243418905,1152
2408.730746631247,1108
2410.5738577730594,1148
2412.4165580528183,1163
2414.258847756095,1154
2416.100727168537,1069
2417.9421965758734,1115
2419.783256263912,1178
2421.623906518538,1220
2423.4641476257157,1166
2425.303979871491,1151
2427.143403541984,1176
2428.9824189233977,1168
2430.821026302012,1216
2432.6592259641866,1141
2434.497018196361,1163
2436.33440328505,1189
2438.171381516851,1178
2440.00795317844,1185
2441.844118556569,1181
2443.6798779380724,1174
2445.5152316098606,1157
2447.3501798589255,1191
2449.1847229723357,1165
2451.0188612372403,1158
2452.8525949408663,1196
2454.6859243705203,1151
2456.518849813587,1177
2458.3513715575314,1163
2460.183489889895,1154
2462.015205098301,1212
2463.8465174704493,1200
2465.67742729412,1156
2467.5079348571717,1148
2469.338040447542,1146
2471.1677443532476,1181
2472.9970468623833,1131
2474.825948263123,1144
2476.6544488437207,1211
2478.482548892508,1166
2480.310248697896,1140
2482.137548548374,1179
2483.9644487325118,1169
2485.790949538956,1130
2487.617051256433,1159
2489.44275417375,1167
2491.26805857979,1123
2493.0929647635157,1156
2494.917473013971,1143
2496.741583620276,1162
2498.5652968716304,1150
2500.3886130573137,1169
2502.2115324666834,1231
2504.0340553891765,1197
2505.856182114308,1197
2507.6779129316733,1164
2509.499248130945,1233
2511.3201880018764,1188
2513.140732834298,1174
2514.9608829181198,1239
2516.780638543331,1191
2518.6,1211
2520.418967578273,1199
2522.237541568376,1192
2524.0557222606144,1217
2525.8735099453706,1204
2527.6909049131086,1252
2529.507907454368,1208
2531.32451785977,1198
2533.140736420014,1237
2534.9565634258774,1228
2536.771999168218,1218
2538.5870439379714,1207
2540.4016980261526,1241
2542.2159617238544,1183
2544.02983532225,1288
2545.8433191125914,1299
2547.656413386209,1237
2549.4691184345115,1272
2551.2814345489874,1254
2553.093362021204,1297
2554.904901142808,1272
2556.716052205523,1292
2558.526815501153,1333
2560.3371913215824,1308
2562.147179958771,1317
2563.956781704761,1330
2565.7659968516705,1275
2567.5748256916986,1321
2569.3832685171224,1365
2571.1913256202984,1369
2572.9989972936614,1334
2574.806283829725,1443
2576.613185521084,1394
2578.4197026604074,1417
2580.2258355404483,1425
2582.031584454035,1427
2583.836949694077,1327
2585.6419315535613,1351
2587.4465303255533,1407
2589.2507463032002,1351
2591.0545797797245,1341
2592.8580310484303,1417
2594.6611004026995,1338
2596.463788135992,1321
2598.266094541849,1322
2600.0680199138874,1373
2601.869564545807,1325
2603.670728731383,1396
2605.4715127644704,1368
2607.2719169390048,1350
2609.071941548998,1362
2610.8715868885433,1351
2612.670853251811,1375
2614.469740933052,1353
2616.268250226594,1322
2618.0663814268455,1351
2619.864134828292,1320
2621.6615107255006,1330
2623.458509413115,1341
2625.2551311858597,1345
2627.0513763385347,1344
2628.8472451660223,1357
2630.6427379632833,1330
2632.4378550253564,1313
2634.232596647359,1358
2636.026963124488,1372
2637.8209547520187,1267
2639.6145718253065,1361
2641.407814639785,1278
2643.200683490966,1298
2644.9931786744414,1262
2646.7853004858807,1257
2648.577049221034,1254
2650.3684251757277,1297
2652.1594286458712,1334
2653.9500599274484,1265
2655.740319316525,1257
2657.5302071092437,1283
2659.3197236018286,1269
2661.10886909058,1299
2662.8976438718782,1266
2664.686048242183,1292
2666.4740824980327,1214
2668.2617469360443,1240
2670.0490418529134,1225
2671.8359675454153,1242
2673.622524310403,1295
2675.408712444811,1271
2677.1945322456495,1270
2678.979984010009,1202
2680.76506803506,1188
2682.5497846180497,1236
2684.334134056306,1212
2686.1181166472343,1204
2687.9017326883213,1198
2689.6849824771293,1201
2691.4678663113013,1217
2693.2503844885596,1170
2695.032537306705,1214
2696.8143250636167,1206
2698.5957480572542,1157
2700.3768065856534,1209
2702.1575009469316,1169
2703.937831439283,1186
2705.717798360982,1152
2707.4974020103837,1214
2709.276642685917,1175
2711.055520686095,1135
2712.834036309506,1176
2714.612189854819,1139
2716.389981620782,1172
2718.1674119062204,1154
2719.944481010041,1123
2721.721189231226,1172
2723.4975368688415,1104
2725.273524222027,1155
2727.0491515900053,1131
2728.824419272075,1164
2730.5993275676146,1122
2732.3738767760838,1152
2734.148067197016,1147
2735.921899130031,1135
2737.6953728748194,1120
2739.468488731156,1083
2741.2412469988926,1113
2743.0136479779617,1143
2744.785691968372,1138
2746.5573792702116,1127
2748.3287101836504,1105
2750.099685008934,1124
2751.870304046388,1062
2753.640567596418,1132
2755.4104759595057,1148
2757.1800294362156,1115
2758.949228327187,1071
2760.7180729331412,1117
2762.486563554877,1101
2764.254700493272,1076
2766.022484049284,1090
2767.789914523947,1131
2769.5569922183786,1132
2771.3237174337705,1132
2773.090090471394,1097
2774.8561116326036,1079
2776.6217812188274,1088
2778.3870995315756,1082
2780.1520668724356,1103
2781.9166835430747,1100
2783.6809498452394,1041
2785.444866080754,1141
2787.2084325515225,1090
2788.971649559527,1083
2790.73451740683,1090
2792.4970363955713,1121
2794.2592068279705,1104
2796.0210290063264,1132
2797.7825032330147,1152
2799.543629810493,1116
2801.304409041296,1112
2803.0648412280366,1084
2804.8249266734088,1110
2806.5846656801846,1123
2808.344058551212,1141
2810.1031055894246,1111
2811.8618070978273,1141
2813.6201633795085,1173
2815.378174737636,1152
2817.1358414754536,1175
2818.893163896285,1093
2820.6501423035334,1111
2822.4067770006814,1158
2824.1630682912883,1119
2825.9190164789957,1077
2827.6746218675207,1118
2829.429884760661,1145
2831.184805462294,1139
2832.9393842763743,1130
2834.693621506936,1101
2836.4475174580916,1134
2838.201072434034,1117
2839.954286739034,1137
2841.707160677441,1072
2843.459694553685,1101
2845.2118886722724,1078
2846.96374333779,1156
2848.7152588549034,1075
2850.4664355283567,1090
2852.217273662973,1132
2853.9677735636546,1158
2855.7179355353833,1134
2857.4677598832186,1125
2859.217246912299,1095
2860.9663969278427,1124
2862.715210235146,1108
2864.4636871395846,1127
2866.211827946614,1125
2867.9596329617652,1146
2869.7071024906536,1092
2871.4542368389684,1114
2873.20103631248,1120
2874.947501217038,1098
2876.6936318585695,1072
2878.4394285430812,1086
2880.1848915766604,1107
2881.9300212654707,1098
2883.6748179157553,1080
2885.4192818338374,1106
2887.1634133261173,1080
2888.907212699077,1100
2890.6506802592744,1083
2892.393816313348,1073
2894.1366211680142,1094
2895.8790951300693,1143
2897.621238506388,1119
2899.363051603925,1149
2901.1045347297118,1115
2902.8456881908596,1122
2904.58651229456,1092
2906.327007348081,1108
2908.067173658772,1107
2909.8070115340597,1108
2911.5465212814497,1106
2913.285703208527,1126
2915.0245576229563,1126
2916.7630848324807,1124
2918.5012851449196,1125
2920.2391588681758,1102
2921.976706310227,1117
2923.7139277791334,1146
2925.4508235830313,1092
2927.187394030137,1098
2928.923639428745,1114
2930.6595600872306,1069
2932.395156314046,1135
2934.1304284177218,1113
2935.8653767068713,1121
2937.6000014901815,1125
2939.3343030764227,1080
2941.068281774442,1103
2942.8019378931644,1071
2944.5352717415976,1080
2946.2682836288236,1093
2948.0009738640065,1145
2949.7333427563885,1155
2951.465390615289,1061
2953.1971177501086,1140
2954.9285244703265,1107
2956.6596110855,1108
2958.3903779052657,1157
2960.1208252393385,1063
2961.8509533975125,1070
2963.5807626896617,1099
2965.3102534257378,1118
2967.0394259157715,1123
2968.768280469873,1098
2970.496817398232,1044
2972.2250370111146,1045
2973.952939618869,1115
2975.6805255319196,1141
2977.4077950607707,1144
2979.134748516006,1132
2980.861386208289,1109
2982.587708448359,1158
2984.313715547037,1107
2986.039407815222,1061
2987.764785563891,1106
2989.489849104102,1043
2991.2145987469908,1071
2992.9390348037705,1094
2994.6631575857346,1093
2996.3869674042576,1097
2998.1104645707887,1092
2999.83364939686,1107
3001.5565221940783,1100
3003.2790832741334,1081
3005.0013329487924,1103
3006.7232715298996,1101
3008.4448993293804,1085
3010.166216659239,1111
3011.887223831558,1057
3013.607921158498,1060
3015.3283089522993,1072
3017.0483875252826,1074
3018.7681571898443,1078
3020.4876182584626,1065
3022.2067710436927,1122
3023.9256158581707,1064
3025.644153014609,1121
3027.362382825801,1032
3029.0803056046193,1116
3030.797921664012,1042
3032.5152313170106,1056
3034.2322348767225,1063
3035.9489326563353,1066
3037.665324969115,1071
3039.3814121284063,1079
3041.097194447633,1082
3042.812672240299,1098
3044.5278458199855,1076
3046.2427155003525,1136
3047.9572815951406,1067
3049.671544418167,1062
3051.38550428333,1077
3053.0991615046073,1086
3054.812516396051,1057
3056.5255692717974,1048
3058.2383204460575,1097
3059.9507702331257,1090
3061.662918947372,1093
3063.3747669032446,1058
3065.0863144152736,1091
3066.7975617980674,1061
3068.508509366309,992
3070.219157434767,1056
3071.9295063182844,1061
3073.639556331785,1088
3075.3493077902704,1096
3077.058761008821,1088
3078.7679163025964,1066
3080.476773986837,1044
3082.1853343768594,1114
3083.89359778806,1100
3085.6015645359153,1107
3087.3092349359786,1117
3089.016609303884,1099
3090.7236879553434,1134
3092.4304712061476,1120
3094.136959372166,1053
3095.843152769349,1071
3097.5490517137237,1115
3099.2546565213966,1074
3100.959967508554,1070
3102.66498499146,1081
3104.3697092864577,1123
3106.0741407099695,1056
3107.778279578498,1030
3109.482126208622,1064
3111.1856809170004,1110
3112.8889440203716,1079
3114.5919158355528,1094
3116.294596679439,1049
3117.996986869006,1155
3119.6990867213062,1073
3121.4008965534726,1096
3123.102416682717,1087
3124.803647426329,1083
3126.5045891016784,1091
3128.205242026213,1115
3129.90560651746,1067
3131.605682893025,1094
3133.3054714705922,1085
3135.0049725679282,1135
3136.7041865028714,1119
3138.4031135933465,1068
3140.101754157353,1112
3141.800108512971,1122
3143.498176978357,1097
3145.1959598717494,1089
3146.8934575114636,1102
3148.5906702158954,1077
3150.2875983035183,1124
3151.9842420928853,1098
3153.680601902627,1084
3155.376678051456,1092
3157.07247085816,1076
3158.767980641609,1112
3160.463207720748,1118
3162.158152414606,1089
3163.8528150422862,1055
3165.5471959229726,1079
3167.2412953759303,1053
3168.9351137204976,1111
3170.628651276098,1073
3172.3219083622307,1061
3174.014885298474,1084
3175.707582404485,1096
3177.4000000000005,1049
3179.092138404835,1065
3180.7839979388846,1098
3182.47557892212,1098
3184.166881674594,1076
3185.8579065164386,1056
3187.5486537678626,1065
3189.2391237491547,1000
3190.9293167806827,1117
3192.6192331828934,1092
3194.3088732763117,1067
3195.998237381542,1092
3197.687325819268,1074
3199.376138910251,1075
3201.064676975334,1099
3202.7529403354347,1078
3204.4409293115523,1068
3206.1286442247647,1008
3207.816085396229,1056
3209.5032531471825,1118
3211.190147798936,1096
3212.8767696728846,1125
3214.5631190905015,1046
3216.2491963733373,1078
3217.9350018430214,1039
3219.6205358212637,1064
3221.305798629851,1101
3222.990790590651,1051
3224.6755120256103,993
3226.359963256751,1076
3228.0441446061795,1064
3229.7280563960758,1089
3231.411698948703,1037
3233.0950725863995,1059
3234.778177631587,1054
3236.461014406761,1038
3238.1435832345005,1090
3239.8258844374595,1078
3241.507918338374,1129
3243.1896852600576,1041
3244.8711855254023,1085
3246.552419457381,1122
3248.233387379042,1069
3249.914089613516,1061
3251.59452648401,1012
3253.274698313813,1102
3254.95460542629,1107
3256.6342481448855,1062
3258.313626793125,1084
3259.9927416946084,1019
3261.6715931730196,1031
3263.3501815521176,1066
3265.0285071557437,1008
3266.706570307815,1011
3268.3843713323286,1048
3270.0619105533615,1037
3271.739188295068,1037
3273.4162048816834,1068
3275.0929606375184,1079
3276.769455886966,1086
3278.445690954498,1029
3280.1216661646613,1044
3281.797381842087,1039
3283.4728383114807,1103
3285.1480358976296,1057
3286.8229749253996,1070
3288.4976557197333,1058
3290.172078605655,1076
3291.846243908266,1037
3293.5201519527463,1054
3295.193803064357,1022
3296.8671975684374,1007
3298.5403357904024,1036
3300.21321805575,1009
3301.8858446900567,1067
3303.558216018975,1038
3305.23033236824,1086
3306.9021940636603,1058
3308.57380143113,1082
3310.2451547966184,1103
3311.916254486174,1107
3313.5871008259246,1061
3315.2576941420766,1073
3316.9280347609147,1070
3318.5981230088046,1043
3320.2679592121895,1079
3321.9375436975924,1023
3323.606876791612,1009
3325.27595882093,1077
3326.944790112305,1027
3328.6133709925753,1071
3330.2817017886573,1035
3331.949782827547,1051
3333.617614436319,1052
3335.2851969421245,1078
3336.952530672199,1094
3338.619615953853,1051
3340.286453114475,1049
3341.9530424815357,1070
3343.619384382583,1103
3345.2854791452437,1071
3346.951327097224,1035
3348.6169285663073,1079
3350.2822838803577,1031
3351.947393367319,1048
3353.61225735521,1046
3355.2768761721345,1048
3356.9412501462693,1044
3358.605379605873,1067
3360.2692648792827,1039
3361.9329062949146,1064
3363.596304181263,1037
