CollectionTime,9/25/2024 11:33:51 AM
ExposureUsed,3
CalibratedSpectrum
-962.7078968117929,485
-959.9714848408522,499
-957.2358232597828,531
-954.5009119013725,532
-951.7667505983302,539
-949.0333391832855,533
-946.3006774887896,534
-943.5687653473143,530
-940.837602591253,507
-938.1071890529199,541
-935.3775245645503,533
-932.6486089583007,504
-929.9204420662485,536
-927.1930237203925,561
-924.4663537526524,544
-921.7404319948689,558
-919.0152582788041,550
-916.2908324361409,587
-913.5671542984834,601
-910.8442236973568,543
-908.1220404642074,543
-905.4006044304027,563
-902.679915427231,565
-899.959973285902,519
-897.2407778375464,555
-894.5223289132158,560
-891.8046263438832,542
-889.0876699604426,518
-886.3714595937089,534
-883.6559950744183,495
-880.9412762332282,546
-878.2273029007168,501
-875.5140749073835,467
-872.8015920836489,552
-870.0898542598545,517
-867.3788612662631,502
-864.6686129330585,491
-861.9591090903457,491
-859.2503495681506,476
-856.5423341964203,491
-853.8350628050229,477
-851.1285352237478,501
-848.4227512823054,496
-845.7177108103272,561
-843.0134136373656,510
-840.3098595928943,550
-837.6070485063082,529
-834.9049802069229,534
-832.2036545239757,507
-829.5030712866244,532
-826.8032303239481,514
-824.1041314649472,510
-821.4057745385428,522
-818.7081593735775,506
-816.0112857988148,502
-813.3151536429393,541
-810.6197627345566,552
-807.9251129021936,517
-805.2312039742981,538
-802.5380357792392,513
-799.8456081453069,486
-797.1539209007124,519
-794.462973873588,509
-791.772766891987,534
-789.083299783884,514
-786.3945723771743,522
-783.7065844996748,541
-781.0193359791231,507
-778.3328266431781,528
-775.6470563194197,535
-772.9620248353489,517
-770.2777320183878,498
-767.5941776958798,520
-764.9113616950891,529
-762.2292838432011,505
-759.5479439673222,530
-756.8673418944801,517
-754.1874774516235,530
-751.5083504656222,555
-748.8299607632671,563
-746.15230817127,516
-743.475392516264,540
-740.7992136248035,530
-738.1237713233636,550
-735.4490654383407,525
-732.7750957960521,541
-730.1018622227365,534
-727.4293645445534,540
-724.7576025875837,530
-722.0865761778291,548
-719.4162851412126,559
-716.7467293035781,573
-714.0779084906909,579
-711.409822528237,579
-708.7424712418238,581
-706.0758544569796,604
-703.4099719991541,586
-700.7448236937178,580
-698.0804093659622,567
-695.4167288411002,580
-692.7537819442656,539
-690.0915685005134,533
-687.4300883348199,589
-684.7693412720819,593
-682.1093271371178,570
-679.4500457546669,562
-676.7914969493897,552
-674.1336805458676,574
-671.4765963686034,577
-668.8202442420206,589
-666.1646239904642,575
-663.5097354382001,543
-660.8555784094151,550
-658.2021527282176,577
-655.5494582186366,588
-652.8974947046223,561
-650.2462620100463,589
-647.5957599587009,567
-644.9459883742998,615
-642.2969470804776,611
-639.6486359007902,602
-637.0010546587141,577
-634.3542031776476,606
-631.7080812809096,613
-629.0626887917401,581
-626.4180255333008,660
-623.7740913286734,666
-621.1308860008619,742
-618.4884093727904,642
-615.8466612673046,602
-613.2056415071715,651
-610.5653499150785,627
-607.9257863136347,651
-605.28695052537,647
-602.6488423727357,676
-600.0114616781036,637
-597.3748082637674,646
-594.7388819519412,690
-592.1036825647604,738
-589.4692099242818,737
-586.8354638524829,730
-584.2024441712624,699
-581.5701507024403,707
-578.9385832677575,641
-576.3077416888759,634
-573.6776257873787,685
-571.0482353847704,658
-568.4195703024757,641
-565.7916303618415,637
-563.164415384135,681
-560.5379251905453,653
-557.9121596021815,624
-555.2871184400748,623
-552.6628015251767,649
-550.0392086783606,660
-547.4163397204204,728
-544.794194472071,685
-542.1727727539491,722
-539.5520743866118,737
-536.9320991905377,738
-534.3128469861261,749
-531.6943175936979,783
-529.0765108334947,797
-526.4594265256793,905
-523.8430644903358,1073
-521.2274245474689,1224
-518.612506517005,1264
-515.9983102187913,1371
-513.3848354725959,1575
-510.77208209810846,1716
-508.16004991493924,1961
-505.5487387426199,2111
-502.9381484006032,2214
-500.3282787082628,2017
-497.71912948489364,1837
-495.1107005497117,1584
-492.5029917218539,1319
-489.8960028203786,1152
-487.28973366426493,975
-484.68418407241325,971
-482.07935386364494,861
-479.47524285670266,840
-476.87185087025,848
-474.2691777228715,867
-471.66722323307334,817
-469.0659872192821,831
-466.4654694998459,816
-463.86566989303384,846
-461.26658821703614,811
-458.66822428996414,855
-456.07057792985,862
-453.4736489546475,867
-450.877437182231,894
-448.28194243039627,867
-445.68716451686,762
-443.09310325926003,806
-440.49975847515555,799
-437.9071299820263,823
-435.31521759727354,823
-432.72402113821954,853
-430.13354042210767,909
-427.5437752661022,867
-424.95472548728867,862
-422.36639090267386,859
-419.7787713291855,896
-417.1918665836721,925
-414.60567648290385,951
-412.0202008435715,958
-409.4354394822874,813
-406.8513922155845,899
-404.26805885991723,870
-401.685439231661,852
-399.103533147112,885
-396.522340422488,867
-393.9418608739278,849
-391.3620943174908,845
-388.7830405691583,861
-386.2046994448317,834
-383.6270707603344,855
-381.05015433141045,799
-378.473949973725,776
-375.8984575028645,748
-373.32367673433623,759
-370.74960748356875,708
-368.1762495659117,693
-365.60360279663576,662
-363.03166699093265,581
-360.4604419639154,602
-357.8899275306178,576
-355.32012350599507,524
-352.7510297049233,562
-350.1826459421999,525
-347.61497203254316,547
-345.04800779059235,541
-342.4817530309082,553
-339.91620756797226,663
-337.35137121618743,626
-334.7872437898774,630
-332.22382510328725,655
-329.66111497058273,636
-327.09911320585127,625
-324.53781962310075,563
-321.9772340362607,563
-319.4173562591816,575
-316.8581861056348,534
-314.2997233893127,561
-311.7419679238294,551
-309.1849195227194,551
-306.62857799943856,568
-304.0729431673641,647
-301.51801483979375,637
-298.963792829947,659
-296.41027695096386,592
-293.85746701590574,597
-291.3053628377552,749
-288.7539642294155,747
-286.2032710037115,666
-283.65328297338897,695
-281.1039999511146,771
-278.5554217494762,986
-276.007548180983,949
-273.4603790580651,841
-270.9139141930734,733
-268.3681533982807,658
-265.8230964858798,681
-263.27874326798565,770
-260.7350935566336,758
-258.1921471637804,809
-255.6499039013039,843
-253.10836358100266,760
-250.56752601459698,793
-248.02739101372765,806
-245.48795838995704,925
-242.94922795476816,824
-240.41119951956557,757
-237.8738728956746,804
-235.33724789434166,922
-232.80132432673452,865
-230.2661020039418,830
-227.73158073697357,846
-225.19776033676033,997
-222.66464061415422,1085
-220.1322213799284,978
-217.60050244477725,798
-215.06948361931552,815
-212.53916471408013,953
-210.00954553952818,1187
-207.48062590603843,1161
-204.9524056239104,1047
-202.4248845033651,1066
-199.8980623545441,1055
-197.37193898751036,1081
-194.84651421224817,1070
-192.32178783866232,1055
-189.79775967657952,1130
-187.27442953574644,1182
-184.7517972258321,1350
-182.2298625564256,1338
-179.7086253370378,1176
-177.18808537710026,1128
-174.66824248596583,1435
-172.14909647290835,1485
-169.6306471471229,1294
-167.11289431772548,1022
-164.59583779375328,1028
-162.07947738416453,1214
-159.5638128978386,1440
-157.04884414357605,1595
-154.53457093009854,1528
-152.02099306604828,1275
-149.50811035998936,1104
-146.99592262040665,1167
-144.48442965570587,1425
-141.97363127421409,1877
-139.46352728417958,2245
-136.95411749377126,2007
-134.44540171107985,1531
-131.93737974411636,1296
-129.43005140081357,1367
-126.92341648902493,1875
-124.41747481652521,2690
-121.91222619101006,4088
-119.40767042009657,4686
-116.90380731132257,4793
-114.40063667214702,4474
-111.8981583099503,3881
-109.3963720320337,3877
-106.89527764561933,3638
-104.39487495785067,4057
-101.89516377579241,5407
-99.39614390642998,7491
-96.89781515667039,9637
-94.40017733334128,9995
-91.90323024319173,8812
-89.40697369289148,7827
-86.91140748903172,5890
-84.41653143812482,6217
-81.92234534660395,9415
-79.42884902082358,13622
-76.93604226705907,16361
-74.4439248915071,20633
-71.95249670028534,29826
-69.46175749943245,40702
-66.97170709490854,50972
-64.48234529259423,56602
-61.99367189829195,58317
-59.50568671772464,49812
-57.01838955653636,35433
-54.53178022029283,28172
-52.045858514480074,25424
-49.560624244506016,21774
-47.07607721569923,19983
-44.59221723330904,20463
-42.10904410250669,20590
-39.62655762838392,17759
-37.14475761595372,15710
-34.66364387015028,17304
-32.18321619582866,17056
-29.70347439776515,20948
-27.224418280657005,24392
-24.74604764912317,30517
-22.26836230770266,50100
-19.7913620608565,65041
-17.315046712966478,65041
-14.83941606833514,65041
-12.36446993118659,65041
-9.89020810566592,65041
-7.416630395839093,65041
-4.94373660569363,65041
-2.471526539137585,65041
-6.821210263296962E-13,65041
2.47084320796705,65041
4.941003281093458,65041
7.410480415786196,65041
9.879274808531363,65041
12.347386655893956,65041
14.814816154518212,65041
17.28156350112681,65041
19.74762889252179,65041
22.21301252558385,24572
24.67771459727237,6845
27.141735304626195,5182
29.605074844762612,5710
32.06773341487792,5554
34.52971121224755,4164
36.99100843422559,4831
39.45162527824516,6822
41.91156194181792,6084
44.370818622535126,4541
46.82939551806646,4162
49.287292826160524,3989
51.74451074464503,4230
54.201049471426245,4938
56.65690920448981,4262
59.112090141899785,3790
61.56659248179983,3237
64.02041642241159,2308
66.4735621620365,2266
68.92602989905402,2266
71.37781983192338,2161
73.82893215918205,1949
76.27936707944684,2267
78.72912479141326,2805
81.17820549385567,2647
83.62660938562783,2510
86.07433666566146,2624
88.5213875329681,2888
90.96776218663751,2054
93.41346082583925,1510
95.85848364982041,1680
98.30283085790859,2004
100.7465026495089,2436
103.18949922410604,2513
105.63182078126385,2935
108.07346752062438,2164
110.51443964190923,1754
112.95473734491827,1506
115.39436082953114,1305
117.83331029570547,1455
120.27158594347827,1556
122.7091879729652,1593
125.1461165843615,1797
127.58237197794062,1495
130.01795435405518,1426
132.4528639131364,1432
134.88710085569494,1581
137.32066538231982,1487
139.75355769367923,1405
142.1857779905207,1246
144.61732647366978,1302
147.04820334403132,1362
149.47840880258934,1586
151.90794305040674,1288
154.33680628862487,1233
156.76499871846443,1386
159.19252054122433,1547
161.61937195828352,1685
164.04555317109896,1748
166.47106438120693,1805
168.89590579022217,2020
171.320077599839,1945
173.7435800118302,2013
176.16641322804742,2176
178.58857745042144,2234
181.01007288096173,2338
183.43089972175687,2454
185.85105817497413,2441
188.27054844285988,2292
190.6893707277394,2261
193.10752523201643,2179
195.5250121581745,2293
197.9418317087751,2383
200.3579840864594,2293
202.7734694939469,2277
205.18828813403627,2364
207.6024402096051,2467
210.01592592360964,2429
212.42874547908548,2464
214.84089907914665,2402
217.2523869269868,2453
219.66320922587727,2386
222.0733661791695,2377
224.48285799029293,2360
226.8916848627572,2317
229.29984700014882,2515
231.7073446061355,2528
234.11417788446204,2464
236.520347038953,2367
238.92585227351185,2293
241.33069379212054,2354
243.73487179884035,2397
246.1383864978112,2418
248.541238093252,2377
250.9434267894609,2400
253.34495279081432,2522
255.74581630176783,2546
258.1460175268563,2407
260.54555667069314,2402
262.9444339379703,2418
265.3426495334594,2428
267.7402036620107,2514
270.1370965285529,2622
272.53332833809407,2622
274.9288992957214,2488
277.32380960660055,2453
279.718059475976,2455
282.1116491091717,2446
284.5045787115897,2482
286.89684848871195,2486
289.2884586460981,2411
291.67940938938807,2436
294.0697009242996,2528
296.4593334566299,2489
298.84830719225477,2543
301.23662233712923,2570
303.6242790972866,2492
306.01127767884,2473
308.39761828798066,2416
310.78330113097934,2348
313.16832641418534,2283
315.5526943440269,2268
317.9364051270112,2227
320.3194589697242,2268
322.70185607883093,2233
325.0835966610754,2194
327.4646809232805,2212
329.8451090723478,2108
332.2248813152577,2210
334.6039978590701,2135
336.9824589109231,2100
339.36026467803447,2089
341.7374153677,2096
344.113911187295,1974
346.48975234427337,2035
348.8649390461686,2132
351.2394715005918,2020
353.61334991523415,2024
355.9865744978655,2059
358.35914545633375,2055
360.73106299856715,2102
363.10232733257146,1947
365.47293866643247,2045
367.84289720831396,1999
370.2122031664593,1890
372.5808567491905,1934
374.9488581649083,1995
377.31620762209275,1951
379.6829053293021,1914
382.0489514951745,1945
384.4143463284262,1906
386.7790900378528,1951
389.14318283232853,1883
391.50662492080653,1899
393.86941651231916,1907
396.23155781597745,1939
398.5930490409713,1987
400.9538903965696,1954
403.3140820921202,1957
405.6736243370498,1974
408.03251734086336,1891
410.3907613131465,1847
412.74835646356166,1910
415.10530300185144,1944
417.4616011378372,1975
419.81725108141893,1914
422.1722530425758,1862
424.5266072313656,1859
426.880313857925,1935
429.2333731324701,1811
431.58578526529516,1885
433.9375504667738,1843
436.2886689473588,1878
438.63914091758113,1894
440.9889665880513,1764
443.33814616945835,1788
445.68667987257015,1779
448.03456790823395,1807
450.3818104873759,1766
452.72840782100013,1763
455.07436012019105,1765
457.41966759611057,1785
459.7643304600007,1814
462.10834892318155,1697
464.4517231970525,1799
466.79445349309174,1833
469.1365400228566,1777
471.4779829979826,1743
473.81878263018564,1757
476.15893913125876,1883
478.4984527130747,1785
480.8373235875855,1907
483.17555196682144,1977
485.5131380628919,2051
487.8500820879857,2177
490.1863842543697,2169
492.52204477439034,2333
494.8570638604725,2506
497.1914417251204,2942
499.52517858091653,3547
501.85827464052306,4231
504.19073011668036,4775
506.5225452222086,5005
508.85372017000566,5094
511.18425517304956,5158
513.514150444396,5192
515.8434061971808,6038
518.1720226446176,6670
520.4999999999999,6543
522.8273384766991,6095
525.1540382881666,5491
527.480099647932,4758
529.8055227696037,3845
532.1303078668694,2812
534.454455153496,2291
536.777964843328,2129
539.1008371502907,2083
541.4230722883866,1964
543.744670471698,1882
546.0656319143858,1933
548.3859568306899,1958
550.7056454349294,1915
553.0246979415016,1987
555.3431145648834,1978
557.6608955196306,1931
559.978041020377,1819
562.2945512818363,1906
564.6104265188006,1882
566.9256669461412,1850
569.2402727788082,1874
571.5542442318302,1830
573.8675815203156,1889
576.1802848594508,1822
578.4923544645015,1836
580.8037905508126,1855
583.114593333807,1878
585.4247630289875,1880
587.7342998519354,1750
590.0432040183106,1913
592.3514757438526,1889
594.6591152443794,1921
596.9661227357875,1911
599.2724984340531,1877
601.578242555231,1850
603.8833553154542,1836
606.1878369309362,1827
608.4916876179676,1832
610.7949075929192,1824
613.0974970722403,1799
615.3994562724587,1781
617.7007854101818,1865
620.0014847020951,1829
622.3015543649641,1818
624.6009946156324,1793
626.8998056710224,1785
629.1979877481361,1846
631.4955410640538,1838
633.7924658359349,1835
636.0887622810175,1859
638.3844306166192,1796
640.6794710601358,1797
642.9738838290426,1884
645.2676691408932,1954
647.5608272133207,1871
649.853358264037,1852
652.1452625108324,1849
654.4365401715764,1844
656.7271914642178,1769
659.0172166067838,1875
661.3066158173809,1857
663.5953893141935,1825
665.8835373154867,1889
668.1710600396028,1793
670.4579577049639,1849
672.7442305300709,1926
675.0298787335033,1809
677.3149025339197,1826
679.599302150058,1930
681.8830778007342,1839
684.1662297048437,1787
686.4487580813608,1917
688.7306631493387,1878
691.0119451279091,1892
693.2926042362834,1856
695.5726406937516,1871
697.8520547196814,1854
700.1308465335215,1898
702.4090163547982,1883
704.6865644031171,1771
706.9634908981619,1827
709.2397960596965,1805
711.5154801075631,1884
713.7905432616823,1815
716.0649857420548,1818
718.3388077687592,1870
720.612009561953,1840
722.8845913418733,1781
725.1565533288352,1845
727.427895743234,1817
729.6986188055427,1783
731.9687227363137,1821
734.238207756178,1777
736.5070740858458,1828
738.7753219461066,1880
741.0429515578281,1790
743.3099631419569,1859
745.5763569195191,1853
747.8421331116193,1839
750.1072919394409,1803
752.3718336242467,1844
754.6357583873777,1845
756.8990664502545,1886
759.1617580343765,1866
761.423833361321,1853
763.6852926527457,1799
765.9461361303862,1858
768.206364016058,1897
770.4659765316536,1935
772.7249738991469,1877
774.9833563405886,1849
777.2411240781092,1858
779.4982773339183,1921
781.7548163303044,1911
784.010741289634,1894
786.2660524343538,1928
788.5207499869881,1921
790.7748341701416,1908
793.0283052064964,1913
795.2811633188143,1886
797.5334087299362,1986
799.7850416627813,1853
802.0360623403484,1910
804.2864709857143,1888
806.5362678220353,1917
808.7854530725468,1950
811.0340269605625,1945
813.2819897094754,1889
815.5293415427581,1969
817.77608268396,1883
820.0222133567116,1873
822.2677337847211,1860
824.5126441917765,1910
826.7569448017433,1949
829.0006358385675,1892
831.2437175262731,1853
833.4861900889629,1926
835.7280537508192,1873
837.9693087361026,1990
840.2099552691533,1920
842.4499935743896,1857
844.689423876309,1895
846.9282463994886,1878
849.1664613685833,1843
851.4040690083276,1874
853.6410695435349,1868
855.877463199097,1775
858.1132501999847,1855
860.3484307712487,1871
862.5830051380175,1895
864.8169735254988,1837
867.0503361589791,1967
869.2830932638243,1910
871.5152450654786,1921
873.7467917894654,1846
875.9777336613873,1937
878.2080709069252,1937
880.4378037518389,1893
882.666932421968,1879
884.8954571432301,1904
887.1233781416219,1928
889.3506956432192,1945
891.5774098741766,1950
893.803521060728,1953
896.0290294291852,1914
898.2539352059397,1985
900.4782386174619,1923
902.7019398903011,1936
904.925039251085,2023
907.147536926521,2062
909.3694331433943,1940
911.59072812857,2022
913.8114221089921,1926
916.0315153116827,2013
918.2510079637437,1910
920.4699002923547,1961
922.6881925247761,1916
924.905884888345,1919
927.1229776104793,1955
929.3394709186747,1954
931.555365040506,1947
933.7706602036275,2026
935.9853566357709,1985
938.1994545647489,2041
940.4129542184515,1990
942.6258558248488,1947
944.8381596119883,1967
947.0498658079974,1985
949.2609746410825,2047
951.4714863395287,2066
953.6814011316998,1916
955.8907192460387,1953
958.0994409110671,1975
960.3075663553858,1907
962.5150958076741,1934
964.7220294966913,1893
966.928367651274,1931
969.1341105003388,1860
971.3392582728806,1881
973.5438111979742,1877
975.747769504772,1840
977.9511334225061,1816
980.153903180487,1773
982.3560790081052,1794
984.5576611348289,1816
986.7586497902058,1788
988.9590452038618,1766
991.158847605503,1795
993.3580572249133,1814
995.5566742919558,1720
997.7546990365728,1717
999.952131688785,1666
1002.1489724786926,1598
1004.3452216364743,1609
1006.5408793923874,1684
1008.7359459767691,1518
1010.9304216200343,1545
1013.1243065526781,1613
1015.3176010052733,1604
1017.510305208472,1548
1019.7024193930064,1499
1021.8939437896848,1547
1024.0848786293977,1522
1026.2752241431122,1512
1028.4649805618747,1517
1030.6541481168115,1486
1032.842727039127,1419
1035.0307175601051,1455
1037.2181199111074,1465
1039.4049343235752,1490
1041.591161029029,1441
1043.7768002590683,1411
1045.9618522453698,1441
1048.1463172196918,1488
1050.3301954138697,1410
1052.513487059818,1407
1054.69619238953,1464
1056.8783116350783,1446
1059.0598450286152,1394
1061.2407928023704,1452
1063.4211551886528,1393
1065.6009324198508,1412
1067.780124728432,1398
1069.9587323469414,1440
1072.1367555080046,1477
1074.314194444325,1412
1076.4910493886855,1445
1078.667320573947,1425
1080.843008233051,1453
1083.0181125990161,1406
1085.1926339049414,1406
1087.3665723840027,1409
1089.5399282694575,1404
1091.7127017946405,1352
1093.8848931929647,1405
1096.0565026979243,1396
1098.2275305430899,1419
1100.3979769621128,1391
1102.567842188722,1381
1104.737126456726,1406
1106.9058300000124,1353
1109.0739530525475,1311
1111.2414958483764,1308
1113.4084586216231,1357
1115.5748416064907,1329
1117.7406450372605,1379
1119.9058691482942,1369
1122.0705141740304,1387
1124.2345803489884,1344
1126.3980679077658,1381
1128.5609770850388,1368
1130.7233081155623,1360
1132.8850612341707,1342
1135.0462366757774,1380
1137.2068346753745,1339
1139.3668554680326,1359
1141.526299288901,1311
1143.68516637321,1330
1145.8434569562655,1371
1148.001171273455,1369
1150.158309560244,1345
1152.3148720521767,1422
1154.470858984876,1379
1156.626270594044,1362
1158.7811071154629,1316
1160.9353687849912,1352
1163.089055838569,1358
1165.242168512213,1321
1167.3947070420209,1368
1169.5466716641677,1336
1171.6980626149075,1317
1173.8488801305748,1313
1175.9991244475814,1422
1178.1487958024186,1317
1180.2978944316555,1342
1182.4464205719428,1341
1184.5943744600072,1343
1186.7417563326567,1285
1188.8885664267755,1325
1191.0348049793297,1336
1193.1804722273619,1277
1195.325568407995,1364
1197.4700937584303,1355
1199.614048515948,1349
1201.7574329179074,1388
1203.900247201746,1277
1206.042491604982,1335
1208.1841663652099,1345
1210.3252717201053,1352
1212.465807907422,1291
1214.6057751649923,1328
1216.7451737307279,1358
1218.8840038426192,1410
1221.0222657387353,1347
1223.1599596572241,1393
1225.2970858363137,1420
1227.4336445143094,1308
1229.5696359295966,1363
1231.705060320639,1353
1233.8399179259786,1398
1235.9742089842384,1356
1238.107933734118,1346
1240.2410924143974,1370
1242.373685263935,1371
1244.5057125216676,1337
1246.6371744266116,1343
1248.7680712178621,1325
1250.898403134593,1374
1253.028170416058,1415
1255.1573733015875,1401
1257.2860120305932,1437
1259.4140868425648,1378
1261.54159797707,1321
1263.6685456737569,1408
1265.7949301723515,1413
1267.9207517126597,1391
1270.046010534565,1412
1272.1707068780306,1407
1274.2948409830983,1341
1276.4184130898889,1364
1278.541423438603,1393
1280.6638722695184,1380
1282.785759822993,1463
1284.9070863394636,1381
1287.0278520594447,1392
1289.1480572235314,1417
1291.2677020723963,1413
1293.3867868467923,1344
1295.5053117875495,1411
1297.623277135579,1386
1299.740683131868,1410
1301.8575300174857,1444
1303.973818033578,1423
1306.0895474213703,1429
1308.2047184221678,1403
1310.3193312773528,1444
1312.4333862283888,1400
1314.5468835168163,1503
1316.659823384255,1454
1318.7722060724045,1473
1320.8840318230418,1435
1322.9953008780249,1431
1325.1060134792888,1423
1327.2161698688478,1421
1329.3257702887959,1466
1331.4348149813054,1439
1333.5433041886276,1411
1335.6512381530933,1449
1337.7586171171101,1489
1339.8654413231675,1449
1341.9717110138317,1483
1344.0774264317488,1448
1346.1825878196432,1471
1348.2871954203192,1430
1350.3912494766587,1422
1352.4947502316231,1427
1354.5976979282532,1462
1356.7000928096686,1388
1358.8019351190665,1441
1360.9032250997243,1479
1363.0039629949988,1432
1365.1041490483235,1413
1367.2037835032133,1406
1369.3028666032606,1414
1371.401398592137,1436
1373.4993797135926,1425
1375.5968102114575,1436
1377.6936903296396,1438
1379.7900203121262,1424
1381.8858004029835,1435
1383.9810308463561,1475
1386.075711886469,1461
1388.1698437676241,1433
1390.2634267342032,1387
1392.356461030667,1392
1394.4489469015557,1465
1396.5408845914872,1417
1398.6322743451592,1403
1400.7231164073469,1402
1402.813411022907,1394
1404.903158436773,1427
1406.9923588939578,1453
1409.0810126395531,1436
1411.1691199187303,1459
1413.2566809767386,1506
1415.343696058907,1460
1417.4301654106425,1444
1419.5160892774315,1508
1421.6014679048399,1478
1423.6863015385125,1470
1425.7705904241707,1502
1427.8543348076178,1472
1429.9375349347342,1449
1432.0201910514802,1412
1434.102303403894,1329
1436.1838722380944,1450
1438.2648978002767,1456
1440.3453803367174,1450
1442.4253200937692,1429
1444.5047173178677,1407
1446.5835722555234,1493
1448.6618851533285,1515
1450.739656257952,1517
1452.8168858161434,1510
1454.8935740747306,1513
1456.96972128062,1469
1459.045327680797,1456
1461.120393522327,1452
1463.1949190523528,1435
1465.2689045180973,1446
1467.3423501668608,1469
1469.415256246024,1426
1471.4876230030463,1454
1473.559450685465,1474
1475.6307395408976,1452
1477.7014898170391,1570
1479.771701761665,1478
1481.8413756226287,1519
1483.9105116478618,1532
1485.9791100853772,1457
1488.0471711832643,1465
1490.1146951896926,1442
1492.1816823529098,1478
1494.2481329212433,1488
1496.3140471430984,1504
1498.3794252669609,1514
1500.4442675413939,1525
1502.5085742150404,1517
1504.572345536622,1530
1506.6355817549388,1574
1508.6982831188702,1519
1510.7604498773744,1572
1512.8220822794883,1513
1514.8831805743293,1492
1516.9437450110909,1527
1519.003775839048,1520
1521.0632733075522,1560
1523.1222376660367,1618
1525.1806691640113,1576
1527.2385680510652,1513
1529.2959345768668,1608
1531.3527689911643,1510
1533.4090715437833,1526
1535.4648424846291,1524
1537.5200820636855,1560
1539.5747905310159,1592
1541.6289681367616,1567
1543.6826151311434,1581
1545.7357317644614,1684
1547.7883182870937,1568
1549.8403749494987,1639
1551.8919020022113,1571
1553.9428996958477,1605
1555.9933682811015,1671
1558.0433080087469,1655
1560.0927191296346,1600
1562.1416018946961,1656
1564.1899565549415,1683
1566.2377833614592,1638
1568.2850825654164,1680
1570.3318544180606,1698
1572.3780991707158,1726
1574.423817074788,1702
1576.4690083817595,1642
1578.5136733431923,1654
1580.5578122107272,1664
1582.601425236085,1612
1584.6445126710646,1631
1586.6870747675434,1670
1588.7291117774776,1634
1590.7706239529034,1622
1592.8116115459347,1606
1594.8520748087658,1559
1596.8920139936686,1473
1598.9314293529933,1563
1600.9703211391711,1601
1603.008689604711,1522
1605.0465350022005,1532
1607.0838575843068,1428
1609.1206576037753,1444
1611.1569353134305,1411
1613.1926909661765,1484
1615.2279248149953,1460
1617.2626371129481,1466
1619.2968281131757,1439
1621.3304980688963,1477
1623.3636472334088,1448
1625.39627586009,1459
1627.428384202396,1500
1629.459972513861,1430
1631.4910410480993,1379
1633.5215900588028,1433
1635.551619799744,1370
1637.5811305247717,1447
1639.6101224878166,1434
1641.6385959428862,1371
1643.6665511440683,1385
1645.693988345528,1432
1647.7209078015112,1331
1649.7473097663405,1427
1651.7731944944203,1345
1653.7985622402307,1312
1655.823413258333,1423
1657.847747803366,1447
1659.8715661300494,1427
1661.8948684931793,1374
1663.9176551476316,1338
1665.9399263483624,1417
1667.9616823504057,1366
1669.982923408873,1377
1672.0036497789574,1356
1674.0238617159293,1351
1676.043559475138,1325
1678.0627433120121,1377
1680.081413482059,1333
1682.0995702408654,1349
1684.117213844096,1358
1686.134344547495,1362
1688.1509626068864,1402
1690.1670682781705,1351
1692.182661817329,1385
1694.1977434804217,1389
1696.2123135235875,1369
1698.226372203043,1383
1700.2399197750851,1432
1702.2529564960905,1470
1704.2654826225112,1399
1706.277498410882,1350
1708.2890041178139,1356
1710.2999999999988,1376
1712.3104863142066,1311
1714.3204633172854,1344
1716.329931266163,1381
1718.3388904178469,1334
1720.3473410294214,1397
1722.3552833580516,1407
1724.3627176609807,1344
1726.3696441955308,1383
1728.3760632191033,1400
1730.3819749891782,1371
1732.3873797633146,1404
1734.3922777991502,1407
1736.3966693544012,1374
1738.4005546868639,1408
1740.4039340544127,1419
1742.406807715001,1358
1744.4091759266616,1423
1746.4110389475054,1356
1748.4123970357223,1389
1750.413250449582,1347
1752.4135994474318,1400
1754.4134442876993,1367
1756.4127852288902,1345
1758.4116225295893,1380
1760.4099564484595,1375
1762.407787244244,1349
1764.405115175764,1397
1766.4019405019203,1363
1768.3982634816916,1345
1770.3940843741357,1332
1772.3894034383907,1419
1774.3842209336717,1378
1776.378537119274,1373
1778.372352254571,1345
1780.3656665990156,1357
1782.3584804121397,1367
1784.3507939535534,1339
1786.3426074829463,1393
1788.3339212600863,1359
1790.3247355448211,1320
1792.3150505970766,1410
1794.3048666768573,1422
1796.2941840442477,1355
1798.2830029594106,1354
1800.2713236825884,1433
1802.2591464741004,1370
1804.2464715943465,1382
1806.2332993038058,1396
1808.2196298630352,1401
1810.2054635326708,1409
1812.190800573428,1359
1814.175641246101,1406
1816.1599858115628,1412
1818.1438345307652,1422
1820.127187664738,1397
1822.1100454745924,1358
1824.092408221516,1373
1826.0742761667766,1389
1828.055649571721,1357
1830.0365286977735,1338
1832.0169138064398,1369
1833.9968051593014,1430
1835.9762030180214,1396
1837.9551076443408,1342
1839.9335193000788,1355
1841.9114382471344,1385
1843.888864747485,1384
1845.8657990631878,1410
1847.842241456378,1343
1849.8181921892697,1345
1851.7936515241558,1375
1853.7686197234098,1380
1855.7430970494815,1340
1857.7170837649014,1317
1859.6905801322787,1386
1861.6635864143004,1371
1863.6361028737338,1475
1865.608129773424,1439
1867.5796673762961,1480
1869.5507159453537,1414
1871.521275743678,1393
1873.4913470344313,1378
1875.4609300808534,1376
1877.4300251462632,1419
1879.3986324940588,1374
1881.366752387717,1439
1883.3343850907936,1494
1885.3015308669228,1463
1887.268189979819,1405
1889.2343626932739,1349
1891.2000492711595,1392
1893.1652499774254,1395
1895.1299650761011,1382
1897.0941948312952,1409
1899.0579395071945,1376
1901.0211993680641,1400
1902.98397467825,1382
1904.9462657021745,1413
1906.9080727043415,1411
1908.869395949332,1422
1910.8302357018065,1421
1912.790592226504,1374
1914.7504657882428,1390
1916.7098566519212,1348
1918.6687650825133,1375
1920.6271913450764,1402
1922.5851357047422,1352
1924.5425984267245,1388
1926.499579776314,1359
1928.4560800188833,1415
1930.4120994198802,1361
1932.367638244833,1367
1934.32269675935,1415
1936.2772752291175,1419
1938.231373919899,1370
1940.1849930975404,1415
1942.1381330279637,1396
1944.0907939771696,1373
1946.0429762112412,1421
1947.9946799963363,1392
1949.9459055986945,1384
1951.896653284633,1366
1953.8469233205478,1338
1955.7967159729142,1360
1957.7460315082863,1423
1959.6948701932974,1367
1961.6432322946594,1297
1963.5911180791632,1406
1965.5385278136787,1376
1967.4854617651545,1415
1969.4319202006182,1435
1971.377903387176,1383
1973.3234115920136,1361
1975.268445082395,1403
1977.2130041256642,1342
1979.1570889892423,1394
1981.1006999406304,1328
1983.04383724741,1384
1984.986501177238,1396
1986.928691997853,1409
1988.8704099770712,1436
1990.811655382789,1388
1992.7524284829801,1380
1994.692729545698,1327
1996.6325588390755,1393
1998.5719166313224,1407
2000.5108031907307,1419
2002.4492187856677,1369
2004.387163684583,1378
2006.3246381560011,1356
2008.2616424685298,1400
2010.1981768908527,1413
2012.1342416917332,1368
2014.069837140014,1399
2016.0049635046162,1415
2017.9396210545406,1341
2019.8738100588666,1391
2021.8075307867502,1337
2023.740783507431,1330
2025.6735684902228,1330
2027.6058860045214,1367
2029.5377363198004,1381
2031.4691197056118,1385
2033.4000364315875,1361
2035.3304867674374,1354
2037.260470982952,1339
2039.189989347998,1349
2041.1190421325232,1369
2043.047629606554,1342
2044.9757520401945,1386
2046.9034097036288,1328
2048.8306028671195,1328
2050.7573318010086,1392
2052.683596775716,1360
2054.609398061742,1331
2056.5347359296647,1358
2058.4596106501403,1369
2060.384022493906,1390
2062.3079717317764,1386
2064.231458634646,1383
2066.1544834734873,1355
2068.077046519352,1323
2069.99914804337,1366
2071.9207883167524,1360
2073.8419676107865,1400
2075.7626861968406,1366
2077.6829443463607,1412
2079.6027423308715,1444
2081.522080421977,1431
2083.440958891362,1295
2085.359378010786,1387
2087.2773380520907,1409
2089.194839287196,1382
2091.111881988101,1350
2093.0284664268825,1359
2094.9445928756973,1344
2096.86026160678,1394
2098.775472892446,1357
2100.690227005088,1396
2102.604524217178,1405
2104.5183648012676,1416
2106.431749029985,1406
2108.34467717604,1428
2110.2571495122206,1344
2112.169166311393,1409
2114.080727846503,1362
2115.9918343905747,1357
2117.902486216711,1309
2119.8126835980956,1328
2121.722426807987,1413
2123.6317161197285,1353
2125.5405518067364,1331
2127.448934142509,1394
2129.356863400624,1418
2131.264339854737,1394
2133.1713637785815,1394
2135.077935445972,1386
2136.9840551308002,1329
2138.889723107037,1363
2140.7949396487334,1350
2142.699705030018,1390
2144.6040195250994,1371
2146.507883408264,1396
2148.4112969538774,1412
2150.3142604363848,1384
2152.2167741303097,1346
2154.1188383102535,1376
2156.0204532508997,1401
2157.9216192270064,1370
2159.822336513414,1406
2161.7226053850413,1398
2163.622426116884,1370
2165.5217989840185,1435
2167.4207242616,1424
2169.319202224862,1432
2171.2172331491165,1347
2173.1148173097563,1419
2175.0119549822507,1395
2176.90864644215,1389
2178.8048919650823,1433
2180.7006918267534,1418
2182.596046302952,1420
2184.4909556695407,1434
2186.3854202024645,1359
2188.279440177746,1414
2190.173015871487,1409
2192.066147559868,1440
2193.958835519149,1403
2195.851080025667,1406
2197.7428813558417,1389
2199.6342397861667,1413
2201.5251555932186,1481
2203.415629053651,1396
2205.3056604441986,1409
2207.19525004167,1436
2209.084398122958,1432
2210.9731049650327,1373
2212.861370844941,1394
2214.749196039812,1376
2216.636580826851,1438
2218.523525483344,1407
2220.410030286655,1397
2222.296095514226,1447
2224.1817214435805,1470
2226.066908352319,1439
2227.951656518121,1391
2229.835966218746,1442
2231.71983773203,1417
2233.6032713358913,1490
2235.486267308324,1438
2237.3688259274036,1458
2239.2509474712824,1410
2241.132632218193,1428
2243.013880446447,1468
2244.8946924344323,1419
2246.7750684606203,1432
2248.6550088035574,1435
2250.534513741871,1494
2252.413583554265,1431
2254.292218519526,1420
2256.170418916517,1429
2258.0481850241786,1447
2259.925517121534,1396
2261.8024154876825,1418
2263.678880401803,1439
2265.5549121431536,1441
2267.430510991071,1383
2269.305677224971,1491
2271.180411124348,1469
2273.0547129687766,1381
2274.9285830379076,1456
2276.8020216114737,1433
2278.6750289692845,1439
2280.5476053912294,1417
2282.4197511572766,1480
2284.2914665474727,1420
2286.162751841943,1479
2288.0336073208937,1478
2289.904033264608,1470
2291.774029953448,1469
2293.6435976678554,1459
2295.5127366883517,1415
2297.381447295534,1409
2299.2497297700825,1306
2301.1175843927526,1374
2302.9850114443825,1346
2304.852011205885,1296
2306.7185839582553,1284
2308.5847299825664,1223
2310.4504495599676,1286
2312.3157429716925,1191
2314.1806104990483,1232
2316.0450524234247,1254
2317.9090690262888,1212
2319.772660589186,1216
2321.635827393742,1187
2323.498569721661,1196
2325.3608878547248,1223
2327.2227820747967,1155
2329.0842526638157,1199
2330.945299903803,1207
2332.805924076857,1197
2334.6661254651535,1199
2336.525904350951,1189
2338.3852610165827,1221
2340.244195744464,1235
2342.102708817088,1225
2343.9608005170253,1256
2345.8184711269287,1233
2347.675720929526,1241
2349.532550207628,1194
2351.38895924412,1184
2353.24494832197,1201
2355.100517724223,1261
2356.955667734004,1197
2358.810398634514,1217
2360.664710709037,1259
2362.5186042409337,1295
2364.3720795136437,1224
2366.225136810686,1215
2368.0777764156583,1196
2369.929998612237,1220
2371.7818036841777,1230
2373.633191915315,1237
2375.484163589562,1213
2377.3347189909114,1181
2379.184858403434,1169
2381.03458211128,1193
2382.8838903986775,1189
2384.732783549936,1204
2386.5812618494406,1190
2388.4293255816588,1237
2390.2769750311327,1223
2392.1242104824883,1175
2393.971032220427,1214
2395.8174405297295,1243
2397.6634356952563,1249
2399.509018001947,1236
2401.3541877348193,1208
2403.1989451789705,1153
2405.043290619576,1194
2406.8872243418905,1187
2408.730746631247,1214
2410.5738577730594,1220
2412.4165580528183,1206
2414.258847756095,1201
2416.100727168537,1209
2417.9421965758734,1229
2419.783256263912,1247
2421.623906518538,1221
2423.4641476257157,1219
2425.303979871491,1238
2427.143403541984,1204
2428.9824189233977,1229
2430.821026302012,1182
2432.6592259641866,1285
2434.497018196361,1306
2436.33440328505,1226
2438.171381516851,1239
2440.00795317844,1199
2441.844118556569,1224
2443.6798779380724,1243
2445.5152316098606,1276
2447.3501798589255,1163
2449.1847229723357,1246
2451.0188612372403,1212
2452.8525949408663,1269
2454.6859243705203,1256
2456.518849813587,1223
2458.3513715575314,1188
2460.183489889895,1200
2462.015205098301,1159
2463.8465174704493,1187
2465.67742729412,1188
2467.5079348571717,1249
2469.338040447542,1220
2471.1677443532476,1242
2472.9970468623833,1223
2474.825948263123,1178
2476.6544488437207,1268
2478.482548892508,1191
2480.310248697896,1184
2482.137548548374,1257
2483.9644487325118,1220
2485.790949538956,1230
2487.617051256433,1203
2489.44275417375,1193
2491.26805857979,1211
2493.0929647635157,1236
2494.917473013971,1223
2496.741583620276,1243
2498.5652968716304,1232
2500.3886130573137,1256
2502.2115324666834,1263
2504.0340553891765,1259
2505.856182114308,1266
2507.6779129316733,1252
2509.499248130945,1199
2511.3201880018764,1226
2513.140732834298,1257
2514.9608829181198,1217
2516.780638543331,1217
2518.6,1292
2520.418967578273,1206
2522.237541568376,1213
2524.0557222606144,1248
2525.8735099453706,1191
2527.6909049131086,1208
2529.507907454368,1200
2531.32451785977,1240
2533.140736420014,1214
2534.9565634258774,1258
2536.771999168218,1223
2538.5870439379714,1209
2540.4016980261526,1252
2542.2159617238544,1247
2544.02983532225,1222
2545.8433191125914,1218
2547.656413386209,1244
2549.4691184345115,1265
2551.2814345489874,1241
2553.093362021204,1299
2554.904901142808,1307
2556.716052205523,1261
2558.526815501153,1215
2560.3371913215824,1306
2562.147179958771,1277
2563.956781704761,1306
2565.7659968516705,1242
2567.5748256916986,1289
2569.3832685171224,1253
2571.1913256202984,1257
2572.9989972936614,1242
2574.806283829725,1267
2576.613185521084,1268
2578.4197026604074,1294
2580.2258355404483,1306
2582.031584454035,1287
2583.836949694077,1290
2585.6419315535613,1312
2587.4465303255533,1310
2589.2507463032002,1262
2591.0545797797245,1328
2592.8580310484303,1307
2594.6611004026995,1337
2596.463788135992,1305
2598.266094541849,1289
2600.0680199138874,1316
2601.869564545807,1312
2603.670728731383,1257
2605.4715127644704,1295
2607.2719169390048,1261
2609.071941548998,1326
2610.8715868885433,1267
2612.670853251811,1287
2614.469740933052,1288
2616.268250226594,1283
2618.0663814268455,1329
2619.864134828292,1297
2621.6615107255006,1309
2623.458509413115,1310
2625.2551311858597,1337
2627.0513763385347,1247
2628.8472451660223,1203
2630.6427379632833,1278
2632.4378550253564,1283
2634.232596647359,1237
2636.026963124488,1259
2637.8209547520187,1255
2639.6145718253065,1280
2641.407814639785,1228
2643.200683490966,1302
2644.9931786744414,1253
2646.7853004858807,1224
2648.577049221034,1280
2650.3684251757277,1300
2652.1594286458712,1249
2653.9500599274484,1255
2655.740319316525,1329
2657.5302071092437,1227
2659.3197236018286,1252
2661.10886909058,1275
2662.8976438718782,1247
2664.686048242183,1246
2666.4740824980327,1220
2668.2617469360443,1240
2670.0490418529134,1269
2671.8359675454153,1209
2673.622524310403,1226
2675.408712444811,1237
2677.1945322456495,1177
2678.979984010009,1213
2680.76506803506,1254
2682.5497846180497,1220
2684.334134056306,1259
2686.1181166472343,1283
2687.9017326883213,1253
2689.6849824771293,1268
2691.4678663113013,1194
2693.2503844885596,1222
2695.032537306705,1284
2696.8143250636167,1208
2698.5957480572542,1213
2700.3768065856534,1227
2702.1575009469316,1199
2703.937831439283,1220
2705.717798360982,1161
2707.4974020103837,1207
2709.276642685917,1229
2711.055520686095,1223
2712.834036309506,1185
2714.612189854819,1208
2716.389981620782,1192
2718.1674119062204,1204
2719.944481010041,1255
2721.721189231226,1267
2723.4975368688415,1245
2725.273524222027,1220
2727.0491515900053,1224
2728.824419272075,1165
2730.5993275676146,1192
2732.3738767760838,1167
2734.148067197016,1217
2735.921899130031,1265
2737.6953728748194,1234
2739.468488731156,1165
2741.2412469988926,1204
2743.0136479779617,1230
2744.785691968372,1269
2746.5573792702116,1238
2748.3287101836504,1257
2750.099685008934,1203
2751.870304046388,1230
2753.640567596418,1252
2755.4104759595057,1253
2757.1800294362156,1220
2758.949228327187,1162
2760.7180729331412,1183
2762.486563554877,1216
2764.254700493272,1185
2766.022484049284,1235
2767.789914523947,1228
2769.5569922183786,1221
2771.3237174337705,1263
2773.090090471394,1191
2774.8561116326036,1231
2776.6217812188274,1219
2778.3870995315756,1234
2780.1520668724356,1199
2781.9166835430747,1209
2783.6809498452394,1209
2785.444866080754,1212
2787.2084325515225,1190
2788.971649559527,1187
2790.73451740683,1149
2792.4970363955713,1233
2794.2592068279705,1238
2796.0210290063264,1254
2797.7825032330147,1216
2799.543629810493,1197
2801.304409041296,1239
2803.0648412280366,1247
2804.8249266734088,1174
2806.5846656801846,1199
2808.344058551212,1225
2810.1031055894246,1194
2811.8618070978273,1260
2813.6201633795085,1236
2815.378174737636,1222
2817.1358414754536,1199
2818.893163896285,1263
2820.6501423035334,1216
2822.4067770006814,1253
2824.1630682912883,1262
2825.9190164789957,1219
2827.6746218675207,1257
2829.429884760661,1251
2831.184805462294,1205
2832.9393842763743,1200
2834.693621506936,1245
2836.4475174580916,1200
2838.201072434034,1214
2839.954286739034,1235
2841.707160677441,1215
2843.459694553685,1259
2845.2118886722724,1231
2846.96374333779,1222
2848.7152588549034,1164
2850.4664355283567,1277
2852.217273662973,1268
2853.9677735636546,1182
2855.7179355353833,1186
2857.4677598832186,1212
2859.217246912299,1237
2860.9663969278427,1212
2862.715210235146,1254
2864.4636871395846,1193
2866.211827946614,1187
2867.9596329617652,1167
2869.7071024906536,1188
2871.4542368389684,1216
2873.20103631248,1188
2874.947501217038,1189
2876.6936318585695,1209
2878.4394285430812,1230
2880.1848915766604,1214
2881.9300212654707,1211
2883.6748179157553,1207
2885.4192818338374,1218
2887.1634133261173,1178
2888.907212699077,1195
2890.6506802592744,1200
2892.393816313348,1206
2894.1366211680142,1272
2895.8790951300693,1204
2897.621238506388,1167
2899.363051603925,1226
2901.1045347297118,1220
2902.8456881908596,1250
2904.58651229456,1224
2906.327007348081,1236
2908.067173658772,1233
2909.8070115340597,1239
2911.5465212814497,1224
2913.285703208527,1247
2915.0245576229563,1195
2916.7630848324807,1196
2918.5012851449196,1254
2920.2391588681758,1243
2921.976706310227,1223
2923.7139277791334,1201
2925.4508235830313,1208
2927.187394030137,1265
2928.923639428745,1275
2930.6595600872306,1243
2932.395156314046,1228
2934.1304284177218,1211
2935.8653767068713,1237
2937.6000014901815,1238
2939.3343030764227,1232
2941.068281774442,1217
2942.8019378931644,1217
2944.5352717415976,1246
2946.2682836288236,1234
2948.0009738640065,1227
2949.7333427563885,1256
2951.465390615289,1274
2953.1971177501086,1206
2954.9285244703265,1223
2956.6596110855,1206
2958.3903779052657,1227
2960.1208252393385,1224
2961.8509533975125,1265
2963.5807626896617,1243
2965.3102534257378,1257
2967.0394259157715,1239
2968.768280469873,1211
2970.496817398232,1261
2972.2250370111146,1250
2973.952939618869,1254
2975.6805255319196,1283
2977.4077950607707,1257
2979.134748516006,1263
2980.861386208289,1285
2982.587708448359,1276
2984.313715547037,1207
2986.039407815222,1197
2987.764785563891,1208
2989.489849104102,1196
2991.2145987469908,1240
2992.9390348037705,1248
2994.6631575857346,1198
2996.3869674042576,1217
2998.1104645707887,1204
2999.83364939686,1235
3001.5565221940783,1229
3003.2790832741334,1253
3005.0013329487924,1216
3006.7232715298996,1190
3008.4448993293804,1181
3010.166216659239,1257
3011.887223831558,1213
3013.607921158498,1265
3015.3283089522993,1256
3017.0483875252826,1230
3018.7681571898443,1187
3020.4876182584626,1226
3022.2067710436927,1245
3023.9256158581707,1234
3025.644153014609,1205
3027.362382825801,1211
3029.0803056046193,1179
3030.797921664012,1189
3032.5152313170106,1210
3034.2322348767225,1165
3035.9489326563353,1204
3037.665324969115,1173
3039.3814121284063,1229
3041.097194447633,1207
3042.812672240299,1176
3044.5278458199855,1242
3046.2427155003525,1200
3047.9572815951406,1223
3049.671544418167,1192
3051.38550428333,1204
3053.0991615046073,1218
3054.812516396051,1222
3056.5255692717974,1240
3058.2383204460575,1185
3059.9507702331257,1177
3061.662918947372,1199
3063.3747669032446,1225
3065.0863144152736,1250
3066.7975617980674,1229
3068.508509366309,1209
3070.219157434767,1222
3071.9295063182844,1231
3073.639556331785,1168
3075.3493077902704,1158
3077.058761008821,1149
3078.7679163025964,1177
3080.476773986837,1208
3082.1853343768594,1210
3083.89359778806,1183
3085.6015645359153,1226
3087.3092349359786,1216
3089.016609303884,1137
3090.7236879553434,1115
3092.4304712061476,1209
3094.136959372166,1181
3095.843152769349,1247
3097.5490517137237,1193
3099.2546565213966,1243
3100.959967508554,1248
3102.66498499146,1202
3104.3697092864577,1177
3106.0741407099695,1204
3107.778279578498,1213
3109.482126208622,1240
3111.1856809170004,1174
3112.8889440203716,1197
3114.5919158355528,1230
3116.294596679439,1197
3117.996986869006,1208
3119.6990867213062,1192
3121.4008965534726,1233
3123.102416682717,1218
3124.803647426329,1181
3126.5045891016784,1256
3128.205242026213,1263
3129.90560651746,1198
3131.605682893025,1233
3133.3054714705922,1199
3135.0049725679282,1251
3136.7041865028714,1200
3138.4031135933465,1221
3140.101754157353,1224
3141.800108512971,1146
3143.498176978357,1229
3145.1959598717494,1224
3146.8934575114636,1161
3148.5906702158954,1230
3150.2875983035183,1205
3151.9842420928853,1157
3153.680601902627,1264
3155.376678051456,1175
3157.07247085816,1181
3158.767980641609,1160
3160.463207720748,1184
3162.158152414606,1187
3163.8528150422862,1190
3165.5471959229726,1195
3167.2412953759303,1241
3168.9351137204976,1189
3170.628651276098,1233
3172.3219083622307,1234
3174.014885298474,1173
3175.707582404485,1161
3177.4000000000005,1172
3179.092138404835,1223
3180.7839979388846,1209
3182.47557892212,1255
3184.166881674594,1174
3185.8579065164386,1179
3187.5486537678626,1128
3189.2391237491547,1156
3190.9293167806827,1187
3192.6192331828934,1159
3194.3088732763117,1157
3195.998237381542,1176
3197.687325819268,1167
3199.376138910251,1199
3201.064676975334,1165
3202.7529403354347,1149
3204.4409293115523,1193
3206.1286442247647,1195
3207.816085396229,1145
3209.5032531471825,1162
3211.190147798936,1175
3212.8767696728846,1164
3214.5631190905015,1181
3216.2491963733373,1197
3217.9350018430214,1130
3219.6205358212637,1131
3221.305798629851,1148
3222.990790590651,1219
3224.6755120256103,1196
3226.359963256751,1136
3228.0441446061795,1146
3229.7280563960758,1166
3231.411698948703,1118
3233.0950725863995,1225
3234.778177631587,1175
3236.461014406761,1176
3238.1435832345005,1231
3239.8258844374595,1222
3241.507918338374,1235
3243.1896852600576,1257
3244.8711855254023,1197
3246.552419457381,1247
3248.233387379042,1195
3249.914089613516,1261
3251.59452648401,1166
3253.274698313813,1208
3254.95460542629,1227
3256.6342481448855,1132
3258.313626793125,1188
3259.9927416946084,1180
3261.6715931730196,1148
3263.3501815521176,1190
3265.0285071557437,1167
3266.706570307815,1200
3268.3843713323286,1164
3270.0619105533615,1175
3271.739188295068,1156
3273.4162048816834,1179
3275.0929606375184,1197
3276.769455886966,1158
3278.445690954498,1173
3280.1216661646613,1177
3281.797381842087,1210
3283.4728383114807,1186
3285.1480358976296,1219
3286.8229749253996,1206
3288.4976557197333,1218
3290.172078605655,1171
3291.846243908266,1255
3293.5201519527463,1153
3295.193803064357,1172
3296.8671975684374,1148
3298.5403357904024,1195
3300.21321805575,1227
3301.8858446900567,1148
3303.558216018975,1136
3305.23033236824,1165
3306.9021940636603,1208
3308.57380143113,1219
3310.2451547966184,1250
3311.916254486174,1179
3313.5871008259246,1308
3315.2576941420766,1242
3316.9280347609147,1200
3318.5981230088046,1211
3320.2679592121895,1174
3321.9375436975924,1175
3323.606876791612,1158
3325.27595882093,1211
3326.944790112305,1195
3328.6133709925753,1136
3330.2817017886573,1123
3331.949782827547,1195
3333.617614436319,1214
3335.2851969421245,1219
3336.952530672199,1196
3338.619615953853,1169
3340.286453114475,1209
3341.9530424815357,1150
3343.619384382583,1200
3345.2854791452437,1168
3346.951327097224,1156
3348.6169285663073,1145
3350.2822838803577,1199
3351.947393367319,1217
3353.61225735521,1231
3355.2768761721345,1213
3356.9412501462693,1166
3358.605379605873,1224
3360.2692648792827,1177
3361.9329062949146,1185
3363.596304181263,1124
