CollectionTime,9/25/2024 11:02:17 AM
ExposureUsed,3
CalibratedSpectrum
-962.7078968117929,553
-959.9714848408522,568
-957.2358232597828,584
-954.5009119013725,573
-951.7667505983302,563
-949.0333391832855,591
-946.3006774887896,610
-943.5687653473143,621
-940.837602591253,589
-938.1071890529199,578
-935.3775245645503,611
-932.6486089583007,622
-929.9204420662485,601
-927.1930237203925,624
-924.4663537526524,632
-921.7404319948689,615
-919.0152582788041,600
-916.2908324361409,641
-913.5671542984834,625
-910.8442236973568,604
-908.1220404642074,586
-905.4006044304027,596
-902.679915427231,635
-899.959973285902,584
-897.2407778375464,617
-894.5223289132158,610
-891.8046263438832,579
-889.0876699604426,568
-886.3714595937089,574
-883.6559950744183,592
-880.9412762332282,566
-878.2273029007168,563
-875.5140749073835,563
-872.8015920836489,553
-870.0898542598545,571
-867.3788612662631,581
-864.6686129330585,602
-861.9591090903457,565
-859.2503495681506,547
-856.5423341964203,562
-853.8350628050229,578
-851.1285352237478,571
-848.4227512823054,590
-845.7177108103272,618
-843.0134136373656,588
-840.3098595928943,618
-837.6070485063082,601
-834.9049802069229,603
-832.2036545239757,574
-829.5030712866244,591
-826.8032303239481,559
-824.1041314649472,585
-821.4057745385428,595
-818.7081593735775,566
-816.0112857988148,584
-813.3151536429393,576
-810.6197627345566,584
-807.9251129021936,604
-805.2312039742981,581
-802.5380357792392,596
-799.8456081453069,563
-797.1539209007124,571
-794.462973873588,557
-791.772766891987,560
-789.083299783884,615
-786.3945723771743,586
-783.7065844996748,600
-781.0193359791231,605
-778.3328266431781,619
-775.6470563194197,599
-772.9620248353489,610
-770.2777320183878,577
-767.5941776958798,612
-764.9113616950891,604
-762.2292838432011,559
-759.5479439673222,573
-756.8673418944801,579
-754.1874774516235,628
-751.5083504656222,612
-748.8299607632671,586
-746.15230817127,610
-743.475392516264,622
-740.7992136248035,627
-738.1237713233636,617
-735.4490654383407,624
-732.7750957960521,630
-730.1018622227365,626
-727.4293645445534,643
-724.7576025875837,668
-722.0865761778291,570
-719.4162851412126,585
-716.7467293035781,639
-714.0779084906909,619
-711.409822528237,612
-708.7424712418238,631
-706.0758544569796,665
-703.4099719991541,661
-700.7448236937178,613
-698.0804093659622,603
-695.4167288411002,630
-692.7537819442656,657
-690.0915685005134,632
-687.4300883348199,661
-684.7693412720819,667
-682.1093271371178,650
-679.4500457546669,677
-676.7914969493897,683
-674.1336805458676,643
-671.4765963686034,659
-668.8202442420206,682
-666.1646239904642,655
-663.5097354382001,649
-660.8555784094151,653
-658.2021527282176,653
-655.5494582186366,640
-652.8974947046223,680
-650.2462620100463,671
-647.5957599587009,633
-644.9459883742998,680
-642.2969470804776,700
-639.6486359007902,704
-637.0010546587141,656
-634.3542031776476,656
-631.7080812809096,691
-629.0626887917401,714
-626.4180255333008,722
-623.7740913286734,754
-621.1308860008619,742
-618.4884093727904,699
-615.8466612673046,694
-613.2056415071715,691
-610.5653499150785,709
-607.9257863136347,732
-605.28695052537,711
-602.6488423727357,709
-600.0114616781036,686
-597.3748082637674,692
-594.7388819519412,697
-592.1036825647604,777
-589.4692099242818,716
-586.8354638524829,791
-584.2024441712624,746
-581.5701507024403,737
-578.9385832677575,715
-576.3077416888759,715
-573.6776257873787,757
-571.0482353847704,740
-568.4195703024757,717
-565.7916303618415,728
-563.164415384135,781
-560.5379251905453,747
-557.9121596021815,725
-555.2871184400748,707
-552.6628015251767,735
-550.0392086783606,761
-547.4163397204204,800
-544.794194472071,794
-542.1727727539491,784
-539.5520743866118,782
-536.9320991905377,780
-534.3128469861261,828
-531.6943175936979,866
-529.0765108334947,857
-526.4594265256793,935
-523.8430644903358,1091
-521.2274245474689,1290
-518.612506517005,1230
-515.9983102187913,1251
-513.3848354725959,1367
-510.77208209810846,1462
-508.16004991493924,1650
-505.5487387426199,1868
-502.9381484006032,1960
-500.3282787082628,1944
-497.71912948489364,1864
-495.1107005497117,1741
-492.5029917218539,1557
-489.8960028203786,1301
-487.28973366426493,1179
-484.68418407241325,1102
-482.07935386364494,993
-479.47524285670266,946
-476.87185087025,961
-474.2691777228715,1018
-471.66722323307334,985
-469.0659872192821,927
-466.4654694998459,911
-463.86566989303384,969
-461.26658821703614,896
-458.66822428996414,890
-456.07057792985,927
-453.4736489546475,912
-450.877437182231,935
-448.28194243039627,901
-445.68716451686,896
-443.09310325926003,875
-440.49975847515555,887
-437.9071299820263,879
-435.31521759727354,908
-432.72402113821954,959
-430.13354042210767,977
-427.5437752661022,984
-424.95472548728867,920
-422.36639090267386,935
-419.7787713291855,974
-417.1918665836721,1059
-414.60567648290385,1067
-412.0202008435715,970
-409.4354394822874,987
-406.8513922155845,961
-404.26805885991723,1004
-401.685439231661,997
-399.103533147112,997
-396.522340422488,1023
-393.9418608739278,1027
-391.3620943174908,1034
-388.7830405691583,1026
-386.2046994448317,929
-383.6270707603344,913
-381.05015433141045,971
-378.473949973725,887
-375.8984575028645,798
-373.32367673433623,801
-370.74960748356875,768
-368.1762495659117,737
-365.60360279663576,681
-363.03166699093265,606
-360.4604419639154,576
-357.8899275306178,571
-355.32012350599507,552
-352.7510297049233,551
-350.1826459421999,505
-347.61497203254316,515
-345.04800779059235,552
-342.4817530309082,524
-339.91620756797226,621
-337.35137121618743,555
-334.7872437898774,591
-332.22382510328725,585
-329.66111497058273,602
-327.09911320585127,608
-324.53781962310075,590
-321.9772340362607,542
-319.4173562591816,541
-316.8581861056348,576
-314.2997233893127,596
-311.7419679238294,568
-309.1849195227194,563
-306.62857799943856,560
-304.0729431673641,641
-301.51801483979375,715
-298.963792829947,658
-296.41027695096386,673
-293.85746701590574,695
-291.3053628377552,795
-288.7539642294155,817
-286.2032710037115,725
-283.65328297338897,735
-281.1039999511146,796
-278.5554217494762,877
-276.007548180983,772
-273.4603790580651,762
-270.9139141930734,735
-268.3681533982807,721
-265.8230964858798,793
-263.27874326798565,906
-260.7350935566336,875
-258.1921471637804,885
-255.6499039013039,842
-253.10836358100266,766
-250.56752601459698,753
-248.02739101372765,840
-245.48795838995704,1062
-242.94922795476816,1021
-240.41119951956557,856
-237.8738728956746,893
-235.33724789434166,910
-232.80132432673452,878
-230.2661020039418,857
-227.73158073697357,867
-225.19776033676033,1081
-222.66464061415422,1187
-220.1322213799284,993
-217.60050244477725,829
-215.06948361931552,900
-212.53916471408013,1002
-210.00954553952818,1140
-207.48062590603843,1152
-204.9524056239104,974
-202.4248845033651,1104
-199.8980623545441,1074
-197.37193898751036,1076
-194.84651421224817,1039
-192.32178783866232,969
-189.79775967657952,986
-187.27442953574644,1147
-184.7517972258321,1234
-182.2298625564256,1133
-179.7086253370378,1012
-177.18808537710026,1141
-174.66824248596583,1461
-172.14909647290835,1510
-169.6306471471229,1330
-167.11289431772548,1104
-164.59583779375328,1173
-162.07947738416453,1209
-159.5638128978386,1562
-157.04884414357605,2092
-154.53457093009854,2213
-152.02099306604828,1658
-149.50811035998936,1301
-146.99592262040665,1236
-144.48442965570587,1648
-141.97363127421409,2235
-139.46352728417958,2482
-136.95411749377126,2407
-134.44540171107985,1937
-131.93737974411636,1473
-129.43005140081357,1516
-126.92341648902493,1830
-124.41747481652521,2579
-121.91222619101006,3636
-119.40767042009657,5104
-116.90380731132257,5628
-114.40063667214702,4985
-111.8981583099503,4129
-109.3963720320337,4334
-106.89527764561933,3885
-104.39487495785067,4448
-101.89516377579241,6229
-99.39614390642998,8819
-96.89781515667039,11084
-94.40017733334128,12511
-91.90323024319173,11872
-89.40697369289148,9488
-86.91140748903172,7271
-84.41653143812482,7211
-81.92234534660395,9394
-79.42884902082358,12321
-76.93604226705907,12491
-74.4439248915071,14845
-71.95249670028534,18734
-69.46175749943245,24886
-66.97170709490854,31411
-64.48234529259423,33886
-61.99367189829195,30565
-59.50568671772464,22675
-57.01838955653636,18863
-54.53178022029283,20460
-52.045858514480074,21426
-49.560624244506016,18269
-47.07607721569923,17428
-44.59221723330904,16574
-42.10904410250669,15512
-39.62655762838392,16621
-37.14475761595372,18845
-34.66364387015028,20467
-32.18321619582866,22586
-29.70347439776515,26246
-27.224418280657005,28230
-24.74604764912317,31829
-22.26836230770266,56717
-19.7913620608565,65040
-17.315046712966478,65040
-14.83941606833514,65040
-12.36446993118659,65040
-9.89020810566592,65040
-7.416630395839093,65040
-4.94373660569363,65040
-2.471526539137585,65040
-6.821210263296962E-13,65040
2.47084320796705,65040
4.941003281093458,65040
7.410480415786196,65040
9.879274808531363,65040
12.347386655893956,65040
14.814816154518212,65040
17.28156350112681,65040
19.74762889252179,65040
22.21301252558385,65040
24.67771459727237,23391
27.141735304626195,6294
29.605074844762612,5431
32.06773341487792,5248
34.52971121224755,4264
36.99100843422559,4381
39.45162527824516,5721
41.91156194181792,5810
44.370818622535126,4125
46.82939551806646,3841
49.287292826160524,4217
51.74451074464503,5065
54.201049471426245,5581
56.65690920448981,3945
59.112090141899785,2957
61.56659248179983,3101
64.02041642241159,2659
66.4735621620365,2680
68.92602989905402,2821
71.37781983192338,2946
73.82893215918205,2682
76.27936707944684,2618
78.72912479141326,2625
81.17820549385567,2362
83.62660938562783,2141
86.07433666566146,2605
88.5213875329681,2747
90.96776218663751,2298
93.41346082583925,1885
95.85848364982041,1754
98.30283085790859,2001
100.7465026495089,2542
103.18949922410604,2638
105.63182078126385,2351
108.07346752062438,1658
110.51443964190923,1714
112.95473734491827,1824
115.39436082953114,1769
117.83331029570547,1992
120.27158594347827,1987
122.7091879729652,1683
125.1461165843615,1691
127.58237197794062,1553
130.01795435405518,1608
132.4528639131364,1499
134.88710085569494,1520
137.32066538231982,1574
139.75355769367923,1313
142.1857779905207,1271
144.61732647366978,1352
147.04820334403132,1477
149.47840880258934,1577
151.90794305040674,1527
154.33680628862487,1513
156.76499871846443,1550
159.19252054122433,1672
161.61937195828352,1671
164.04555317109896,1881
166.47106438120693,2165
168.89590579022217,2412
171.320077599839,2320
173.7435800118302,2291
176.16641322804742,2324
178.58857745042144,2429
181.01007288096173,2588
183.43089972175687,2456
185.85105817497413,2556
188.27054844285988,2437
190.6893707277394,2429
193.10752523201643,2465
195.5250121581745,2491
197.9418317087751,2646
200.3579840864594,2522
202.7734694939469,2739
205.18828813403627,2754
207.6024402096051,2625
210.01592592360964,2607
212.42874547908548,2710
214.84089907914665,2672
217.2523869269868,2764
219.66320922587727,2776
222.0733661791695,2783
224.48285799029293,2628
226.8916848627572,2621
229.29984700014882,2625
231.7073446061355,2709
234.11417788446204,2734
236.520347038953,2754
238.92585227351185,2731
241.33069379212054,2874
243.73487179884035,2844
246.1383864978112,2897
248.541238093252,2970
250.9434267894609,2780
253.34495279081432,2901
255.74581630176783,2980
258.1460175268563,2929
260.54555667069314,2843
262.9444339379703,2772
265.3426495334594,2773
267.7402036620107,2833
270.1370965285529,2940
272.53332833809407,2838
274.9288992957214,2809
277.32380960660055,2636
279.718059475976,2644
282.1116491091717,2588
284.5045787115897,2649
286.89684848871195,2534
289.2884586460981,2562
291.67940938938807,2736
294.0697009242996,2705
296.4593334566299,2691
298.84830719225477,2584
301.23662233712923,2631
303.6242790972866,2606
306.01127767884,2524
308.39761828798066,2472
310.78330113097934,2426
313.16832641418534,2383
315.5526943440269,2427
317.9364051270112,2319
320.3194589697242,2431
322.70185607883093,2335
325.0835966610754,2366
327.4646809232805,2291
329.8451090723478,2138
332.2248813152577,2373
334.6039978590701,2243
336.9824589109231,2211
339.36026467803447,2176
341.7374153677,2194
344.113911187295,2110
346.48975234427337,2087
348.8649390461686,2171
351.2394715005918,2183
353.61334991523415,2163
355.9865744978655,2200
358.35914545633375,2104
360.73106299856715,2173
363.10232733257146,2128
365.47293866643247,2195
367.84289720831396,2129
370.2122031664593,2136
372.5808567491905,2020
374.9488581649083,2104
377.31620762209275,2061
379.6829053293021,2031
382.0489514951745,2021
384.4143463284262,1964
386.7790900378528,2002
389.14318283232853,1944
391.50662492080653,1970
393.86941651231916,2039
396.23155781597745,2041
398.5930490409713,2096
400.9538903965696,1977
403.3140820921202,2021
405.6736243370498,1998
408.03251734086336,2001
410.3907613131465,2001
412.74835646356166,1963
415.10530300185144,2013
417.4616011378372,1973
419.81725108141893,1949
422.1722530425758,2022
424.5266072313656,2004
426.880313857925,1937
429.2333731324701,1988
431.58578526529516,1906
433.9375504667738,1977
436.2886689473588,1919
438.63914091758113,1881
440.9889665880513,1870
443.33814616945835,1895
445.68667987257015,1865
448.03456790823395,1889
450.3818104873759,1892
452.72840782100013,1896
455.07436012019105,1848
457.41966759611057,1832
459.7643304600007,1887
462.10834892318155,1971
464.4517231970525,1833
466.79445349309174,1894
469.1365400228566,1927
471.4779829979826,1875
473.81878263018564,1981
476.15893913125876,1978
478.4984527130747,2015
480.8373235875855,2030
483.17555196682144,2078
485.5131380628919,2139
487.8500820879857,2293
490.1863842543697,2356
492.52204477439034,2534
494.8570638604725,2777
497.1914417251204,3227
499.52517858091653,3699
501.85827464052306,4008
504.19073011668036,4255
506.5225452222086,4307
508.85372017000566,4135
511.18425517304956,4012
513.514150444396,4274
515.8434061971808,5082
518.1720226446176,6007
520.4999999999999,5989
522.8273384766991,5747
525.1540382881666,5263
527.480099647932,4584
529.8055227696037,3690
532.1303078668694,2871
534.454455153496,2314
536.777964843328,2145
539.1008371502907,2166
541.4230722883866,1987
543.744670471698,1906
546.0656319143858,1870
548.3859568306899,1966
550.7056454349294,1983
553.0246979415016,2008
555.3431145648834,2001
557.6608955196306,1926
559.978041020377,1858
562.2945512818363,1913
564.6104265188006,1881
566.9256669461412,1945
569.2402727788082,1880
571.5542442318302,1937
573.8675815203156,1900
576.1802848594508,1936
578.4923544645015,1897
580.8037905508126,1931
583.114593333807,1836
585.4247630289875,1916
587.7342998519354,1889
590.0432040183106,1904
592.3514757438526,1897
594.6591152443794,1930
596.9661227357875,1897
599.2724984340531,1937
601.578242555231,1912
603.8833553154542,1810
606.1878369309362,1888
608.4916876179676,1875
610.7949075929192,1892
613.0974970722403,1931
615.3994562724587,2037
617.7007854101818,1976
620.0014847020951,1855
622.3015543649641,1887
624.6009946156324,1840
626.8998056710224,1991
629.1979877481361,1951
631.4955410640538,1898
633.7924658359349,1900
636.0887622810175,1910
638.3844306166192,1854
640.6794710601358,1970
642.9738838290426,1936
645.2676691408932,2028
647.5608272133207,1908
649.853358264037,1932
652.1452625108324,1896
654.4365401715764,1902
656.7271914642178,1921
659.0172166067838,1949
661.3066158173809,1977
663.5953893141935,1935
665.8835373154867,2020
668.1710600396028,1977
670.4579577049639,1910
672.7442305300709,1939
675.0298787335033,1922
677.3149025339197,1951
679.599302150058,1929
681.8830778007342,1919
684.1662297048437,1949
686.4487580813608,2007
688.7306631493387,1948
691.0119451279091,1906
693.2926042362834,1961
695.5726406937516,1944
697.8520547196814,1971
700.1308465335215,1946
702.4090163547982,2030
704.6865644031171,1924
706.9634908981619,1896
709.2397960596965,1880
711.5154801075631,1953
713.7905432616823,1932
716.0649857420548,1952
718.3388077687592,1863
720.612009561953,1915
722.8845913418733,1860
725.1565533288352,1904
727.427895743234,1888
729.6986188055427,1933
731.9687227363137,1874
734.238207756178,1912
736.5070740858458,1859
738.7753219461066,1879
741.0429515578281,1882
743.3099631419569,1878
745.5763569195191,1953
747.8421331116193,1974
750.1072919394409,1932
752.3718336242467,1952
754.6357583873777,1951
756.8990664502545,1990
759.1617580343765,1955
761.423833361321,1983
763.6852926527457,1932
765.9461361303862,2016
768.206364016058,1942
770.4659765316536,1971
772.7249738991469,1926
774.9833563405886,1952
777.2411240781092,2026
779.4982773339183,1965
781.7548163303044,1995
784.010741289634,1888
786.2660524343538,2128
788.5207499869881,2014
790.7748341701416,1956
793.0283052064964,1984
795.2811633188143,2026
797.5334087299362,1998
799.7850416627813,2058
802.0360623403484,1996
804.2864709857143,2024
806.5362678220353,2020
808.7854530725468,2033
811.0340269605625,1968
813.2819897094754,1947
815.5293415427581,1970
817.77608268396,1965
820.0222133567116,1948
822.2677337847211,1988
824.5126441917765,1874
826.7569448017433,1975
829.0006358385675,2001
831.2437175262731,1977
833.4861900889629,2006
835.7280537508192,1918
837.9693087361026,2000
840.2099552691533,1992
842.4499935743896,1975
844.689423876309,2018
846.9282463994886,1949
849.1664613685833,1974
851.4040690083276,1965
853.6410695435349,1992
855.877463199097,2000
858.1132501999847,1935
860.3484307712487,1920
862.5830051380175,1958
864.8169735254988,2052
867.0503361589791,2032
869.2830932638243,2006
871.5152450654786,1992
873.7467917894654,2063
875.9777336613873,2022
878.2080709069252,2093
880.4378037518389,2018
882.666932421968,2120
884.8954571432301,1996
887.1233781416219,2039
889.3506956432192,2065
891.5774098741766,2077
893.803521060728,2035
896.0290294291852,2061
898.2539352059397,2104
900.4782386174619,2055
902.7019398903011,2055
904.925039251085,2072
907.147536926521,2059
909.3694331433943,2129
911.59072812857,2056
913.8114221089921,1943
916.0315153116827,2001
918.2510079637437,1985
920.4699002923547,1978
922.6881925247761,1997
924.905884888345,2071
927.1229776104793,2031
929.3394709186747,2030
931.555365040506,2018
933.7706602036275,2030
935.9853566357709,1944
938.1994545647489,2050
940.4129542184515,2037
942.6258558248488,2007
944.8381596119883,2098
947.0498658079974,2022
949.2609746410825,1953
951.4714863395287,1964
953.6814011316998,2042
955.8907192460387,2028
958.0994409110671,1970
960.3075663553858,1937
962.5150958076741,2006
964.7220294966913,1951
966.928367651274,1939
969.1341105003388,1930
971.3392582728806,2063
973.5438111979742,1960
975.747769504772,1960
977.9511334225061,1909
980.153903180487,1938
982.3560790081052,2008
984.5576611348289,1895
986.7586497902058,1881
988.9590452038618,1824
991.158847605503,1834
993.3580572249133,1860
995.5566742919558,1855
997.7546990365728,1753
999.952131688785,1737
1002.1489724786926,1704
1004.3452216364743,1654
1006.5408793923874,1674
1008.7359459767691,1655
1010.9304216200343,1669
1013.1243065526781,1618
1015.3176010052733,1692
1017.510305208472,1659
1019.7024193930064,1623
1021.8939437896848,1710
1024.0848786293977,1594
1026.2752241431122,1618
1028.4649805618747,1606
1030.6541481168115,1566
1032.842727039127,1582
1035.0307175601051,1514
1037.2181199111074,1626
1039.4049343235752,1626
1041.591161029029,1583
1043.7768002590683,1617
1045.9618522453698,1640
1048.1463172196918,1584
1050.3301954138697,1572
1052.513487059818,1582
1054.69619238953,1553
1056.8783116350783,1573
1059.0598450286152,1498
1061.2407928023704,1569
1063.4211551886528,1607
1065.6009324198508,1594
1067.780124728432,1537
1069.9587323469414,1546
1072.1367555080046,1536
1074.314194444325,1565
1076.4910493886855,1569
1078.667320573947,1522
1080.843008233051,1459
1083.0181125990161,1523
1085.1926339049414,1478
1087.3665723840027,1545
1089.5399282694575,1508
1091.7127017946405,1511
1093.8848931929647,1503
1096.0565026979243,1475
1098.2275305430899,1510
1100.3979769621128,1463
1102.567842188722,1540
1104.737126456726,1454
1106.9058300000124,1505
1109.0739530525475,1454
1111.2414958483764,1442
1113.4084586216231,1504
1115.5748416064907,1436
1117.7406450372605,1505
1119.9058691482942,1477
1122.0705141740304,1445
1124.2345803489884,1444
1126.3980679077658,1441
1128.5609770850388,1522
1130.7233081155623,1443
1132.8850612341707,1477
1135.0462366757774,1444
1137.2068346753745,1465
1139.3668554680326,1419
1141.526299288901,1459
1143.68516637321,1504
1145.8434569562655,1459
1148.001171273455,1519
1150.158309560244,1481
1152.3148720521767,1442
1154.470858984876,1505
1156.626270594044,1458
1158.7811071154629,1461
1160.9353687849912,1432
1163.089055838569,1483
1165.242168512213,1477
1167.3947070420209,1498
1169.5466716641677,1429
1171.6980626149075,1426
1173.8488801305748,1462
1175.9991244475814,1529
1178.1487958024186,1505
1180.2978944316555,1435
1182.4464205719428,1384
1184.5943744600072,1471
1186.7417563326567,1452
1188.8885664267755,1457
1191.0348049793297,1409
1193.1804722273619,1447
1195.325568407995,1467
1197.4700937584303,1457
1199.614048515948,1478
1201.7574329179074,1506
1203.900247201746,1496
1206.042491604982,1476
1208.1841663652099,1453
1210.3252717201053,1436
1212.465807907422,1421
1214.6057751649923,1446
1216.7451737307279,1466
1218.8840038426192,1496
1221.0222657387353,1511
1223.1599596572241,1488
1225.2970858363137,1467
1227.4336445143094,1450
1229.5696359295966,1495
1231.705060320639,1521
1233.8399179259786,1547
1235.9742089842384,1526
1238.107933734118,1530
1240.2410924143974,1514
1242.373685263935,1461
1244.5057125216676,1496
1246.6371744266116,1511
1248.7680712178621,1493
1250.898403134593,1467
1253.028170416058,1553
1255.1573733015875,1427
1257.2860120305932,1466
1259.4140868425648,1479
1261.54159797707,1498
1263.6685456737569,1464
1265.7949301723515,1521
1267.9207517126597,1493
1270.046010534565,1584
1272.1707068780306,1578
1274.2948409830983,1524
1276.4184130898889,1592
1278.541423438603,1530
1280.6638722695184,1583
1282.785759822993,1582
1284.9070863394636,1557
1287.0278520594447,1555
1289.1480572235314,1596
1291.2677020723963,1583
1293.3867868467923,1614
1295.5053117875495,1624
1297.623277135579,1616
1299.740683131868,1619
1301.8575300174857,1646
1303.973818033578,1653
1306.0895474213703,1581
1308.2047184221678,1652
1310.3193312773528,1641
1312.4333862283888,1632
1314.5468835168163,1695
1316.659823384255,1713
1318.7722060724045,1668
1320.8840318230418,1663
1322.9953008780249,1709
1325.1060134792888,1696
1327.2161698688478,1714
1329.3257702887959,1624
1331.4348149813054,1724
1333.5433041886276,1655
1335.6512381530933,1688
1337.7586171171101,1710
1339.8654413231675,1696
1341.9717110138317,1635
1344.0774264317488,1703
1346.1825878196432,1657
1348.2871954203192,1664
1350.3912494766587,1689
1352.4947502316231,1607
1354.5976979282532,1574
1356.7000928096686,1651
1358.8019351190665,1629
1360.9032250997243,1634
1363.0039629949988,1572
1365.1041490483235,1615
1367.2037835032133,1601
1369.3028666032606,1599
1371.401398592137,1551
1373.4993797135926,1620
1375.5968102114575,1654
1377.6936903296396,1628
1379.7900203121262,1596
1381.8858004029835,1585
1383.9810308463561,1643
1386.075711886469,1685
1388.1698437676241,1630
1390.2634267342032,1649
1392.356461030667,1641
1394.4489469015557,1629
1396.5408845914872,1610
1398.6322743451592,1656
1400.7231164073469,1663
1402.813411022907,1598
1404.903158436773,1672
1406.9923588939578,1682
1409.0810126395531,1616
1411.1691199187303,1638
1413.2566809767386,1692
1415.343696058907,1592
1417.4301654106425,1639
1419.5160892774315,1716
1421.6014679048399,1673
1423.6863015385125,1720
1425.7705904241707,1657
1427.8543348076178,1669
1429.9375349347342,1643
1432.0201910514802,1640
1434.102303403894,1658
1436.1838722380944,1696
1438.2648978002767,1718
1440.3453803367174,1713
1442.4253200937692,1772
1444.5047173178677,1769
1446.5835722555234,1809
1448.6618851533285,1791
1450.739656257952,1741
1452.8168858161434,1725
1454.8935740747306,1824
1456.96972128062,1826
1459.045327680797,1760
1461.120393522327,1831
1463.1949190523528,1883
1465.2689045180973,1837
1467.3423501668608,1863
1469.415256246024,1873
1471.4876230030463,1920
1473.559450685465,1966
1475.6307395408976,1957
1477.7014898170391,1899
1479.771701761665,1932
1481.8413756226287,2004
1483.9105116478618,2003
1485.9791100853772,2062
1488.0471711832643,2070
1490.1146951896926,2006
1492.1816823529098,2034
1494.2481329212433,2098
1496.3140471430984,2033
1498.3794252669609,2095
1500.4442675413939,2086
1502.5085742150404,2034
1504.572345536622,2053
1506.6355817549388,2085
1508.6982831188702,2095
1510.7604498773744,2164
1512.8220822794883,2093
1514.8831805743293,2139
1516.9437450110909,2203
1519.003775839048,2194
1521.0632733075522,2151
1523.1222376660367,2158
1525.1806691640113,2196
1527.2385680510652,2198
1529.2959345768668,2245
1531.3527689911643,2224
1533.4090715437833,2201
1535.4648424846291,2311
1537.5200820636855,2237
1539.5747905310159,2344
1541.6289681367616,2216
1543.6826151311434,2312
1545.7357317644614,2333
1547.7883182870937,2362
1549.8403749494987,2434
1551.8919020022113,2476
1553.9428996958477,2559
1555.9933682811015,2493
1558.0433080087469,2631
1560.0927191296346,2545
1562.1416018946961,2580
1564.1899565549415,2649
1566.2377833614592,2551
1568.2850825654164,2608
1570.3318544180606,2475
1572.3780991707158,2541
1574.423817074788,2466
1576.4690083817595,2395
1578.5136733431923,2339
1580.5578122107272,2288
1582.601425236085,2291
1584.6445126710646,2259
1586.6870747675434,2188
1588.7291117774776,2086
1590.7706239529034,2100
1592.8116115459347,2020
1594.8520748087658,2020
1596.8920139936686,1894
1598.9314293529933,1856
1600.9703211391711,1893
1603.008689604711,1832
1605.0465350022005,1774
1607.0838575843068,1783
1609.1206576037753,1792
1611.1569353134305,1723
1613.1926909661765,1710
1615.2279248149953,1658
1617.2626371129481,1693
1619.2968281131757,1677
1621.3304980688963,1665
1623.3636472334088,1676
1625.39627586009,1620
1627.428384202396,1557
1629.459972513861,1564
1631.4910410480993,1576
1633.5215900588028,1538
1635.551619799744,1548
1637.5811305247717,1566
1639.6101224878166,1571
1641.6385959428862,1565
1643.6665511440683,1572
1645.693988345528,1552
1647.7209078015112,1541
1649.7473097663405,1509
1651.7731944944203,1544
1653.7985622402307,1472
1655.823413258333,1518
1657.847747803366,1461
1659.8715661300494,1509
1661.8948684931793,1528
1663.9176551476316,1465
1665.9399263483624,1520
1667.9616823504057,1530
1669.982923408873,1481
1672.0036497789574,1555
1674.0238617159293,1474
1676.043559475138,1499
1678.0627433120121,1498
1680.081413482059,1499
1682.0995702408654,1488
1684.117213844096,1503
1686.134344547495,1447
1688.1509626068864,1461
1690.1670682781705,1491
1692.182661817329,1534
1694.1977434804217,1439
1696.2123135235875,1510
1698.226372203043,1449
1700.2399197750851,1457
1702.2529564960905,1437
1704.2654826225112,1525
1706.277498410882,1440
1708.2890041178139,1416
1710.2999999999988,1453
1712.3104863142066,1446
1714.3204633172854,1596
1716.329931266163,1503
1718.3388904178469,1501
1720.3473410294214,1491
1722.3552833580516,1429
1724.3627176609807,1476
1726.3696441955308,1503
1728.3760632191033,1471
1730.3819749891782,1423
1732.3873797633146,1400
1734.3922777991502,1438
1736.3966693544012,1420
1738.4005546868639,1400
1740.4039340544127,1473
1742.406807715001,1461
1744.4091759266616,1462
1746.4110389475054,1416
1748.4123970357223,1446
1750.413250449582,1465
1752.4135994474318,1465
1754.4134442876993,1398
1756.4127852288902,1429
1758.4116225295893,1379
1760.4099564484595,1416
1762.407787244244,1405
1764.405115175764,1434
1766.4019405019203,1443
1768.3982634816916,1447
1770.3940843741357,1419
1772.3894034383907,1410
1774.3842209336717,1444
1776.378537119274,1454
1778.372352254571,1472
1780.3656665990156,1391
1782.3584804121397,1451
1784.3507939535534,1453
1786.3426074829463,1415
1788.3339212600863,1362
1790.3247355448211,1411
1792.3150505970766,1465
1794.3048666768573,1393
1796.2941840442477,1395
1798.2830029594106,1479
1800.2713236825884,1378
1802.2591464741004,1502
1804.2464715943465,1380
1806.2332993038058,1409
1808.2196298630352,1411
1810.2054635326708,1429
1812.190800573428,1407
1814.175641246101,1403
1816.1599858115628,1415
1818.1438345307652,1389
1820.127187664738,1419
1822.1100454745924,1403
1824.092408221516,1392
1826.0742761667766,1408
1828.055649571721,1353
1830.0365286977735,1425
1832.0169138064398,1436
1833.9968051593014,1402
1835.9762030180214,1403
1837.9551076443408,1409
1839.9335193000788,1441
1841.9114382471344,1444
1843.888864747485,1375
1845.8657990631878,1434
1847.842241456378,1363
1849.8181921892697,1431
1851.7936515241558,1417
1853.7686197234098,1377
1855.7430970494815,1416
1857.7170837649014,1417
1859.6905801322787,1429
1861.6635864143004,1368
1863.6361028737338,1399
1865.608129773424,1444
1867.5796673762961,1349
1869.5507159453537,1401
1871.521275743678,1440
1873.4913470344313,1450
1875.4609300808534,1453
1877.4300251462632,1432
1879.3986324940588,1437
1881.366752387717,1439
1883.3343850907936,1480
1885.3015308669228,1430
1887.268189979819,1469
1889.2343626932739,1465
1891.2000492711595,1419
1893.1652499774254,1391
1895.1299650761011,1473
1897.0941948312952,1445
1899.0579395071945,1395
1901.0211993680641,1440
1902.98397467825,1420
1904.9462657021745,1457
1906.9080727043415,1480
1908.869395949332,1475
1910.8302357018065,1442
1912.790592226504,1444
1914.7504657882428,1436
1916.7098566519212,1437
1918.6687650825133,1410
1920.6271913450764,1394
1922.5851357047422,1373
1924.5425984267245,1456
1926.499579776314,1420
1928.4560800188833,1388
1930.4120994198802,1465
1932.367638244833,1379
1934.32269675935,1400
1936.2772752291175,1400
1938.231373919899,1441
1940.1849930975404,1438
1942.1381330279637,1419
1944.0907939771696,1475
1946.0429762112412,1453
1947.9946799963363,1450
1949.9459055986945,1439
1951.896653284633,1426
1953.8469233205478,1382
1955.7967159729142,1397
1957.7460315082863,1375
1959.6948701932974,1361
1961.6432322946594,1401
1963.5911180791632,1404
1965.5385278136787,1392
1967.4854617651545,1434
1969.4319202006182,1363
1971.377903387176,1476
1973.3234115920136,1426
1975.268445082395,1379
1977.2130041256642,1434
1979.1570889892423,1346
1981.1006999406304,1426
1983.04383724741,1403
1984.986501177238,1346
1986.928691997853,1383
1988.8704099770712,1368
1990.811655382789,1369
1992.7524284829801,1362
1994.692729545698,1389
1996.6325588390755,1351
1998.5719166313224,1367
2000.5108031907307,1400
2002.4492187856677,1382
2004.387163684583,1422
2006.3246381560011,1362
2008.2616424685298,1387
2010.1981768908527,1426
2012.1342416917332,1394
2014.069837140014,1418
2016.0049635046162,1412
2017.9396210545406,1304
2019.8738100588666,1384
2021.8075307867502,1386
2023.740783507431,1348
2025.6735684902228,1345
2027.6058860045214,1354
2029.5377363198004,1397
2031.4691197056118,1397
2033.4000364315875,1349
2035.3304867674374,1380
2037.260470982952,1452
2039.189989347998,1399
2041.1190421325232,1360
2043.047629606554,1367
2044.9757520401945,1369
2046.9034097036288,1323
2048.8306028671195,1385
2050.7573318010086,1446
2052.683596775716,1377
2054.609398061742,1402
2056.5347359296647,1384
2058.4596106501403,1410
2060.384022493906,1364
2062.3079717317764,1325
2064.231458634646,1387
2066.1544834734873,1355
2068.077046519352,1369
2069.99914804337,1324
2071.9207883167524,1385
2073.8419676107865,1336
2075.7626861968406,1395
2077.6829443463607,1365
2079.6027423308715,1388
2081.522080421977,1415
2083.440958891362,1348
2085.359378010786,1370
2087.2773380520907,1412
2089.194839287196,1374
2091.111881988101,1363
2093.0284664268825,1375
2094.9445928756973,1419
2096.86026160678,1373
2098.775472892446,1393
2100.690227005088,1401
2102.604524217178,1404
2104.5183648012676,1376
2106.431749029985,1446
2108.34467717604,1368
2110.2571495122206,1321
2112.169166311393,1373
2114.080727846503,1368
2115.9918343905747,1378
2117.902486216711,1359
2119.8126835980956,1314
2121.722426807987,1353
2123.6317161197285,1348
2125.5405518067364,1389
2127.448934142509,1368
2129.356863400624,1368
2131.264339854737,1396
2133.1713637785815,1384
2135.077935445972,1423
2136.9840551308002,1447
2138.889723107037,1386
2140.7949396487334,1361
2142.699705030018,1383
2144.6040195250994,1395
2146.507883408264,1432
2148.4112969538774,1362
2150.3142604363848,1396
2152.2167741303097,1408
2154.1188383102535,1433
2156.0204532508997,1455
2157.9216192270064,1403
2159.822336513414,1472
2161.7226053850413,1391
2163.622426116884,1401
2165.5217989840185,1403
2167.4207242616,1436
2169.319202224862,1401
2171.2172331491165,1391
2173.1148173097563,1368
2175.0119549822507,1401
2176.90864644215,1384
2178.8048919650823,1362
2180.7006918267534,1465
2182.596046302952,1399
2184.4909556695407,1433
2186.3854202024645,1449
2188.279440177746,1445
2190.173015871487,1438
2192.066147559868,1422
2193.958835519149,1391
2195.851080025667,1439
2197.7428813558417,1450
2199.6342397861667,1393
2201.5251555932186,1369
2203.415629053651,1416
2205.3056604441986,1372
2207.19525004167,1395
2209.084398122958,1387
2210.9731049650327,1427
2212.861370844941,1447
2214.749196039812,1453
2216.636580826851,1382
2218.523525483344,1405
2220.410030286655,1441
2222.296095514226,1471
2224.1817214435805,1436
2226.066908352319,1375
2227.951656518121,1453
2229.835966218746,1425
2231.71983773203,1412
2233.6032713358913,1439
2235.486267308324,1452
2237.3688259274036,1413
2239.2509474712824,1464
2241.132632218193,1420
2243.013880446447,1421
2244.8946924344323,1437
2246.7750684606203,1443
2248.6550088035574,1439
2250.534513741871,1461
2252.413583554265,1416
2254.292218519526,1445
2256.170418916517,1436
2258.0481850241786,1422
2259.925517121534,1385
2261.8024154876825,1424
2263.678880401803,1483
2265.5549121431536,1452
2267.430510991071,1481
2269.305677224971,1392
2271.180411124348,1502
2273.0547129687766,1411
2274.9285830379076,1392
2276.8020216114737,1419
2278.6750289692845,1488
2280.5476053912294,1477
2282.4197511572766,1483
2284.2914665474727,1457
2286.162751841943,1447
2288.0336073208937,1497
2289.904033264608,1478
2291.774029953448,1494
2293.6435976678554,1417
2295.5127366883517,1450
2297.381447295534,1476
2299.2497297700825,1383
2301.1175843927526,1360
2302.9850114443825,1381
2304.852011205885,1350
2306.7185839582553,1340
2308.5847299825664,1304
2310.4504495599676,1278
2312.3157429716925,1303
2314.1806104990483,1266
2316.0450524234247,1247
2317.9090690262888,1295
2319.772660589186,1276
2321.635827393742,1251
2323.498569721661,1265
2325.3608878547248,1297
2327.2227820747967,1273
2329.0842526638157,1284
2330.945299903803,1219
2332.805924076857,1281
2334.6661254651535,1277
2336.525904350951,1253
2338.3852610165827,1295
2340.244195744464,1255
2342.102708817088,1298
2343.9608005170253,1270
2345.8184711269287,1273
2347.675720929526,1290
2349.532550207628,1288
2351.38895924412,1262
2353.24494832197,1234
2355.100517724223,1283
2356.955667734004,1273
2358.810398634514,1275
2360.664710709037,1280
2362.5186042409337,1331
2364.3720795136437,1264
2366.225136810686,1262
2368.0777764156583,1251
2369.929998612237,1279
2371.7818036841777,1282
2373.633191915315,1249
2375.484163589562,1297
2377.3347189909114,1234
2379.184858403434,1283
2381.03458211128,1217
2382.8838903986775,1300
2384.732783549936,1287
2386.5812618494406,1309
2388.4293255816588,1270
2390.2769750311327,1326
2392.1242104824883,1303
2393.971032220427,1279
2395.8174405297295,1309
2397.6634356952563,1341
2399.509018001947,1295
2401.3541877348193,1285
2403.1989451789705,1276
2405.043290619576,1271
2406.8872243418905,1257
2408.730746631247,1292
2410.5738577730594,1265
2412.4165580528183,1336
2414.258847756095,1292
2416.100727168537,1268
2417.9421965758734,1293
2419.783256263912,1279
2421.623906518538,1270
2423.4641476257157,1332
2425.303979871491,1292
2427.143403541984,1344
2428.9824189233977,1317
2430.821026302012,1318
2432.6592259641866,1320
2434.497018196361,1284
2436.33440328505,1303
2438.171381516851,1301
2440.00795317844,1311
2441.844118556569,1341
2443.6798779380724,1322
2445.5152316098606,1292
2447.3501798589255,1305
2449.1847229723357,1300
2451.0188612372403,1252
2452.8525949408663,1279
2454.6859243705203,1269
2456.518849813587,1257
2458.3513715575314,1314
2460.183489889895,1292
2462.015205098301,1375
2463.8465174704493,1303
2465.67742729412,1266
2467.5079348571717,1319
2469.338040447542,1293
2471.1677443532476,1396
2472.9970468623833,1371
2474.825948263123,1380
2476.6544488437207,1341
2478.482548892508,1260
2480.310248697896,1334
2482.137548548374,1324
2483.9644487325118,1336
2485.790949538956,1300
2487.617051256433,1288
2489.44275417375,1301
2491.26805857979,1306
2493.0929647635157,1303
2494.917473013971,1331
2496.741583620276,1346
2498.5652968716304,1315
2500.3886130573137,1287
2502.2115324666834,1352
2504.0340553891765,1312
2505.856182114308,1302
2507.6779129316733,1348
2509.499248130945,1339
2511.3201880018764,1330
2513.140732834298,1408
2514.9608829181198,1323
2516.780638543331,1292
2518.6,1411
2520.418967578273,1342
2522.237541568376,1344
2524.0557222606144,1301
2525.8735099453706,1330
2527.6909049131086,1355
2529.507907454368,1375
2531.32451785977,1381
2533.140736420014,1377
2534.9565634258774,1388
2536.771999168218,1402
2538.5870439379714,1384
2540.4016980261526,1423
2542.2159617238544,1348
2544.02983532225,1374
2545.8433191125914,1387
2547.656413386209,1405
2549.4691184345115,1409
2551.2814345489874,1442
2553.093362021204,1427
2554.904901142808,1441
2556.716052205523,1427
2558.526815501153,1441
2560.3371913215824,1442
2562.147179958771,1483
2563.956781704761,1444
2565.7659968516705,1466
2567.5748256916986,1417
2569.3832685171224,1496
2571.1913256202984,1434
2572.9989972936614,1462
2574.806283829725,1408
2576.613185521084,1530
2578.4197026604074,1538
2580.2258355404483,1464
2582.031584454035,1519
2583.836949694077,1494
2585.6419315535613,1521
2587.4465303255533,1505
2589.2507463032002,1562
2591.0545797797245,1456
2592.8580310484303,1525
2594.6611004026995,1568
2596.463788135992,1477
2598.266094541849,1549
2600.0680199138874,1519
2601.869564545807,1437
2603.670728731383,1506
2605.4715127644704,1493
2607.2719169390048,1452
2609.071941548998,1508
2610.8715868885433,1522
2612.670853251811,1492
2614.469740933052,1457
2616.268250226594,1506
2618.0663814268455,1480
2619.864134828292,1460
2621.6615107255006,1439
2623.458509413115,1398
2625.2551311858597,1483
2627.0513763385347,1461
2628.8472451660223,1450
2630.6427379632833,1412
2632.4378550253564,1512
2634.232596647359,1390
2636.026963124488,1375
2637.8209547520187,1439
2639.6145718253065,1459
2641.407814639785,1361
2643.200683490966,1350
2644.9931786744414,1369
2646.7853004858807,1410
2648.577049221034,1374
2650.3684251757277,1364
2652.1594286458712,1439
2653.9500599274484,1381
2655.740319316525,1380
2657.5302071092437,1409
2659.3197236018286,1371
2661.10886909058,1342
2662.8976438718782,1373
2664.686048242183,1337
2666.4740824980327,1382
2668.2617469360443,1336
2670.0490418529134,1322
2671.8359675454153,1335
2673.622524310403,1343
2675.408712444811,1329
2677.1945322456495,1288
2678.979984010009,1365
2680.76506803506,1323
2682.5497846180497,1315
2684.334134056306,1305
2686.1181166472343,1340
2687.9017326883213,1356
2689.6849824771293,1324
2691.4678663113013,1358
2693.2503844885596,1358
2695.032537306705,1295
2696.8143250636167,1299
2698.5957480572542,1342
2700.3768065856534,1323
2702.1575009469316,1238
2703.937831439283,1307
2705.717798360982,1278
2707.4974020103837,1237
2709.276642685917,1248
2711.055520686095,1240
2712.834036309506,1305
2714.612189854819,1317
2716.389981620782,1317
2718.1674119062204,1270
2719.944481010041,1259
2721.721189231226,1250
2723.4975368688415,1219
2725.273524222027,1237
2727.0491515900053,1288
2728.824419272075,1274
2730.5993275676146,1224
2732.3738767760838,1291
2734.148067197016,1288
2735.921899130031,1233
2737.6953728748194,1236
2739.468488731156,1229
2741.2412469988926,1273
2743.0136479779617,1245
2744.785691968372,1204
2746.5573792702116,1266
2748.3287101836504,1258
2750.099685008934,1292
2751.870304046388,1204
2753.640567596418,1243
2755.4104759595057,1252
2757.1800294362156,1244
2758.949228327187,1240
2760.7180729331412,1265
2762.486563554877,1257
2764.254700493272,1210
2766.022484049284,1225
2767.789914523947,1335
2769.5569922183786,1230
2771.3237174337705,1201
2773.090090471394,1279
2774.8561116326036,1249
2776.6217812188274,1250
2778.3870995315756,1244
2780.1520668724356,1287
2781.9166835430747,1318
2783.6809498452394,1228
2785.444866080754,1307
2787.2084325515225,1236
2788.971649559527,1285
2790.73451740683,1262
2792.4970363955713,1272
2794.2592068279705,1263
2796.0210290063264,1287
2797.7825032330147,1265
2799.543629810493,1305
2801.304409041296,1267
2803.0648412280366,1264
2804.8249266734088,1264
2806.5846656801846,1222
2808.344058551212,1280
2810.1031055894246,1212
2811.8618070978273,1244
2813.6201633795085,1307
2815.378174737636,1296
2817.1358414754536,1296
2818.893163896285,1303
2820.6501423035334,1219
2822.4067770006814,1267
2824.1630682912883,1219
2825.9190164789957,1228
2827.6746218675207,1295
2829.429884760661,1230
2831.184805462294,1251
2832.9393842763743,1318
2834.693621506936,1293
2836.4475174580916,1250
2838.201072434034,1210
2839.954286739034,1234
2841.707160677441,1245
2843.459694553685,1238
2845.2118886722724,1279
2846.96374333779,1331
2848.7152588549034,1292
2850.4664355283567,1262
2852.217273662973,1234
2853.9677735636546,1214
2855.7179355353833,1288
2857.4677598832186,1280
2859.217246912299,1238
2860.9663969278427,1299
2862.715210235146,1267
2864.4636871395846,1285
2866.211827946614,1267
2867.9596329617652,1283
2869.7071024906536,1288
2871.4542368389684,1278
2873.20103631248,1295
2874.947501217038,1175
2876.6936318585695,1196
2878.4394285430812,1256
2880.1848915766604,1283
2881.9300212654707,1241
2883.6748179157553,1260
2885.4192818338374,1234
2887.1634133261173,1241
2888.907212699077,1234
2890.6506802592744,1230
2892.393816313348,1226
2894.1366211680142,1220
2895.8790951300693,1238
2897.621238506388,1288
2899.363051603925,1280
2901.1045347297118,1275
2902.8456881908596,1287
2904.58651229456,1314
2906.327007348081,1237
2908.067173658772,1299
2909.8070115340597,1262
2911.5465212814497,1270
2913.285703208527,1195
2915.0245576229563,1305
2916.7630848324807,1294
2918.5012851449196,1256
2920.2391588681758,1217
2921.976706310227,1216
2923.7139277791334,1263
2925.4508235830313,1256
2927.187394030137,1252
2928.923639428745,1287
2930.6595600872306,1275
2932.395156314046,1248
2934.1304284177218,1289
2935.8653767068713,1272
2937.6000014901815,1283
2939.3343030764227,1289
2941.068281774442,1346
2942.8019378931644,1233
2944.5352717415976,1318
2946.2682836288236,1267
2948.0009738640065,1257
2949.7333427563885,1241
2951.465390615289,1299
2953.1971177501086,1244
2954.9285244703265,1202
2956.6596110855,1250
2958.3903779052657,1256
2960.1208252393385,1242
2961.8509533975125,1218
2963.5807626896617,1229
2965.3102534257378,1246
2967.0394259157715,1260
2968.768280469873,1228
2970.496817398232,1294
2972.2250370111146,1241
2973.952939618869,1260
2975.6805255319196,1288
2977.4077950607707,1290
2979.134748516006,1342
2980.861386208289,1273
2982.587708448359,1215
2984.313715547037,1258
2986.039407815222,1249
2987.764785563891,1218
2989.489849104102,1212
2991.2145987469908,1190
2992.9390348037705,1258
2994.6631575857346,1226
2996.3869674042576,1250
2998.1104645707887,1235
2999.83364939686,1227
3001.5565221940783,1284
3003.2790832741334,1243
3005.0013329487924,1250
3006.7232715298996,1213
3008.4448993293804,1256
3010.166216659239,1273
3011.887223831558,1214
3013.607921158498,1254
3015.3283089522993,1242
3017.0483875252826,1291
3018.7681571898443,1216
3020.4876182584626,1234
3022.2067710436927,1293
3023.9256158581707,1237
3025.644153014609,1239
3027.362382825801,1252
3029.0803056046193,1238
3030.797921664012,1226
3032.5152313170106,1222
3034.2322348767225,1264
3035.9489326563353,1244
3037.665324969115,1208
3039.3814121284063,1239
3041.097194447633,1251
3042.812672240299,1243
3044.5278458199855,1289
3046.2427155003525,1292
3047.9572815951406,1252
3049.671544418167,1236
3051.38550428333,1300
3053.0991615046073,1201
3054.812516396051,1199
3056.5255692717974,1293
3058.2383204460575,1286
3059.9507702331257,1257
3061.662918947372,1243
3063.3747669032446,1244
3065.0863144152736,1249
3066.7975617980674,1219
3068.508509366309,1165
3070.219157434767,1208
3071.9295063182844,1197
3073.639556331785,1213
3075.3493077902704,1228
3077.058761008821,1200
3078.7679163025964,1254
3080.476773986837,1265
3082.1853343768594,1240
3083.89359778806,1205
3085.6015645359153,1241
3087.3092349359786,1218
3089.016609303884,1265
3090.7236879553434,1257
3092.4304712061476,1267
3094.136959372166,1189
3095.843152769349,1262
3097.5490517137237,1229
3099.2546565213966,1201
3100.959967508554,1241
3102.66498499146,1202
3104.3697092864577,1240
3106.0741407099695,1250
3107.778279578498,1246
3109.482126208622,1233
3111.1856809170004,1237
3112.8889440203716,1255
3114.5919158355528,1296
3116.294596679439,1255
3117.996986869006,1294
3119.6990867213062,1298
3121.4008965534726,1244
3123.102416682717,1260
3124.803647426329,1288
3126.5045891016784,1215
3128.205242026213,1257
3129.90560651746,1238
3131.605682893025,1255
3133.3054714705922,1239
3135.0049725679282,1268
3136.7041865028714,1259
3138.4031135933465,1224
3140.101754157353,1191
3141.800108512971,1189
3143.498176978357,1253
3145.1959598717494,1214
3146.8934575114636,1291
3148.5906702158954,1236
3150.2875983035183,1218
3151.9842420928853,1189
3153.680601902627,1217
3155.376678051456,1209
3157.07247085816,1255
3158.767980641609,1199
3160.463207720748,1270
3162.158152414606,1225
3163.8528150422862,1199
3165.5471959229726,1220
3167.2412953759303,1246
3168.9351137204976,1288
3170.628651276098,1230
3172.3219083622307,1222
3174.014885298474,1232
3175.707582404485,1207
3177.4000000000005,1221
3179.092138404835,1247
3180.7839979388846,1253
3182.47557892212,1265
3184.166881674594,1196
3185.8579065164386,1214
3187.5486537678626,1231
3189.2391237491547,1175
3190.9293167806827,1209
3192.6192331828934,1244
3194.3088732763117,1276
3195.998237381542,1211
3197.687325819268,1168
3199.376138910251,1258
3201.064676975334,1264
3202.7529403354347,1274
3204.4409293115523,1274
3206.1286442247647,1212
3207.816085396229,1244
3209.5032531471825,1212
3211.190147798936,1206
3212.8767696728846,1217
3214.5631190905015,1199
3216.2491963733373,1213
3217.9350018430214,1163
3219.6205358212637,1144
3221.305798629851,1144
3222.990790590651,1162
3224.6755120256103,1211
3226.359963256751,1180
3228.0441446061795,1198
3229.7280563960758,1257
3231.411698948703,1190
3233.0950725863995,1192
3234.778177631587,1177
3236.461014406761,1274
3238.1435832345005,1217
3239.8258844374595,1222
3241.507918338374,1226
3243.1896852600576,1182
3244.8711855254023,1231
3246.552419457381,1244
3248.233387379042,1265
3249.914089613516,1246
3251.59452648401,1225
3253.274698313813,1243
3254.95460542629,1235
3256.6342481448855,1182
3258.313626793125,1183
3259.9927416946084,1192
3261.6715931730196,1195
3263.3501815521176,1180
3265.0285071557437,1210
3266.706570307815,1228
3268.3843713323286,1200
3270.0619105533615,1173
3271.739188295068,1162
3273.4162048816834,1237
3275.0929606375184,1189
3276.769455886966,1229
3278.445690954498,1193
3280.1216661646613,1194
3281.797381842087,1231
3283.4728383114807,1237
3285.1480358976296,1185
3286.8229749253996,1176
3288.4976557197333,1196
3290.172078605655,1200
3291.846243908266,1228
3293.5201519527463,1177
3295.193803064357,1169
3296.8671975684374,1184
3298.5403357904024,1167
3300.21321805575,1207
3301.8858446900567,1168
3303.558216018975,1181
3305.23033236824,1173
3306.9021940636603,1204
3308.57380143113,1157
3310.2451547966184,1220
3311.916254486174,1238
3313.5871008259246,1287
3315.2576941420766,1250
3316.9280347609147,1170
3318.5981230088046,1220
3320.2679592121895,1169
3321.9375436975924,1179
3323.606876791612,1174
3325.27595882093,1231
3326.944790112305,1165
3328.6133709925753,1224
3330.2817017886573,1164
3331.949782827547,1215
3333.617614436319,1215
3335.2851969421245,1254
3336.952530672199,1249
3338.619615953853,1173
3340.286453114475,1239
3341.9530424815357,1187
3343.619384382583,1233
3345.2854791452437,1248
3346.951327097224,1238
3348.6169285663073,1253
3350.2822838803577,1233
3351.947393367319,1210
3353.61225735521,1173
3355.2768761721345,1234
3356.9412501462693,1171
3358.605379605873,1199
3360.2692648792827,1244
3361.9329062949146,1225
3363.596304181263,1215
