CollectionTime,9/25/2024 11:04:25 AM
ExposureUsed,3
CalibratedSpectrum
-962.7078968117929,553
-959.9714848408522,514
-957.2358232597828,551
-954.5009119013725,563
-951.7667505983302,581
-949.0333391832855,545
-946.3006774887896,573
-943.5687653473143,563
-940.837602591253,539
-938.1071890529199,537
-935.3775245645503,540
-932.6486089583007,558
-929.9204420662485,557
-927.1930237203925,568
-924.4663537526524,569
-921.7404319948689,580
-919.0152582788041,578
-916.2908324361409,565
-913.5671542984834,573
-910.8442236973568,535
-908.1220404642074,524
-905.4006044304027,548
-902.679915427231,577
-899.959973285902,567
-897.2407778375464,540
-894.5223289132158,568
-891.8046263438832,541
-889.0876699604426,555
-886.3714595937089,551
-883.6559950744183,548
-880.9412762332282,540
-878.2273029007168,524
-875.5140749073835,534
-872.8015920836489,513
-870.0898542598545,532
-867.3788612662631,531
-864.6686129330585,538
-861.9591090903457,531
-859.2503495681506,537
-856.5423341964203,529
-853.8350628050229,544
-851.1285352237478,554
-848.4227512823054,569
-845.7177108103272,568
-843.0134136373656,558
-840.3098595928943,534
-837.6070485063082,564
-834.9049802069229,557
-832.2036545239757,559
-829.5030712866244,547
-826.8032303239481,579
-824.1041314649472,549
-821.4057745385428,560
-818.7081593735775,553
-816.0112857988148,594
-813.3151536429393,555
-810.6197627345566,547
-807.9251129021936,529
-805.2312039742981,543
-802.5380357792392,589
-799.8456081453069,562
-797.1539209007124,561
-794.462973873588,573
-791.772766891987,567
-789.083299783884,578
-786.3945723771743,568
-783.7065844996748,560
-781.0193359791231,556
-778.3328266431781,593
-775.6470563194197,590
-772.9620248353489,565
-770.2777320183878,559
-767.5941776958798,582
-764.9113616950891,563
-762.2292838432011,557
-759.5479439673222,544
-756.8673418944801,573
-754.1874774516235,608
-751.5083504656222,590
-748.8299607632671,565
-746.15230817127,573
-743.475392516264,579
-740.7992136248035,587
-738.1237713233636,551
-735.4490654383407,582
-732.7750957960521,600
-730.1018622227365,577
-727.4293645445534,583
-724.7576025875837,584
-722.0865761778291,572
-719.4162851412126,601
-716.7467293035781,603
-714.0779084906909,577
-711.409822528237,603
-708.7424712418238,600
-706.0758544569796,598
-703.4099719991541,580
-700.7448236937178,597
-698.0804093659622,584
-695.4167288411002,581
-692.7537819442656,609
-690.0915685005134,585
-687.4300883348199,593
-684.7693412720819,618
-682.1093271371178,620
-679.4500457546669,635
-676.7914969493897,611
-674.1336805458676,624
-671.4765963686034,614
-668.8202442420206,598
-666.1646239904642,630
-663.5097354382001,615
-660.8555784094151,604
-658.2021527282176,632
-655.5494582186366,656
-652.8974947046223,662
-650.2462620100463,661
-647.5957599587009,628
-644.9459883742998,650
-642.2969470804776,696
-639.6486359007902,687
-637.0010546587141,669
-634.3542031776476,642
-631.7080812809096,633
-629.0626887917401,641
-626.4180255333008,664
-623.7740913286734,639
-621.1308860008619,665
-618.4884093727904,661
-615.8466612673046,657
-613.2056415071715,627
-610.5653499150785,645
-607.9257863136347,680
-605.28695052537,674
-602.6488423727357,669
-600.0114616781036,656
-597.3748082637674,677
-594.7388819519412,674
-592.1036825647604,690
-589.4692099242818,686
-586.8354638524829,670
-584.2024441712624,762
-581.5701507024403,712
-578.9385832677575,701
-576.3077416888759,679
-573.6776257873787,642
-571.0482353847704,660
-568.4195703024757,645
-565.7916303618415,659
-563.164415384135,676
-560.5379251905453,672
-557.9121596021815,675
-555.2871184400748,699
-552.6628015251767,677
-550.0392086783606,674
-547.4163397204204,726
-544.794194472071,719
-542.1727727539491,725
-539.5520743866118,708
-536.9320991905377,675
-534.3128469861261,739
-531.6943175936979,748
-529.0765108334947,792
-526.4594265256793,819
-523.8430644903358,965
-521.2274245474689,1097
-518.612506517005,1113
-515.9983102187913,1120
-513.3848354725959,1178
-510.77208209810846,1261
-508.16004991493924,1339
-505.5487387426199,1466
-502.9381484006032,1558
-500.3282787082628,1517
-497.71912948489364,1420
-495.1107005497117,1329
-492.5029917218539,1214
-489.8960028203786,1099
-487.28973366426493,939
-484.68418407241325,924
-482.07935386364494,866
-479.47524285670266,879
-476.87185087025,877
-474.2691777228715,882
-471.66722323307334,864
-469.0659872192821,835
-466.4654694998459,893
-463.86566989303384,834
-461.26658821703614,822
-458.66822428996414,874
-456.07057792985,852
-453.4736489546475,821
-450.877437182231,833
-448.28194243039627,828
-445.68716451686,790
-443.09310325926003,793
-440.49975847515555,817
-437.9071299820263,780
-435.31521759727354,817
-432.72402113821954,843
-430.13354042210767,932
-427.5437752661022,861
-424.95472548728867,869
-422.36639090267386,880
-419.7787713291855,911
-417.1918665836721,896
-414.60567648290385,874
-412.0202008435715,919
-409.4354394822874,862
-406.8513922155845,850
-404.26805885991723,904
-401.685439231661,927
-399.103533147112,910
-396.522340422488,922
-393.9418608739278,891
-391.3620943174908,915
-388.7830405691583,876
-386.2046994448317,854
-383.6270707603344,847
-381.05015433141045,841
-378.473949973725,768
-375.8984575028645,705
-373.32367673433623,682
-370.74960748356875,683
-368.1762495659117,603
-365.60360279663576,618
-363.03166699093265,542
-360.4604419639154,532
-357.8899275306178,486
-355.32012350599507,504
-352.7510297049233,537
-350.1826459421999,515
-347.61497203254316,490
-345.04800779059235,498
-342.4817530309082,466
-339.91620756797226,512
-337.35137121618743,496
-334.7872437898774,477
-332.22382510328725,478
-329.66111497058273,532
-327.09911320585127,518
-324.53781962310075,539
-321.9772340362607,487
-319.4173562591816,496
-316.8581861056348,495
-314.2997233893127,528
-311.7419679238294,550
-309.1849195227194,531
-306.62857799943856,520
-304.0729431673641,522
-301.51801483979375,569
-298.963792829947,570
-296.41027695096386,598
-293.85746701590574,598
-291.3053628377552,623
-288.7539642294155,657
-286.2032710037115,680
-283.65328297338897,666
-281.1039999511146,691
-278.5554217494762,672
-276.007548180983,642
-273.4603790580651,641
-270.9139141930734,708
-268.3681533982807,676
-265.8230964858798,693
-263.27874326798565,762
-260.7350935566336,729
-258.1921471637804,822
-255.6499039013039,800
-253.10836358100266,725
-250.56752601459698,654
-248.02739101372765,790
-245.48795838995704,965
-242.94922795476816,919
-240.41119951956557,765
-237.8738728956746,768
-235.33724789434166,855
-232.80132432673452,831
-230.2661020039418,754
-227.73158073697357,788
-225.19776033676033,909
-222.66464061415422,1082
-220.1322213799284,880
-217.60050244477725,762
-215.06948361931552,790
-212.53916471408013,956
-210.00954553952818,1017
-207.48062590603843,932
-204.9524056239104,819
-202.4248845033651,905
-199.8980623545441,1039
-197.37193898751036,1019
-194.84651421224817,1008
-192.32178783866232,900
-189.79775967657952,910
-187.27442953574644,1147
-184.7517972258321,1107
-182.2298625564256,908
-179.7086253370378,778
-177.18808537710026,866
-174.66824248596583,1179
-172.14909647290835,1402
-169.6306471471229,1290
-167.11289431772548,945
-164.59583779375328,971
-162.07947738416453,1095
-159.5638128978386,1456
-157.04884414357605,1922
-154.53457093009854,2099
-152.02099306604828,1553
-149.50811035998936,1175
-146.99592262040665,1266
-144.48442965570587,1519
-141.97363127421409,2083
-139.46352728417958,2339
-136.95411749377126,2229
-134.44540171107985,1810
-131.93737974411636,1249
-129.43005140081357,1355
-126.92341648902493,1878
-124.41747481652521,2604
-121.91222619101006,3398
-119.40767042009657,4306
-116.90380731132257,4420
-114.40063667214702,3768
-111.8981583099503,2969
-109.3963720320337,3255
-106.89527764561933,3521
-104.39487495785067,4489
-101.89516377579241,7310
-99.39614390642998,9932
-96.89781515667039,11116
-94.40017733334128,10290
-91.90323024319173,7580
-89.40697369289148,4846
-86.91140748903172,3932
-84.41653143812482,4529
-81.92234534660395,6034
-79.42884902082358,7972
-76.93604226705907,9420
-74.4439248915071,8764
-71.95249670028534,8563
-69.46175749943245,8368
-66.97170709490854,9716
-64.48234529259423,11316
-61.99367189829195,11795
-59.50568671772464,11114
-57.01838955653636,11851
-54.53178022029283,13394
-52.045858514480074,13429
-49.560624244506016,12272
-47.07607721569923,11866
-44.59221723330904,13128
-42.10904410250669,13830
-39.62655762838392,15182
-37.14475761595372,16789
-34.66364387015028,17696
-32.18321619582866,19181
-29.70347439776515,22834
-27.224418280657005,28073
-24.74604764912317,36581
-22.26836230770266,63190
-19.7913620608565,65040
-17.315046712966478,65040
-14.83941606833514,65040
-12.36446993118659,65040
-9.89020810566592,65040
-7.416630395839093,65040
-4.94373660569363,65040
-2.471526539137585,65040
-6.821210263296962E-13,65040
2.47084320796705,65040
4.941003281093458,65040
7.410480415786196,65040
9.879274808531363,65040
12.347386655893956,65040
14.814816154518212,65040
17.28156350112681,65040
19.74762889252179,65040
22.21301252558385,23201
24.67771459727237,5294
27.141735304626195,4233
29.605074844762612,4786
32.06773341487792,4036
34.52971121224755,3321
36.99100843422559,3316
39.45162527824516,3515
41.91156194181792,3600
44.370818622535126,3332
46.82939551806646,3274
49.287292826160524,3933
51.74451074464503,3321
54.201049471426245,3011
56.65690920448981,2311
59.112090141899785,2266
61.56659248179983,2789
64.02041642241159,2189
66.4735621620365,2162
68.92602989905402,2508
71.37781983192338,2814
73.82893215918205,2357
76.27936707944684,2184
78.72912479141326,1801
81.17820549385567,1806
83.62660938562783,1683
86.07433666566146,1646
88.5213875329681,1984
90.96776218663751,2129
93.41346082583925,2056
95.85848364982041,1633
98.30283085790859,1324
100.7465026495089,1675
103.18949922410604,1773
105.63182078126385,1868
108.07346752062438,1465
110.51443964190923,1267
112.95473734491827,1270
115.39436082953114,1271
117.83331029570547,1508
120.27158594347827,1667
122.7091879729652,1472
125.1461165843615,1414
127.58237197794062,1257
130.01795435405518,1415
132.4528639131364,1354
134.88710085569494,1411
137.32066538231982,1518
139.75355769367923,1234
142.1857779905207,1122
144.61732647366978,1249
147.04820334403132,1271
149.47840880258934,1312
151.90794305040674,1199
154.33680628862487,1227
156.76499871846443,1306
159.19252054122433,1453
161.61937195828352,1495
164.04555317109896,1506
166.47106438120693,1921
168.89590579022217,2132
171.320077599839,2119
173.7435800118302,2111
176.16641322804742,2178
178.58857745042144,2172
181.01007288096173,2348
183.43089972175687,2269
185.85105817497413,2291
188.27054844285988,2317
190.6893707277394,2280
193.10752523201643,2201
195.5250121581745,2295
197.9418317087751,2274
200.3579840864594,2230
202.7734694939469,2391
205.18828813403627,2449
207.6024402096051,2414
210.01592592360964,2501
212.42874547908548,2515
214.84089907914665,2506
217.2523869269868,2361
219.66320922587727,2464
222.0733661791695,2451
224.48285799029293,2409
226.8916848627572,2410
229.29984700014882,2475
231.7073446061355,2517
234.11417788446204,2485
236.520347038953,2564
238.92585227351185,2499
241.33069379212054,2571
243.73487179884035,2650
246.1383864978112,2617
248.541238093252,2565
250.9434267894609,2607
253.34495279081432,2641
255.74581630176783,2630
258.1460175268563,2736
260.54555667069314,2693
262.9444339379703,2683
265.3426495334594,2713
267.7402036620107,2683
270.1370965285529,2711
272.53332833809407,2616
274.9288992957214,2453
277.32380960660055,2394
279.718059475976,2405
282.1116491091717,2289
284.5045787115897,2325
286.89684848871195,2339
289.2884586460981,2273
291.67940938938807,2279
294.0697009242996,2237
296.4593334566299,2364
298.84830719225477,2208
301.23662233712923,2340
303.6242790972866,2326
306.01127767884,2263
308.39761828798066,2180
310.78330113097934,2211
313.16832641418534,2024
315.5526943440269,2040
317.9364051270112,2119
320.3194589697242,2149
322.70185607883093,2094
325.0835966610754,2084
327.4646809232805,1939
329.8451090723478,1998
332.2248813152577,2037
334.6039978590701,1957
336.9824589109231,2064
339.36026467803447,1959
341.7374153677,1929
344.113911187295,1883
346.48975234427337,1957
348.8649390461686,1949
351.2394715005918,1905
353.61334991523415,1881
355.9865744978655,1885
358.35914545633375,1888
360.73106299856715,1856
363.10232733257146,1868
365.47293866643247,1962
367.84289720831396,1867
370.2122031664593,1927
372.5808567491905,1833
374.9488581649083,1824
377.31620762209275,1773
379.6829053293021,1869
382.0489514951745,1807
384.4143463284262,1743
386.7790900378528,1783
389.14318283232853,1757
391.50662492080653,1846
393.86941651231916,1789
396.23155781597745,1889
398.5930490409713,1811
400.9538903965696,1749
403.3140820921202,1795
405.6736243370498,1724
408.03251734086336,1772
410.3907613131465,1833
412.74835646356166,1844
415.10530300185144,1773
417.4616011378372,1783
419.81725108141893,1798
422.1722530425758,1753
424.5266072313656,1753
426.880313857925,1770
429.2333731324701,1731
431.58578526529516,1700
433.9375504667738,1742
436.2886689473588,1651
438.63914091758113,1730
440.9889665880513,1676
443.33814616945835,1763
445.68667987257015,1649
448.03456790823395,1681
450.3818104873759,1712
452.72840782100013,1724
455.07436012019105,1725
457.41966759611057,1688
459.7643304600007,1697
462.10834892318155,1670
464.4517231970525,1717
466.79445349309174,1688
469.1365400228566,1704
471.4779829979826,1642
473.81878263018564,1642
476.15893913125876,1743
478.4984527130747,1702
480.8373235875855,1758
483.17555196682144,1801
485.5131380628919,1869
487.8500820879857,1916
490.1863842543697,2008
492.52204477439034,2117
494.8570638604725,2265
497.1914417251204,2517
499.52517858091653,2868
501.85827464052306,3087
504.19073011668036,3253
506.5225452222086,3373
508.85372017000566,3306
511.18425517304956,3330
513.514150444396,3520
515.8434061971808,4331
518.1720226446176,5128
520.4999999999999,5115
522.8273384766991,4962
525.1540382881666,4536
527.480099647932,4103
529.8055227696037,3317
532.1303078668694,2455
534.454455153496,2072
536.777964843328,1942
539.1008371502907,1837
541.4230722883866,1724
543.744670471698,1741
546.0656319143858,1777
548.3859568306899,1671
550.7056454349294,1670
553.0246979415016,1756
555.3431145648834,1656
557.6608955196306,1661
559.978041020377,1719
562.2945512818363,1709
564.6104265188006,1638
566.9256669461412,1655
569.2402727788082,1691
571.5542442318302,1647
573.8675815203156,1731
576.1802848594508,1734
578.4923544645015,1724
580.8037905508126,1721
583.114593333807,1773
585.4247630289875,1704
587.7342998519354,1725
590.0432040183106,1693
592.3514757438526,1697
594.6591152443794,1660
596.9661227357875,1675
599.2724984340531,1669
601.578242555231,1706
603.8833553154542,1667
606.1878369309362,1752
608.4916876179676,1690
610.7949075929192,1599
613.0974970722403,1655
615.3994562724587,1726
617.7007854101818,1718
620.0014847020951,1637
622.3015543649641,1670
624.6009946156324,1714
626.8998056710224,1703
629.1979877481361,1750
631.4955410640538,1782
633.7924658359349,1688
636.0887622810175,1755
638.3844306166192,1796
640.6794710601358,1735
642.9738838290426,1746
645.2676691408932,1794
647.5608272133207,1823
649.853358264037,1808
652.1452625108324,1709
654.4365401715764,1713
656.7271914642178,1737
659.0172166067838,1857
661.3066158173809,1755
663.5953893141935,1750
665.8835373154867,1868
668.1710600396028,1813
670.4579577049639,1801
672.7442305300709,1836
675.0298787335033,1779
677.3149025339197,1744
679.599302150058,1783
681.8830778007342,1697
684.1662297048437,1681
686.4487580813608,1838
688.7306631493387,1760
691.0119451279091,1716
693.2926042362834,1793
695.5726406937516,1804
697.8520547196814,1709
700.1308465335215,1740
702.4090163547982,1753
704.6865644031171,1684
706.9634908981619,1739
709.2397960596965,1793
711.5154801075631,1672
713.7905432616823,1680
716.0649857420548,1693
718.3388077687592,1678
720.612009561953,1752
722.8845913418733,1794
725.1565533288352,1775
727.427895743234,1785
729.6986188055427,1745
731.9687227363137,1704
734.238207756178,1711
736.5070740858458,1677
738.7753219461066,1672
741.0429515578281,1702
743.3099631419569,1795
745.5763569195191,1751
747.8421331116193,1726
750.1072919394409,1676
752.3718336242467,1750
754.6357583873777,1731
756.8990664502545,1685
759.1617580343765,1709
761.423833361321,1758
763.6852926527457,1706
765.9461361303862,1737
768.206364016058,1745
770.4659765316536,1746
772.7249738991469,1688
774.9833563405886,1763
777.2411240781092,1764
779.4982773339183,1728
781.7548163303044,1731
784.010741289634,1765
786.2660524343538,1867
788.5207499869881,1773
790.7748341701416,1762
793.0283052064964,1767
795.2811633188143,1767
797.5334087299362,1764
799.7850416627813,1782
802.0360623403484,1826
804.2864709857143,1754
806.5362678220353,1796
808.7854530725468,1760
811.0340269605625,1757
813.2819897094754,1771
815.5293415427581,1757
817.77608268396,1696
820.0222133567116,1776
822.2677337847211,1742
824.5126441917765,1736
826.7569448017433,1728
829.0006358385675,1817
831.2437175262731,1745
833.4861900889629,1788
835.7280537508192,1837
837.9693087361026,1740
840.2099552691533,1787
842.4499935743896,1757
844.689423876309,1778
846.9282463994886,1760
849.1664613685833,1801
851.4040690083276,1785
853.6410695435349,1842
855.877463199097,1800
858.1132501999847,1807
860.3484307712487,1739
862.5830051380175,1753
864.8169735254988,1806
867.0503361589791,1744
869.2830932638243,1737
871.5152450654786,1684
873.7467917894654,1799
875.9777336613873,1744
878.2080709069252,1797
880.4378037518389,1777
882.666932421968,1794
884.8954571432301,1828
887.1233781416219,1877
889.3506956432192,1785
891.5774098741766,1865
893.803521060728,1783
896.0290294291852,1822
898.2539352059397,1827
900.4782386174619,1764
902.7019398903011,1835
904.925039251085,1854
907.147536926521,1806
909.3694331433943,1836
911.59072812857,1807
913.8114221089921,1753
916.0315153116827,1736
918.2510079637437,1775
920.4699002923547,1773
922.6881925247761,1817
924.905884888345,1791
927.1229776104793,1753
929.3394709186747,1767
931.555365040506,1787
933.7706602036275,1787
935.9853566357709,1797
938.1994545647489,1861
940.4129542184515,1844
942.6258558248488,1829
944.8381596119883,1844
947.0498658079974,1789
949.2609746410825,1823
951.4714863395287,1778
953.6814011316998,1766
955.8907192460387,1878
958.0994409110671,1768
960.3075663553858,1791
962.5150958076741,1816
964.7220294966913,1796
966.928367651274,1801
969.1341105003388,1773
971.3392582728806,1686
973.5438111979742,1736
975.747769504772,1727
977.9511334225061,1749
980.153903180487,1722
982.3560790081052,1787
984.5576611348289,1651
986.7586497902058,1708
988.9590452038618,1732
991.158847605503,1671
993.3580572249133,1675
995.5566742919558,1700
997.7546990365728,1689
999.952131688785,1626
1002.1489724786926,1601
1004.3452216364743,1540
1006.5408793923874,1513
1008.7359459767691,1485
1010.9304216200343,1512
1013.1243065526781,1575
1015.3176010052733,1499
1017.510305208472,1494
1019.7024193930064,1509
1021.8939437896848,1483
1024.0848786293977,1469
1026.2752241431122,1518
1028.4649805618747,1512
1030.6541481168115,1504
1032.842727039127,1486
1035.0307175601051,1450
1037.2181199111074,1487
1039.4049343235752,1474
1041.591161029029,1454
1043.7768002590683,1442
1045.9618522453698,1463
1048.1463172196918,1436
1050.3301954138697,1474
1052.513487059818,1480
1054.69619238953,1455
1056.8783116350783,1446
1059.0598450286152,1438
1061.2407928023704,1471
1063.4211551886528,1491
1065.6009324198508,1471
1067.780124728432,1458
1069.9587323469414,1482
1072.1367555080046,1474
1074.314194444325,1436
1076.4910493886855,1421
1078.667320573947,1417
1080.843008233051,1390
1083.0181125990161,1414
1085.1926339049414,1436
1087.3665723840027,1386
1089.5399282694575,1483
1091.7127017946405,1451
1093.8848931929647,1426
1096.0565026979243,1460
1098.2275305430899,1416
1100.3979769621128,1337
1102.567842188722,1368
1104.737126456726,1364
1106.9058300000124,1385
1109.0739530525475,1352
1111.2414958483764,1395
1113.4084586216231,1375
1115.5748416064907,1376
1117.7406450372605,1405
1119.9058691482942,1412
1122.0705141740304,1412
1124.2345803489884,1389
1126.3980679077658,1380
1128.5609770850388,1360
1130.7233081155623,1392
1132.8850612341707,1372
1135.0462366757774,1340
1137.2068346753745,1410
1139.3668554680326,1324
1141.526299288901,1327
1143.68516637321,1344
1145.8434569562655,1303
1148.001171273455,1417
1150.158309560244,1365
1152.3148720521767,1327
1154.470858984876,1354
1156.626270594044,1335
1158.7811071154629,1338
1160.9353687849912,1399
1163.089055838569,1382
1165.242168512213,1362
1167.3947070420209,1345
1169.5466716641677,1357
1171.6980626149075,1344
1173.8488801305748,1364
1175.9991244475814,1352
1178.1487958024186,1358
1180.2978944316555,1429
1182.4464205719428,1351
1184.5943744600072,1317
1186.7417563326567,1361
1188.8885664267755,1359
1191.0348049793297,1359
1193.1804722273619,1344
1195.325568407995,1315
1197.4700937584303,1342
1199.614048515948,1381
1201.7574329179074,1382
1203.900247201746,1383
1206.042491604982,1360
1208.1841663652099,1381
1210.3252717201053,1352
1212.465807907422,1354
1214.6057751649923,1364
1216.7451737307279,1376
1218.8840038426192,1354
1221.0222657387353,1406
1223.1599596572241,1407
1225.2970858363137,1393
1227.4336445143094,1438
1229.5696359295966,1404
1231.705060320639,1418
1233.8399179259786,1421
1235.9742089842384,1406
1238.107933734118,1430
1240.2410924143974,1403
1242.373685263935,1420
1244.5057125216676,1431
1246.6371744266116,1406
1248.7680712178621,1420
1250.898403134593,1400
1253.028170416058,1404
1255.1573733015875,1369
1257.2860120305932,1459
1259.4140868425648,1497
1261.54159797707,1497
1263.6685456737569,1420
1265.7949301723515,1425
1267.9207517126597,1435
1270.046010534565,1451
1272.1707068780306,1496
1274.2948409830983,1432
1276.4184130898889,1514
1278.541423438603,1520
1280.6638722695184,1503
1282.785759822993,1498
1284.9070863394636,1482
1287.0278520594447,1545
1289.1480572235314,1553
1291.2677020723963,1563
1293.3867868467923,1638
1295.5053117875495,1553
1297.623277135579,1565
1299.740683131868,1576
1301.8575300174857,1611
1303.973818033578,1571
1306.0895474213703,1674
1308.2047184221678,1572
1310.3193312773528,1650
1312.4333862283888,1668
1314.5468835168163,1646
1316.659823384255,1635
1318.7722060724045,1632
1320.8840318230418,1647
1322.9953008780249,1684
1325.1060134792888,1698
1327.2161698688478,1610
1329.3257702887959,1657
1331.4348149813054,1690
1333.5433041886276,1677
1335.6512381530933,1643
1337.7586171171101,1670
1339.8654413231675,1632
1341.9717110138317,1586
1344.0774264317488,1593
1346.1825878196432,1598
1348.2871954203192,1620
1350.3912494766587,1622
1352.4947502316231,1582
1354.5976979282532,1591
1356.7000928096686,1592
1358.8019351190665,1590
1360.9032250997243,1568
1363.0039629949988,1640
1365.1041490483235,1615
1367.2037835032133,1558
1369.3028666032606,1563
1371.401398592137,1592
1373.4993797135926,1501
1375.5968102114575,1629
1377.6936903296396,1560
1379.7900203121262,1585
1381.8858004029835,1555
1383.9810308463561,1572
1386.075711886469,1543
1388.1698437676241,1605
1390.2634267342032,1545
1392.356461030667,1564
1394.4489469015557,1468
1396.5408845914872,1564
1398.6322743451592,1532
1400.7231164073469,1602
1402.813411022907,1540
1404.903158436773,1594
1406.9923588939578,1583
1409.0810126395531,1521
1411.1691199187303,1617
1413.2566809767386,1556
1415.343696058907,1612
1417.4301654106425,1627
1419.5160892774315,1615
1421.6014679048399,1628
1423.6863015385125,1635
1425.7705904241707,1643
1427.8543348076178,1610
1429.9375349347342,1693
1432.0201910514802,1675
1434.102303403894,1666
1436.1838722380944,1715
1438.2648978002767,1710
1440.3453803367174,1734
1442.4253200937692,1725
1444.5047173178677,1731
1446.5835722555234,1760
1448.6618851533285,1827
1450.739656257952,1888
1452.8168858161434,1779
1454.8935740747306,1809
1456.96972128062,1881
1459.045327680797,1858
1461.120393522327,1888
1463.1949190523528,1887
1465.2689045180973,1902
1467.3423501668608,1927
1469.415256246024,2033
1471.4876230030463,2053
1473.559450685465,2001
1475.6307395408976,2013
1477.7014898170391,2141
1479.771701761665,2108
1481.8413756226287,2097
1483.9105116478618,2142
1485.9791100853772,2254
1488.0471711832643,2189
1490.1146951896926,2221
1492.1816823529098,2215
1494.2481329212433,2237
1496.3140471430984,2231
1498.3794252669609,2220
1500.4442675413939,2288
1502.5085742150404,2336
1504.572345536622,2300
1506.6355817549388,2341
1508.6982831188702,2333
1510.7604498773744,2304
1512.8220822794883,2405
1514.8831805743293,2370
1516.9437450110909,2382
1519.003775839048,2405
1521.0632733075522,2392
1523.1222376660367,2406
1525.1806691640113,2425
1527.2385680510652,2510
1529.2959345768668,2520
1531.3527689911643,2468
1533.4090715437833,2547
1535.4648424846291,2526
1537.5200820636855,2523
1539.5747905310159,2547
1541.6289681367616,2680
1543.6826151311434,2619
1545.7357317644614,2777
1547.7883182870937,2785
1549.8403749494987,2771
1551.8919020022113,2804
1553.9428996958477,2916
1555.9933682811015,2901
1558.0433080087469,3045
1560.0927191296346,3029
1562.1416018946961,3156
1564.1899565549415,3157
1566.2377833614592,3119
1568.2850825654164,3119
1570.3318544180606,3022
1572.3780991707158,2980
1574.423817074788,3000
1576.4690083817595,2881
1578.5136733431923,2729
1580.5578122107272,2666
1582.601425236085,2598
1584.6445126710646,2576
1586.6870747675434,2401
1588.7291117774776,2406
1590.7706239529034,2339
1592.8116115459347,2275
1594.8520748087658,2162
1596.8920139936686,2122
1598.9314293529933,2085
1600.9703211391711,2033
1603.008689604711,1924
1605.0465350022005,1884
1607.0838575843068,1764
1609.1206576037753,1850
1611.1569353134305,1786
1613.1926909661765,1793
1615.2279248149953,1785
1617.2626371129481,1668
1619.2968281131757,1651
1621.3304980688963,1676
1623.3636472334088,1603
1625.39627586009,1653
1627.428384202396,1604
1629.459972513861,1499
1631.4910410480993,1549
1633.5215900588028,1566
1635.551619799744,1532
1637.5811305247717,1505
1639.6101224878166,1483
1641.6385959428862,1489
1643.6665511440683,1455
1645.693988345528,1444
1647.7209078015112,1457
1649.7473097663405,1473
1651.7731944944203,1453
1653.7985622402307,1438
1655.823413258333,1506
1657.847747803366,1478
1659.8715661300494,1387
1661.8948684931793,1448
1663.9176551476316,1396
1665.9399263483624,1432
1667.9616823504057,1406
1669.982923408873,1383
1672.0036497789574,1428
1674.0238617159293,1402
1676.043559475138,1359
1678.0627433120121,1396
1680.081413482059,1406
1682.0995702408654,1453
1684.117213844096,1358
1686.134344547495,1473
1688.1509626068864,1434
1690.1670682781705,1378
1692.182661817329,1386
1694.1977434804217,1411
1696.2123135235875,1414
1698.226372203043,1392
1700.2399197750851,1416
1702.2529564960905,1452
1704.2654826225112,1402
1706.277498410882,1452
1708.2890041178139,1424
1710.2999999999988,1416
1712.3104863142066,1351
1714.3204633172854,1364
1716.329931266163,1355
1718.3388904178469,1405
1720.3473410294214,1369
1722.3552833580516,1360
1724.3627176609807,1423
1726.3696441955308,1365
1728.3760632191033,1344
1730.3819749891782,1410
1732.3873797633146,1347
1734.3922777991502,1384
1736.3966693544012,1374
1738.4005546868639,1370
1740.4039340544127,1359
1742.406807715001,1348
1744.4091759266616,1344
1746.4110389475054,1315
1748.4123970357223,1379
1750.413250449582,1385
1752.4135994474318,1319
1754.4134442876993,1357
1756.4127852288902,1319
1758.4116225295893,1274
1760.4099564484595,1329
1762.407787244244,1297
1764.405115175764,1304
1766.4019405019203,1394
1768.3982634816916,1303
1770.3940843741357,1306
1772.3894034383907,1316
1774.3842209336717,1316
1776.378537119274,1301
1778.372352254571,1308
1780.3656665990156,1300
1782.3584804121397,1280
1784.3507939535534,1315
1786.3426074829463,1289
1788.3339212600863,1277
1790.3247355448211,1300
1792.3150505970766,1296
1794.3048666768573,1273
1796.2941840442477,1291
1798.2830029594106,1328
1800.2713236825884,1276
1802.2591464741004,1296
1804.2464715943465,1268
1806.2332993038058,1328
1808.2196298630352,1316
1810.2054635326708,1354
1812.190800573428,1284
1814.175641246101,1270
1816.1599858115628,1293
1818.1438345307652,1341
1820.127187664738,1367
1822.1100454745924,1324
1824.092408221516,1324
1826.0742761667766,1258
1828.055649571721,1293
1830.0365286977735,1278
1832.0169138064398,1324
1833.9968051593014,1316
1835.9762030180214,1281
1837.9551076443408,1220
1839.9335193000788,1320
1841.9114382471344,1256
1843.888864747485,1220
1845.8657990631878,1267
1847.842241456378,1253
1849.8181921892697,1317
1851.7936515241558,1306
1853.7686197234098,1317
1855.7430970494815,1289
1857.7170837649014,1254
1859.6905801322787,1277
1861.6635864143004,1308
1863.6361028737338,1286
1865.608129773424,1281
1867.5796673762961,1304
1869.5507159453537,1300
1871.521275743678,1305
1873.4913470344313,1301
1875.4609300808534,1333
1877.4300251462632,1290
1879.3986324940588,1267
1881.366752387717,1256
1883.3343850907936,1275
1885.3015308669228,1320
1887.268189979819,1294
1889.2343626932739,1280
1891.2000492711595,1267
1893.1652499774254,1268
1895.1299650761011,1309
1897.0941948312952,1337
1899.0579395071945,1332
1901.0211993680641,1298
1902.98397467825,1294
1904.9462657021745,1255
1906.9080727043415,1324
1908.869395949332,1297
1910.8302357018065,1287
1912.790592226504,1282
1914.7504657882428,1279
1916.7098566519212,1311
1918.6687650825133,1290
1920.6271913450764,1328
1922.5851357047422,1290
1924.5425984267245,1285
1926.499579776314,1322
1928.4560800188833,1312
1930.4120994198802,1291
1932.367638244833,1297
1934.32269675935,1332
1936.2772752291175,1241
1938.231373919899,1307
1940.1849930975404,1275
1942.1381330279637,1277
1944.0907939771696,1289
1946.0429762112412,1276
1947.9946799963363,1281
1949.9459055986945,1276
1951.896653284633,1291
1953.8469233205478,1222
1955.7967159729142,1267
1957.7460315082863,1277
1959.6948701932974,1258
1961.6432322946594,1247
1963.5911180791632,1254
1965.5385278136787,1255
1967.4854617651545,1312
1969.4319202006182,1255
1971.377903387176,1268
1973.3234115920136,1240
1975.268445082395,1265
1977.2130041256642,1259
1979.1570889892423,1252
1981.1006999406304,1236
1983.04383724741,1259
1984.986501177238,1320
1986.928691997853,1249
1988.8704099770712,1207
1990.811655382789,1290
1992.7524284829801,1306
1994.692729545698,1273
1996.6325588390755,1264
1998.5719166313224,1282
2000.5108031907307,1256
2002.4492187856677,1267
2004.387163684583,1201
2006.3246381560011,1292
2008.2616424685298,1207
2010.1981768908527,1221
2012.1342416917332,1212
2014.069837140014,1253
2016.0049635046162,1193
2017.9396210545406,1201
2019.8738100588666,1258
2021.8075307867502,1241
2023.740783507431,1212
2025.6735684902228,1196
2027.6058860045214,1235
2029.5377363198004,1248
2031.4691197056118,1179
2033.4000364315875,1219
2035.3304867674374,1234
2037.260470982952,1236
2039.189989347998,1250
2041.1190421325232,1194
2043.047629606554,1232
2044.9757520401945,1263
2046.9034097036288,1292
2048.8306028671195,1202
2050.7573318010086,1238
2052.683596775716,1229
2054.609398061742,1240
2056.5347359296647,1231
2058.4596106501403,1256
2060.384022493906,1269
2062.3079717317764,1286
2064.231458634646,1241
2066.1544834734873,1226
2068.077046519352,1246
2069.99914804337,1259
2071.9207883167524,1225
2073.8419676107865,1236
2075.7626861968406,1240
2077.6829443463607,1201
2079.6027423308715,1201
2081.522080421977,1164
2083.440958891362,1203
2085.359378010786,1190
2087.2773380520907,1254
2089.194839287196,1264
2091.111881988101,1270
2093.0284664268825,1253
2094.9445928756973,1202
2096.86026160678,1270
2098.775472892446,1212
2100.690227005088,1248
2102.604524217178,1230
2104.5183648012676,1233
2106.431749029985,1227
2108.34467717604,1218
2110.2571495122206,1249
2112.169166311393,1248
2114.080727846503,1249
2115.9918343905747,1208
2117.902486216711,1230
2119.8126835980956,1236
2121.722426807987,1234
2123.6317161197285,1214
2125.5405518067364,1274
2127.448934142509,1238
2129.356863400624,1306
2131.264339854737,1257
2133.1713637785815,1232
2135.077935445972,1181
2136.9840551308002,1244
2138.889723107037,1283
2140.7949396487334,1255
2142.699705030018,1241
2144.6040195250994,1247
2146.507883408264,1272
2148.4112969538774,1203
2150.3142604363848,1225
2152.2167741303097,1298
2154.1188383102535,1263
2156.0204532508997,1239
2157.9216192270064,1276
2159.822336513414,1252
2161.7226053850413,1259
2163.622426116884,1295
2165.5217989840185,1212
2167.4207242616,1284
2169.319202224862,1271
2171.2172331491165,1245
2173.1148173097563,1242
2175.0119549822507,1267
2176.90864644215,1292
2178.8048919650823,1259
2180.7006918267534,1290
2182.596046302952,1273
2184.4909556695407,1295
2186.3854202024645,1267
2188.279440177746,1192
2190.173015871487,1281
2192.066147559868,1225
2193.958835519149,1273
2195.851080025667,1247
2197.7428813558417,1250
2199.6342397861667,1313
2201.5251555932186,1228
2203.415629053651,1242
2205.3056604441986,1295
2207.19525004167,1278
2209.084398122958,1285
2210.9731049650327,1267
2212.861370844941,1254
2214.749196039812,1300
2216.636580826851,1266
2218.523525483344,1266
2220.410030286655,1256
2222.296095514226,1243
2224.1817214435805,1304
2226.066908352319,1258
2227.951656518121,1278
2229.835966218746,1264
2231.71983773203,1231
2233.6032713358913,1282
2235.486267308324,1310
2237.3688259274036,1316
2239.2509474712824,1233
2241.132632218193,1276
2243.013880446447,1238
2244.8946924344323,1275
2246.7750684606203,1281
2248.6550088035574,1252
2250.534513741871,1254
2252.413583554265,1257
2254.292218519526,1319
2256.170418916517,1260
2258.0481850241786,1242
2259.925517121534,1232
2261.8024154876825,1272
2263.678880401803,1310
2265.5549121431536,1298
2267.430510991071,1241
2269.305677224971,1283
2271.180411124348,1245
2273.0547129687766,1252
2274.9285830379076,1227
2276.8020216114737,1290
2278.6750289692845,1198
2280.5476053912294,1250
2282.4197511572766,1299
2284.2914665474727,1306
2286.162751841943,1303
2288.0336073208937,1266
2289.904033264608,1290
2291.774029953448,1262
2293.6435976678554,1302
2295.5127366883517,1315
2297.381447295534,1243
2299.2497297700825,1261
2301.1175843927526,1230
2302.9850114443825,1172
2304.852011205885,1220
2306.7185839582553,1205
2308.5847299825664,1153
2310.4504495599676,1137
2312.3157429716925,1197
2314.1806104990483,1120
2316.0450524234247,1179
2317.9090690262888,1147
2319.772660589186,1186
2321.635827393742,1223
2323.498569721661,1189
2325.3608878547248,1161
2327.2227820747967,1192
2329.0842526638157,1211
2330.945299903803,1149
2332.805924076857,1185
2334.6661254651535,1183
2336.525904350951,1186
2338.3852610165827,1167
2340.244195744464,1149
2342.102708817088,1148
2343.9608005170253,1172
2345.8184711269287,1227
2347.675720929526,1157
2349.532550207628,1156
2351.38895924412,1203
2353.24494832197,1105
2355.100517724223,1149
2356.955667734004,1223
2358.810398634514,1213
2360.664710709037,1177
2362.5186042409337,1194
2364.3720795136437,1182
2366.225136810686,1196
2368.0777764156583,1198
2369.929998612237,1205
2371.7818036841777,1207
2373.633191915315,1183
2375.484163589562,1210
2377.3347189909114,1216
2379.184858403434,1232
2381.03458211128,1159
2382.8838903986775,1194
2384.732783549936,1176
2386.5812618494406,1197
2388.4293255816588,1212
2390.2769750311327,1198
2392.1242104824883,1236
2393.971032220427,1182
2395.8174405297295,1231
2397.6634356952563,1198
2399.509018001947,1192
2401.3541877348193,1226
2403.1989451789705,1223
2405.043290619576,1216
2406.8872243418905,1195
2408.730746631247,1214
2410.5738577730594,1209
2412.4165580528183,1219
2414.258847756095,1213
2416.100727168537,1211
2417.9421965758734,1255
2419.783256263912,1207
2421.623906518538,1197
2423.4641476257157,1193
2425.303979871491,1229
2427.143403541984,1244
2428.9824189233977,1228
2430.821026302012,1234
2432.6592259641866,1173
2434.497018196361,1270
2436.33440328505,1194
2438.171381516851,1194
2440.00795317844,1240
2441.844118556569,1197
2443.6798779380724,1171
2445.5152316098606,1183
2447.3501798589255,1187
2449.1847229723357,1163
2451.0188612372403,1181
2452.8525949408663,1235
2454.6859243705203,1218
2456.518849813587,1189
2458.3513715575314,1165
2460.183489889895,1196
2462.015205098301,1241
2463.8465174704493,1224
2465.67742729412,1273
2467.5079348571717,1172
2469.338040447542,1253
2471.1677443532476,1216
2472.9970468623833,1247
2474.825948263123,1265
2476.6544488437207,1194
2478.482548892508,1212
2480.310248697896,1228
2482.137548548374,1273
2483.9644487325118,1237
2485.790949538956,1231
2487.617051256433,1256
2489.44275417375,1208
2491.26805857979,1215
2493.0929647635157,1299
2494.917473013971,1237
2496.741583620276,1279
2498.5652968716304,1271
2500.3886130573137,1251
2502.2115324666834,1231
2504.0340553891765,1270
2505.856182114308,1239
2507.6779129316733,1344
2509.499248130945,1278
2511.3201880018764,1279
2513.140732834298,1276
2514.9608829181198,1347
2516.780638543331,1265
2518.6,1242
2520.418967578273,1270
2522.237541568376,1302
2524.0557222606144,1303
2525.8735099453706,1304
2527.6909049131086,1282
2529.507907454368,1305
2531.32451785977,1322
2533.140736420014,1344
2534.9565634258774,1297
2536.771999168218,1347
2538.5870439379714,1341
2540.4016980261526,1312
2542.2159617238544,1389
2544.02983532225,1402
2545.8433191125914,1345
2547.656413386209,1408
2549.4691184345115,1334
2551.2814345489874,1404
2553.093362021204,1346
2554.904901142808,1399
2556.716052205523,1442
2558.526815501153,1401
2560.3371913215824,1443
2562.147179958771,1483
2563.956781704761,1436
2565.7659968516705,1386
2567.5748256916986,1443
2569.3832685171224,1481
2571.1913256202984,1412
2572.9989972936614,1420
2574.806283829725,1452
2576.613185521084,1480
2578.4197026604074,1494
2580.2258355404483,1441
2582.031584454035,1512
2583.836949694077,1467
2585.6419315535613,1472
2587.4465303255533,1464
2589.2507463032002,1567
2591.0545797797245,1456
2592.8580310484303,1546
2594.6611004026995,1570
2596.463788135992,1501
2598.266094541849,1521
2600.0680199138874,1506
2601.869564545807,1492
2603.670728731383,1531
2605.4715127644704,1468
2607.2719169390048,1492
2609.071941548998,1478
2610.8715868885433,1457
2612.670853251811,1491
2614.469740933052,1493
2616.268250226594,1465
2618.0663814268455,1502
2619.864134828292,1456
2621.6615107255006,1484
2623.458509413115,1491
2625.2551311858597,1381
2627.0513763385347,1457
2628.8472451660223,1430
2630.6427379632833,1418
2632.4378550253564,1382
2634.232596647359,1438
2636.026963124488,1416
2637.8209547520187,1441
2639.6145718253065,1361
2641.407814639785,1448
2643.200683490966,1449
2644.9931786744414,1406
2646.7853004858807,1377
2648.577049221034,1377
2650.3684251757277,1437
2652.1594286458712,1371
2653.9500599274484,1352
2655.740319316525,1343
2657.5302071092437,1376
2659.3197236018286,1370
2661.10886909058,1348
2662.8976438718782,1394
2664.686048242183,1354
2666.4740824980327,1346
2668.2617469360443,1330
2670.0490418529134,1261
2671.8359675454153,1290
2673.622524310403,1353
2675.408712444811,1287
2677.1945322456495,1303
2678.979984010009,1313
2680.76506803506,1269
2682.5497846180497,1213
2684.334134056306,1262
2686.1181166472343,1289
2687.9017326883213,1277
2689.6849824771293,1242
2691.4678663113013,1263
2693.2503844885596,1269
2695.032537306705,1230
2696.8143250636167,1205
2698.5957480572542,1223
2700.3768065856534,1208
2702.1575009469316,1206
2703.937831439283,1198
2705.717798360982,1221
2707.4974020103837,1236
2709.276642685917,1233
2711.055520686095,1188
2712.834036309506,1206
2714.612189854819,1228
2716.389981620782,1216
2718.1674119062204,1186
2719.944481010041,1183
2721.721189231226,1220
2723.4975368688415,1228
2725.273524222027,1228
2727.0491515900053,1228
2728.824419272075,1189
2730.5993275676146,1180
2732.3738767760838,1159
2734.148067197016,1151
2735.921899130031,1206
2737.6953728748194,1177
2739.468488731156,1239
2741.2412469988926,1204
2743.0136479779617,1103
2744.785691968372,1156
2746.5573792702116,1171
2748.3287101836504,1133
2750.099685008934,1215
2751.870304046388,1169
2753.640567596418,1153
2755.4104759595057,1101
2757.1800294362156,1150
2758.949228327187,1128
2760.7180729331412,1131
2762.486563554877,1209
2764.254700493272,1125
2766.022484049284,1154
2767.789914523947,1131
2769.5569922183786,1184
2771.3237174337705,1170
2773.090090471394,1130
2774.8561116326036,1095
2776.6217812188274,1146
2778.3870995315756,1188
2780.1520668724356,1124
2781.9166835430747,1138
2783.6809498452394,1151
2785.444866080754,1133
2787.2084325515225,1169
2788.971649559527,1131
2790.73451740683,1161
2792.4970363955713,1166
2794.2592068279705,1159
2796.0210290063264,1082
2797.7825032330147,1175
2799.543629810493,1174
2801.304409041296,1163
2803.0648412280366,1138
2804.8249266734088,1101
2806.5846656801846,1127
2808.344058551212,1177
2810.1031055894246,1185
2811.8618070978273,1147
2813.6201633795085,1168
2815.378174737636,1171
2817.1358414754536,1151
2818.893163896285,1165
2820.6501423035334,1179
2822.4067770006814,1180
2824.1630682912883,1166
2825.9190164789957,1150
2827.6746218675207,1136
2829.429884760661,1111
2831.184805462294,1179
2832.9393842763743,1171
2834.693621506936,1159
2836.4475174580916,1169
2838.201072434034,1158
2839.954286739034,1108
2841.707160677441,1117
2843.459694553685,1155
2845.2118886722724,1144
2846.96374333779,1188
2848.7152588549034,1154
2850.4664355283567,1128
2852.217273662973,1153
2853.9677735636546,1148
2855.7179355353833,1165
2857.4677598832186,1166
2859.217246912299,1189
2860.9663969278427,1153
2862.715210235146,1163
2864.4636871395846,1144
2866.211827946614,1110
2867.9596329617652,1164
2869.7071024906536,1163
2871.4542368389684,1197
2873.20103631248,1166
2874.947501217038,1117
2876.6936318585695,1080
2878.4394285430812,1137
2880.1848915766604,1146
2881.9300212654707,1124
2883.6748179157553,1108
2885.4192818338374,1135
2887.1634133261173,1123
2888.907212699077,1100
2890.6506802592744,1150
2892.393816313348,1125
2894.1366211680142,1126
2895.8790951300693,1221
2897.621238506388,1124
2899.363051603925,1122
2901.1045347297118,1160
2902.8456881908596,1126
2904.58651229456,1115
2906.327007348081,1152
2908.067173658772,1142
2909.8070115340597,1135
2911.5465212814497,1126
2913.285703208527,1112
2915.0245576229563,1090
2916.7630848324807,1108
2918.5012851449196,1112
2920.2391588681758,1102
2921.976706310227,1115
2923.7139277791334,1128
2925.4508235830313,1134
2927.187394030137,1153
2928.923639428745,1113
2930.6595600872306,1183
2932.395156314046,1136
2934.1304284177218,1161
2935.8653767068713,1160
2937.6000014901815,1208
2939.3343030764227,1152
2941.068281774442,1160
2942.8019378931644,1167
2944.5352717415976,1236
2946.2682836288236,1158
2948.0009738640065,1138
2949.7333427563885,1151
2951.465390615289,1124
2953.1971177501086,1125
2954.9285244703265,1164
2956.6596110855,1119
2958.3903779052657,1123
2960.1208252393385,1140
2961.8509533975125,1114
2963.5807626896617,1139
2965.3102534257378,1116
2967.0394259157715,1128
2968.768280469873,1143
2970.496817398232,1108
2972.2250370111146,1158
2973.952939618869,1151
2975.6805255319196,1164
2977.4077950607707,1125
2979.134748516006,1168
2980.861386208289,1143
2982.587708448359,1157
2984.313715547037,1121
2986.039407815222,1135
2987.764785563891,1102
2989.489849104102,1073
2991.2145987469908,1122
2992.9390348037705,1112
2994.6631575857346,1109
2996.3869674042576,1125
2998.1104645707887,1120
2999.83364939686,1097
3001.5565221940783,1153
3003.2790832741334,1147
3005.0013329487924,1085
3006.7232715298996,1121
3008.4448993293804,1079
3010.166216659239,1133
3011.887223831558,1094
3013.607921158498,1108
3015.3283089522993,1065
3017.0483875252826,1142
3018.7681571898443,1112
3020.4876182584626,1062
3022.2067710436927,1094
3023.9256158581707,1124
3025.644153014609,1062
3027.362382825801,1113
3029.0803056046193,1101
3030.797921664012,1113
3032.5152313170106,1170
3034.2322348767225,1118
3035.9489326563353,1128
3037.665324969115,1138
3039.3814121284063,1097
3041.097194447633,1150
3042.812672240299,1075
3044.5278458199855,1114
3046.2427155003525,1149
3047.9572815951406,1181
3049.671544418167,1110
3051.38550428333,1121
3053.0991615046073,1144
3054.812516396051,1120
3056.5255692717974,1138
3058.2383204460575,1127
3059.9507702331257,1105
3061.662918947372,1128
3063.3747669032446,1150
3065.0863144152736,1177
3066.7975617980674,1132
3068.508509366309,1054
3070.219157434767,1117
3071.9295063182844,1085
3073.639556331785,1118
3075.3493077902704,1134
3077.058761008821,1066
3078.7679163025964,1082
3080.476773986837,1063
3082.1853343768594,1127
3083.89359778806,1099
3085.6015645359153,1162
3087.3092349359786,1112
3089.016609303884,1170
3090.7236879553434,1162
3092.4304712061476,1126
3094.136959372166,1130
3095.843152769349,1147
3097.5490517137237,1144
3099.2546565213966,1098
3100.959967508554,1081
3102.66498499146,1120
3104.3697092864577,1060
3106.0741407099695,1096
3107.778279578498,1073
3109.482126208622,1134
3111.1856809170004,1110
3112.8889440203716,1155
3114.5919158355528,1144
3116.294596679439,1111
3117.996986869006,1121
3119.6990867213062,1140
3121.4008965534726,1119
3123.102416682717,1128
3124.803647426329,1100
3126.5045891016784,1115
3128.205242026213,1138
3129.90560651746,1101
3131.605682893025,1120
3133.3054714705922,1192
3135.0049725679282,1136
3136.7041865028714,1119
3138.4031135933465,1160
3140.101754157353,1149
3141.800108512971,1134
3143.498176978357,1116
3145.1959598717494,1153
3146.8934575114636,1083
3148.5906702158954,1090
3150.2875983035183,1098
3151.9842420928853,1171
3153.680601902627,1165
3155.376678051456,1109
3157.07247085816,1141
3158.767980641609,1120
3160.463207720748,1099
3162.158152414606,1138
3163.8528150422862,1094
3165.5471959229726,1096
3167.2412953759303,1110
3168.9351137204976,1115
3170.628651276098,1080
3172.3219083622307,1067
3174.014885298474,1132
3175.707582404485,1106
3177.4000000000005,1101
3179.092138404835,1148
3180.7839979388846,1117
3182.47557892212,1106
3184.166881674594,1077
3185.8579065164386,1082
3187.5486537678626,1126
3189.2391237491547,1148
3190.9293167806827,1073
3192.6192331828934,1118
3194.3088732763117,1104
3195.998237381542,1111
3197.687325819268,1090
3199.376138910251,1124
3201.064676975334,1098
3202.7529403354347,1089
3204.4409293115523,1127
3206.1286442247647,1126
3207.816085396229,1114
3209.5032531471825,1096
3211.190147798936,1067
3212.8767696728846,1140
3214.5631190905015,1055
3216.2491963733373,1090
3217.9350018430214,1120
3219.6205358212637,1090
3221.305798629851,1034
3222.990790590651,1022
3224.6755120256103,1090
3226.359963256751,1052
3228.0441446061795,1115
3229.7280563960758,1063
3231.411698948703,1094
3233.0950725863995,1095
3234.778177631587,1083
3236.461014406761,1112
3238.1435832345005,1037
3239.8258844374595,1045
3241.507918338374,1082
3243.1896852600576,1121
3244.8711855254023,1114
3246.552419457381,1106
3248.233387379042,1095
3249.914089613516,1147
3251.59452648401,1111
3253.274698313813,1129
3254.95460542629,1107
3256.6342481448855,1072
3258.313626793125,1115
3259.9927416946084,1141
3261.6715931730196,1113
3263.3501815521176,1081
3265.0285071557437,1093
3266.706570307815,1078
3268.3843713323286,1086
3270.0619105533615,1072
3271.739188295068,1010
3273.4162048816834,1068
3275.0929606375184,1114
3276.769455886966,1134
3278.445690954498,1114
3280.1216661646613,1070
3281.797381842087,1089
3283.4728383114807,1089
3285.1480358976296,1101
3286.8229749253996,1065
3288.4976557197333,1126
3290.172078605655,1105
3291.846243908266,1061
3293.5201519527463,1062
3295.193803064357,1092
3296.8671975684374,1064
3298.5403357904024,1073
3300.21321805575,1086
3301.8858446900567,1108
3303.558216018975,1106
3305.23033236824,1091
3306.9021940636603,1090
3308.57380143113,1099
3310.2451547966184,1128
3311.916254486174,1124
3313.5871008259246,1104
3315.2576941420766,1074
3316.9280347609147,1121
3318.5981230088046,1067
3320.2679592121895,1104
3321.9375436975924,1044
3323.606876791612,1072
3325.27595882093,1088
3326.944790112305,1090
3328.6133709925753,1066
3330.2817017886573,1105
3331.949782827547,1102
3333.617614436319,1085
3335.2851969421245,1110
3336.952530672199,1124
3338.619615953853,1127
3340.286453114475,1087
3341.9530424815357,1071
3343.619384382583,1119
3345.2854791452437,1066
3346.951327097224,1054
3348.6169285663073,1098
3350.2822838803577,1108
3351.947393367319,1100
3353.61225735521,1065
3355.2768761721345,1059
3356.9412501462693,1084
3358.605379605873,1138
3360.2692648792827,1074
3361.9329062949146,1046
3363.596304181263,1044
