CollectionTime,6/26/2024 3:44:12 PM
ExposureUsed,3
CalibratedSpectrum
-962.7078968117929,603
-959.9714848408522,683
-957.2358232597828,656
-954.5009119013725,679
-951.7667505983302,649
-949.0333391832855,657
-946.3006774887896,675
-943.5687653473143,676
-940.837602591253,702
-938.1071890529199,706
-935.3775245645503,649
-932.6486089583007,711
-929.9204420662485,720
-927.1930237203925,702
-924.4663537526524,677
-921.7404319948689,722
-919.0152582788041,688
-916.2908324361409,719
-913.5671542984834,715
-910.8442236973568,731
-908.1220404642074,703
-905.4006044304027,720
-902.679915427231,672
-899.959973285902,696
-897.2407778375464,675
-894.5223289132158,712
-891.8046263438832,673
-889.0876699604426,663
-886.3714595937089,654
-883.6559950744183,661
-880.9412762332282,629
-878.2273029007168,633
-875.5140749073835,637
-872.8015920836489,639
-870.0898542598545,657
-867.3788612662631,656
-864.6686129330585,621
-861.9591090903457,626
-859.2503495681506,612
-856.5423341964203,652
-853.8350628050229,659
-851.1285352237478,694
-848.4227512823054,631
-845.7177108103272,642
-843.0134136373656,640
-840.3098595928943,617
-837.6070485063082,680
-834.9049802069229,655
-832.2036545239757,599
-829.5030712866244,668
-826.8032303239481,648
-824.1041314649472,651
-821.4057745385428,615
-818.7081593735775,669
-816.0112857988148,655
-813.3151536429393,620
-810.6197627345566,619
-807.9251129021936,636
-805.2312039742981,620
-802.5380357792392,673
-799.8456081453069,656
-797.1539209007124,662
-794.462973873588,663
-791.772766891987,630
-789.083299783884,653
-786.3945723771743,657
-783.7065844996748,684
-781.0193359791231,690
-778.3328266431781,652
-775.6470563194197,706
-772.9620248353489,709
-770.2777320183878,650
-767.5941776958798,652
-764.9113616950891,688
-762.2292838432011,653
-759.5479439673222,690
-756.8673418944801,658
-754.1874774516235,669
-751.5083504656222,663
-748.8299607632671,633
-746.15230817127,648
-743.475392516264,672
-740.7992136248035,692
-738.1237713233636,650
-735.4490654383407,682
-732.7750957960521,721
-730.1018622227365,689
-727.4293645445534,632
-724.7576025875837,657
-722.0865761778291,682
-719.4162851412126,687
-716.7467293035781,690
-714.0779084906909,777
-711.409822528237,745
-708.7424712418238,722
-706.0758544569796,711
-703.4099719991541,698
-700.7448236937178,771
-698.0804093659622,762
-695.4167288411002,700
-692.7537819442656,708
-690.0915685005134,721
-687.4300883348199,719
-684.7693412720819,714
-682.1093271371178,730
-679.4500457546669,743
-676.7914969493897,706
-674.1336805458676,772
-671.4765963686034,789
-668.8202442420206,771
-666.1646239904642,750
-663.5097354382001,736
-660.8555784094151,699
-658.2021527282176,773
-655.5494582186366,785
-652.8974947046223,791
-650.2462620100463,762
-647.5957599587009,791
-644.9459883742998,784
-642.2969470804776,812
-639.6486359007902,799
-637.0010546587141,827
-634.3542031776476,787
-631.7080812809096,800
-629.0626887917401,763
-626.4180255333008,766
-623.7740913286734,761
-621.1308860008619,732
-618.4884093727904,746
-615.8466612673046,728
-613.2056415071715,755
-610.5653499150785,769
-607.9257863136347,798
-605.28695052537,776
-602.6488423727357,788
-600.0114616781036,747
-597.3748082637674,782
-594.7388819519412,813
-592.1036825647604,814
-589.4692099242818,766
-586.8354638524829,766
-584.2024441712624,818
-581.5701507024403,787
-578.9385832677575,805
-576.3077416888759,814
-573.6776257873787,768
-571.0482353847704,756
-568.4195703024757,790
-565.7916303618415,859
-563.164415384135,832
-560.5379251905453,787
-557.9121596021815,770
-555.2871184400748,821
-552.6628015251767,819
-550.0392086783606,838
-547.4163397204204,809
-544.794194472071,790
-542.1727727539491,814
-539.5520743866118,838
-536.9320991905377,900
-534.3128469861261,919
-531.6943175936979,901
-529.0765108334947,970
-526.4594265256793,1037
-523.8430644903358,1128
-521.2274245474689,1311
-518.612506517005,1470
-515.9983102187913,1537
-513.3848354725959,1651
-510.77208209810846,1768
-508.16004991493924,1829
-505.5487387426199,2053
-502.9381484006032,2223
-500.3282787082628,2304
-497.71912948489364,2306
-495.1107005497117,2382
-492.5029917218539,2267
-489.8960028203786,2135
-487.28973366426493,1907
-484.68418407241325,1597
-482.07935386364494,1378
-479.47524285670266,1264
-476.87185087025,1297
-474.2691777228715,1270
-471.66722323307334,1195
-469.0659872192821,1146
-466.4654694998459,1163
-463.86566989303384,1129
-461.26658821703614,1068
-458.66822428996414,1101
-456.07057792985,1053
-453.4736489546475,1092
-450.877437182231,1110
-448.28194243039627,1076
-445.68716451686,1041
-443.09310325926003,1022
-440.49975847515555,1003
-437.9071299820263,1029
-435.31521759727354,1001
-432.72402113821954,1028
-430.13354042210767,1074
-427.5437752661022,1073
-424.95472548728867,1133
-422.36639090267386,1139
-419.7787713291855,1111
-417.1918665836721,1152
-414.60567648290385,1108
-412.0202008435715,1150
-409.4354394822874,1145
-406.8513922155845,1119
-404.26805885991723,1146
-401.685439231661,1159
-399.103533147112,1104
-396.522340422488,1143
-393.9418608739278,1202
-391.3620943174908,1151
-388.7830405691583,1156
-386.2046994448317,1172
-383.6270707603344,1079
-381.05015433141045,981
-378.473949973725,916
-375.8984575028645,885
-373.32367673433623,821
-370.74960748356875,822
-368.1762495659117,761
-365.60360279663576,703
-363.03166699093265,722
-360.4604419639154,737
-357.8899275306178,688
-355.32012350599507,605
-352.7510297049233,591
-350.1826459421999,599
-347.61497203254316,595
-345.04800779059235,618
-342.4817530309082,569
-339.91620756797226,575
-337.35137121618743,608
-334.7872437898774,576
-332.22382510328725,533
-329.66111497058273,565
-327.09911320585127,599
-324.53781962310075,590
-321.9772340362607,597
-319.4173562591816,653
-316.8581861056348,689
-314.2997233893127,690
-311.7419679238294,719
-309.1849195227194,669
-306.62857799943856,625
-304.0729431673641,587
-301.51801483979375,616
-298.963792829947,602
-296.41027695096386,668
-293.85746701590574,684
-291.3053628377552,707
-288.7539642294155,738
-286.2032710037115,743
-283.65328297338897,764
-281.1039999511146,756
-278.5554217494762,860
-276.007548180983,791
-273.4603790580651,711
-270.9139141930734,689
-268.3681533982807,780
-265.8230964858798,723
-263.27874326798565,680
-260.7350935566336,706
-258.1921471637804,813
-255.6499039013039,898
-253.10836358100266,866
-250.56752601459698,838
-248.02739101372765,857
-245.48795838995704,884
-242.94922795476816,880
-240.41119951956557,789
-237.8738728956746,951
-235.33724789434166,1066
-232.80132432673452,1068
-230.2661020039418,1148
-227.73158073697357,1129
-225.19776033676033,875
-222.66464061415422,937
-220.1322213799284,907
-217.60050244477725,953
-215.06948361931552,893
-212.53916471408013,882
-210.00954553952818,925
-207.48062590603843,1031
-204.9524056239104,1065
-202.4248845033651,971
-199.8980623545441,1024
-197.37193898751036,1057
-194.84651421224817,1045
-192.32178783866232,1050
-189.79775967657952,1090
-187.27442953574644,1095
-184.7517972258321,994
-182.2298625564256,1007
-179.7086253370378,1230
-177.18808537710026,1411
-174.66824248596583,1265
-172.14909647290835,1242
-169.6306471471229,1257
-167.11289431772548,1185
-164.59583779375328,1236
-162.07947738416453,1258
-159.5638128978386,1378
-157.04884414357605,1399
-154.53457093009854,1527
-152.02099306604828,1296
-149.50811035998936,1342
-146.99592262040665,1403
-144.48442965570587,1346
-141.97363127421409,1423
-139.46352728417958,1623
-136.95411749377126,1779
-134.44540171107985,1802
-131.93737974411636,1812
-129.43005140081357,1840
-126.92341648902493,1844
-124.41747481652521,1786
-121.91222619101006,1678
-119.40767042009657,1620
-116.90380731132257,1567
-114.40063667214702,1692
-111.8981583099503,2130
-109.3963720320337,2124
-106.89527764561933,2009
-104.39487495785067,2042
-101.89516377579241,2125
-99.39614390642998,1908
-96.89781515667039,2059
-94.40017733334128,2495
-91.90323024319173,2334
-89.40697369289148,2299
-86.91140748903172,2220
-84.41653143812482,2175
-81.92234534660395,2397
-79.42884902082358,2574
-76.93604226705907,2697
-74.4439248915071,2652
-71.95249670028534,2872
-69.46175749943245,3039
-66.97170709490854,2967
-64.48234529259423,3293
-61.99367189829195,3474
-59.50568671772464,3664
-57.01838955653636,3949
-54.53178022029283,3836
-52.045858514480074,3963
-49.560624244506016,4435
-47.07607721569923,4508
-44.59221723330904,4284
-42.10904410250669,4524
-39.62655762838392,5427
-37.14475761595372,7245
-34.66364387015028,7817
-32.18321619582866,8557
-29.70347439776515,9523
-27.224418280657005,10907
-24.74604764912317,15786
-22.26836230770266,21140
-19.7913620608565,34247
-17.315046712966478,53780
-14.83941606833514,64901
-12.36446993118659,65038
-9.89020810566592,65038
-7.416630395839093,65038
-4.94373660569363,65038
-2.471526539137585,65038
-6.821210263296962E-13,65038
2.47084320796705,65038
4.941003281093458,65038
7.410480415786196,65038
9.879274808531363,65038
12.347386655893956,65038
14.814816154518212,65038
17.28156350112681,65038
19.74762889252179,65038
22.21301252558385,65038
24.67771459727237,65038
27.141735304626195,65038
29.605074844762612,36528
32.06773341487792,14767
34.52971121224755,9600
36.99100843422559,8935
39.45162527824516,10992
41.91156194181792,10235
44.370818622535126,15510
46.82939551806646,22331
49.287292826160524,20504
51.74451074464503,15520
54.201049471426245,10957
56.65690920448981,7063
59.112090141899785,4850
61.56659248179983,3896
64.02041642241159,4159
66.4735621620365,4473
68.92602989905402,3735
71.37781983192338,3356
73.82893215918205,3599
76.27936707944684,3801
78.72912479141326,4307
81.17820549385567,4204
83.62660938562783,4072
86.07433666566146,3167
88.5213875329681,3653
90.96776218663751,3285
93.41346082583925,3189
95.85848364982041,3439
98.30283085790859,2677
100.7465026495089,3088
103.18949922410604,3447
105.63182078126385,2520
108.07346752062438,3004
110.51443964190923,3299
112.95473734491827,2591
115.39436082953114,2294
117.83331029570547,2340
120.27158594347827,2438
122.7091879729652,2263
125.1461165843615,2254
127.58237197794062,1885
130.01795435405518,1678
132.4528639131364,1572
134.88710085569494,1893
137.32066538231982,2118
139.75355769367923,2104
142.1857779905207,2003
144.61732647366978,1690
147.04820334403132,1644
149.47840880258934,1716
151.90794305040674,1863
154.33680628862487,1908
156.76499871846443,1898
159.19252054122433,2034
161.61937195828352,2162
164.04555317109896,2125
166.47106438120693,2433
168.89590579022217,2768
171.320077599839,2797
173.7435800118302,2628
176.16641322804742,2777
178.58857745042144,2885
181.01007288096173,3117
183.43089972175687,2933
185.85105817497413,2886
188.27054844285988,2845
190.6893707277394,2903
193.10752523201643,3082
195.5250121581745,3224
197.9418317087751,3088
200.3579840864594,2960
202.7734694939469,3010
205.18828813403627,3208
207.6024402096051,3055
210.01592592360964,3089
212.42874547908548,3057
214.84089907914665,2954
217.2523869269868,2911
219.66320922587727,3042
222.0733661791695,2996
224.48285799029293,2958
226.8916848627572,3132
229.29984700014882,3192
231.7073446061355,3147
234.11417788446204,3089
236.520347038953,3165
238.92585227351185,3387
241.33069379212054,3420
243.73487179884035,3259
246.1383864978112,3178
248.541238093252,3204
250.9434267894609,3343
253.34495279081432,3319
255.74581630176783,3171
258.1460175268563,3306
260.54555667069314,3348
262.9444339379703,3235
265.3426495334594,3232
267.7402036620107,3233
270.1370965285529,3261
272.53332833809407,3132
274.9288992957214,2986
277.32380960660055,2906
279.718059475976,2961
282.1116491091717,2976
284.5045787115897,3003
286.89684848871195,3058
289.2884586460981,3100
291.67940938938807,2922
294.0697009242996,2999
296.4593334566299,3018
298.84830719225477,2905
301.23662233712923,3011
303.6242790972866,2937
306.01127767884,2895
308.39761828798066,2955
310.78330113097934,2774
313.16832641418534,2719
315.5526943440269,2687
317.9364051270112,2689
320.3194589697242,2523
322.70185607883093,2594
325.0835966610754,2665
327.4646809232805,2690
329.8451090723478,2616
332.2248813152577,2617
334.6039978590701,2605
336.9824589109231,2577
339.36026467803447,2562
341.7374153677,2531
344.113911187295,2376
346.48975234427337,2380
348.8649390461686,2408
351.2394715005918,2423
353.61334991523415,2377
355.9865744978655,2354
358.35914545633375,2472
360.73106299856715,2411
363.10232733257146,2342
365.47293866643247,2326
367.84289720831396,2291
370.2122031664593,2383
372.5808567491905,2341
374.9488581649083,2363
377.31620762209275,2342
379.6829053293021,2338
382.0489514951745,2383
384.4143463284262,2313
386.7790900378528,2349
389.14318283232853,2258
391.50662492080653,2233
393.86941651231916,2267
396.23155781597745,2306
398.5930490409713,2295
400.9538903965696,2310
403.3140820921202,2293
405.6736243370498,2177
408.03251734086336,2132
410.3907613131465,2224
412.74835646356166,2155
415.10530300185144,2150
417.4616011378372,2198
419.81725108141893,2268
422.1722530425758,2217
424.5266072313656,2150
426.880313857925,2226
429.2333731324701,2148
431.58578526529516,2153
433.9375504667738,2159
436.2886689473588,2206
438.63914091758113,2116
440.9889665880513,2113
443.33814616945835,2097
445.68667987257015,2182
448.03456790823395,2105
450.3818104873759,2123
452.72840782100013,2137
455.07436012019105,2073
457.41966759611057,2066
459.7643304600007,2150
462.10834892318155,2114
464.4517231970525,2152
466.79445349309174,2134
469.1365400228566,2150
471.4779829979826,2232
473.81878263018564,2217
476.15893913125876,2300
478.4984527130747,2231
480.8373235875855,2237
483.17555196682144,2305
485.5131380628919,2499
487.8500820879857,2621
490.1863842543697,2698
492.52204477439034,2990
494.8570638604725,3225
497.1914417251204,3518
499.52517858091653,3841
501.85827464052306,4097
504.19073011668036,4297
506.5225452222086,4164
508.85372017000566,3999
511.18425517304956,3846
513.514150444396,3972
515.8434061971808,4525
518.1720226446176,5220
520.4999999999999,5519
522.8273384766991,5834
525.1540382881666,5987
527.480099647932,6023
529.8055227696037,5133
532.1303078668694,3645
534.454455153496,2728
536.777964843328,2358
539.1008371502907,2225
541.4230722883866,2107
543.744670471698,2093
546.0656319143858,1973
548.3859568306899,2035
550.7056454349294,1960
553.0246979415016,1954
555.3431145648834,1897
557.6608955196306,1938
559.978041020377,1900
562.2945512818363,1917
564.6104265188006,1918
566.9256669461412,1915
569.2402727788082,1946
571.5542442318302,1942
573.8675815203156,1927
576.1802848594508,1944
578.4923544645015,1925
580.8037905508126,1809
583.114593333807,1863
585.4247630289875,1821
587.7342998519354,1849
590.0432040183106,1877
592.3514757438526,1881
594.6591152443794,1855
596.9661227357875,1828
599.2724984340531,1867
601.578242555231,1918
603.8833553154542,1915
606.1878369309362,1954
608.4916876179676,2012
610.7949075929192,2044
613.0974970722403,1998
615.3994562724587,1955
617.7007854101818,1994
620.0014847020951,1865
622.3015543649641,1884
624.6009946156324,1879
626.8998056710224,1871
629.1979877481361,1951
631.4955410640538,1970
633.7924658359349,1945
636.0887622810175,1940
638.3844306166192,1890
640.6794710601358,1922
642.9738838290426,1945
645.2676691408932,1866
647.5608272133207,1906
649.853358264037,1973
652.1452625108324,1868
654.4365401715764,1960
656.7271914642178,1928
659.0172166067838,1955
661.3066158173809,1928
663.5953893141935,1904
665.8835373154867,1981
668.1710600396028,1913
670.4579577049639,1932
672.7442305300709,2041
675.0298787335033,1992
677.3149025339197,2009
679.599302150058,2005
681.8830778007342,2021
684.1662297048437,2044
686.4487580813608,1937
688.7306631493387,2044
691.0119451279091,1898
693.2926042362834,2015
695.5726406937516,1967
697.8520547196814,1983
700.1308465335215,1915
702.4090163547982,1957
704.6865644031171,1957
706.9634908981619,1920
709.2397960596965,1948
711.5154801075631,2015
713.7905432616823,1939
716.0649857420548,2028
718.3388077687592,1980
720.612009561953,1945
722.8845913418733,2002
725.1565533288352,1929
727.427895743234,1959
729.6986188055427,1980
731.9687227363137,2000
734.238207756178,1958
736.5070740858458,1933
738.7753219461066,1948
741.0429515578281,1922
743.3099631419569,1913
745.5763569195191,1967
747.8421331116193,2017
750.1072919394409,2017
752.3718336242467,1990
754.6357583873777,2004
756.8990664502545,2022
759.1617580343765,1951
761.423833361321,1996
763.6852926527457,1964
765.9461361303862,1910
768.206364016058,1910
770.4659765316536,1969
772.7249738991469,1937
774.9833563405886,1973
777.2411240781092,2011
779.4982773339183,1997
781.7548163303044,2020
784.010741289634,2004
786.2660524343538,2121
788.5207499869881,2010
790.7748341701416,2058
793.0283052064964,1946
795.2811633188143,1978
797.5334087299362,2022
799.7850416627813,1991
802.0360623403484,1996
804.2864709857143,2000
806.5362678220353,2046
808.7854530725468,1935
811.0340269605625,1984
813.2819897094754,1988
815.5293415427581,2048
817.77608268396,1989
820.0222133567116,2041
822.2677337847211,1956
824.5126441917765,1998
826.7569448017433,1968
829.0006358385675,1984
831.2437175262731,1971
833.4861900889629,1951
835.7280537508192,1970
837.9693087361026,2023
840.2099552691533,2028
842.4499935743896,1976
844.689423876309,1986
846.9282463994886,1974
849.1664613685833,1986
851.4040690083276,1989
853.6410695435349,1906
855.877463199097,1921
858.1132501999847,1972
860.3484307712487,2031
862.5830051380175,1991
864.8169735254988,1907
867.0503361589791,2009
869.2830932638243,2012
871.5152450654786,2050
873.7467917894654,2036
875.9777336613873,2008
878.2080709069252,2023
880.4378037518389,2069
882.666932421968,2008
884.8954571432301,2049
887.1233781416219,2011
889.3506956432192,2097
891.5774098741766,2073
893.803521060728,2110
896.0290294291852,2063
898.2539352059397,2115
900.4782386174619,2078
902.7019398903011,2065
904.925039251085,2092
907.147536926521,2006
909.3694331433943,2069
911.59072812857,2023
913.8114221089921,2063
916.0315153116827,2024
918.2510079637437,1978
920.4699002923547,2005
922.6881925247761,2044
924.905884888345,2074
927.1229776104793,2096
929.3394709186747,1999
931.555365040506,2052
933.7706602036275,2057
935.9853566357709,2027
938.1994545647489,2003
940.4129542184515,1974
942.6258558248488,2014
944.8381596119883,2059
947.0498658079974,1992
949.2609746410825,2001
951.4714863395287,2026
953.6814011316998,2072
955.8907192460387,1964
958.0994409110671,1958
960.3075663553858,2002
962.5150958076741,1965
964.7220294966913,1927
966.928367651274,1905
969.1341105003388,1913
971.3392582728806,1915
973.5438111979742,1939
975.747769504772,1913
977.9511334225061,1961
980.153903180487,1940
982.3560790081052,1911
984.5576611348289,1893
986.7586497902058,1855
988.9590452038618,1864
991.158847605503,1722
993.3580572249133,1848
995.5566742919558,1822
997.7546990365728,1738
999.952131688785,1714
1002.1489724786926,1669
1004.3452216364743,1674
1006.5408793923874,1712
1008.7359459767691,1660
1010.9304216200343,1650
1013.1243065526781,1617
1015.3176010052733,1658
1017.510305208472,1595
1019.7024193930064,1616
1021.8939437896848,1605
1024.0848786293977,1562
1026.2752241431122,1589
1028.4649805618747,1562
1030.6541481168115,1632
1032.842727039127,1598
1035.0307175601051,1591
1037.2181199111074,1570
1039.4049343235752,1591
1041.591161029029,1579
1043.7768002590683,1573
1045.9618522453698,1526
1048.1463172196918,1593
1050.3301954138697,1535
1052.513487059818,1571
1054.69619238953,1537
1056.8783116350783,1484
1059.0598450286152,1535
1061.2407928023704,1490
1063.4211551886528,1557
1065.6009324198508,1508
1067.780124728432,1458
1069.9587323469414,1563
1072.1367555080046,1565
1074.314194444325,1591
1076.4910493886855,1562
1078.667320573947,1520
1080.843008233051,1528
1083.0181125990161,1495
1085.1926339049414,1452
1087.3665723840027,1417
1089.5399282694575,1535
1091.7127017946405,1434
1093.8848931929647,1420
1096.0565026979243,1450
1098.2275305430899,1456
1100.3979769621128,1469
1102.567842188722,1476
1104.737126456726,1423
1106.9058300000124,1411
1109.0739530525475,1461
1111.2414958483764,1507
1113.4084586216231,1458
1115.5748416064907,1480
1117.7406450372605,1447
1119.9058691482942,1406
1122.0705141740304,1438
1124.2345803489884,1448
1126.3980679077658,1444
1128.5609770850388,1385
1130.7233081155623,1420
1132.8850612341707,1368
1135.0462366757774,1405
1137.2068346753745,1436
1139.3668554680326,1445
1141.526299288901,1429
1143.68516637321,1390
1145.8434569562655,1402
1148.001171273455,1422
1150.158309560244,1376
1152.3148720521767,1407
1154.470858984876,1391
1156.626270594044,1368
1158.7811071154629,1370
1160.9353687849912,1426
1163.089055838569,1378
1165.242168512213,1415
1167.3947070420209,1359
1169.5466716641677,1348
1171.6980626149075,1353
1173.8488801305748,1404
1175.9991244475814,1350
1178.1487958024186,1311
1180.2978944316555,1400
1182.4464205719428,1380
1184.5943744600072,1391
1186.7417563326567,1402
1188.8885664267755,1354
1191.0348049793297,1409
1193.1804722273619,1309
1195.325568407995,1357
1197.4700937584303,1415
1199.614048515948,1391
1201.7574329179074,1400
1203.900247201746,1378
1206.042491604982,1387
1208.1841663652099,1356
1210.3252717201053,1403
1212.465807907422,1429
1214.6057751649923,1406
1216.7451737307279,1405
1218.8840038426192,1381
1221.0222657387353,1434
1223.1599596572241,1449
1225.2970858363137,1376
1227.4336445143094,1373
1229.5696359295966,1388
1231.705060320639,1356
1233.8399179259786,1396
1235.9742089842384,1418
1238.107933734118,1357
1240.2410924143974,1444
1242.373685263935,1394
1244.5057125216676,1403
1246.6371744266116,1380
1248.7680712178621,1468
1250.898403134593,1365
1253.028170416058,1441
1255.1573733015875,1408
1257.2860120305932,1399
1259.4140868425648,1406
1261.54159797707,1433
1263.6685456737569,1449
1265.7949301723515,1392
1267.9207517126597,1419
1270.046010534565,1418
1272.1707068780306,1428
1274.2948409830983,1473
1276.4184130898889,1476
1278.541423438603,1455
1280.6638722695184,1424
1282.785759822993,1495
1284.9070863394636,1495
1287.0278520594447,1461
1289.1480572235314,1520
1291.2677020723963,1473
1293.3867868467923,1419
1295.5053117875495,1504
1297.623277135579,1523
1299.740683131868,1589
1301.8575300174857,1512
1303.973818033578,1553
1306.0895474213703,1492
1308.2047184221678,1518
1310.3193312773528,1580
1312.4333862283888,1514
1314.5468835168163,1481
1316.659823384255,1533
1318.7722060724045,1544
1320.8840318230418,1608
1322.9953008780249,1531
1325.1060134792888,1516
1327.2161698688478,1512
1329.3257702887959,1521
1331.4348149813054,1552
1333.5433041886276,1538
1335.6512381530933,1515
1337.7586171171101,1471
1339.8654413231675,1498
1341.9717110138317,1525
1344.0774264317488,1459
1346.1825878196432,1500
1348.2871954203192,1474
1350.3912494766587,1518
1352.4947502316231,1439
1354.5976979282532,1483
1356.7000928096686,1412
1358.8019351190665,1518
1360.9032250997243,1484
1363.0039629949988,1477
1365.1041490483235,1505
1367.2037835032133,1469
1369.3028666032606,1477
1371.401398592137,1543
1373.4993797135926,1503
1375.5968102114575,1471
1377.6936903296396,1460
1379.7900203121262,1468
1381.8858004029835,1548
1383.9810308463561,1511
1386.075711886469,1526
1388.1698437676241,1549
1390.2634267342032,1485
1392.356461030667,1511
1394.4489469015557,1482
1396.5408845914872,1524
1398.6322743451592,1594
1400.7231164073469,1517
1402.813411022907,1542
1404.903158436773,1464
1406.9923588939578,1594
1409.0810126395531,1564
1411.1691199187303,1534
1413.2566809767386,1542
1415.343696058907,1478
1417.4301654106425,1583
1419.5160892774315,1539
1421.6014679048399,1536
1423.6863015385125,1547
1425.7705904241707,1558
1427.8543348076178,1574
1429.9375349347342,1555
1432.0201910514802,1608
1434.102303403894,1643
1436.1838722380944,1598
1438.2648978002767,1631
1440.3453803367174,1672
1442.4253200937692,1583
1444.5047173178677,1617
1446.5835722555234,1674
1448.6618851533285,1689
1450.739656257952,1661
1452.8168858161434,1685
1454.8935740747306,1682
1456.96972128062,1705
1459.045327680797,1684
1461.120393522327,1819
1463.1949190523528,1756
1465.2689045180973,1794
1467.3423501668608,1846
1469.415256246024,1817
1471.4876230030463,1797
1473.559450685465,1834
1475.6307395408976,1895
1477.7014898170391,1922
1479.771701761665,1856
1481.8413756226287,1860
1483.9105116478618,1892
1485.9791100853772,1875
1488.0471711832643,1975
1490.1146951896926,1991
1492.1816823529098,2010
1494.2481329212433,2007
1496.3140471430984,2054
1498.3794252669609,2024
1500.4442675413939,2074
1502.5085742150404,2152
1504.572345536622,2086
1506.6355817549388,2108
1508.6982831188702,2125
1510.7604498773744,2159
1512.8220822794883,2159
1514.8831805743293,2219
1516.9437450110909,2189
1519.003775839048,2297
1521.0632733075522,2322
1523.1222376660367,2253
1525.1806691640113,2321
1527.2385680510652,2324
1529.2959345768668,2375
1531.3527689911643,2437
1533.4090715437833,2368
1535.4648424846291,2516
1537.5200820636855,2503
1539.5747905310159,2564
1541.6289681367616,2556
1543.6826151311434,2539
1545.7357317644614,2563
1547.7883182870937,2602
1549.8403749494987,2617
1551.8919020022113,2710
1553.9428996958477,2778
1555.9933682811015,2741
1558.0433080087469,2833
1560.0927191296346,2884
1562.1416018946961,2932
1564.1899565549415,2965
1566.2377833614592,2984
1568.2850825654164,2948
1570.3318544180606,3095
1572.3780991707158,2909
1574.423817074788,2884
1576.4690083817595,2762
1578.5136733431923,2790
1580.5578122107272,2461
1582.601425236085,2511
1584.6445126710646,2387
1586.6870747675434,2301
1588.7291117774776,2205
1590.7706239529034,2140
1592.8116115459347,2079
1594.8520748087658,1963
1596.8920139936686,2044
1598.9314293529933,1906
1600.9703211391711,1842
1603.008689604711,1898
1605.0465350022005,1794
1607.0838575843068,1770
1609.1206576037753,1712
1611.1569353134305,1727
1613.1926909661765,1623
1615.2279248149953,1699
1617.2626371129481,1693
1619.2968281131757,1653
1621.3304980688963,1584
1623.3636472334088,1527
1625.39627586009,1498
1627.428384202396,1601
1629.459972513861,1570
1631.4910410480993,1576
1633.5215900588028,1549
1635.551619799744,1543
1637.5811305247717,1505
1639.6101224878166,1530
1641.6385959428862,1569
1643.6665511440683,1535
1645.693988345528,1499
1647.7209078015112,1530
1649.7473097663405,1492
1651.7731944944203,1502
1653.7985622402307,1451
1655.823413258333,1497
1657.847747803366,1462
1659.8715661300494,1473
1661.8948684931793,1483
1663.9176551476316,1494
1665.9399263483624,1502
1667.9616823504057,1481
1669.982923408873,1507
1672.0036497789574,1405
1674.0238617159293,1469
1676.043559475138,1461
1678.0627433120121,1434
1680.081413482059,1455
1682.0995702408654,1424
1684.117213844096,1459
1686.134344547495,1424
1688.1509626068864,1432
1690.1670682781705,1359
1692.182661817329,1396
1694.1977434804217,1473
1696.2123135235875,1421
1698.226372203043,1444
1700.2399197750851,1453
1702.2529564960905,1406
1704.2654826225112,1449
1706.277498410882,1481
1708.2890041178139,1479
1710.2999999999988,1478
1712.3104863142066,1483
1714.3204633172854,1433
1716.329931266163,1439
1718.3388904178469,1460
1720.3473410294214,1450
1722.3552833580516,1490
1724.3627176609807,1458
1726.3696441955308,1375
1728.3760632191033,1408
1730.3819749891782,1417
1732.3873797633146,1386
1734.3922777991502,1482
1736.3966693544012,1449
1738.4005546868639,1402
1740.4039340544127,1407
1742.406807715001,1371
1744.4091759266616,1431
1746.4110389475054,1396
1748.4123970357223,1436
1750.413250449582,1384
1752.4135994474318,1370
1754.4134442876993,1376
1756.4127852288902,1406
1758.4116225295893,1390
1760.4099564484595,1368
1762.407787244244,1370
1764.405115175764,1395
1766.4019405019203,1430
1768.3982634816916,1383
1770.3940843741357,1386
1772.3894034383907,1372
1774.3842209336717,1324
1776.378537119274,1365
1778.372352254571,1341
1780.3656665990156,1423
1782.3584804121397,1414
1784.3507939535534,1356
1786.3426074829463,1378
1788.3339212600863,1398
1790.3247355448211,1365
1792.3150505970766,1391
1794.3048666768573,1313
1796.2941840442477,1350
1798.2830029594106,1381
1800.2713236825884,1291
1802.2591464741004,1279
1804.2464715943465,1351
1806.2332993038058,1323
1808.2196298630352,1388
1810.2054635326708,1371
1812.190800573428,1405
1814.175641246101,1297
1816.1599858115628,1373
1818.1438345307652,1320
1820.127187664738,1379
1822.1100454745924,1310
1824.092408221516,1346
1826.0742761667766,1388
1828.055649571721,1365
1830.0365286977735,1371
1832.0169138064398,1386
1833.9968051593014,1345
1835.9762030180214,1269
1837.9551076443408,1368
1839.9335193000788,1330
1841.9114382471344,1436
1843.888864747485,1363
1845.8657990631878,1366
1847.842241456378,1335
1849.8181921892697,1361
1851.7936515241558,1357
1853.7686197234098,1304
1855.7430970494815,1341
1857.7170837649014,1305
1859.6905801322787,1343
1861.6635864143004,1336
1863.6361028737338,1339
1865.608129773424,1391
1867.5796673762961,1341
1869.5507159453537,1406
1871.521275743678,1344
1873.4913470344313,1341
1875.4609300808534,1340
1877.4300251462632,1384
1879.3986324940588,1392
1881.366752387717,1384
1883.3343850907936,1392
1885.3015308669228,1334
1887.268189979819,1359
1889.2343626932739,1335
1891.2000492711595,1385
1893.1652499774254,1384
1895.1299650761011,1378
1897.0941948312952,1377
1899.0579395071945,1400
1901.0211993680641,1421
1902.98397467825,1362
1904.9462657021745,1368
1906.9080727043415,1400
1908.869395949332,1358
1910.8302357018065,1377
1912.790592226504,1334
1914.7504657882428,1379
1916.7098566519212,1385
1918.6687650825133,1379
1920.6271913450764,1367
1922.5851357047422,1373
1924.5425984267245,1359
1926.499579776314,1346
1928.4560800188833,1387
1930.4120994198802,1330
1932.367638244833,1371
1934.32269675935,1414
1936.2772752291175,1349
1938.231373919899,1423
1940.1849930975404,1393
1942.1381330279637,1372
1944.0907939771696,1391
1946.0429762112412,1417
1947.9946799963363,1348
1949.9459055986945,1336
1951.896653284633,1374
1953.8469233205478,1312
1955.7967159729142,1333
1957.7460315082863,1364
1959.6948701932974,1371
1961.6432322946594,1314
1963.5911180791632,1455
1965.5385278136787,1337
1967.4854617651545,1392
1969.4319202006182,1339
1971.377903387176,1376
1973.3234115920136,1313
1975.268445082395,1368
1977.2130041256642,1369
1979.1570889892423,1339
1981.1006999406304,1335
1983.04383724741,1333
1984.986501177238,1398
1986.928691997853,1391
1988.8704099770712,1321
1990.811655382789,1303
1992.7524284829801,1361
1994.692729545698,1327
1996.6325588390755,1320
1998.5719166313224,1359
2000.5108031907307,1372
2002.4492187856677,1335
2004.387163684583,1322
2006.3246381560011,1333
2008.2616424685298,1346
2010.1981768908527,1369
2012.1342416917332,1335
2014.069837140014,1342
2016.0049635046162,1345
2017.9396210545406,1344
2019.8738100588666,1371
2021.8075307867502,1361
2023.740783507431,1325
2025.6735684902228,1332
2027.6058860045214,1306
2029.5377363198004,1329
2031.4691197056118,1350
2033.4000364315875,1318
2035.3304867674374,1344
2037.260470982952,1337
2039.189989347998,1391
2041.1190421325232,1364
2043.047629606554,1343
2044.9757520401945,1330
2046.9034097036288,1366
2048.8306028671195,1349
2050.7573318010086,1321
2052.683596775716,1342
2054.609398061742,1298
2056.5347359296647,1366
2058.4596106501403,1336
2060.384022493906,1371
2062.3079717317764,1308
2064.231458634646,1352
2066.1544834734873,1372
2068.077046519352,1355
2069.99914804337,1324
2071.9207883167524,1350
2073.8419676107865,1406
2075.7626861968406,1380
2077.6829443463607,1346
2079.6027423308715,1273
2081.522080421977,1385
2083.440958891362,1308
2085.359378010786,1261
2087.2773380520907,1363
2089.194839287196,1404
2091.111881988101,1324
2093.0284664268825,1360
2094.9445928756973,1332
2096.86026160678,1364
2098.775472892446,1356
2100.690227005088,1353
2102.604524217178,1343
2104.5183648012676,1319
2106.431749029985,1417
2108.34467717604,1367
2110.2571495122206,1354
2112.169166311393,1328
2114.080727846503,1369
2115.9918343905747,1319
2117.902486216711,1349
2119.8126835980956,1327
2121.722426807987,1360
2123.6317161197285,1344
2125.5405518067364,1297
2127.448934142509,1367
2129.356863400624,1374
2131.264339854737,1350
2133.1713637785815,1340
2135.077935445972,1356
2136.9840551308002,1345
2138.889723107037,1376
2140.7949396487334,1346
2142.699705030018,1416
2144.6040195250994,1340
2146.507883408264,1319
2148.4112969538774,1291
2150.3142604363848,1337
2152.2167741303097,1338
2154.1188383102535,1365
2156.0204532508997,1342
2157.9216192270064,1359
2159.822336513414,1326
2161.7226053850413,1320
2163.622426116884,1338
2165.5217989840185,1277
2167.4207242616,1342
2169.319202224862,1336
2171.2172331491165,1366
2173.1148173097563,1311
2175.0119549822507,1380
2176.90864644215,1340
2178.8048919650823,1303
2180.7006918267534,1337
2182.596046302952,1347
2184.4909556695407,1307
2186.3854202024645,1348
2188.279440177746,1352
2190.173015871487,1311
2192.066147559868,1247
2193.958835519149,1302
2195.851080025667,1359
2197.7428813558417,1317
2199.6342397861667,1363
2201.5251555932186,1338
2203.415629053651,1360
2205.3056604441986,1398
2207.19525004167,1335
2209.084398122958,1328
2210.9731049650327,1383
2212.861370844941,1377
2214.749196039812,1287
2216.636580826851,1369
2218.523525483344,1439
2220.410030286655,1352
2222.296095514226,1323
2224.1817214435805,1364
2226.066908352319,1361
2227.951656518121,1377
2229.835966218746,1350
2231.71983773203,1363
2233.6032713358913,1413
2235.486267308324,1337
2237.3688259274036,1356
2239.2509474712824,1277
2241.132632218193,1309
2243.013880446447,1397
2244.8946924344323,1321
2246.7750684606203,1320
2248.6550088035574,1316
2250.534513741871,1331
2252.413583554265,1348
2254.292218519526,1320
2256.170418916517,1370
2258.0481850241786,1308
2259.925517121534,1340
2261.8024154876825,1402
2263.678880401803,1355
2265.5549121431536,1338
2267.430510991071,1367
2269.305677224971,1352
2271.180411124348,1315
2273.0547129687766,1312
2274.9285830379076,1361
2276.8020216114737,1376
2278.6750289692845,1320
2280.5476053912294,1333
2282.4197511572766,1340
2284.2914665474727,1372
2286.162751841943,1335
2288.0336073208937,1345
2289.904033264608,1294
2291.774029953448,1354
2293.6435976678554,1294
2295.5127366883517,1324
2297.381447295534,1335
2299.2497297700825,1338
2301.1175843927526,1360
2302.9850114443825,1334
2304.852011205885,1350
2306.7185839582553,1327
2308.5847299825664,1370
2310.4504495599676,1353
2312.3157429716925,1368
2314.1806104990483,1357
2316.0450524234247,1346
2317.9090690262888,1353
2319.772660589186,1378
2321.635827393742,1364
2323.498569721661,1365
2325.3608878547248,1361
2327.2227820747967,1343
2329.0842526638157,1339
2330.945299903803,1305
2332.805924076857,1406
2334.6661254651535,1381
2336.525904350951,1441
2338.3852610165827,1388
2340.244195744464,1321
2342.102708817088,1343
2343.9608005170253,1355
2345.8184711269287,1388
2347.675720929526,1345
2349.532550207628,1367
2351.38895924412,1341
2353.24494832197,1377
2355.100517724223,1382
2356.955667734004,1362
2358.810398634514,1410
2360.664710709037,1349
2362.5186042409337,1389
2364.3720795136437,1370
2366.225136810686,1358
2368.0777764156583,1423
2369.929998612237,1401
2371.7818036841777,1426
2373.633191915315,1410
2375.484163589562,1339
2377.3347189909114,1334
2379.184858403434,1373
2381.03458211128,1442
2382.8838903986775,1379
2384.732783549936,1356
2386.5812618494406,1376
2388.4293255816588,1364
2390.2769750311327,1367
2392.1242104824883,1458
2393.971032220427,1434
2395.8174405297295,1364
2397.6634356952563,1411
2399.509018001947,1407
2401.3541877348193,1448
2403.1989451789705,1423
2405.043290619576,1365
2406.8872243418905,1402
2408.730746631247,1386
2410.5738577730594,1369
2412.4165580528183,1387
2414.258847756095,1423
2416.100727168537,1350
2417.9421965758734,1407
2419.783256263912,1390
2421.623906518538,1381
2423.4641476257157,1394
2425.303979871491,1376
2427.143403541984,1389
2428.9824189233977,1386
2430.821026302012,1392
2432.6592259641866,1437
2434.497018196361,1433
2436.33440328505,1425
2438.171381516851,1432
2440.00795317844,1371
2441.844118556569,1441
2443.6798779380724,1423
2445.5152316098606,1440
2447.3501798589255,1383
2449.1847229723357,1400
2451.0188612372403,1402
2452.8525949408663,1436
2454.6859243705203,1418
2456.518849813587,1443
2458.3513715575314,1370
2460.183489889895,1340
2462.015205098301,1405
2463.8465174704493,1400
2465.67742729412,1426
2467.5079348571717,1434
2469.338040447542,1478
2471.1677443532476,1474
2472.9970468623833,1427
2474.825948263123,1425
2476.6544488437207,1385
2478.482548892508,1438
2480.310248697896,1366
2482.137548548374,1414
2483.9644487325118,1411
2485.790949538956,1419
2487.617051256433,1402
2489.44275417375,1428
2491.26805857979,1443
2493.0929647635157,1430
2494.917473013971,1420
2496.741583620276,1420
2498.5652968716304,1465
2500.3886130573137,1445
2502.2115324666834,1381
2504.0340553891765,1426
2505.856182114308,1488
2507.6779129316733,1439
2509.499248130945,1448
2511.3201880018764,1443
2513.140732834298,1382
2514.9608829181198,1407
2516.780638543331,1470
2518.6,1505
2520.418967578273,1433
2522.237541568376,1461
2524.0557222606144,1446
2525.8735099453706,1479
2527.6909049131086,1456
2529.507907454368,1472
2531.32451785977,1480
2533.140736420014,1403
2534.9565634258774,1441
2536.771999168218,1435
2538.5870439379714,1437
2540.4016980261526,1516
2542.2159617238544,1479
2544.02983532225,1492
2545.8433191125914,1460
2547.656413386209,1520
2549.4691184345115,1529
2551.2814345489874,1508
2553.093362021204,1503
2554.904901142808,1510
2556.716052205523,1574
2558.526815501153,1588
2560.3371913215824,1575
2562.147179958771,1580
2563.956781704761,1497
2565.7659968516705,1522
2567.5748256916986,1509
2569.3832685171224,1572
2571.1913256202984,1603
2572.9989972936614,1530
2574.806283829725,1617
2576.613185521084,1570
2578.4197026604074,1583
2580.2258355404483,1585
2582.031584454035,1572
2583.836949694077,1609
2585.6419315535613,1599
2587.4465303255533,1524
2589.2507463032002,1643
2591.0545797797245,1613
2592.8580310484303,1613
2594.6611004026995,1636
2596.463788135992,1593
2598.266094541849,1655
2600.0680199138874,1653
2601.869564545807,1650
2603.670728731383,1652
2605.4715127644704,1695
2607.2719169390048,1600
2609.071941548998,1642
2610.8715868885433,1678
2612.670853251811,1721
2614.469740933052,1710
2616.268250226594,1633
2618.0663814268455,1622
2619.864134828292,1640
2621.6615107255006,1661
2623.458509413115,1637
2625.2551311858597,1637
2627.0513763385347,1622
2628.8472451660223,1615
2630.6427379632833,1623
2632.4378550253564,1562
2634.232596647359,1585
2636.026963124488,1591
2637.8209547520187,1565
2639.6145718253065,1572
2641.407814639785,1579
2643.200683490966,1634
2644.9931786744414,1579
2646.7853004858807,1530
2648.577049221034,1540
2650.3684251757277,1488
2652.1594286458712,1482
2653.9500599274484,1494
2655.740319316525,1499
2657.5302071092437,1531
2659.3197236018286,1501
2661.10886909058,1472
2662.8976438718782,1497
2664.686048242183,1471
2666.4740824980327,1491
2668.2617469360443,1477
2670.0490418529134,1473
2671.8359675454153,1507
2673.622524310403,1489
2675.408712444811,1414
2677.1945322456495,1394
2678.979984010009,1464
2680.76506803506,1438
2682.5497846180497,1464
2684.334134056306,1442
2686.1181166472343,1452
2687.9017326883213,1450
2689.6849824771293,1442
2691.4678663113013,1403
2693.2503844885596,1471
2695.032537306705,1422
2696.8143250636167,1388
2698.5957480572542,1431
2700.3768065856534,1401
2702.1575009469316,1410
2703.937831439283,1391
2705.717798360982,1350
2707.4974020103837,1439
2709.276642685917,1418
2711.055520686095,1425
2712.834036309506,1419
2714.612189854819,1350
2716.389981620782,1444
2718.1674119062204,1418
2719.944481010041,1387
2721.721189231226,1437
2723.4975368688415,1396
2725.273524222027,1351
2727.0491515900053,1364
2728.824419272075,1417
2730.5993275676146,1373
2732.3738767760838,1301
2734.148067197016,1372
2735.921899130031,1338
2737.6953728748194,1333
2739.468488731156,1417
2741.2412469988926,1380
2743.0136479779617,1382
2744.785691968372,1387
2746.5573792702116,1268
2748.3287101836504,1338
2750.099685008934,1435
2751.870304046388,1352
2753.640567596418,1330
2755.4104759595057,1376
2757.1800294362156,1316
2758.949228327187,1306
2760.7180729331412,1364
2762.486563554877,1395
2764.254700493272,1369
2766.022484049284,1387
2767.789914523947,1386
2769.5569922183786,1355
2771.3237174337705,1360
2773.090090471394,1345
2774.8561116326036,1352
2776.6217812188274,1386
2778.3870995315756,1344
2780.1520668724356,1330
2781.9166835430747,1324
2783.6809498452394,1344
2785.444866080754,1345
2787.2084325515225,1285
2788.971649559527,1311
2790.73451740683,1319
2792.4970363955713,1297
2794.2592068279705,1346
2796.0210290063264,1346
2797.7825032330147,1359
2799.543629810493,1391
2801.304409041296,1350
2803.0648412280366,1352
2804.8249266734088,1433
2806.5846656801846,1342
2808.344058551212,1345
2810.1031055894246,1414
2811.8618070978273,1321
2813.6201633795085,1403
2815.378174737636,1398
2817.1358414754536,1334
2818.893163896285,1324
2820.6501423035334,1360
2822.4067770006814,1390
2824.1630682912883,1379
2825.9190164789957,1347
2827.6746218675207,1363
2829.429884760661,1405
2831.184805462294,1334
2832.9393842763743,1383
2834.693621506936,1356
2836.4475174580916,1347
2838.201072434034,1330
2839.954286739034,1359
2841.707160677441,1313
2843.459694553685,1379
2845.2118886722724,1379
2846.96374333779,1345
2848.7152588549034,1374
2850.4664355283567,1333
2852.217273662973,1360
2853.9677735636546,1373
2855.7179355353833,1319
2857.4677598832186,1364
2859.217246912299,1314
2860.9663969278427,1322
2862.715210235146,1380
2864.4636871395846,1363
2866.211827946614,1307
2867.9596329617652,1345
2869.7071024906536,1305
2871.4542368389684,1362
2873.20103631248,1371
2874.947501217038,1295
2876.6936318585695,1298
2878.4394285430812,1314
2880.1848915766604,1345
2881.9300212654707,1391
2883.6748179157553,1381
2885.4192818338374,1312
2887.1634133261173,1368
2888.907212699077,1321
2890.6506802592744,1325
2892.393816313348,1370
2894.1366211680142,1319
2895.8790951300693,1396
2897.621238506388,1396
2899.363051603925,1310
2901.1045347297118,1374
2902.8456881908596,1319
2904.58651229456,1344
2906.327007348081,1287
2908.067173658772,1295
2909.8070115340597,1354
2911.5465212814497,1330
2913.285703208527,1386
2915.0245576229563,1312
2916.7630848324807,1328
2918.5012851449196,1280
2920.2391588681758,1306
2921.976706310227,1319
2923.7139277791334,1296
2925.4508235830313,1336
2927.187394030137,1301
2928.923639428745,1316
2930.6595600872306,1331
2932.395156314046,1319
2934.1304284177218,1373
2935.8653767068713,1338
2937.6000014901815,1336
2939.3343030764227,1305
2941.068281774442,1320
2942.8019378931644,1379
2944.5352717415976,1380
2946.2682836288236,1353
2948.0009738640065,1328
2949.7333427563885,1355
2951.465390615289,1340
2953.1971177501086,1336
2954.9285244703265,1394
2956.6596110855,1375
2958.3903779052657,1327
2960.1208252393385,1352
2961.8509533975125,1343
2963.5807626896617,1330
2965.3102534257378,1265
2967.0394259157715,1368
2968.768280469873,1398
2970.496817398232,1367
2972.2250370111146,1287
2973.952939618869,1321
2975.6805255319196,1321
2977.4077950607707,1380
2979.134748516006,1292
2980.861386208289,1324
2982.587708448359,1340
2984.313715547037,1292
2986.039407815222,1345
2987.764785563891,1339
2989.489849104102,1323
2991.2145987469908,1359
2992.9390348037705,1332
2994.6631575857346,1407
2996.3869674042576,1352
2998.1104645707887,1309
2999.83364939686,1327
3001.5565221940783,1335
3003.2790832741334,1305
3005.0013329487924,1369
3006.7232715298996,1290
3008.4448993293804,1351
3010.166216659239,1307
3011.887223831558,1324
3013.607921158498,1340
3015.3283089522993,1357
3017.0483875252826,1342
3018.7681571898443,1348
3020.4876182584626,1308
3022.2067710436927,1384
3023.9256158581707,1346
3025.644153014609,1356
3027.362382825801,1331
3029.0803056046193,1337
3030.797921664012,1341
3032.5152313170106,1303
3034.2322348767225,1328
3035.9489326563353,1326
3037.665324969115,1312
3039.3814121284063,1299
3041.097194447633,1335
3042.812672240299,1349
3044.5278458199855,1326
3046.2427155003525,1358
3047.9572815951406,1297
3049.671544418167,1312
3051.38550428333,1328
3053.0991615046073,1370
3054.812516396051,1341
3056.5255692717974,1335
3058.2383204460575,1334
3059.9507702331257,1302
3061.662918947372,1300
3063.3747669032446,1335
3065.0863144152736,1360
3066.7975617980674,1349
3068.508509366309,1268
3070.219157434767,1358
3071.9295063182844,1314
3073.639556331785,1334
3075.3493077902704,1329
3077.058761008821,1296
3078.7679163025964,1362
3080.476773986837,1362
3082.1853343768594,1339
3083.89359778806,1353
3085.6015645359153,1380
3087.3092349359786,1336
3089.016609303884,1335
3090.7236879553434,1358
3092.4304712061476,1349
3094.136959372166,1311
3095.843152769349,1332
3097.5490517137237,1347
3099.2546565213966,1278
3100.959967508554,1329
3102.66498499146,1319
3104.3697092864577,1351
3106.0741407099695,1303
3107.778279578498,1379
3109.482126208622,1394
3111.1856809170004,1295
3112.8889440203716,1314
3114.5919158355528,1296
3116.294596679439,1327
3117.996986869006,1327
3119.6990867213062,1370
3121.4008965534726,1291
3123.102416682717,1331
3124.803647426329,1377
3126.5045891016784,1415
3128.205242026213,1373
3129.90560651746,1378
3131.605682893025,1376
3133.3054714705922,1379
3135.0049725679282,1388
3136.7041865028714,1359
3138.4031135933465,1391
3140.101754157353,1348
3141.800108512971,1346
3143.498176978357,1317
3145.1959598717494,1376
3146.8934575114636,1372
3148.5906702158954,1297
3150.2875983035183,1356
3151.9842420928853,1383
3153.680601902627,1308
3155.376678051456,1343
3157.07247085816,1371
3158.767980641609,1330
3160.463207720748,1362
3162.158152414606,1346
3163.8528150422862,1354
3165.5471959229726,1312
3167.2412953759303,1324
3168.9351137204976,1322
3170.628651276098,1359
3172.3219083622307,1301
3174.014885298474,1305
3175.707582404485,1334
3177.4000000000005,1324
3179.092138404835,1321
3180.7839979388846,1359
3182.47557892212,1287
3184.166881674594,1280
3185.8579065164386,1342
3187.5486537678626,1354
3189.2391237491547,1344
3190.9293167806827,1332
3192.6192331828934,1286
3194.3088732763117,1338
3195.998237381542,1312
3197.687325819268,1300
3199.376138910251,1363
3201.064676975334,1333
3202.7529403354347,1301
3204.4409293115523,1287
3206.1286442247647,1284
3207.816085396229,1279
3209.5032531471825,1298
3211.190147798936,1331
3212.8767696728846,1359
3214.5631190905015,1296
3216.2491963733373,1328
3217.9350018430214,1360
3219.6205358212637,1314
3221.305798629851,1247
3222.990790590651,1261
3224.6755120256103,1267
3226.359963256751,1244
3228.0441446061795,1323
3229.7280563960758,1330
3231.411698948703,1278
3233.0950725863995,1327
3234.778177631587,1306
3236.461014406761,1328
3238.1435832345005,1329
3239.8258844374595,1332
3241.507918338374,1353
3243.1896852600576,1338
3244.8711855254023,1265
3246.552419457381,1358
3248.233387379042,1288
3249.914089613516,1279
3251.59452648401,1295
3253.274698313813,1352
3254.95460542629,1332
3256.6342481448855,1330
3258.313626793125,1322
3259.9927416946084,1298
3261.6715931730196,1291
3263.3501815521176,1275
3265.0285071557437,1314
3266.706570307815,1228
3268.3843713323286,1267
3270.0619105533615,1270
3271.739188295068,1307
3273.4162048816834,1328
3275.0929606375184,1333
3276.769455886966,1308
3278.445690954498,1346
3280.1216661646613,1267
3281.797381842087,1289
3283.4728383114807,1304
3285.1480358976296,1310
3286.8229749253996,1293
3288.4976557197333,1281
3290.172078605655,1334
3291.846243908266,1306
3293.5201519527463,1282
3295.193803064357,1253
3296.8671975684374,1302
3298.5403357904024,1275
3300.21321805575,1282
3301.8858446900567,1266
3303.558216018975,1345
3305.23033236824,1289
3306.9021940636603,1322
3308.57380143113,1287
3310.2451547966184,1304
3311.916254486174,1365
3313.5871008259246,1278
3315.2576941420766,1302
3316.9280347609147,1312
3318.5981230088046,1339
3320.2679592121895,1309
3321.9375436975924,1334
3323.606876791612,1317
3325.27595882093,1309
3326.944790112305,1311
3328.6133709925753,1243
3330.2817017886573,1284
3331.949782827547,1331
3333.617614436319,1279
3335.2851969421245,1325
3336.952530672199,1297
3338.619615953853,1339
3340.286453114475,1346
3341.9530424815357,1336
3343.619384382583,1302
3345.2854791452437,1326
3346.951327097224,1331
3348.6169285663073,1302
3350.2822838803577,1297
3351.947393367319,1310
3353.61225735521,1347
3355.2768761721345,1320
3356.9412501462693,1356
3358.605379605873,1294
3360.2692648792827,1333
3361.9329062949146,1352
3363.596304181263,1282
