CollectionTime,6/26/2024 3:44:58 PM
ExposureUsed,3
CalibratedSpectrum
-962.7078968117929,714
-959.9714848408522,728
-957.2358232597828,667
-954.5009119013725,701
-951.7667505983302,742
-949.0333391832855,726
-946.3006774887896,714
-943.5687653473143,752
-940.837602591253,759
-938.1071890529199,755
-935.3775245645503,747
-932.6486089583007,777
-929.9204420662485,770
-927.1930237203925,805
-924.4663537526524,763
-921.7404319948689,736
-919.0152582788041,759
-916.2908324361409,786
-913.5671542984834,766
-910.8442236973568,789
-908.1220404642074,800
-905.4006044304027,764
-902.679915427231,738
-899.959973285902,782
-897.2407778375464,756
-894.5223289132158,767
-891.8046263438832,737
-889.0876699604426,729
-886.3714595937089,729
-883.6559950744183,724
-880.9412762332282,741
-878.2273029007168,758
-875.5140749073835,725
-872.8015920836489,682
-870.0898542598545,762
-867.3788612662631,726
-864.6686129330585,717
-861.9591090903457,697
-859.2503495681506,697
-856.5423341964203,684
-853.8350628050229,686
-851.1285352237478,671
-848.4227512823054,709
-845.7177108103272,709
-843.0134136373656,704
-840.3098595928943,702
-837.6070485063082,727
-834.9049802069229,714
-832.2036545239757,702
-829.5030712866244,673
-826.8032303239481,709
-824.1041314649472,711
-821.4057745385428,702
-818.7081593735775,690
-816.0112857988148,689
-813.3151536429393,702
-810.6197627345566,683
-807.9251129021936,665
-805.2312039742981,692
-802.5380357792392,755
-799.8456081453069,717
-797.1539209007124,704
-794.462973873588,688
-791.772766891987,680
-789.083299783884,728
-786.3945723771743,747
-783.7065844996748,681
-781.0193359791231,704
-778.3328266431781,726
-775.6470563194197,719
-772.9620248353489,733
-770.2777320183878,724
-767.5941776958798,705
-764.9113616950891,762
-762.2292838432011,748
-759.5479439673222,730
-756.8673418944801,709
-754.1874774516235,779
-751.5083504656222,729
-748.8299607632671,707
-746.15230817127,689
-743.475392516264,733
-740.7992136248035,744
-738.1237713233636,742
-735.4490654383407,738
-732.7750957960521,786
-730.1018622227365,779
-727.4293645445534,732
-724.7576025875837,750
-722.0865761778291,754
-719.4162851412126,771
-716.7467293035781,770
-714.0779084906909,817
-711.409822528237,862
-708.7424712418238,811
-706.0758544569796,800
-703.4099719991541,817
-700.7448236937178,845
-698.0804093659622,847
-695.4167288411002,784
-692.7537819442656,761
-690.0915685005134,813
-687.4300883348199,783
-684.7693412720819,806
-682.1093271371178,771
-679.4500457546669,780
-676.7914969493897,777
-674.1336805458676,840
-671.4765963686034,857
-668.8202442420206,789
-666.1646239904642,845
-663.5097354382001,833
-660.8555784094151,844
-658.2021527282176,861
-655.5494582186366,833
-652.8974947046223,828
-650.2462620100463,841
-647.5957599587009,848
-644.9459883742998,918
-642.2969470804776,939
-639.6486359007902,855
-637.0010546587141,879
-634.3542031776476,833
-631.7080812809096,857
-629.0626887917401,874
-626.4180255333008,838
-623.7740913286734,878
-621.1308860008619,832
-618.4884093727904,826
-615.8466612673046,840
-613.2056415071715,824
-610.5653499150785,835
-607.9257863136347,866
-605.28695052537,870
-602.6488423727357,839
-600.0114616781036,824
-597.3748082637674,826
-594.7388819519412,862
-592.1036825647604,834
-589.4692099242818,872
-586.8354638524829,877
-584.2024441712624,821
-581.5701507024403,887
-578.9385832677575,892
-576.3077416888759,874
-573.6776257873787,826
-571.0482353847704,870
-568.4195703024757,842
-565.7916303618415,890
-563.164415384135,901
-560.5379251905453,872
-557.9121596021815,865
-555.2871184400748,851
-552.6628015251767,871
-550.0392086783606,845
-547.4163397204204,836
-544.794194472071,877
-542.1727727539491,874
-539.5520743866118,910
-536.9320991905377,957
-534.3128469861261,955
-531.6943175936979,999
-529.0765108334947,967
-526.4594265256793,1027
-523.8430644903358,1222
-521.2274245474689,1418
-518.612506517005,1483
-515.9983102187913,1538
-513.3848354725959,1679
-510.77208209810846,1765
-508.16004991493924,1865
-505.5487387426199,1954
-502.9381484006032,2067
-500.3282787082628,2172
-497.71912948489364,2248
-495.1107005497117,2243
-492.5029917218539,2226
-489.8960028203786,2035
-487.28973366426493,1924
-484.68418407241325,1601
-482.07935386364494,1437
-479.47524285670266,1373
-476.87185087025,1361
-474.2691777228715,1329
-471.66722323307334,1277
-469.0659872192821,1220
-466.4654694998459,1182
-463.86566989303384,1195
-461.26658821703614,1097
-458.66822428996414,1165
-456.07057792985,1136
-453.4736489546475,1137
-450.877437182231,1141
-448.28194243039627,1125
-445.68716451686,1082
-443.09310325926003,1123
-440.49975847515555,1063
-437.9071299820263,1079
-435.31521759727354,1076
-432.72402113821954,1103
-430.13354042210767,1114
-427.5437752661022,1163
-424.95472548728867,1193
-422.36639090267386,1193
-419.7787713291855,1167
-417.1918665836721,1157
-414.60567648290385,1162
-412.0202008435715,1189
-409.4354394822874,1189
-406.8513922155845,1156
-404.26805885991723,1190
-401.685439231661,1214
-399.103533147112,1176
-396.522340422488,1167
-393.9418608739278,1277
-391.3620943174908,1192
-388.7830405691583,1186
-386.2046994448317,1193
-383.6270707603344,1095
-381.05015433141045,1020
-378.473949973725,913
-375.8984575028645,911
-373.32367673433623,807
-370.74960748356875,762
-368.1762495659117,731
-365.60360279663576,721
-363.03166699093265,715
-360.4604419639154,731
-357.8899275306178,639
-355.32012350599507,611
-352.7510297049233,536
-350.1826459421999,575
-347.61497203254316,638
-345.04800779059235,595
-342.4817530309082,572
-339.91620756797226,566
-337.35137121618743,546
-334.7872437898774,563
-332.22382510328725,543
-329.66111497058273,545
-327.09911320585127,562
-324.53781962310075,568
-321.9772340362607,582
-319.4173562591816,653
-316.8581861056348,664
-314.2997233893127,748
-311.7419679238294,689
-309.1849195227194,655
-306.62857799943856,612
-304.0729431673641,557
-301.51801483979375,539
-298.963792829947,582
-296.41027695096386,650
-293.85746701590574,658
-291.3053628377552,738
-288.7539642294155,673
-286.2032710037115,668
-283.65328297338897,663
-281.1039999511146,746
-278.5554217494762,867
-276.007548180983,760
-273.4603790580651,683
-270.9139141930734,669
-268.3681533982807,716
-265.8230964858798,690
-263.27874326798565,648
-260.7350935566336,647
-258.1921471637804,731
-255.6499039013039,771
-253.10836358100266,794
-250.56752601459698,800
-248.02739101372765,791
-245.48795838995704,864
-242.94922795476816,808
-240.41119951956557,774
-237.8738728956746,956
-235.33724789434166,1016
-232.80132432673452,954
-230.2661020039418,1083
-227.73158073697357,1035
-225.19776033676033,872
-222.66464061415422,842
-220.1322213799284,860
-217.60050244477725,895
-215.06948361931552,837
-212.53916471408013,874
-210.00954553952818,887
-207.48062590603843,1006
-204.9524056239104,995
-202.4248845033651,950
-199.8980623545441,1072
-197.37193898751036,947
-194.84651421224817,945
-192.32178783866232,1044
-189.79775967657952,1075
-187.27442953574644,971
-184.7517972258321,950
-182.2298625564256,903
-179.7086253370378,1150
-177.18808537710026,1214
-174.66824248596583,1147
-172.14909647290835,1151
-169.6306471471229,1172
-167.11289431772548,1097
-164.59583779375328,1112
-162.07947738416453,1220
-159.5638128978386,1312
-157.04884414357605,1276
-154.53457093009854,1401
-152.02099306604828,1209
-149.50811035998936,1169
-146.99592262040665,1250
-144.48442965570587,1246
-141.97363127421409,1357
-139.46352728417958,1583
-136.95411749377126,1738
-134.44540171107985,1804
-131.93737974411636,1667
-129.43005140081357,1685
-126.92341648902493,1646
-124.41747481652521,1643
-121.91222619101006,1537
-119.40767042009657,1489
-116.90380731132257,1479
-114.40063667214702,1774
-111.8981583099503,1999
-109.3963720320337,1958
-106.89527764561933,1823
-104.39487495785067,1951
-101.89516377579241,1990
-99.39614390642998,1781
-96.89781515667039,1881
-94.40017733334128,2225
-91.90323024319173,2293
-89.40697369289148,2198
-86.91140748903172,2151
-84.41653143812482,2129
-81.92234534660395,2140
-79.42884902082358,2431
-76.93604226705907,2504
-74.4439248915071,2524
-71.95249670028534,2709
-69.46175749943245,2819
-66.97170709490854,2749
-64.48234529259423,3109
-61.99367189829195,3260
-59.50568671772464,3397
-57.01838955653636,3790
-54.53178022029283,3770
-52.045858514480074,3874
-49.560624244506016,4327
-47.07607721569923,4498
-44.59221723330904,4098
-42.10904410250669,4289
-39.62655762838392,5263
-37.14475761595372,6921
-34.66364387015028,7246
-32.18321619582866,8292
-29.70347439776515,9550
-27.224418280657005,10776
-24.74604764912317,14887
-22.26836230770266,19569
-19.7913620608565,31802
-17.315046712966478,50038
-14.83941606833514,61587
-12.36446993118659,65037
-9.89020810566592,65037
-7.416630395839093,65037
-4.94373660569363,65037
-2.471526539137585,65037
-6.821210263296962E-13,65037
2.47084320796705,65037
4.941003281093458,65037
7.410480415786196,65037
9.879274808531363,65037
12.347386655893956,65037
14.814816154518212,65037
17.28156350112681,65037
19.74762889252179,65037
22.21301252558385,65037
24.67771459727237,65037
27.141735304626195,46601
29.605074844762612,18782
32.06773341487792,11433
34.52971121224755,8369
36.99100843422559,8001
39.45162527824516,10020
41.91156194181792,9562
44.370818622535126,14908
46.82939551806646,21141
49.287292826160524,19982
51.74451074464503,14420
54.201049471426245,9658
56.65690920448981,6671
59.112090141899785,4519
61.56659248179983,3871
64.02041642241159,3797
66.4735621620365,4089
68.92602989905402,3691
71.37781983192338,3061
73.82893215918205,3093
76.27936707944684,3139
78.72912479141326,3820
81.17820549385567,3704
83.62660938562783,3535
86.07433666566146,2880
88.5213875329681,3106
90.96776218663751,2926
93.41346082583925,2943
95.85848364982041,3098
98.30283085790859,2536
100.7465026495089,2877
103.18949922410604,3109
105.63182078126385,2481
108.07346752062438,2938
110.51443964190923,2944
112.95473734491827,2148
115.39436082953114,1894
117.83331029570547,2100
120.27158594347827,2193
122.7091879729652,2073
125.1461165843615,1987
127.58237197794062,1811
130.01795435405518,1554
132.4528639131364,1571
134.88710085569494,1829
137.32066538231982,1982
139.75355769367923,1793
142.1857779905207,1699
144.61732647366978,1650
147.04820334403132,1668
149.47840880258934,1618
151.90794305040674,1785
154.33680628862487,1843
156.76499871846443,1779
159.19252054122433,1903
161.61937195828352,2167
164.04555317109896,2126
166.47106438120693,2434
168.89590579022217,2754
171.320077599839,2870
173.7435800118302,2780
176.16641322804742,3019
178.58857745042144,3102
181.01007288096173,3346
183.43089972175687,2981
185.85105817497413,3096
188.27054844285988,3046
190.6893707277394,3153
193.10752523201643,3187
195.5250121581745,3317
197.9418317087751,3432
200.3579840864594,3215
202.7734694939469,3180
205.18828813403627,3399
207.6024402096051,3222
210.01592592360964,3202
212.42874547908548,3214
214.84089907914665,3141
217.2523869269868,3150
219.66320922587727,3186
222.0733661791695,3174
224.48285799029293,3147
226.8916848627572,3306
229.29984700014882,3390
231.7073446061355,3331
234.11417788446204,3397
236.520347038953,3320
238.92585227351185,3665
241.33069379212054,3668
243.73487179884035,3520
246.1383864978112,3443
248.541238093252,3326
250.9434267894609,3520
253.34495279081432,3616
255.74581630176783,3418
258.1460175268563,3630
260.54555667069314,3569
262.9444339379703,3609
265.3426495334594,3361
267.7402036620107,3356
270.1370965285529,3398
272.53332833809407,3195
274.9288992957214,3127
277.32380960660055,3128
279.718059475976,2960
282.1116491091717,3015
284.5045787115897,3048
286.89684848871195,3121
289.2884586460981,3103
291.67940938938807,2952
294.0697009242996,3042
296.4593334566299,3039
298.84830719225477,3010
301.23662233712923,2920
303.6242790972866,2873
306.01127767884,2962
308.39761828798066,2856
310.78330113097934,2819
313.16832641418534,2727
315.5526943440269,2817
317.9364051270112,2750
320.3194589697242,2704
322.70185607883093,2593
325.0835966610754,2633
327.4646809232805,2600
329.8451090723478,2711
332.2248813152577,2722
334.6039978590701,2607
336.9824589109231,2601
339.36026467803447,2532
341.7374153677,2616
344.113911187295,2445
346.48975234427337,2445
348.8649390461686,2438
351.2394715005918,2462
353.61334991523415,2488
355.9865744978655,2433
358.35914545633375,2453
360.73106299856715,2441
363.10232733257146,2445
365.47293866643247,2453
367.84289720831396,2410
370.2122031664593,2436
372.5808567491905,2338
374.9488581649083,2356
377.31620762209275,2379
379.6829053293021,2356
382.0489514951745,2324
384.4143463284262,2379
386.7790900378528,2339
389.14318283232853,2358
391.50662492080653,2296
393.86941651231916,2295
396.23155781597745,2334
398.5930490409713,2275
400.9538903965696,2289
403.3140820921202,2222
405.6736243370498,2329
408.03251734086336,2266
410.3907613131465,2179
412.74835646356166,2226
415.10530300185144,2268
417.4616011378372,2296
419.81725108141893,2287
422.1722530425758,2281
424.5266072313656,2227
426.880313857925,2252
429.2333731324701,2234
431.58578526529516,2226
433.9375504667738,2230
436.2886689473588,2160
438.63914091758113,2135
440.9889665880513,2114
443.33814616945835,2097
445.68667987257015,2168
448.03456790823395,2125
450.3818104873759,2223
452.72840782100013,2127
455.07436012019105,2047
457.41966759611057,2187
459.7643304600007,2188
462.10834892318155,2183
464.4517231970525,2146
466.79445349309174,2151
469.1365400228566,2127
471.4779829979826,2216
473.81878263018564,2313
476.15893913125876,2345
478.4984527130747,2257
480.8373235875855,2309
483.17555196682144,2318
485.5131380628919,2509
487.8500820879857,2537
490.1863842543697,2784
492.52204477439034,2872
494.8570638604725,3286
497.1914417251204,3598
499.52517858091653,3714
501.85827464052306,3936
504.19073011668036,3865
506.5225452222086,3799
508.85372017000566,3672
511.18425517304956,3648
513.514150444396,3640
515.8434061971808,4195
518.1720226446176,4959
520.4999999999999,5382
522.8273384766991,5694
525.1540382881666,6007
527.480099647932,5810
529.8055227696037,4959
532.1303078668694,3456
534.454455153496,2701
536.777964843328,2388
539.1008371502907,2232
541.4230722883866,2095
543.744670471698,2110
546.0656319143858,2064
548.3859568306899,2076
550.7056454349294,2016
553.0246979415016,2053
555.3431145648834,1972
557.6608955196306,1974
559.978041020377,1907
562.2945512818363,1914
564.6104265188006,1988
566.9256669461412,1944
569.2402727788082,1925
571.5542442318302,1953
573.8675815203156,1978
576.1802848594508,1891
578.4923544645015,1923
580.8037905508126,1919
583.114593333807,1885
585.4247630289875,1889
587.7342998519354,1932
590.0432040183106,1840
592.3514757438526,1944
594.6591152443794,1937
596.9661227357875,1874
599.2724984340531,1950
601.578242555231,1954
603.8833553154542,1906
606.1878369309362,2023
608.4916876179676,2046
610.7949075929192,2054
613.0974970722403,1994
615.3994562724587,1977
617.7007854101818,1984
620.0014847020951,1954
622.3015543649641,1954
624.6009946156324,1906
626.8998056710224,2003
629.1979877481361,1960
631.4955410640538,1993
633.7924658359349,1999
636.0887622810175,1977
638.3844306166192,1918
640.6794710601358,1948
642.9738838290426,1995
645.2676691408932,1989
647.5608272133207,1917
649.853358264037,1879
652.1452625108324,2075
654.4365401715764,1982
656.7271914642178,2048
659.0172166067838,2058
661.3066158173809,2015
663.5953893141935,1998
665.8835373154867,1992
668.1710600396028,1998
670.4579577049639,2009
672.7442305300709,2043
675.0298787335033,2011
677.3149025339197,2024
679.599302150058,2033
681.8830778007342,2046
684.1662297048437,1968
686.4487580813608,2043
688.7306631493387,2005
691.0119451279091,1915
693.2926042362834,2000
695.5726406937516,1950
697.8520547196814,2004
700.1308465335215,2069
702.4090163547982,2085
704.6865644031171,2009
706.9634908981619,2009
709.2397960596965,1939
711.5154801075631,2023
713.7905432616823,1978
716.0649857420548,2015
718.3388077687592,2060
720.612009561953,2001
722.8845913418733,2038
725.1565533288352,2012
727.427895743234,2096
729.6986188055427,2069
731.9687227363137,2127
734.238207756178,2036
736.5070740858458,1960
738.7753219461066,1983
741.0429515578281,1986
743.3099631419569,2037
745.5763569195191,2042
747.8421331116193,2026
750.1072919394409,1967
752.3718336242467,2003
754.6357583873777,2009
756.8990664502545,2047
759.1617580343765,2056
761.423833361321,1971
763.6852926527457,1968
765.9461361303862,2024
768.206364016058,1945
770.4659765316536,1959
772.7249738991469,2076
774.9833563405886,2054
777.2411240781092,2041
779.4982773339183,2056
781.7548163303044,2026
784.010741289634,2039
786.2660524343538,2090
788.5207499869881,2086
790.7748341701416,2074
793.0283052064964,2034
795.2811633188143,2043
797.5334087299362,2073
799.7850416627813,2032
802.0360623403484,2095
804.2864709857143,2022
806.5362678220353,1990
808.7854530725468,2048
811.0340269605625,2145
813.2819897094754,2076
815.5293415427581,2042
817.77608268396,2118
820.0222133567116,2094
822.2677337847211,2001
824.5126441917765,2010
826.7569448017433,2033
829.0006358385675,2021
831.2437175262731,2061
833.4861900889629,2002
835.7280537508192,1993
837.9693087361026,2055
840.2099552691533,2071
842.4499935743896,2021
844.689423876309,2036
846.9282463994886,1994
849.1664613685833,1962
851.4040690083276,2021
853.6410695435349,2017
855.877463199097,1962
858.1132501999847,1979
860.3484307712487,2065
862.5830051380175,2061
864.8169735254988,2062
867.0503361589791,2075
869.2830932638243,2068
871.5152450654786,2078
873.7467917894654,2080
875.9777336613873,2049
878.2080709069252,2178
880.4378037518389,2131
882.666932421968,2046
884.8954571432301,2095
887.1233781416219,2123
889.3506956432192,2115
891.5774098741766,2187
893.803521060728,2080
896.0290294291852,2166
898.2539352059397,2104
900.4782386174619,2102
902.7019398903011,2140
904.925039251085,2151
907.147536926521,2085
909.3694331433943,2151
911.59072812857,2101
913.8114221089921,2067
916.0315153116827,2050
918.2510079637437,2012
920.4699002923547,1985
922.6881925247761,2111
924.905884888345,2006
927.1229776104793,2054
929.3394709186747,2018
931.555365040506,2070
933.7706602036275,2068
935.9853566357709,2095
938.1994545647489,2075
940.4129542184515,2033
942.6258558248488,2161
944.8381596119883,2065
947.0498658079974,2084
949.2609746410825,2057
951.4714863395287,2077
953.6814011316998,1990
955.8907192460387,1985
958.0994409110671,1972
960.3075663553858,2061
962.5150958076741,2004
964.7220294966913,1981
966.928367651274,1988
969.1341105003388,1985
971.3392582728806,1894
973.5438111979742,1941
975.747769504772,1865
977.9511334225061,2025
980.153903180487,1925
982.3560790081052,1964
984.5576611348289,1920
986.7586497902058,1949
988.9590452038618,1941
991.158847605503,1890
993.3580572249133,1855
995.5566742919558,1819
997.7546990365728,1803
999.952131688785,1755
1002.1489724786926,1766
1004.3452216364743,1729
1006.5408793923874,1759
1008.7359459767691,1711
1010.9304216200343,1654
1013.1243065526781,1648
1015.3176010052733,1685
1017.510305208472,1631
1019.7024193930064,1667
1021.8939437896848,1646
1024.0848786293977,1611
1026.2752241431122,1651
1028.4649805618747,1657
1030.6541481168115,1648
1032.842727039127,1682
1035.0307175601051,1591
1037.2181199111074,1628
1039.4049343235752,1582
1041.591161029029,1594
1043.7768002590683,1650
1045.9618522453698,1614
1048.1463172196918,1578
1050.3301954138697,1603
1052.513487059818,1587
1054.69619238953,1621
1056.8783116350783,1515
1059.0598450286152,1578
1061.2407928023704,1619
1063.4211551886528,1631
1065.6009324198508,1587
1067.780124728432,1520
1069.9587323469414,1584
1072.1367555080046,1589
1074.314194444325,1587
1076.4910493886855,1570
1078.667320573947,1598
1080.843008233051,1574
1083.0181125990161,1559
1085.1926339049414,1565
1087.3665723840027,1549
1089.5399282694575,1463
1091.7127017946405,1515
1093.8848931929647,1473
1096.0565026979243,1516
1098.2275305430899,1474
1100.3979769621128,1481
1102.567842188722,1521
1104.737126456726,1516
1106.9058300000124,1478
1109.0739530525475,1480
1111.2414958483764,1494
1113.4084586216231,1556
1115.5748416064907,1526
1117.7406450372605,1517
1119.9058691482942,1504
1122.0705141740304,1466
1124.2345803489884,1504
1126.3980679077658,1468
1128.5609770850388,1489
1130.7233081155623,1472
1132.8850612341707,1448
1135.0462366757774,1464
1137.2068346753745,1524
1139.3668554680326,1428
1141.526299288901,1541
1143.68516637321,1456
1145.8434569562655,1454
1148.001171273455,1457
1150.158309560244,1470
1152.3148720521767,1429
1154.470858984876,1469
1156.626270594044,1466
1158.7811071154629,1452
1160.9353687849912,1432
1163.089055838569,1483
1165.242168512213,1474
1167.3947070420209,1484
1169.5466716641677,1375
1171.6980626149075,1444
1173.8488801305748,1407
1175.9991244475814,1481
1178.1487958024186,1390
1180.2978944316555,1450
1182.4464205719428,1487
1184.5943744600072,1443
1186.7417563326567,1448
1188.8885664267755,1415
1191.0348049793297,1406
1193.1804722273619,1444
1195.325568407995,1476
1197.4700937584303,1405
1199.614048515948,1418
1201.7574329179074,1413
1203.900247201746,1416
1206.042491604982,1440
1208.1841663652099,1430
1210.3252717201053,1461
1212.465807907422,1454
1214.6057751649923,1464
1216.7451737307279,1433
1218.8840038426192,1522
1221.0222657387353,1498
1223.1599596572241,1452
1225.2970858363137,1493
1227.4336445143094,1469
1229.5696359295966,1477
1231.705060320639,1454
1233.8399179259786,1438
1235.9742089842384,1491
1238.107933734118,1437
1240.2410924143974,1461
1242.373685263935,1478
1244.5057125216676,1486
1246.6371744266116,1453
1248.7680712178621,1465
1250.898403134593,1500
1253.028170416058,1490
1255.1573733015875,1451
1257.2860120305932,1489
1259.4140868425648,1487
1261.54159797707,1515
1263.6685456737569,1516
1265.7949301723515,1495
1267.9207517126597,1514
1270.046010534565,1450
1272.1707068780306,1474
1274.2948409830983,1499
1276.4184130898889,1494
1278.541423438603,1512
1280.6638722695184,1516
1282.785759822993,1547
1284.9070863394636,1536
1287.0278520594447,1536
1289.1480572235314,1609
1291.2677020723963,1652
1293.3867868467923,1581
1295.5053117875495,1547
1297.623277135579,1561
1299.740683131868,1644
1301.8575300174857,1563
1303.973818033578,1591
1306.0895474213703,1612
1308.2047184221678,1564
1310.3193312773528,1562
1312.4333862283888,1568
1314.5468835168163,1531
1316.659823384255,1619
1318.7722060724045,1574
1320.8840318230418,1599
1322.9953008780249,1601
1325.1060134792888,1676
1327.2161698688478,1624
1329.3257702887959,1658
1331.4348149813054,1604
1333.5433041886276,1608
1335.6512381530933,1643
1337.7586171171101,1577
1339.8654413231675,1659
1341.9717110138317,1622
1344.0774264317488,1574
1346.1825878196432,1569
1348.2871954203192,1534
1350.3912494766587,1583
1352.4947502316231,1609
1354.5976979282532,1569
1356.7000928096686,1525
1358.8019351190665,1563
1360.9032250997243,1524
1363.0039629949988,1634
1365.1041490483235,1493
1367.2037835032133,1616
1369.3028666032606,1583
1371.401398592137,1588
1373.4993797135926,1562
1375.5968102114575,1617
1377.6936903296396,1567
1379.7900203121262,1593
1381.8858004029835,1614
1383.9810308463561,1557
1386.075711886469,1544
1388.1698437676241,1639
1390.2634267342032,1622
1392.356461030667,1566
1394.4489469015557,1656
1396.5408845914872,1554
1398.6322743451592,1591
1400.7231164073469,1636
1402.813411022907,1626
1404.903158436773,1600
1406.9923588939578,1660
1409.0810126395531,1602
1411.1691199187303,1627
1413.2566809767386,1677
1415.343696058907,1603
1417.4301654106425,1650
1419.5160892774315,1694
1421.6014679048399,1681
1423.6863015385125,1687
1425.7705904241707,1759
1427.8543348076178,1715
1429.9375349347342,1696
1432.0201910514802,1667
1434.102303403894,1731
1436.1838722380944,1683
1438.2648978002767,1795
1440.3453803367174,1721
1442.4253200937692,1690
1444.5047173178677,1746
1446.5835722555234,1835
1448.6618851533285,1865
1450.739656257952,1800
1452.8168858161434,1873
1454.8935740747306,1839
1456.96972128062,1825
1459.045327680797,1844
1461.120393522327,1955
1463.1949190523528,1997
1465.2689045180973,1927
1467.3423501668608,2017
1469.415256246024,2077
1471.4876230030463,2071
1473.559450685465,2053
1475.6307395408976,2107
1477.7014898170391,2120
1479.771701761665,2162
1481.8413756226287,2146
1483.9105116478618,2255
1485.9791100853772,2254
1488.0471711832643,2302
1490.1146951896926,2322
1492.1816823529098,2334
1494.2481329212433,2371
1496.3140471430984,2399
1498.3794252669609,2355
1500.4442675413939,2511
1502.5085742150404,2437
1504.572345536622,2512
1506.6355817549388,2481
1508.6982831188702,2528
1510.7604498773744,2506
1512.8220822794883,2617
1514.8831805743293,2709
1516.9437450110909,2680
1519.003775839048,2714
1521.0632733075522,2755
1523.1222376660367,2798
1525.1806691640113,2897
1527.2385680510652,2833
1529.2959345768668,2814
1531.3527689911643,2936
1533.4090715437833,2974
1535.4648424846291,3018
1537.5200820636855,3122
1539.5747905310159,3271
1541.6289681367616,3177
1543.6826151311434,3209
1545.7357317644614,3267
1547.7883182870937,3223
1549.8403749494987,3305
1551.8919020022113,3395
1553.9428996958477,3273
1555.9933682811015,3565
1558.0433080087469,3633
1560.0927191296346,3602
1562.1416018946961,3700
1564.1899565549415,3758
1566.2377833614592,3696
1568.2850825654164,3568
1570.3318544180606,3557
1572.3780991707158,3441
1574.423817074788,3338
1576.4690083817595,3265
1578.5136733431923,3025
1580.5578122107272,2921
1582.601425236085,2824
1584.6445126710646,2691
1586.6870747675434,2595
1588.7291117774776,2449
1590.7706239529034,2356
1592.8116115459347,2232
1594.8520748087658,2206
1596.8920139936686,2139
1598.9314293529933,2130
1600.9703211391711,2031
1603.008689604711,1947
1605.0465350022005,1947
1607.0838575843068,1855
1609.1206576037753,1899
1611.1569353134305,1809
1613.1926909661765,1764
1615.2279248149953,1690
1617.2626371129481,1773
1619.2968281131757,1689
1621.3304980688963,1672
1623.3636472334088,1674
1625.39627586009,1666
1627.428384202396,1656
1629.459972513861,1709
1631.4910410480993,1631
1633.5215900588028,1601
1635.551619799744,1516
1637.5811305247717,1589
1639.6101224878166,1540
1641.6385959428862,1539
1643.6665511440683,1551
1645.693988345528,1549
1647.7209078015112,1581
1649.7473097663405,1581
1651.7731944944203,1548
1653.7985622402307,1544
1655.823413258333,1499
1657.847747803366,1526
1659.8715661300494,1595
1661.8948684931793,1537
1663.9176551476316,1557
1665.9399263483624,1508
1667.9616823504057,1507
1669.982923408873,1569
1672.0036497789574,1543
1674.0238617159293,1515
1676.043559475138,1464
1678.0627433120121,1477
1680.081413482059,1470
1682.0995702408654,1533
1684.117213844096,1509
1686.134344547495,1512
1688.1509626068864,1479
1690.1670682781705,1482
1692.182661817329,1489
1694.1977434804217,1534
1696.2123135235875,1476
1698.226372203043,1469
1700.2399197750851,1510
1702.2529564960905,1451
1704.2654826225112,1478
1706.277498410882,1498
1708.2890041178139,1445
1710.2999999999988,1530
1712.3104863142066,1518
1714.3204633172854,1492
1716.329931266163,1451
1718.3388904178469,1461
1720.3473410294214,1479
1722.3552833580516,1545
1724.3627176609807,1491
1726.3696441955308,1456
1728.3760632191033,1543
1730.3819749891782,1489
1732.3873797633146,1409
1734.3922777991502,1489
1736.3966693544012,1449
1738.4005546868639,1441
1740.4039340544127,1473
1742.406807715001,1438
1744.4091759266616,1445
1746.4110389475054,1393
1748.4123970357223,1399
1750.413250449582,1420
1752.4135994474318,1420
1754.4134442876993,1385
1756.4127852288902,1353
1758.4116225295893,1464
1760.4099564484595,1446
1762.407787244244,1420
1764.405115175764,1399
1766.4019405019203,1398
1768.3982634816916,1379
1770.3940843741357,1382
1772.3894034383907,1373
1774.3842209336717,1366
1776.378537119274,1398
1778.372352254571,1323
1780.3656665990156,1357
1782.3584804121397,1379
1784.3507939535534,1397
1786.3426074829463,1387
1788.3339212600863,1428
1790.3247355448211,1360
1792.3150505970766,1320
1794.3048666768573,1321
1796.2941840442477,1389
1798.2830029594106,1330
1800.2713236825884,1381
1802.2591464741004,1442
1804.2464715943465,1380
1806.2332993038058,1440
1808.2196298630352,1382
1810.2054635326708,1383
1812.190800573428,1386
1814.175641246101,1311
1816.1599858115628,1414
1818.1438345307652,1329
1820.127187664738,1403
1822.1100454745924,1287
1824.092408221516,1365
1826.0742761667766,1322
1828.055649571721,1325
1830.0365286977735,1377
1832.0169138064398,1360
1833.9968051593014,1385
1835.9762030180214,1385
1837.9551076443408,1349
1839.9335193000788,1282
1841.9114382471344,1285
1843.888864747485,1328
1845.8657990631878,1361
1847.842241456378,1376
1849.8181921892697,1358
1851.7936515241558,1358
1853.7686197234098,1328
1855.7430970494815,1295
1857.7170837649014,1344
1859.6905801322787,1309
1861.6635864143004,1340
1863.6361028737338,1401
1865.608129773424,1368
1867.5796673762961,1361
1869.5507159453537,1400
1871.521275743678,1323
1873.4913470344313,1323
1875.4609300808534,1373
1877.4300251462632,1401
1879.3986324940588,1356
1881.366752387717,1401
1883.3343850907936,1374
1885.3015308669228,1375
1887.268189979819,1376
1889.2343626932739,1403
1891.2000492711595,1361
1893.1652499774254,1338
1895.1299650761011,1397
1897.0941948312952,1377
1899.0579395071945,1345
1901.0211993680641,1369
1902.98397467825,1378
1904.9462657021745,1377
1906.9080727043415,1375
1908.869395949332,1381
1910.8302357018065,1382
1912.790592226504,1347
1914.7504657882428,1350
1916.7098566519212,1391
1918.6687650825133,1325
1920.6271913450764,1344
1922.5851357047422,1319
1924.5425984267245,1345
1926.499579776314,1396
1928.4560800188833,1342
1930.4120994198802,1346
1932.367638244833,1274
1934.32269675935,1367
1936.2772752291175,1373
1938.231373919899,1311
1940.1849930975404,1336
1942.1381330279637,1339
1944.0907939771696,1368
1946.0429762112412,1359
1947.9946799963363,1302
1949.9459055986945,1372
1951.896653284633,1384
1953.8469233205478,1357
1955.7967159729142,1388
1957.7460315082863,1340
1959.6948701932974,1411
1961.6432322946594,1335
1963.5911180791632,1449
1965.5385278136787,1351
1967.4854617651545,1370
1969.4319202006182,1366
1971.377903387176,1401
1973.3234115920136,1371
1975.268445082395,1340
1977.2130041256642,1394
1979.1570889892423,1365
1981.1006999406304,1409
1983.04383724741,1361
1984.986501177238,1331
1986.928691997853,1355
1988.8704099770712,1368
1990.811655382789,1359
1992.7524284829801,1298
1994.692729545698,1327
1996.6325588390755,1361
1998.5719166313224,1342
2000.5108031907307,1404
2002.4492187856677,1374
2004.387163684583,1370
2006.3246381560011,1324
2008.2616424685298,1334
2010.1981768908527,1314
2012.1342416917332,1364
2014.069837140014,1354
2016.0049635046162,1327
2017.9396210545406,1300
2019.8738100588666,1353
2021.8075307867502,1390
2023.740783507431,1326
2025.6735684902228,1302
2027.6058860045214,1286
2029.5377363198004,1333
2031.4691197056118,1280
2033.4000364315875,1352
2035.3304867674374,1286
2037.260470982952,1367
2039.189989347998,1321
2041.1190421325232,1350
2043.047629606554,1353
2044.9757520401945,1330
2046.9034097036288,1324
2048.8306028671195,1322
2050.7573318010086,1339
2052.683596775716,1297
2054.609398061742,1326
2056.5347359296647,1325
2058.4596106501403,1309
2060.384022493906,1295
2062.3079717317764,1332
2064.231458634646,1273
2066.1544834734873,1328
2068.077046519352,1323
2069.99914804337,1369
2071.9207883167524,1354
2073.8419676107865,1312
2075.7626861968406,1327
2077.6829443463607,1333
2079.6027423308715,1322
2081.522080421977,1351
2083.440958891362,1370
2085.359378010786,1336
2087.2773380520907,1360
2089.194839287196,1376
2091.111881988101,1350
2093.0284664268825,1322
2094.9445928756973,1359
2096.86026160678,1355
2098.775472892446,1323
2100.690227005088,1346
2102.604524217178,1311
2104.5183648012676,1309
2106.431749029985,1353
2108.34467717604,1348
2110.2571495122206,1354
2112.169166311393,1337
2114.080727846503,1432
2115.9918343905747,1372
2117.902486216711,1280
2119.8126835980956,1275
2121.722426807987,1286
2123.6317161197285,1313
2125.5405518067364,1361
2127.448934142509,1306
2129.356863400624,1335
2131.264339854737,1346
2133.1713637785815,1313
2135.077935445972,1323
2136.9840551308002,1321
2138.889723107037,1319
2140.7949396487334,1377
2142.699705030018,1331
2144.6040195250994,1405
2146.507883408264,1291
2148.4112969538774,1309
2150.3142604363848,1322
2152.2167741303097,1332
2154.1188383102535,1365
2156.0204532508997,1319
2157.9216192270064,1316
2159.822336513414,1356
2161.7226053850413,1300
2163.622426116884,1346
2165.5217989840185,1365
2167.4207242616,1354
2169.319202224862,1401
2171.2172331491165,1322
2173.1148173097563,1343
2175.0119549822507,1279
2176.90864644215,1322
2178.8048919650823,1344
2180.7006918267534,1388
2182.596046302952,1351
2184.4909556695407,1314
2186.3854202024645,1368
2188.279440177746,1338
2190.173015871487,1354
2192.066147559868,1340
2193.958835519149,1321
2195.851080025667,1349
2197.7428813558417,1317
2199.6342397861667,1337
2201.5251555932186,1339
2203.415629053651,1327
2205.3056604441986,1315
2207.19525004167,1331
2209.084398122958,1351
2210.9731049650327,1297
2212.861370844941,1380
2214.749196039812,1305
2216.636580826851,1306
2218.523525483344,1308
2220.410030286655,1320
2222.296095514226,1350
2224.1817214435805,1322
2226.066908352319,1289
2227.951656518121,1363
2229.835966218746,1328
2231.71983773203,1345
2233.6032713358913,1340
2235.486267308324,1309
2237.3688259274036,1375
2239.2509474712824,1356
2241.132632218193,1286
2243.013880446447,1330
2244.8946924344323,1347
2246.7750684606203,1340
2248.6550088035574,1358
2250.534513741871,1326
2252.413583554265,1320
2254.292218519526,1346
2256.170418916517,1347
2258.0481850241786,1341
2259.925517121534,1349
2261.8024154876825,1314
2263.678880401803,1342
2265.5549121431536,1346
2267.430510991071,1346
2269.305677224971,1350
2271.180411124348,1329
2273.0547129687766,1304
2274.9285830379076,1374
2276.8020216114737,1331
2278.6750289692845,1294
2280.5476053912294,1345
2282.4197511572766,1291
2284.2914665474727,1327
2286.162751841943,1371
2288.0336073208937,1366
2289.904033264608,1345
2291.774029953448,1348
2293.6435976678554,1343
2295.5127366883517,1361
2297.381447295534,1354
2299.2497297700825,1366
2301.1175843927526,1360
2302.9850114443825,1343
2304.852011205885,1356
2306.7185839582553,1354
2308.5847299825664,1360
2310.4504495599676,1354
2312.3157429716925,1388
2314.1806104990483,1335
2316.0450524234247,1349
2317.9090690262888,1418
2319.772660589186,1374
2321.635827393742,1324
2323.498569721661,1387
2325.3608878547248,1397
2327.2227820747967,1351
2329.0842526638157,1321
2330.945299903803,1415
2332.805924076857,1351
2334.6661254651535,1381
2336.525904350951,1390
2338.3852610165827,1377
2340.244195744464,1397
2342.102708817088,1341
2343.9608005170253,1309
2345.8184711269287,1380
2347.675720929526,1301
2349.532550207628,1365
2351.38895924412,1372
2353.24494832197,1371
2355.100517724223,1394
2356.955667734004,1373
2358.810398634514,1384
2360.664710709037,1368
2362.5186042409337,1391
2364.3720795136437,1397
2366.225136810686,1357
2368.0777764156583,1447
2369.929998612237,1362
2371.7818036841777,1326
2373.633191915315,1379
2375.484163589562,1335
2377.3347189909114,1395
2379.184858403434,1405
2381.03458211128,1399
2382.8838903986775,1365
2384.732783549936,1349
2386.5812618494406,1360
2388.4293255816588,1355
2390.2769750311327,1360
2392.1242104824883,1444
2393.971032220427,1347
2395.8174405297295,1405
2397.6634356952563,1383
2399.509018001947,1366
2401.3541877348193,1432
2403.1989451789705,1432
2405.043290619576,1394
2406.8872243418905,1377
2408.730746631247,1397
2410.5738577730594,1385
2412.4165580528183,1372
2414.258847756095,1348
2416.100727168537,1344
2417.9421965758734,1415
2419.783256263912,1378
2421.623906518538,1373
2423.4641476257157,1425
2425.303979871491,1380
2427.143403541984,1451
2428.9824189233977,1466
2430.821026302012,1457
2432.6592259641866,1380
2434.497018196361,1392
2436.33440328505,1486
2438.171381516851,1373
2440.00795317844,1371
2441.844118556569,1392
2443.6798779380724,1448
2445.5152316098606,1425
2447.3501798589255,1388
2449.1847229723357,1472
2451.0188612372403,1420
2452.8525949408663,1334
2454.6859243705203,1403
2456.518849813587,1477
2458.3513715575314,1436
2460.183489889895,1435
2462.015205098301,1414
2463.8465174704493,1442
2465.67742729412,1413
2467.5079348571717,1394
2469.338040447542,1395
2471.1677443532476,1465
2472.9970468623833,1430
2474.825948263123,1384
2476.6544488437207,1420
2478.482548892508,1378
2480.310248697896,1431
2482.137548548374,1468
2483.9644487325118,1364
2485.790949538956,1399
2487.617051256433,1442
2489.44275417375,1427
2491.26805857979,1388
2493.0929647635157,1407
2494.917473013971,1463
2496.741583620276,1459
2498.5652968716304,1511
2500.3886130573137,1420
2502.2115324666834,1443
2504.0340553891765,1424
2505.856182114308,1448
2507.6779129316733,1454
2509.499248130945,1455
2511.3201880018764,1405
2513.140732834298,1479
2514.9608829181198,1445
2516.780638543331,1446
2518.6,1464
2520.418967578273,1467
2522.237541568376,1488
2524.0557222606144,1510
2525.8735099453706,1463
2527.6909049131086,1458
2529.507907454368,1492
2531.32451785977,1454
2533.140736420014,1440
2534.9565634258774,1463
2536.771999168218,1558
2538.5870439379714,1508
2540.4016980261526,1511
2542.2159617238544,1569
2544.02983532225,1564
2545.8433191125914,1517
2547.656413386209,1487
2549.4691184345115,1543
2551.2814345489874,1522
2553.093362021204,1538
2554.904901142808,1550
2556.716052205523,1519
2558.526815501153,1596
2560.3371913215824,1557
2562.147179958771,1604
2563.956781704761,1545
2565.7659968516705,1585
2567.5748256916986,1617
2569.3832685171224,1584
2571.1913256202984,1549
2572.9989972936614,1648
2574.806283829725,1609
2576.613185521084,1693
2578.4197026604074,1612
2580.2258355404483,1625
2582.031584454035,1600
2583.836949694077,1629
2585.6419315535613,1709
2587.4465303255533,1682
2589.2507463032002,1627
2591.0545797797245,1705
2592.8580310484303,1672
2594.6611004026995,1694
2596.463788135992,1667
2598.266094541849,1688
2600.0680199138874,1653
2601.869564545807,1752
2603.670728731383,1730
2605.4715127644704,1715
2607.2719169390048,1731
2609.071941548998,1659
2610.8715868885433,1700
2612.670853251811,1658
2614.469740933052,1752
2616.268250226594,1736
2618.0663814268455,1734
2619.864134828292,1758
2621.6615107255006,1752
2623.458509413115,1683
2625.2551311858597,1670
2627.0513763385347,1684
2628.8472451660223,1661
2630.6427379632833,1681
2632.4378550253564,1573
2634.232596647359,1681
2636.026963124488,1616
2637.8209547520187,1593
2639.6145718253065,1609
2641.407814639785,1655
2643.200683490966,1612
2644.9931786744414,1587
2646.7853004858807,1622
2648.577049221034,1518
2650.3684251757277,1508
2652.1594286458712,1547
2653.9500599274484,1602
2655.740319316525,1541
2657.5302071092437,1570
2659.3197236018286,1554
2661.10886909058,1511
2662.8976438718782,1545
2664.686048242183,1543
2666.4740824980327,1468
2668.2617469360443,1552
2670.0490418529134,1480
2671.8359675454153,1522
2673.622524310403,1506
2675.408712444811,1469
2677.1945322456495,1465
2678.979984010009,1427
2680.76506803506,1507
2682.5497846180497,1498
2684.334134056306,1432
2686.1181166472343,1463
2687.9017326883213,1484
2689.6849824771293,1485
2691.4678663113013,1385
2693.2503844885596,1406
2695.032537306705,1410
2696.8143250636167,1413
2698.5957480572542,1407
2700.3768065856534,1388
2702.1575009469316,1399
2703.937831439283,1436
2705.717798360982,1430
2707.4974020103837,1367
2709.276642685917,1401
2711.055520686095,1431
2712.834036309506,1400
2714.612189854819,1380
2716.389981620782,1356
2718.1674119062204,1393
2719.944481010041,1374
2721.721189231226,1398
2723.4975368688415,1358
2725.273524222027,1420
2727.0491515900053,1424
2728.824419272075,1359
2730.5993275676146,1374
2732.3738767760838,1305
2734.148067197016,1356
2735.921899130031,1379
2737.6953728748194,1352
2739.468488731156,1314
2741.2412469988926,1337
2743.0136479779617,1386
2744.785691968372,1335
2746.5573792702116,1433
2748.3287101836504,1360
2750.099685008934,1339
2751.870304046388,1396
2753.640567596418,1375
2755.4104759595057,1342
2757.1800294362156,1330
2758.949228327187,1317
2760.7180729331412,1348
2762.486563554877,1364
2764.254700493272,1366
2766.022484049284,1375
2767.789914523947,1344
2769.5569922183786,1369
2771.3237174337705,1376
2773.090090471394,1337
2774.8561116326036,1333
2776.6217812188274,1350
2778.3870995315756,1340
2780.1520668724356,1302
2781.9166835430747,1320
2783.6809498452394,1237
2785.444866080754,1349
2787.2084325515225,1362
2788.971649559527,1360
2790.73451740683,1365
2792.4970363955713,1337
2794.2592068279705,1302
2796.0210290063264,1318
2797.7825032330147,1371
2799.543629810493,1335
2801.304409041296,1423
2803.0648412280366,1361
2804.8249266734088,1336
2806.5846656801846,1333
2808.344058551212,1307
2810.1031055894246,1363
2811.8618070978273,1349
2813.6201633795085,1401
2815.378174737636,1344
2817.1358414754536,1313
2818.893163896285,1297
2820.6501423035334,1324
2822.4067770006814,1361
2824.1630682912883,1394
2825.9190164789957,1329
2827.6746218675207,1272
2829.429884760661,1254
2831.184805462294,1306
2832.9393842763743,1342
2834.693621506936,1344
2836.4475174580916,1287
2838.201072434034,1361
2839.954286739034,1356
2841.707160677441,1344
2843.459694553685,1383
2845.2118886722724,1318
2846.96374333779,1285
2848.7152588549034,1330
2850.4664355283567,1353
2852.217273662973,1338
2853.9677735636546,1316
2855.7179355353833,1315
2857.4677598832186,1350
2859.217246912299,1356
2860.9663969278427,1314
2862.715210235146,1352
2864.4636871395846,1321
2866.211827946614,1321
2867.9596329617652,1397
2869.7071024906536,1327
2871.4542368389684,1320
2873.20103631248,1369
2874.947501217038,1335
2876.6936318585695,1323
2878.4394285430812,1365
2880.1848915766604,1351
2881.9300212654707,1322
2883.6748179157553,1318
2885.4192818338374,1341
2887.1634133261173,1305
2888.907212699077,1341
2890.6506802592744,1343
2892.393816313348,1398
2894.1366211680142,1398
2895.8790951300693,1392
2897.621238506388,1342
2899.363051603925,1343
2901.1045347297118,1324
2902.8456881908596,1292
2904.58651229456,1318
2906.327007348081,1328
2908.067173658772,1356
2909.8070115340597,1329
2911.5465212814497,1326
2913.285703208527,1281
2915.0245576229563,1310
2916.7630848324807,1310
2918.5012851449196,1309
2920.2391588681758,1302
2921.976706310227,1360
2923.7139277791334,1373
2925.4508235830313,1373
2927.187394030137,1369
2928.923639428745,1328
2930.6595600872306,1336
2932.395156314046,1334
2934.1304284177218,1341
2935.8653767068713,1338
2937.6000014901815,1330
2939.3343030764227,1366
2941.068281774442,1343
2942.8019378931644,1371
2944.5352717415976,1373
2946.2682836288236,1331
2948.0009738640065,1315
2949.7333427563885,1349
2951.465390615289,1311
2953.1971177501086,1336
2954.9285244703265,1358
2956.6596110855,1340
2958.3903779052657,1344
2960.1208252393385,1309
2961.8509533975125,1385
2963.5807626896617,1324
2965.3102534257378,1323
2967.0394259157715,1327
2968.768280469873,1356
2970.496817398232,1371
2972.2250370111146,1311
2973.952939618869,1280
2975.6805255319196,1337
2977.4077950607707,1308
2979.134748516006,1370
2980.861386208289,1368
2982.587708448359,1327
2984.313715547037,1308
2986.039407815222,1364
2987.764785563891,1310
2989.489849104102,1337
2991.2145987469908,1366
2992.9390348037705,1348
2994.6631575857346,1345
2996.3869674042576,1323
2998.1104645707887,1362
2999.83364939686,1334
3001.5565221940783,1357
3003.2790832741334,1316
3005.0013329487924,1312
3006.7232715298996,1318
3008.4448993293804,1356
3010.166216659239,1265
3011.887223831558,1305
3013.607921158498,1366
3015.3283089522993,1340
3017.0483875252826,1368
3018.7681571898443,1385
3020.4876182584626,1305
3022.2067710436927,1283
3023.9256158581707,1292
3025.644153014609,1341
3027.362382825801,1351
3029.0803056046193,1305
3030.797921664012,1355
3032.5152313170106,1338
3034.2322348767225,1314
3035.9489326563353,1371
3037.665324969115,1328
3039.3814121284063,1331
3041.097194447633,1385
3042.812672240299,1388
3044.5278458199855,1370
3046.2427155003525,1319
3047.9572815951406,1295
3049.671544418167,1353
3051.38550428333,1362
3053.0991615046073,1321
3054.812516396051,1302
3056.5255692717974,1308
3058.2383204460575,1353
3059.9507702331257,1362
3061.662918947372,1306
3063.3747669032446,1397
3065.0863144152736,1279
3066.7975617980674,1314
3068.508509366309,1346
3070.219157434767,1341
3071.9295063182844,1342
3073.639556331785,1333
3075.3493077902704,1344
3077.058761008821,1315
3078.7679163025964,1358
3080.476773986837,1350
3082.1853343768594,1372
3083.89359778806,1305
3085.6015645359153,1308
3087.3092349359786,1384
3089.016609303884,1332
3090.7236879553434,1358
3092.4304712061476,1322
3094.136959372166,1323
3095.843152769349,1297
3097.5490517137237,1278
3099.2546565213966,1374
3100.959967508554,1349
3102.66498499146,1329
3104.3697092864577,1375
3106.0741407099695,1361
3107.778279578498,1362
3109.482126208622,1337
3111.1856809170004,1319
3112.8889440203716,1381
3114.5919158355528,1403
3116.294596679439,1310
3117.996986869006,1316
3119.6990867213062,1382
3121.4008965534726,1356
3123.102416682717,1408
3124.803647426329,1330
3126.5045891016784,1314
3128.205242026213,1306
3129.90560651746,1371
3131.605682893025,1321
3133.3054714705922,1348
3135.0049725679282,1372
3136.7041865028714,1373
3138.4031135933465,1384
3140.101754157353,1348
3141.800108512971,1378
3143.498176978357,1366
3145.1959598717494,1282
3146.8934575114636,1300
3148.5906702158954,1337
3150.2875983035183,1342
3151.9842420928853,1360
3153.680601902627,1324
3155.376678051456,1302
3157.07247085816,1364
3158.767980641609,1377
3160.463207720748,1368
3162.158152414606,1297
3163.8528150422862,1320
3165.5471959229726,1356
3167.2412953759303,1309
3168.9351137204976,1338
3170.628651276098,1324
3172.3219083622307,1314
3174.014885298474,1339
3175.707582404485,1345
3177.4000000000005,1377
3179.092138404835,1336
3180.7839979388846,1242
3182.47557892212,1388
3184.166881674594,1356
3185.8579065164386,1294
3187.5486537678626,1373
3189.2391237491547,1274
3190.9293167806827,1333
3192.6192331828934,1350
3194.3088732763117,1249
3195.998237381542,1335
3197.687325819268,1317
3199.376138910251,1281
3201.064676975334,1286
3202.7529403354347,1320
3204.4409293115523,1295
3206.1286442247647,1361
3207.816085396229,1316
3209.5032531471825,1320
3211.190147798936,1302
3212.8767696728846,1268
3214.5631190905015,1286
3216.2491963733373,1279
3217.9350018430214,1244
3219.6205358212637,1292
3221.305798629851,1310
3222.990790590651,1309
3224.6755120256103,1262
3226.359963256751,1249
3228.0441446061795,1335
3229.7280563960758,1253
3231.411698948703,1298
3233.0950725863995,1273
3234.778177631587,1266
3236.461014406761,1295
3238.1435832345005,1334
3239.8258844374595,1319
3241.507918338374,1346
3243.1896852600576,1327
3244.8711855254023,1249
3246.552419457381,1292
3248.233387379042,1284
3249.914089613516,1343
3251.59452648401,1292
3253.274698313813,1267
3254.95460542629,1283
3256.6342481448855,1280
3258.313626793125,1249
3259.9927416946084,1281
3261.6715931730196,1240
3263.3501815521176,1240
3265.0285071557437,1272
3266.706570307815,1269
3268.3843713323286,1287
3270.0619105533615,1347
3271.739188295068,1247
3273.4162048816834,1321
3275.0929606375184,1334
3276.769455886966,1262
3278.445690954498,1283
3280.1216661646613,1312
3281.797381842087,1314
3283.4728383114807,1331
3285.1480358976296,1290
3286.8229749253996,1273
3288.4976557197333,1310
3290.172078605655,1259
3291.846243908266,1267
3293.5201519527463,1305
3295.193803064357,1278
3296.8671975684374,1348
3298.5403357904024,1296
3300.21321805575,1286
3301.8858446900567,1268
3303.558216018975,1285
3305.23033236824,1269
3306.9021940636603,1336
3308.57380143113,1266
3310.2451547966184,1325
3311.916254486174,1319
3313.5871008259246,1298
3315.2576941420766,1286
3316.9280347609147,1288
3318.5981230088046,1313
3320.2679592121895,1287
3321.9375436975924,1262
3323.606876791612,1286
3325.27595882093,1207
3326.944790112305,1319
3328.6133709925753,1248
3330.2817017886573,1335
3331.949782827547,1284
3333.617614436319,1305
3335.2851969421245,1305
3336.952530672199,1329
3338.619615953853,1314
3340.286453114475,1331
3341.9530424815357,1341
3343.619384382583,1311
3345.2854791452437,1300
3346.951327097224,1279
3348.6169285663073,1320
3350.2822838803577,1316
3351.947393367319,1303
3353.61225735521,1295
3355.2768761721345,1294
3356.9412501462693,1264
3358.605379605873,1279
3360.2692648792827,1301
3361.9329062949146,1272
3363.596304181263,1274
