CollectionTime,6/26/2024 3:44:05 PM
ExposureUsed,3
CalibratedSpectrum
-962.7078968117929,553
-959.9714848408522,583
-957.2358232597828,555
-954.5009119013725,597
-951.7667505983302,617
-949.0333391832855,603
-946.3006774887896,569
-943.5687653473143,610
-940.837602591253,660
-938.1071890529199,630
-935.3775245645503,623
-932.6486089583007,639
-929.9204420662485,651
-927.1930237203925,633
-924.4663537526524,633
-921.7404319948689,608
-919.0152582788041,628
-916.2908324361409,670
-913.5671542984834,633
-910.8442236973568,651
-908.1220404642074,648
-905.4006044304027,631
-902.679915427231,680
-899.959973285902,659
-897.2407778375464,635
-894.5223289132158,635
-891.8046263438832,619
-889.0876699604426,618
-886.3714595937089,598
-883.6559950744183,621
-880.9412762332282,603
-878.2273029007168,586
-875.5140749073835,604
-872.8015920836489,608
-870.0898542598545,575
-867.3788612662631,600
-864.6686129330585,607
-861.9591090903457,582
-859.2503495681506,577
-856.5423341964203,577
-853.8350628050229,589
-851.1285352237478,635
-848.4227512823054,601
-845.7177108103272,597
-843.0134136373656,571
-840.3098595928943,570
-837.6070485063082,578
-834.9049802069229,625
-832.2036545239757,602
-829.5030712866244,600
-826.8032303239481,580
-824.1041314649472,578
-821.4057745385428,558
-818.7081593735775,583
-816.0112857988148,611
-813.3151536429393,564
-810.6197627345566,587
-807.9251129021936,567
-805.2312039742981,579
-802.5380357792392,578
-799.8456081453069,562
-797.1539209007124,586
-794.462973873588,615
-791.772766891987,590
-789.083299783884,607
-786.3945723771743,605
-783.7065844996748,613
-781.0193359791231,612
-778.3328266431781,654
-775.6470563194197,619
-772.9620248353489,623
-770.2777320183878,602
-767.5941776958798,585
-764.9113616950891,616
-762.2292838432011,596
-759.5479439673222,598
-756.8673418944801,603
-754.1874774516235,619
-751.5083504656222,583
-748.8299607632671,590
-746.15230817127,562
-743.475392516264,607
-740.7992136248035,597
-738.1237713233636,605
-735.4490654383407,590
-732.7750957960521,633
-730.1018622227365,631
-727.4293645445534,628
-724.7576025875837,658
-722.0865761778291,650
-719.4162851412126,599
-716.7467293035781,625
-714.0779084906909,690
-711.409822528237,693
-708.7424712418238,656
-706.0758544569796,667
-703.4099719991541,671
-700.7448236937178,653
-698.0804093659622,704
-695.4167288411002,587
-692.7537819442656,641
-690.0915685005134,649
-687.4300883348199,620
-684.7693412720819,645
-682.1093271371178,629
-679.4500457546669,669
-676.7914969493897,673
-674.1336805458676,678
-671.4765963686034,654
-668.8202442420206,700
-666.1646239904642,686
-663.5097354382001,673
-660.8555784094151,702
-658.2021527282176,686
-655.5494582186366,736
-652.8974947046223,705
-650.2462620100463,698
-647.5957599587009,730
-644.9459883742998,706
-642.2969470804776,691
-639.6486359007902,713
-637.0010546587141,743
-634.3542031776476,745
-631.7080812809096,707
-629.0626887917401,704
-626.4180255333008,706
-623.7740913286734,721
-621.1308860008619,714
-618.4884093727904,718
-615.8466612673046,708
-613.2056415071715,682
-610.5653499150785,712
-607.9257863136347,761
-605.28695052537,759
-602.6488423727357,742
-600.0114616781036,731
-597.3748082637674,745
-594.7388819519412,728
-592.1036825647604,736
-589.4692099242818,741
-586.8354638524829,746
-584.2024441712624,750
-581.5701507024403,746
-578.9385832677575,793
-576.3077416888759,752
-573.6776257873787,731
-571.0482353847704,730
-568.4195703024757,768
-565.7916303618415,786
-563.164415384135,874
-560.5379251905453,758
-557.9121596021815,753
-555.2871184400748,746
-552.6628015251767,811
-550.0392086783606,772
-547.4163397204204,762
-544.794194472071,753
-542.1727727539491,812
-539.5520743866118,755
-536.9320991905377,795
-534.3128469861261,849
-531.6943175936979,839
-529.0765108334947,862
-526.4594265256793,985
-523.8430644903358,1132
-521.2274245474689,1216
-518.612506517005,1403
-515.9983102187913,1479
-513.3848354725959,1656
-510.77208209810846,1824
-508.16004991493924,1914
-505.5487387426199,2119
-502.9381484006032,2425
-500.3282787082628,2550
-497.71912948489364,2539
-495.1107005497117,2565
-492.5029917218539,2460
-489.8960028203786,2239
-487.28973366426493,1867
-484.68418407241325,1617
-482.07935386364494,1379
-479.47524285670266,1326
-476.87185087025,1222
-474.2691777228715,1221
-471.66722323307334,1124
-469.0659872192821,1088
-466.4654694998459,1068
-463.86566989303384,1026
-461.26658821703614,1031
-458.66822428996414,1002
-456.07057792985,1016
-453.4736489546475,1022
-450.877437182231,1060
-448.28194243039627,1037
-445.68716451686,987
-443.09310325926003,990
-440.49975847515555,998
-437.9071299820263,956
-435.31521759727354,1030
-432.72402113821954,979
-430.13354042210767,982
-427.5437752661022,1007
-424.95472548728867,1071
-422.36639090267386,1088
-419.7787713291855,1063
-417.1918665836721,1065
-414.60567648290385,1064
-412.0202008435715,1107
-409.4354394822874,1050
-406.8513922155845,1050
-404.26805885991723,1068
-401.685439231661,1132
-399.103533147112,1108
-396.522340422488,1056
-393.9418608739278,1097
-391.3620943174908,1099
-388.7830405691583,1127
-386.2046994448317,1107
-383.6270707603344,1021
-381.05015433141045,957
-378.473949973725,856
-375.8984575028645,884
-373.32367673433623,830
-370.74960748356875,796
-368.1762495659117,756
-365.60360279663576,696
-363.03166699093265,712
-360.4604419639154,692
-357.8899275306178,641
-355.32012350599507,595
-352.7510297049233,548
-350.1826459421999,582
-347.61497203254316,647
-345.04800779059235,603
-342.4817530309082,547
-339.91620756797226,540
-337.35137121618743,547
-334.7872437898774,537
-332.22382510328725,562
-329.66111497058273,613
-327.09911320585127,656
-324.53781962310075,636
-321.9772340362607,613
-319.4173562591816,674
-316.8581861056348,705
-314.2997233893127,735
-311.7419679238294,749
-309.1849195227194,721
-306.62857799943856,681
-304.0729431673641,600
-301.51801483979375,589
-298.963792829947,626
-296.41027695096386,691
-293.85746701590574,826
-291.3053628377552,855
-288.7539642294155,816
-286.2032710037115,734
-283.65328297338897,792
-281.1039999511146,818
-278.5554217494762,873
-276.007548180983,758
-273.4603790580651,711
-270.9139141930734,652
-268.3681533982807,760
-265.8230964858798,713
-263.27874326798565,701
-260.7350935566336,722
-258.1921471637804,830
-255.6499039013039,838
-253.10836358100266,844
-250.56752601459698,849
-248.02739101372765,871
-245.48795838995704,896
-242.94922795476816,914
-240.41119951956557,815
-237.8738728956746,999
-235.33724789434166,1127
-232.80132432673452,1082
-230.2661020039418,1143
-227.73158073697357,1092
-225.19776033676033,911
-222.66464061415422,1047
-220.1322213799284,925
-217.60050244477725,939
-215.06948361931552,953
-212.53916471408013,937
-210.00954553952818,891
-207.48062590603843,988
-204.9524056239104,1114
-202.4248845033651,1158
-199.8980623545441,1228
-197.37193898751036,1091
-194.84651421224817,1102
-192.32178783866232,1088
-189.79775967657952,1072
-187.27442953574644,1060
-184.7517972258321,1010
-182.2298625564256,986
-179.7086253370378,1170
-177.18808537710026,1289
-174.66824248596583,1220
-172.14909647290835,1315
-169.6306471471229,1326
-167.11289431772548,1226
-164.59583779375328,1195
-162.07947738416453,1314
-159.5638128978386,1361
-157.04884414357605,1299
-154.53457093009854,1357
-152.02099306604828,1275
-149.50811035998936,1249
-146.99592262040665,1327
-144.48442965570587,1391
-141.97363127421409,1546
-139.46352728417958,2011
-136.95411749377126,2081
-134.44540171107985,2129
-131.93737974411636,2002
-129.43005140081357,1905
-126.92341648902493,1801
-124.41747481652521,1893
-121.91222619101006,1893
-119.40767042009657,1862
-116.90380731132257,1640
-114.40063667214702,1867
-111.8981583099503,2002
-109.3963720320337,2195
-106.89527764561933,2006
-104.39487495785067,2208
-101.89516377579241,2318
-99.39614390642998,2194
-96.89781515667039,2202
-94.40017733334128,2490
-91.90323024319173,2684
-89.40697369289148,2476
-86.91140748903172,2310
-84.41653143812482,2302
-81.92234534660395,2404
-79.42884902082358,2651
-76.93604226705907,2757
-74.4439248915071,2760
-71.95249670028534,2827
-69.46175749943245,2880
-66.97170709490854,3116
-64.48234529259423,3461
-61.99367189829195,3586
-59.50568671772464,3937
-57.01838955653636,4260
-54.53178022029283,4297
-52.045858514480074,4118
-49.560624244506016,4890
-47.07607721569923,5257
-44.59221723330904,4697
-42.10904410250669,4914
-39.62655762838392,6350
-37.14475761595372,8297
-34.66364387015028,8213
-32.18321619582866,9155
-29.70347439776515,10985
-27.224418280657005,12027
-24.74604764912317,15707
-22.26836230770266,20872
-19.7913620608565,33795
-17.315046712966478,54201
-14.83941606833514,65037
-12.36446993118659,65037
-9.89020810566592,65037
-7.416630395839093,65037
-4.94373660569363,65037
-2.471526539137585,65037
-6.821210263296962E-13,65037
2.47084320796705,65037
4.941003281093458,65037
7.410480415786196,65037
9.879274808531363,65037
12.347386655893956,65037
14.814816154518212,65037
17.28156350112681,65037
19.74762889252179,65037
22.21301252558385,65037
24.67771459727237,65037
27.141735304626195,65037
29.605074844762612,37283
32.06773341487792,13873
34.52971121224755,8941
36.99100843422559,8819
39.45162527824516,11505
41.91156194181792,10693
44.370818622535126,17177
46.82939551806646,24951
49.287292826160524,22705
51.74451074464503,17084
54.201049471426245,11144
56.65690920448981,7456
59.112090141899785,4905
61.56659248179983,4564
64.02041642241159,4085
66.4735621620365,4606
68.92602989905402,4159
71.37781983192338,3588
73.82893215918205,3897
76.27936707944684,3785
78.72912479141326,4209
81.17820549385567,4295
83.62660938562783,4143
86.07433666566146,3366
88.5213875329681,3398
90.96776218663751,3535
93.41346082583925,3594
95.85848364982041,3557
98.30283085790859,2950
100.7465026495089,3377
103.18949922410604,3536
105.63182078126385,2876
108.07346752062438,3415
110.51443964190923,3263
112.95473734491827,2357
115.39436082953114,2215
117.83331029570547,2385
120.27158594347827,2417
122.7091879729652,2149
125.1461165843615,2496
127.58237197794062,2183
130.01795435405518,1820
132.4528639131364,1834
134.88710085569494,2018
137.32066538231982,2035
139.75355769367923,1945
142.1857779905207,1967
144.61732647366978,1849
147.04820334403132,1847
149.47840880258934,1593
151.90794305040674,1848
154.33680628862487,2085
156.76499871846443,1969
159.19252054122433,1969
161.61937195828352,2133
164.04555317109896,2045
166.47106438120693,2270
168.89590579022217,2804
171.320077599839,2840
173.7435800118302,2579
176.16641322804742,2694
178.58857745042144,2731
181.01007288096173,2789
183.43089972175687,2686
185.85105817497413,2548
188.27054844285988,2663
190.6893707277394,2782
193.10752523201643,2792
195.5250121581745,2960
197.9418317087751,2904
200.3579840864594,2831
202.7734694939469,2773
205.18828813403627,2841
207.6024402096051,2912
210.01592592360964,2937
212.42874547908548,2798
214.84089907914665,2678
217.2523869269868,2645
219.66320922587727,2825
222.0733661791695,2821
224.48285799029293,2868
226.8916848627572,2961
229.29984700014882,3054
231.7073446061355,3075
234.11417788446204,3048
236.520347038953,2945
238.92585227351185,3175
241.33069379212054,3358
243.73487179884035,3193
246.1383864978112,2899
248.541238093252,2863
250.9434267894609,3055
253.34495279081432,3252
255.74581630176783,2991
258.1460175268563,3080
260.54555667069314,3029
262.9444339379703,2965
265.3426495334594,2904
267.7402036620107,2983
270.1370965285529,3024
272.53332833809407,2937
274.9288992957214,2908
277.32380960660055,2754
279.718059475976,2860
282.1116491091717,2914
284.5045787115897,2945
286.89684848871195,2933
289.2884586460981,3016
291.67940938938807,2985
294.0697009242996,2865
296.4593334566299,2924
298.84830719225477,2799
301.23662233712923,2820
303.6242790972866,2788
306.01127767884,2814
308.39761828798066,2817
310.78330113097934,2721
313.16832641418534,2677
315.5526943440269,2697
317.9364051270112,2793
320.3194589697242,2617
322.70185607883093,2571
325.0835966610754,2562
327.4646809232805,2565
329.8451090723478,2558
332.2248813152577,2604
334.6039978590701,2556
336.9824589109231,2639
339.36026467803447,2631
341.7374153677,2501
344.113911187295,2392
346.48975234427337,2356
348.8649390461686,2421
351.2394715005918,2407
353.61334991523415,2306
355.9865744978655,2393
358.35914545633375,2423
360.73106299856715,2394
363.10232733257146,2357
365.47293866643247,2328
367.84289720831396,2300
370.2122031664593,2269
372.5808567491905,2294
374.9488581649083,2304
377.31620762209275,2277
379.6829053293021,2328
382.0489514951745,2272
384.4143463284262,2319
386.7790900378528,2280
389.14318283232853,2185
391.50662492080653,2179
393.86941651231916,2265
396.23155781597745,2211
398.5930490409713,2174
400.9538903965696,2206
403.3140820921202,2175
405.6736243370498,2167
408.03251734086336,2204
410.3907613131465,2126
412.74835646356166,2191
415.10530300185144,2116
417.4616011378372,2164
419.81725108141893,2222
422.1722530425758,2105
424.5266072313656,2119
426.880313857925,2092
429.2333731324701,2194
431.58578526529516,2119
433.9375504667738,2086
436.2886689473588,2125
438.63914091758113,2127
440.9889665880513,2086
443.33814616945835,2058
445.68667987257015,2124
448.03456790823395,2132
450.3818104873759,2038
452.72840782100013,2071
455.07436012019105,2101
457.41966759611057,2078
459.7643304600007,2128
462.10834892318155,2066
464.4517231970525,2057
466.79445349309174,2166
469.1365400228566,2147
471.4779829979826,2187
473.81878263018564,2169
476.15893913125876,2240
478.4984527130747,2287
480.8373235875855,2237
483.17555196682144,2315
485.5131380628919,2465
487.8500820879857,2644
490.1863842543697,2741
492.52204477439034,3101
494.8570638604725,3396
497.1914417251204,3916
499.52517858091653,4250
501.85827464052306,4483
504.19073011668036,4522
506.5225452222086,4620
508.85372017000566,4382
511.18425517304956,4169
513.514150444396,4114
515.8434061971808,4686
518.1720226446176,5326
520.4999999999999,5489
522.8273384766991,5725
525.1540382881666,6060
527.480099647932,5873
529.8055227696037,5044
532.1303078668694,3614
534.454455153496,2646
536.777964843328,2342
539.1008371502907,2136
541.4230722883866,2066
543.744670471698,1989
546.0656319143858,2036
548.3859568306899,2021
550.7056454349294,2022
553.0246979415016,1980
555.3431145648834,1848
557.6608955196306,1897
559.978041020377,1852
562.2945512818363,1858
564.6104265188006,1908
566.9256669461412,1930
569.2402727788082,1848
571.5542442318302,1805
573.8675815203156,1898
576.1802848594508,1934
578.4923544645015,1838
580.8037905508126,1913
583.114593333807,1919
585.4247630289875,1891
587.7342998519354,1868
590.0432040183106,1827
592.3514757438526,1873
594.6591152443794,1868
596.9661227357875,1855
599.2724984340531,1863
601.578242555231,1815
603.8833553154542,1873
606.1878369309362,1969
608.4916876179676,2006
610.7949075929192,1977
613.0974970722403,1899
615.3994562724587,1906
617.7007854101818,1877
620.0014847020951,1891
622.3015543649641,1922
624.6009946156324,1907
626.8998056710224,1927
629.1979877481361,1856
631.4955410640538,1876
633.7924658359349,1839
636.0887622810175,1961
638.3844306166192,1845
640.6794710601358,1839
642.9738838290426,1862
645.2676691408932,1908
647.5608272133207,1851
649.853358264037,1818
652.1452625108324,1907
654.4365401715764,1870
656.7271914642178,1896
659.0172166067838,1949
661.3066158173809,1956
663.5953893141935,1896
665.8835373154867,1809
668.1710600396028,1923
670.4579577049639,1888
672.7442305300709,1927
675.0298787335033,1853
677.3149025339197,1971
679.599302150058,1932
681.8830778007342,1928
684.1662297048437,1952
686.4487580813608,1956
688.7306631493387,1881
691.0119451279091,1872
693.2926042362834,1846
695.5726406937516,1901
697.8520547196814,1895
700.1308465335215,1872
702.4090163547982,1922
704.6865644031171,1939
706.9634908981619,1929
709.2397960596965,1903
711.5154801075631,1879
713.7905432616823,1882
716.0649857420548,1879
718.3388077687592,1878
720.612009561953,1951
722.8845913418733,1890
725.1565533288352,1883
727.427895743234,1916
729.6986188055427,1943
731.9687227363137,1973
734.238207756178,1921
736.5070740858458,1892
738.7753219461066,1966
741.0429515578281,1944
743.3099631419569,1870
745.5763569195191,1929
747.8421331116193,1989
750.1072919394409,1983
752.3718336242467,1936
754.6357583873777,1920
756.8990664502545,1921
759.1617580343765,1983
761.423833361321,1948
763.6852926527457,1970
765.9461361303862,1900
768.206364016058,1932
770.4659765316536,1974
772.7249738991469,1964
774.9833563405886,1918
777.2411240781092,1942
779.4982773339183,1990
781.7548163303044,1976
784.010741289634,2017
786.2660524343538,2051
788.5207499869881,1969
790.7748341701416,1998
793.0283052064964,1951
795.2811633188143,1940
797.5334087299362,1954
799.7850416627813,1971
802.0360623403484,1924
804.2864709857143,1988
806.5362678220353,1948
808.7854530725468,1951
811.0340269605625,2038
813.2819897094754,1998
815.5293415427581,2023
817.77608268396,1936
820.0222133567116,1979
822.2677337847211,1947
824.5126441917765,1939
826.7569448017433,1973
829.0006358385675,1934
831.2437175262731,1965
833.4861900889629,1964
835.7280537508192,1887
837.9693087361026,1999
840.2099552691533,1887
842.4499935743896,1948
844.689423876309,1899
846.9282463994886,1929
849.1664613685833,1912
851.4040690083276,1949
853.6410695435349,1953
855.877463199097,1881
858.1132501999847,1957
860.3484307712487,1942
862.5830051380175,1935
864.8169735254988,1964
867.0503361589791,2016
869.2830932638243,1943
871.5152450654786,2026
873.7467917894654,1988
875.9777336613873,2013
878.2080709069252,2063
880.4378037518389,2025
882.666932421968,2039
884.8954571432301,2021
887.1233781416219,2064
889.3506956432192,2135
891.5774098741766,2075
893.803521060728,2041
896.0290294291852,2027
898.2539352059397,2051
900.4782386174619,2027
902.7019398903011,2063
904.925039251085,2064
907.147536926521,2072
909.3694331433943,2058
911.59072812857,1945
913.8114221089921,1982
916.0315153116827,2000
918.2510079637437,1967
920.4699002923547,1999
922.6881925247761,2018
924.905884888345,2033
927.1229776104793,2041
929.3394709186747,2085
931.555365040506,1929
933.7706602036275,1930
935.9853566357709,1945
938.1994545647489,1983
940.4129542184515,1937
942.6258558248488,2087
944.8381596119883,1969
947.0498658079974,2042
949.2609746410825,2005
951.4714863395287,1952
953.6814011316998,1971
955.8907192460387,1999
958.0994409110671,1922
960.3075663553858,1922
962.5150958076741,1828
964.7220294966913,1891
966.928367651274,1844
969.1341105003388,1853
971.3392582728806,1930
973.5438111979742,1866
975.747769504772,1918
977.9511334225061,1918
980.153903180487,1882
982.3560790081052,1866
984.5576611348289,1905
986.7586497902058,1846
988.9590452038618,1779
991.158847605503,1905
993.3580572249133,1776
995.5566742919558,1814
997.7546990365728,1722
999.952131688785,1709
1002.1489724786926,1711
1004.3452216364743,1676
1006.5408793923874,1655
1008.7359459767691,1663
1010.9304216200343,1632
1013.1243065526781,1619
1015.3176010052733,1590
1017.510305208472,1587
1019.7024193930064,1540
1021.8939437896848,1545
1024.0848786293977,1560
1026.2752241431122,1546
1028.4649805618747,1589
1030.6541481168115,1549
1032.842727039127,1507
1035.0307175601051,1528
1037.2181199111074,1546
1039.4049343235752,1529
1041.591161029029,1499
1043.7768002590683,1524
1045.9618522453698,1534
1048.1463172196918,1535
1050.3301954138697,1462
1052.513487059818,1440
1054.69619238953,1419
1056.8783116350783,1458
1059.0598450286152,1546
1061.2407928023704,1515
1063.4211551886528,1536
1065.6009324198508,1493
1067.780124728432,1512
1069.9587323469414,1489
1072.1367555080046,1467
1074.314194444325,1546
1076.4910493886855,1530
1078.667320573947,1512
1080.843008233051,1496
1083.0181125990161,1444
1085.1926339049414,1472
1087.3665723840027,1469
1089.5399282694575,1417
1091.7127017946405,1430
1093.8848931929647,1424
1096.0565026979243,1373
1098.2275305430899,1391
1100.3979769621128,1424
1102.567842188722,1444
1104.737126456726,1402
1106.9058300000124,1421
1109.0739530525475,1354
1111.2414958483764,1468
1113.4084586216231,1399
1115.5748416064907,1411
1117.7406450372605,1444
1119.9058691482942,1349
1122.0705141740304,1391
1124.2345803489884,1381
1126.3980679077658,1354
1128.5609770850388,1405
1130.7233081155623,1367
1132.8850612341707,1334
1135.0462366757774,1350
1137.2068346753745,1442
1139.3668554680326,1452
1141.526299288901,1384
1143.68516637321,1378
1145.8434569562655,1425
1148.001171273455,1373
1150.158309560244,1344
1152.3148720521767,1367
1154.470858984876,1338
1156.626270594044,1337
1158.7811071154629,1376
1160.9353687849912,1400
1163.089055838569,1357
1165.242168512213,1374
1167.3947070420209,1378
1169.5466716641677,1386
1171.6980626149075,1376
1173.8488801305748,1341
1175.9991244475814,1305
1178.1487958024186,1329
1180.2978944316555,1328
1182.4464205719428,1383
1184.5943744600072,1371
1186.7417563326567,1300
1188.8885664267755,1369
1191.0348049793297,1335
1193.1804722273619,1346
1195.325568407995,1401
1197.4700937584303,1334
1199.614048515948,1305
1201.7574329179074,1339
1203.900247201746,1364
1206.042491604982,1333
1208.1841663652099,1347
1210.3252717201053,1331
1212.465807907422,1346
1214.6057751649923,1311
1216.7451737307279,1320
1218.8840038426192,1344
1221.0222657387353,1375
1223.1599596572241,1371
1225.2970858363137,1438
1227.4336445143094,1386
1229.5696359295966,1314
1231.705060320639,1365
1233.8399179259786,1362
1235.9742089842384,1389
1238.107933734118,1420
1240.2410924143974,1410
1242.373685263935,1341
1244.5057125216676,1377
1246.6371744266116,1377
1248.7680712178621,1324
1250.898403134593,1394
1253.028170416058,1416
1255.1573733015875,1438
1257.2860120305932,1340
1259.4140868425648,1385
1261.54159797707,1389
1263.6685456737569,1363
1265.7949301723515,1384
1267.9207517126597,1372
1270.046010534565,1375
1272.1707068780306,1367
1274.2948409830983,1393
1276.4184130898889,1433
1278.541423438603,1394
1280.6638722695184,1431
1282.785759822993,1424
1284.9070863394636,1404
1287.0278520594447,1435
1289.1480572235314,1400
1291.2677020723963,1436
1293.3867868467923,1414
1295.5053117875495,1443
1297.623277135579,1429
1299.740683131868,1443
1301.8575300174857,1456
1303.973818033578,1472
1306.0895474213703,1490
1308.2047184221678,1455
1310.3193312773528,1428
1312.4333862283888,1451
1314.5468835168163,1450
1316.659823384255,1481
1318.7722060724045,1479
1320.8840318230418,1441
1322.9953008780249,1521
1325.1060134792888,1514
1327.2161698688478,1430
1329.3257702887959,1470
1331.4348149813054,1533
1333.5433041886276,1458
1335.6512381530933,1449
1337.7586171171101,1451
1339.8654413231675,1417
1341.9717110138317,1455
1344.0774264317488,1415
1346.1825878196432,1424
1348.2871954203192,1447
1350.3912494766587,1451
1352.4947502316231,1407
1354.5976979282532,1430
1356.7000928096686,1379
1358.8019351190665,1425
1360.9032250997243,1482
1363.0039629949988,1462
1365.1041490483235,1466
1367.2037835032133,1515
1369.3028666032606,1443
1371.401398592137,1401
1373.4993797135926,1400
1375.5968102114575,1392
1377.6936903296396,1360
1379.7900203121262,1431
1381.8858004029835,1428
1383.9810308463561,1517
1386.075711886469,1468
1388.1698437676241,1428
1390.2634267342032,1393
1392.356461030667,1454
1394.4489469015557,1427
1396.5408845914872,1457
1398.6322743451592,1452
1400.7231164073469,1465
1402.813411022907,1506
1404.903158436773,1453
1406.9923588939578,1465
1409.0810126395531,1504
1411.1691199187303,1425
1413.2566809767386,1497
1415.343696058907,1470
1417.4301654106425,1523
1419.5160892774315,1464
1421.6014679048399,1438
1423.6863015385125,1501
1425.7705904241707,1477
1427.8543348076178,1468
1429.9375349347342,1470
1432.0201910514802,1461
1434.102303403894,1418
1436.1838722380944,1476
1438.2648978002767,1485
1440.3453803367174,1521
1442.4253200937692,1524
1444.5047173178677,1473
1446.5835722555234,1484
1448.6618851533285,1511
1450.739656257952,1550
1452.8168858161434,1552
1454.8935740747306,1563
1456.96972128062,1604
1459.045327680797,1575
1461.120393522327,1572
1463.1949190523528,1631
1465.2689045180973,1526
1467.3423501668608,1621
1469.415256246024,1599
1471.4876230030463,1621
1473.559450685465,1651
1475.6307395408976,1642
1477.7014898170391,1694
1479.771701761665,1673
1481.8413756226287,1657
1483.9105116478618,1705
1485.9791100853772,1698
1488.0471711832643,1744
1490.1146951896926,1724
1492.1816823529098,1683
1494.2481329212433,1685
1496.3140471430984,1771
1498.3794252669609,1765
1500.4442675413939,1793
1502.5085742150404,1808
1504.572345536622,1803
1506.6355817549388,1841
1508.6982831188702,1832
1510.7604498773744,1802
1512.8220822794883,1788
1514.8831805743293,1868
1516.9437450110909,1882
1519.003775839048,1819
1521.0632733075522,1948
1523.1222376660367,1891
1525.1806691640113,1877
1527.2385680510652,1944
1529.2959345768668,2013
1531.3527689911643,1982
1533.4090715437833,2094
1535.4648424846291,2161
1537.5200820636855,2056
1539.5747905310159,2146
1541.6289681367616,2127
1543.6826151311434,2161
1545.7357317644614,2230
1547.7883182870937,2246
1549.8403749494987,2200
1551.8919020022113,2195
1553.9428996958477,2208
1555.9933682811015,2231
1558.0433080087469,2351
1560.0927191296346,2290
1562.1416018946961,2382
1564.1899565549415,2401
1566.2377833614592,2478
1568.2850825654164,2506
1570.3318544180606,2521
1572.3780991707158,2537
1574.423817074788,2528
1576.4690083817595,2429
1578.5136733431923,2406
1580.5578122107272,2285
1582.601425236085,2266
1584.6445126710646,2126
1586.6870747675434,2111
1588.7291117774776,2083
1590.7706239529034,1955
1592.8116115459347,1848
1594.8520748087658,1857
1596.8920139936686,1800
1598.9314293529933,1785
1600.9703211391711,1698
1603.008689604711,1686
1605.0465350022005,1708
1607.0838575843068,1566
1609.1206576037753,1628
1611.1569353134305,1615
1613.1926909661765,1607
1615.2279248149953,1507
1617.2626371129481,1499
1619.2968281131757,1534
1621.3304980688963,1500
1623.3636472334088,1501
1625.39627586009,1543
1627.428384202396,1533
1629.459972513861,1482
1631.4910410480993,1498
1633.5215900588028,1473
1635.551619799744,1468
1637.5811305247717,1477
1639.6101224878166,1470
1641.6385959428862,1462
1643.6665511440683,1433
1645.693988345528,1432
1647.7209078015112,1452
1649.7473097663405,1409
1651.7731944944203,1453
1653.7985622402307,1478
1655.823413258333,1465
1657.847747803366,1434
1659.8715661300494,1466
1661.8948684931793,1376
1663.9176551476316,1408
1665.9399263483624,1404
1667.9616823504057,1406
1669.982923408873,1419
1672.0036497789574,1378
1674.0238617159293,1381
1676.043559475138,1451
1678.0627433120121,1365
1680.081413482059,1463
1682.0995702408654,1385
1684.117213844096,1406
1686.134344547495,1423
1688.1509626068864,1455
1690.1670682781705,1419
1692.182661817329,1440
1694.1977434804217,1428
1696.2123135235875,1437
1698.226372203043,1353
1700.2399197750851,1385
1702.2529564960905,1361
1704.2654826225112,1413
1706.277498410882,1417
1708.2890041178139,1463
1710.2999999999988,1454
1712.3104863142066,1477
1714.3204633172854,1428
1716.329931266163,1486
1718.3388904178469,1418
1720.3473410294214,1435
1722.3552833580516,1311
1724.3627176609807,1384
1726.3696441955308,1426
1728.3760632191033,1437
1730.3819749891782,1384
1732.3873797633146,1421
1734.3922777991502,1399
1736.3966693544012,1362
1738.4005546868639,1381
1740.4039340544127,1411
1742.406807715001,1448
1744.4091759266616,1381
1746.4110389475054,1386
1748.4123970357223,1400
1750.413250449582,1319
1752.4135994474318,1364
1754.4134442876993,1380
1756.4127852288902,1374
1758.4116225295893,1416
1760.4099564484595,1389
1762.407787244244,1374
1764.405115175764,1416
1766.4019405019203,1409
1768.3982634816916,1333
1770.3940843741357,1382
1772.3894034383907,1360
1774.3842209336717,1363
1776.378537119274,1345
1778.372352254571,1347
1780.3656665990156,1350
1782.3584804121397,1373
1784.3507939535534,1365
1786.3426074829463,1378
1788.3339212600863,1392
1790.3247355448211,1391
1792.3150505970766,1381
1794.3048666768573,1401
1796.2941840442477,1423
1798.2830029594106,1314
1800.2713236825884,1381
1802.2591464741004,1376
1804.2464715943465,1344
1806.2332993038058,1406
1808.2196298630352,1331
1810.2054635326708,1341
1812.190800573428,1370
1814.175641246101,1382
1816.1599858115628,1325
1818.1438345307652,1403
1820.127187664738,1400
1822.1100454745924,1328
1824.092408221516,1378
1826.0742761667766,1356
1828.055649571721,1341
1830.0365286977735,1402
1832.0169138064398,1312
1833.9968051593014,1348
1835.9762030180214,1333
1837.9551076443408,1304
1839.9335193000788,1375
1841.9114382471344,1389
1843.888864747485,1401
1845.8657990631878,1369
1847.842241456378,1399
1849.8181921892697,1325
1851.7936515241558,1300
1853.7686197234098,1326
1855.7430970494815,1334
1857.7170837649014,1337
1859.6905801322787,1321
1861.6635864143004,1347
1863.6361028737338,1394
1865.608129773424,1400
1867.5796673762961,1353
1869.5507159453537,1358
1871.521275743678,1398
1873.4913470344313,1404
1875.4609300808534,1368
1877.4300251462632,1352
1879.3986324940588,1460
1881.366752387717,1356
1883.3343850907936,1365
1885.3015308669228,1400
1887.268189979819,1379
1889.2343626932739,1400
1891.2000492711595,1462
1893.1652499774254,1385
1895.1299650761011,1373
1897.0941948312952,1366
1899.0579395071945,1416
1901.0211993680641,1383
1902.98397467825,1383
1904.9462657021745,1393
1906.9080727043415,1392
1908.869395949332,1457
1910.8302357018065,1338
1912.790592226504,1346
1914.7504657882428,1381
1916.7098566519212,1377
1918.6687650825133,1369
1920.6271913450764,1353
1922.5851357047422,1368
1924.5425984267245,1390
1926.499579776314,1403
1928.4560800188833,1385
1930.4120994198802,1375
1932.367638244833,1379
1934.32269675935,1373
1936.2772752291175,1370
1938.231373919899,1390
1940.1849930975404,1404
1942.1381330279637,1390
1944.0907939771696,1473
1946.0429762112412,1396
1947.9946799963363,1364
1949.9459055986945,1414
1951.896653284633,1387
1953.8469233205478,1366
1955.7967159729142,1386
1957.7460315082863,1409
1959.6948701932974,1372
1961.6432322946594,1389
1963.5911180791632,1407
1965.5385278136787,1364
1967.4854617651545,1382
1969.4319202006182,1398
1971.377903387176,1382
1973.3234115920136,1331
1975.268445082395,1395
1977.2130041256642,1378
1979.1570889892423,1396
1981.1006999406304,1362
1983.04383724741,1389
1984.986501177238,1377
1986.928691997853,1330
1988.8704099770712,1402
1990.811655382789,1363
1992.7524284829801,1378
1994.692729545698,1403
1996.6325588390755,1375
1998.5719166313224,1362
2000.5108031907307,1365
2002.4492187856677,1446
2004.387163684583,1395
2006.3246381560011,1381
2008.2616424685298,1388
2010.1981768908527,1315
2012.1342416917332,1402
2014.069837140014,1338
2016.0049635046162,1378
2017.9396210545406,1339
2019.8738100588666,1353
2021.8075307867502,1341
2023.740783507431,1345
2025.6735684902228,1318
2027.6058860045214,1335
2029.5377363198004,1348
2031.4691197056118,1354
2033.4000364315875,1366
2035.3304867674374,1367
2037.260470982952,1384
2039.189989347998,1394
2041.1190421325232,1343
2043.047629606554,1380
2044.9757520401945,1342
2046.9034097036288,1365
2048.8306028671195,1398
2050.7573318010086,1289
2052.683596775716,1369
2054.609398061742,1328
2056.5347359296647,1389
2058.4596106501403,1376
2060.384022493906,1391
2062.3079717317764,1373
2064.231458634646,1362
2066.1544834734873,1379
2068.077046519352,1321
2069.99914804337,1348
2071.9207883167524,1408
2073.8419676107865,1422
2075.7626861968406,1336
2077.6829443463607,1333
2079.6027423308715,1365
2081.522080421977,1361
2083.440958891362,1379
2085.359378010786,1353
2087.2773380520907,1392
2089.194839287196,1371
2091.111881988101,1350
2093.0284664268825,1287
2094.9445928756973,1339
2096.86026160678,1377
2098.775472892446,1360
2100.690227005088,1302
2102.604524217178,1358
2104.5183648012676,1348
2106.431749029985,1333
2108.34467717604,1366
2110.2571495122206,1428
2112.169166311393,1397
2114.080727846503,1354
2115.9918343905747,1380
2117.902486216711,1358
2119.8126835980956,1378
2121.722426807987,1357
2123.6317161197285,1336
2125.5405518067364,1388
2127.448934142509,1394
2129.356863400624,1361
2131.264339854737,1361
2133.1713637785815,1274
2135.077935445972,1319
2136.9840551308002,1383
2138.889723107037,1357
2140.7949396487334,1347
2142.699705030018,1356
2144.6040195250994,1382
2146.507883408264,1363
2148.4112969538774,1385
2150.3142604363848,1362
2152.2167741303097,1387
2154.1188383102535,1372
2156.0204532508997,1393
2157.9216192270064,1403
2159.822336513414,1344
2161.7226053850413,1368
2163.622426116884,1386
2165.5217989840185,1361
2167.4207242616,1313
2169.319202224862,1322
2171.2172331491165,1361
2173.1148173097563,1378
2175.0119549822507,1378
2176.90864644215,1361
2178.8048919650823,1392
2180.7006918267534,1396
2182.596046302952,1366
2184.4909556695407,1322
2186.3854202024645,1365
2188.279440177746,1280
2190.173015871487,1393
2192.066147559868,1348
2193.958835519149,1392
2195.851080025667,1381
2197.7428813558417,1359
2199.6342397861667,1322
2201.5251555932186,1350
2203.415629053651,1347
2205.3056604441986,1366
2207.19525004167,1329
2209.084398122958,1405
2210.9731049650327,1399
2212.861370844941,1397
2214.749196039812,1383
2216.636580826851,1399
2218.523525483344,1365
2220.410030286655,1343
2222.296095514226,1328
2224.1817214435805,1365
2226.066908352319,1406
2227.951656518121,1429
2229.835966218746,1370
2231.71983773203,1340
2233.6032713358913,1339
2235.486267308324,1373
2237.3688259274036,1362
2239.2509474712824,1378
2241.132632218193,1362
2243.013880446447,1387
2244.8946924344323,1414
2246.7750684606203,1344
2248.6550088035574,1399
2250.534513741871,1370
2252.413583554265,1366
2254.292218519526,1351
2256.170418916517,1359
2258.0481850241786,1323
2259.925517121534,1360
2261.8024154876825,1334
2263.678880401803,1388
2265.5549121431536,1379
2267.430510991071,1378
2269.305677224971,1388
2271.180411124348,1403
2273.0547129687766,1306
2274.9285830379076,1338
2276.8020216114737,1393
2278.6750289692845,1353
2280.5476053912294,1350
2282.4197511572766,1328
2284.2914665474727,1393
2286.162751841943,1322
2288.0336073208937,1348
2289.904033264608,1346
2291.774029953448,1378
2293.6435976678554,1350
2295.5127366883517,1403
2297.381447295534,1358
2299.2497297700825,1332
2301.1175843927526,1379
2302.9850114443825,1351
2304.852011205885,1385
2306.7185839582553,1384
2308.5847299825664,1353
2310.4504495599676,1364
2312.3157429716925,1353
2314.1806104990483,1412
2316.0450524234247,1390
2317.9090690262888,1387
2319.772660589186,1331
2321.635827393742,1410
2323.498569721661,1376
2325.3608878547248,1393
2327.2227820747967,1397
2329.0842526638157,1401
2330.945299903803,1414
2332.805924076857,1406
2334.6661254651535,1334
2336.525904350951,1355
2338.3852610165827,1400
2340.244195744464,1392
2342.102708817088,1341
2343.9608005170253,1327
2345.8184711269287,1357
2347.675720929526,1427
2349.532550207628,1372
2351.38895924412,1436
2353.24494832197,1381
2355.100517724223,1388
2356.955667734004,1343
2358.810398634514,1392
2360.664710709037,1396
2362.5186042409337,1398
2364.3720795136437,1417
2366.225136810686,1356
2368.0777764156583,1391
2369.929998612237,1424
2371.7818036841777,1349
2373.633191915315,1392
2375.484163589562,1417
2377.3347189909114,1402
2379.184858403434,1422
2381.03458211128,1389
2382.8838903986775,1352
2384.732783549936,1388
2386.5812618494406,1390
2388.4293255816588,1344
2390.2769750311327,1406
2392.1242104824883,1390
2393.971032220427,1448
2395.8174405297295,1418
2397.6634356952563,1443
2399.509018001947,1488
2401.3541877348193,1406
2403.1989451789705,1400
2405.043290619576,1345
2406.8872243418905,1452
2408.730746631247,1383
2410.5738577730594,1423
2412.4165580528183,1419
2414.258847756095,1442
2416.100727168537,1415
2417.9421965758734,1449
2419.783256263912,1435
2421.623906518538,1410
2423.4641476257157,1379
2425.303979871491,1433
2427.143403541984,1437
2428.9824189233977,1405
2430.821026302012,1430
2432.6592259641866,1425
2434.497018196361,1458
2436.33440328505,1446
2438.171381516851,1393
2440.00795317844,1399
2441.844118556569,1452
2443.6798779380724,1442
2445.5152316098606,1403
2447.3501798589255,1444
2449.1847229723357,1419
2451.0188612372403,1404
2452.8525949408663,1433
2454.6859243705203,1438
2456.518849813587,1405
2458.3513715575314,1346
2460.183489889895,1402
2462.015205098301,1370
2463.8465174704493,1390
2465.67742729412,1458
2467.5079348571717,1392
2469.338040447542,1412
2471.1677443532476,1493
2472.9970468623833,1404
2474.825948263123,1444
2476.6544488437207,1446
2478.482548892508,1422
2480.310248697896,1423
2482.137548548374,1479
2483.9644487325118,1419
2485.790949538956,1411
2487.617051256433,1440
2489.44275417375,1386
2491.26805857979,1440
2493.0929647635157,1427
2494.917473013971,1436
2496.741583620276,1480
2498.5652968716304,1376
2500.3886130573137,1441
2502.2115324666834,1452
2504.0340553891765,1454
2505.856182114308,1436
2507.6779129316733,1466
2509.499248130945,1442
2511.3201880018764,1449
2513.140732834298,1439
2514.9608829181198,1470
2516.780638543331,1485
2518.6,1474
2520.418967578273,1489
2522.237541568376,1414
2524.0557222606144,1446
2525.8735099453706,1427
2527.6909049131086,1460
2529.507907454368,1462
2531.32451785977,1468
2533.140736420014,1511
2534.9565634258774,1456
2536.771999168218,1397
2538.5870439379714,1433
2540.4016980261526,1466
2542.2159617238544,1453
2544.02983532225,1477
2545.8433191125914,1477
2547.656413386209,1497
2549.4691184345115,1515
2551.2814345489874,1461
2553.093362021204,1516
2554.904901142808,1503
2556.716052205523,1556
2558.526815501153,1525
2560.3371913215824,1509
2562.147179958771,1496
2563.956781704761,1477
2565.7659968516705,1501
2567.5748256916986,1542
2569.3832685171224,1525
2571.1913256202984,1503
2572.9989972936614,1505
2574.806283829725,1503
2576.613185521084,1564
2578.4197026604074,1585
2580.2258355404483,1481
2582.031584454035,1583
2583.836949694077,1504
2585.6419315535613,1530
2587.4465303255533,1528
2589.2507463032002,1592
2591.0545797797245,1538
2592.8580310484303,1503
2594.6611004026995,1558
2596.463788135992,1562
2598.266094541849,1559
2600.0680199138874,1565
2601.869564545807,1542
2603.670728731383,1588
2605.4715127644704,1558
2607.2719169390048,1593
2609.071941548998,1555
2610.8715868885433,1551
2612.670853251811,1614
2614.469740933052,1617
2616.268250226594,1572
2618.0663814268455,1571
2619.864134828292,1543
2621.6615107255006,1657
2623.458509413115,1575
2625.2551311858597,1591
2627.0513763385347,1546
2628.8472451660223,1561
2630.6427379632833,1611
2632.4378550253564,1553
2634.232596647359,1528
2636.026963124488,1564
2637.8209547520187,1543
2639.6145718253065,1452
2641.407814639785,1502
2643.200683490966,1545
2644.9931786744414,1509
2646.7853004858807,1502
2648.577049221034,1558
2650.3684251757277,1527
2652.1594286458712,1517
2653.9500599274484,1520
2655.740319316525,1470
2657.5302071092437,1455
2659.3197236018286,1545
2661.10886909058,1438
2662.8976438718782,1496
2664.686048242183,1489
2666.4740824980327,1478
2668.2617469360443,1448
2670.0490418529134,1467
2671.8359675454153,1494
2673.622524310403,1446
2675.408712444811,1469
2677.1945322456495,1392
2678.979984010009,1394
2680.76506803506,1475
2682.5497846180497,1457
2684.334134056306,1465
2686.1181166472343,1395
2687.9017326883213,1367
2689.6849824771293,1392
2691.4678663113013,1423
2693.2503844885596,1431
2695.032537306705,1425
2696.8143250636167,1409
2698.5957480572542,1368
2700.3768065856534,1428
2702.1575009469316,1454
2703.937831439283,1412
2705.717798360982,1396
2707.4974020103837,1422
2709.276642685917,1398
2711.055520686095,1358
2712.834036309506,1418
2714.612189854819,1368
2716.389981620782,1375
2718.1674119062204,1374
2719.944481010041,1403
2721.721189231226,1358
2723.4975368688415,1437
2725.273524222027,1355
2727.0491515900053,1352
2728.824419272075,1408
2730.5993275676146,1402
2732.3738767760838,1387
2734.148067197016,1366
2735.921899130031,1377
2737.6953728748194,1344
2739.468488731156,1350
2741.2412469988926,1356
2743.0136479779617,1390
2744.785691968372,1384
2746.5573792702116,1330
2748.3287101836504,1420
2750.099685008934,1397
2751.870304046388,1381
2753.640567596418,1326
2755.4104759595057,1324
2757.1800294362156,1353
2758.949228327187,1339
2760.7180729331412,1397
2762.486563554877,1321
2764.254700493272,1346
2766.022484049284,1377
2767.789914523947,1362
2769.5569922183786,1362
2771.3237174337705,1363
2773.090090471394,1429
2774.8561116326036,1368
2776.6217812188274,1379
2778.3870995315756,1371
2780.1520668724356,1348
2781.9166835430747,1352
2783.6809498452394,1361
2785.444866080754,1455
2787.2084325515225,1373
2788.971649559527,1429
2790.73451740683,1376
2792.4970363955713,1382
2794.2592068279705,1390
2796.0210290063264,1358
2797.7825032330147,1376
2799.543629810493,1403
2801.304409041296,1383
2803.0648412280366,1352
2804.8249266734088,1334
2806.5846656801846,1391
2808.344058551212,1421
2810.1031055894246,1320
2811.8618070978273,1368
2813.6201633795085,1404
2815.378174737636,1329
2817.1358414754536,1305
2818.893163896285,1379
2820.6501423035334,1334
2822.4067770006814,1426
2824.1630682912883,1400
2825.9190164789957,1350
2827.6746218675207,1375
2829.429884760661,1364
2831.184805462294,1373
2832.9393842763743,1363
2834.693621506936,1374
2836.4475174580916,1378
2838.201072434034,1402
2839.954286739034,1378
2841.707160677441,1384
2843.459694553685,1398
2845.2118886722724,1360
2846.96374333779,1363
2848.7152588549034,1376
2850.4664355283567,1418
2852.217273662973,1324
2853.9677735636546,1362
2855.7179355353833,1367
2857.4677598832186,1375
2859.217246912299,1360
2860.9663969278427,1343
2862.715210235146,1352
2864.4636871395846,1324
2866.211827946614,1376
2867.9596329617652,1295
2869.7071024906536,1394
2871.4542368389684,1375
2873.20103631248,1370
2874.947501217038,1334
2876.6936318585695,1323
2878.4394285430812,1383
2880.1848915766604,1364
2881.9300212654707,1374
2883.6748179157553,1316
2885.4192818338374,1398
2887.1634133261173,1377
2888.907212699077,1309
2890.6506802592744,1346
2892.393816313348,1351
2894.1366211680142,1402
2895.8790951300693,1351
2897.621238506388,1337
2899.363051603925,1373
2901.1045347297118,1406
2902.8456881908596,1376
2904.58651229456,1355
2906.327007348081,1369
2908.067173658772,1344
2909.8070115340597,1318
2911.5465212814497,1347
2913.285703208527,1395
2915.0245576229563,1360
2916.7630848324807,1340
2918.5012851449196,1358
2920.2391588681758,1313
2921.976706310227,1355
2923.7139277791334,1401
2925.4508235830313,1378
2927.187394030137,1384
2928.923639428745,1316
2930.6595600872306,1398
2932.395156314046,1378
2934.1304284177218,1415
2935.8653767068713,1323
2937.6000014901815,1346
2939.3343030764227,1333
2941.068281774442,1358
2942.8019378931644,1359
2944.5352717415976,1371
2946.2682836288236,1364
2948.0009738640065,1384
2949.7333427563885,1369
2951.465390615289,1335
2953.1971177501086,1342
2954.9285244703265,1380
2956.6596110855,1396
2958.3903779052657,1342
2960.1208252393385,1364
2961.8509533975125,1368
2963.5807626896617,1400
2965.3102534257378,1323
2967.0394259157715,1378
2968.768280469873,1401
2970.496817398232,1381
2972.2250370111146,1359
2973.952939618869,1361
2975.6805255319196,1302
2977.4077950607707,1347
2979.134748516006,1383
2980.861386208289,1388
2982.587708448359,1370
2984.313715547037,1425
2986.039407815222,1345
2987.764785563891,1390
2989.489849104102,1341
2991.2145987469908,1336
2992.9390348037705,1295
2994.6631575857346,1413
2996.3869674042576,1424
2998.1104645707887,1406
2999.83364939686,1347
3001.5565221940783,1335
3003.2790832741334,1371
3005.0013329487924,1368
3006.7232715298996,1317
3008.4448993293804,1293
3010.166216659239,1330
3011.887223831558,1369
3013.607921158498,1345
3015.3283089522993,1322
3017.0483875252826,1324
3018.7681571898443,1338
3020.4876182584626,1350
3022.2067710436927,1280
3023.9256158581707,1380
3025.644153014609,1349
3027.362382825801,1359
3029.0803056046193,1378
3030.797921664012,1341
3032.5152313170106,1360
3034.2322348767225,1384
3035.9489326563353,1367
3037.665324969115,1312
3039.3814121284063,1363
3041.097194447633,1350
3042.812672240299,1344
3044.5278458199855,1344
3046.2427155003525,1336
3047.9572815951406,1402
3049.671544418167,1377
3051.38550428333,1342
3053.0991615046073,1397
3054.812516396051,1380
3056.5255692717974,1345
3058.2383204460575,1381
3059.9507702331257,1402
3061.662918947372,1324
3063.3747669032446,1368
3065.0863144152736,1344
3066.7975617980674,1441
3068.508509366309,1380
3070.219157434767,1369
3071.9295063182844,1375
3073.639556331785,1362
3075.3493077902704,1319
3077.058761008821,1360
3078.7679163025964,1336
3080.476773986837,1354
3082.1853343768594,1398
3083.89359778806,1388
3085.6015645359153,1380
3087.3092349359786,1343
3089.016609303884,1389
3090.7236879553434,1353
3092.4304712061476,1404
3094.136959372166,1344
3095.843152769349,1355
3097.5490517137237,1338
3099.2546565213966,1375
3100.959967508554,1393
3102.66498499146,1347
3104.3697092864577,1326
3106.0741407099695,1309
3107.778279578498,1321
3109.482126208622,1326
3111.1856809170004,1364
3112.8889440203716,1368
3114.5919158355528,1401
3116.294596679439,1420
3117.996986869006,1381
3119.6990867213062,1317
3121.4008965534726,1350
3123.102416682717,1356
3124.803647426329,1350
3126.5045891016784,1382
3128.205242026213,1383
3129.90560651746,1367
3131.605682893025,1353
3133.3054714705922,1334
3135.0049725679282,1328
3136.7041865028714,1345
3138.4031135933465,1338
3140.101754157353,1399
3141.800108512971,1387
3143.498176978357,1361
3145.1959598717494,1373
3146.8934575114636,1370
3148.5906702158954,1329
3150.2875983035183,1394
3151.9842420928853,1323
3153.680601902627,1339
3155.376678051456,1336
3157.07247085816,1366
3158.767980641609,1295
3160.463207720748,1345
3162.158152414606,1370
3163.8528150422862,1373
3165.5471959229726,1356
3167.2412953759303,1321
3168.9351137204976,1353
3170.628651276098,1360
3172.3219083622307,1335
3174.014885298474,1359
3175.707582404485,1381
3177.4000000000005,1376
3179.092138404835,1402
3180.7839979388846,1348
3182.47557892212,1336
3184.166881674594,1350
3185.8579065164386,1353
3187.5486537678626,1356
3189.2391237491547,1374
3190.9293167806827,1378
3192.6192331828934,1338
3194.3088732763117,1353
3195.998237381542,1342
3197.687325819268,1367
3199.376138910251,1397
3201.064676975334,1381
3202.7529403354347,1345
3204.4409293115523,1292
3206.1286442247647,1341
3207.816085396229,1308
3209.5032531471825,1363
3211.190147798936,1324
3212.8767696728846,1324
3214.5631190905015,1304
3216.2491963733373,1274
3217.9350018430214,1268
3219.6205358212637,1314
3221.305798629851,1311
3222.990790590651,1276
3224.6755120256103,1337
3226.359963256751,1339
3228.0441446061795,1326
3229.7280563960758,1315
3231.411698948703,1324
3233.0950725863995,1337
3234.778177631587,1334
3236.461014406761,1378
3238.1435832345005,1366
3239.8258844374595,1290
3241.507918338374,1342
3243.1896852600576,1341
3244.8711855254023,1362
3246.552419457381,1366
3248.233387379042,1392
3249.914089613516,1326
3251.59452648401,1327
3253.274698313813,1283
3254.95460542629,1341
3256.6342481448855,1360
3258.313626793125,1346
3259.9927416946084,1334
3261.6715931730196,1335
3263.3501815521176,1271
3265.0285071557437,1361
3266.706570307815,1363
3268.3843713323286,1304
3270.0619105533615,1305
3271.739188295068,1303
3273.4162048816834,1333
3275.0929606375184,1349
3276.769455886966,1336
3278.445690954498,1332
3280.1216661646613,1334
3281.797381842087,1387
3283.4728383114807,1317
3285.1480358976296,1355
3286.8229749253996,1328
3288.4976557197333,1258
3290.172078605655,1363
3291.846243908266,1314
3293.5201519527463,1336
3295.193803064357,1378
3296.8671975684374,1303
3298.5403357904024,1317
3300.21321805575,1391
3301.8858446900567,1352
3303.558216018975,1365
3305.23033236824,1324
3306.9021940636603,1360
3308.57380143113,1308
3310.2451547966184,1364
3311.916254486174,1334
3313.5871008259246,1400
3315.2576941420766,1381
3316.9280347609147,1365
3318.5981230088046,1330
3320.2679592121895,1307
3321.9375436975924,1353
3323.606876791612,1366
3325.27595882093,1332
3326.944790112305,1324
3328.6133709925753,1283
3330.2817017886573,1278
3331.949782827547,1300
3333.617614436319,1331
3335.2851969421245,1309
3336.952530672199,1350
3338.619615953853,1353
3340.286453114475,1374
3341.9530424815357,1302
3343.619384382583,1329
3345.2854791452437,1347
3346.951327097224,1334
3348.6169285663073,1314
3350.2822838803577,1345
3351.947393367319,1391
3353.61225735521,1363
3355.2768761721345,1348
3356.9412501462693,1330
3358.605379605873,1392
3360.2692648792827,1306
3361.9329062949146,1370
3363.596304181263,1309
