CollectionTime,6/26/2024 3:44:25 PM
ExposureUsed,3
CalibratedSpectrum
-962.7078968117929,655
-959.9714848408522,749
-957.2358232597828,688
-954.5009119013725,744
-951.7667505983302,693
-949.0333391832855,693
-946.3006774887896,720
-943.5687653473143,750
-940.837602591253,765
-938.1071890529199,723
-935.3775245645503,747
-932.6486089583007,770
-929.9204420662485,819
-927.1930237203925,791
-924.4663537526524,751
-921.7404319948689,746
-919.0152582788041,745
-916.2908324361409,741
-913.5671542984834,736
-910.8442236973568,793
-908.1220404642074,747
-905.4006044304027,775
-902.679915427231,755
-899.959973285902,747
-897.2407778375464,777
-894.5223289132158,730
-891.8046263438832,699
-889.0876699604426,731
-886.3714595937089,703
-883.6559950744183,730
-880.9412762332282,725
-878.2273029007168,727
-875.5140749073835,739
-872.8015920836489,717
-870.0898542598545,697
-867.3788612662631,703
-864.6686129330585,726
-861.9591090903457,675
-859.2503495681506,662
-856.5423341964203,695
-853.8350628050229,711
-851.1285352237478,739
-848.4227512823054,710
-845.7177108103272,721
-843.0134136373656,707
-840.3098595928943,696
-837.6070485063082,714
-834.9049802069229,734
-832.2036545239757,709
-829.5030712866244,705
-826.8032303239481,748
-824.1041314649472,666
-821.4057745385428,652
-818.7081593735775,704
-816.0112857988148,668
-813.3151536429393,705
-810.6197627345566,687
-807.9251129021936,661
-805.2312039742981,712
-802.5380357792392,680
-799.8456081453069,674
-797.1539209007124,722
-794.462973873588,684
-791.772766891987,725
-789.083299783884,701
-786.3945723771743,694
-783.7065844996748,706
-781.0193359791231,710
-778.3328266431781,747
-775.6470563194197,757
-772.9620248353489,710
-770.2777320183878,689
-767.5941776958798,704
-764.9113616950891,736
-762.2292838432011,734
-759.5479439673222,726
-756.8673418944801,747
-754.1874774516235,719
-751.5083504656222,696
-748.8299607632671,694
-746.15230817127,720
-743.475392516264,722
-740.7992136248035,701
-738.1237713233636,724
-735.4490654383407,694
-732.7750957960521,774
-730.1018622227365,805
-727.4293645445534,746
-724.7576025875837,763
-722.0865761778291,728
-719.4162851412126,762
-716.7467293035781,740
-714.0779084906909,775
-711.409822528237,806
-708.7424712418238,760
-706.0758544569796,769
-703.4099719991541,784
-700.7448236937178,764
-698.0804093659622,841
-695.4167288411002,751
-692.7537819442656,735
-690.0915685005134,781
-687.4300883348199,786
-684.7693412720819,781
-682.1093271371178,778
-679.4500457546669,768
-676.7914969493897,789
-674.1336805458676,780
-671.4765963686034,790
-668.8202442420206,812
-666.1646239904642,829
-663.5097354382001,816
-660.8555784094151,826
-658.2021527282176,818
-655.5494582186366,821
-652.8974947046223,878
-650.2462620100463,837
-647.5957599587009,850
-644.9459883742998,863
-642.2969470804776,875
-639.6486359007902,868
-637.0010546587141,865
-634.3542031776476,881
-631.7080812809096,849
-629.0626887917401,835
-626.4180255333008,829
-623.7740913286734,818
-621.1308860008619,773
-618.4884093727904,813
-615.8466612673046,817
-613.2056415071715,783
-610.5653499150785,850
-607.9257863136347,824
-605.28695052537,777
-602.6488423727357,846
-600.0114616781036,834
-597.3748082637674,830
-594.7388819519412,879
-592.1036825647604,879
-589.4692099242818,843
-586.8354638524829,841
-584.2024441712624,861
-581.5701507024403,837
-578.9385832677575,840
-576.3077416888759,851
-573.6776257873787,857
-571.0482353847704,822
-568.4195703024757,853
-565.7916303618415,903
-563.164415384135,928
-560.5379251905453,889
-557.9121596021815,865
-555.2871184400748,874
-552.6628015251767,932
-550.0392086783606,864
-547.4163397204204,839
-544.794194472071,877
-542.1727727539491,871
-539.5520743866118,916
-536.9320991905377,936
-534.3128469861261,962
-531.6943175936979,1012
-529.0765108334947,977
-526.4594265256793,1081
-523.8430644903358,1177
-521.2274245474689,1368
-518.612506517005,1448
-515.9983102187913,1657
-513.3848354725959,1700
-510.77208209810846,1799
-508.16004991493924,1860
-505.5487387426199,1993
-502.9381484006032,2173
-500.3282787082628,2287
-497.71912948489364,2290
-495.1107005497117,2304
-492.5029917218539,2247
-489.8960028203786,2086
-487.28973366426493,1947
-484.68418407241325,1604
-482.07935386364494,1475
-479.47524285670266,1358
-476.87185087025,1319
-474.2691777228715,1301
-471.66722323307334,1211
-469.0659872192821,1144
-466.4654694998459,1177
-463.86566989303384,1140
-461.26658821703614,1131
-458.66822428996414,1117
-456.07057792985,1186
-453.4736489546475,1095
-450.877437182231,1109
-448.28194243039627,1140
-445.68716451686,1127
-443.09310325926003,1137
-440.49975847515555,1057
-437.9071299820263,1028
-435.31521759727354,1066
-432.72402113821954,1060
-430.13354042210767,1175
-427.5437752661022,1135
-424.95472548728867,1168
-422.36639090267386,1202
-419.7787713291855,1126
-417.1918665836721,1214
-414.60567648290385,1133
-412.0202008435715,1230
-409.4354394822874,1164
-406.8513922155845,1177
-404.26805885991723,1233
-401.685439231661,1220
-399.103533147112,1164
-396.522340422488,1222
-393.9418608739278,1244
-391.3620943174908,1170
-388.7830405691583,1220
-386.2046994448317,1207
-383.6270707603344,1095
-381.05015433141045,1045
-378.473949973725,939
-375.8984575028645,972
-373.32367673433623,862
-370.74960748356875,830
-368.1762495659117,842
-365.60360279663576,785
-363.03166699093265,747
-360.4604419639154,702
-357.8899275306178,634
-355.32012350599507,601
-352.7510297049233,551
-350.1826459421999,565
-347.61497203254316,613
-345.04800779059235,578
-342.4817530309082,533
-339.91620756797226,550
-337.35137121618743,531
-334.7872437898774,562
-332.22382510328725,564
-329.66111497058273,608
-327.09911320585127,705
-324.53781962310075,665
-321.9772340362607,596
-319.4173562591816,616
-316.8581861056348,731
-314.2997233893127,744
-311.7419679238294,748
-309.1849195227194,700
-306.62857799943856,635
-304.0729431673641,597
-301.51801483979375,593
-298.963792829947,627
-296.41027695096386,669
-293.85746701590574,793
-291.3053628377552,766
-288.7539642294155,760
-286.2032710037115,739
-283.65328297338897,770
-281.1039999511146,803
-278.5554217494762,880
-276.007548180983,740
-273.4603790580651,686
-270.9139141930734,713
-268.3681533982807,788
-265.8230964858798,709
-263.27874326798565,741
-260.7350935566336,752
-258.1921471637804,835
-255.6499039013039,865
-253.10836358100266,830
-250.56752601459698,808
-248.02739101372765,826
-245.48795838995704,849
-242.94922795476816,831
-240.41119951956557,771
-237.8738728956746,976
-235.33724789434166,1135
-232.80132432673452,1137
-230.2661020039418,1153
-227.73158073697357,1084
-225.19776033676033,918
-222.66464061415422,1022
-220.1322213799284,958
-217.60050244477725,887
-215.06948361931552,919
-212.53916471408013,936
-210.00954553952818,882
-207.48062590603843,989
-204.9524056239104,1086
-202.4248845033651,1120
-199.8980623545441,1139
-197.37193898751036,989
-194.84651421224817,1112
-192.32178783866232,1145
-189.79775967657952,1048
-187.27442953574644,1045
-184.7517972258321,972
-182.2298625564256,951
-179.7086253370378,1173
-177.18808537710026,1220
-174.66824248596583,1254
-172.14909647290835,1411
-169.6306471471229,1366
-167.11289431772548,1190
-164.59583779375328,1155
-162.07947738416453,1177
-159.5638128978386,1250
-157.04884414357605,1266
-154.53457093009854,1283
-152.02099306604828,1204
-149.50811035998936,1170
-146.99592262040665,1321
-144.48442965570587,1347
-141.97363127421409,1622
-139.46352728417958,1984
-136.95411749377126,2037
-134.44540171107985,2025
-131.93737974411636,1946
-129.43005140081357,1838
-126.92341648902493,1794
-124.41747481652521,1841
-121.91222619101006,1848
-119.40767042009657,1768
-116.90380731132257,1601
-114.40063667214702,1868
-111.8981583099503,1985
-109.3963720320337,2085
-106.89527764561933,1961
-104.39487495785067,2033
-101.89516377579241,2186
-99.39614390642998,2100
-96.89781515667039,2117
-94.40017733334128,2483
-91.90323024319173,2613
-89.40697369289148,2552
-86.91140748903172,2281
-84.41653143812482,2265
-81.92234534660395,2360
-79.42884902082358,2614
-76.93604226705907,2632
-74.4439248915071,2702
-71.95249670028534,2669
-69.46175749943245,2815
-66.97170709490854,3074
-64.48234529259423,3470
-61.99367189829195,3498
-59.50568671772464,3905
-57.01838955653636,4175
-54.53178022029283,4056
-52.045858514480074,4193
-49.560624244506016,4908
-47.07607721569923,5074
-44.59221723330904,4747
-42.10904410250669,4751
-39.62655762838392,6149
-37.14475761595372,8294
-34.66364387015028,8199
-32.18321619582866,8930
-29.70347439776515,10470
-27.224418280657005,11819
-24.74604764912317,15895
-22.26836230770266,20485
-19.7913620608565,32910
-17.315046712966478,51838
-14.83941606833514,62316
-12.36446993118659,65037
-9.89020810566592,65037
-7.416630395839093,65037
-4.94373660569363,65037
-2.471526539137585,65037
-6.821210263296962E-13,65037
2.47084320796705,65037
4.941003281093458,65037
7.410480415786196,65037
9.879274808531363,65037
12.347386655893956,65037
14.814816154518212,65037
17.28156350112681,65037
19.74762889252179,65037
22.21301252558385,65037
24.67771459727237,65037
27.141735304626195,65037
29.605074844762612,27209
32.06773341487792,12781
34.52971121224755,9186
36.99100843422559,8958
39.45162527824516,11433
41.91156194181792,10769
44.370818622535126,17078
46.82939551806646,23390
49.287292826160524,21092
51.74451074464503,16047
54.201049471426245,10776
56.65690920448981,7329
59.112090141899785,4913
61.56659248179983,4491
64.02041642241159,3997
66.4735621620365,4506
68.92602989905402,4184
71.37781983192338,3811
73.82893215918205,4021
76.27936707944684,3786
78.72912479141326,4340
81.17820549385567,4394
83.62660938562783,4194
86.07433666566146,3352
88.5213875329681,3506
90.96776218663751,3519
93.41346082583925,3630
95.85848364982041,3446
98.30283085790859,2949
100.7465026495089,3400
103.18949922410604,3394
105.63182078126385,2976
108.07346752062438,3454
110.51443964190923,3214
112.95473734491827,2388
115.39436082953114,2363
117.83331029570547,2394
120.27158594347827,2364
122.7091879729652,2153
125.1461165843615,2530
127.58237197794062,2099
130.01795435405518,1779
132.4528639131364,1777
134.88710085569494,1958
137.32066538231982,1893
139.75355769367923,1865
142.1857779905207,1940
144.61732647366978,1900
147.04820334403132,1772
149.47840880258934,1634
151.90794305040674,2013
154.33680628862487,2281
156.76499871846443,1988
159.19252054122433,1952
161.61937195828352,2158
164.04555317109896,2128
166.47106438120693,2425
168.89590579022217,3012
171.320077599839,2962
173.7435800118302,2903
176.16641322804742,2988
178.58857745042144,3027
181.01007288096173,3117
183.43089972175687,3118
185.85105817497413,3022
188.27054844285988,3132
190.6893707277394,3074
193.10752523201643,3303
195.5250121581745,3329
197.9418317087751,3434
200.3579840864594,3155
202.7734694939469,3284
205.18828813403627,3440
207.6024402096051,3362
210.01592592360964,3377
212.42874547908548,3263
214.84089907914665,3181
217.2523869269868,3030
219.66320922587727,3335
222.0733661791695,3267
224.48285799029293,3250
226.8916848627572,3216
229.29984700014882,3487
231.7073446061355,3381
234.11417788446204,3379
236.520347038953,3309
238.92585227351185,3607
241.33069379212054,3791
243.73487179884035,3576
246.1383864978112,3378
248.541238093252,3379
250.9434267894609,3577
253.34495279081432,3615
255.74581630176783,3503
258.1460175268563,3616
260.54555667069314,3590
262.9444339379703,3439
265.3426495334594,3310
267.7402036620107,3453
270.1370965285529,3267
272.53332833809407,3244
274.9288992957214,3208
277.32380960660055,3165
279.718059475976,3023
282.1116491091717,2995
284.5045787115897,3067
286.89684848871195,3227
289.2884586460981,3064
291.67940938938807,3209
294.0697009242996,3041
296.4593334566299,3071
298.84830719225477,2973
301.23662233712923,2927
303.6242790972866,2982
306.01127767884,2858
308.39761828798066,2937
310.78330113097934,2796
313.16832641418534,2750
315.5526943440269,2842
317.9364051270112,2849
320.3194589697242,2768
322.70185607883093,2701
325.0835966610754,2642
327.4646809232805,2709
329.8451090723478,2715
332.2248813152577,2694
334.6039978590701,2692
336.9824589109231,2668
339.36026467803447,2519
341.7374153677,2540
344.113911187295,2565
346.48975234427337,2489
348.8649390461686,2497
351.2394715005918,2531
353.61334991523415,2407
355.9865744978655,2482
358.35914545633375,2493
360.73106299856715,2343
363.10232733257146,2476
365.47293866643247,2417
367.84289720831396,2445
370.2122031664593,2451
372.5808567491905,2430
374.9488581649083,2424
377.31620762209275,2378
379.6829053293021,2441
382.0489514951745,2338
384.4143463284262,2429
386.7790900378528,2397
389.14318283232853,2422
391.50662492080653,2368
393.86941651231916,2295
396.23155781597745,2346
398.5930490409713,2219
400.9538903965696,2307
403.3140820921202,2217
405.6736243370498,2264
408.03251734086336,2273
410.3907613131465,2252
412.74835646356166,2246
415.10530300185144,2284
417.4616011378372,2277
419.81725108141893,2334
422.1722530425758,2346
424.5266072313656,2190
426.880313857925,2241
429.2333731324701,2164
431.58578526529516,2173
433.9375504667738,2146
436.2886689473588,2231
438.63914091758113,2225
440.9889665880513,2204
443.33814616945835,2178
445.68667987257015,2195
448.03456790823395,2150
450.3818104873759,2081
452.72840782100013,2113
455.07436012019105,2278
457.41966759611057,2224
459.7643304600007,2157
462.10834892318155,2259
464.4517231970525,2189
466.79445349309174,2298
469.1365400228566,2258
471.4779829979826,2291
473.81878263018564,2315
476.15893913125876,2307
478.4984527130747,2375
480.8373235875855,2339
483.17555196682144,2370
485.5131380628919,2445
487.8500820879857,2611
490.1863842543697,2867
492.52204477439034,2981
494.8570638604725,3312
497.1914417251204,3641
499.52517858091653,3864
501.85827464052306,4092
504.19073011668036,4174
506.5225452222086,4074
508.85372017000566,4031
511.18425517304956,3744
513.514150444396,3761
515.8434061971808,4349
518.1720226446176,5068
520.4999999999999,5518
522.8273384766991,5990
525.1540382881666,6051
527.480099647932,5876
529.8055227696037,5004
532.1303078668694,3653
534.454455153496,2741
536.777964843328,2455
539.1008371502907,2176
541.4230722883866,2173
543.744670471698,2189
546.0656319143858,2121
548.3859568306899,1996
550.7056454349294,2048
553.0246979415016,2046
555.3431145648834,2026
557.6608955196306,1973
559.978041020377,1971
562.2945512818363,1933
564.6104265188006,1912
566.9256669461412,2062
569.2402727788082,1961
571.5542442318302,1951
573.8675815203156,1937
576.1802848594508,1843
578.4923544645015,1963
580.8037905508126,1874
583.114593333807,1946
585.4247630289875,1897
587.7342998519354,1941
590.0432040183106,1974
592.3514757438526,1936
594.6591152443794,1918
596.9661227357875,1977
599.2724984340531,1962
601.578242555231,1980
603.8833553154542,1916
606.1878369309362,2002
608.4916876179676,2086
610.7949075929192,1975
613.0974970722403,1987
615.3994562724587,2001
617.7007854101818,2031
620.0014847020951,2059
622.3015543649641,2062
624.6009946156324,1950
626.8998056710224,1968
629.1979877481361,1995
631.4955410640538,1929
633.7924658359349,1959
636.0887622810175,1947
638.3844306166192,1999
640.6794710601358,2073
642.9738838290426,2124
645.2676691408932,1906
647.5608272133207,1963
649.853358264037,1958
652.1452625108324,1970
654.4365401715764,2065
656.7271914642178,2038
659.0172166067838,2075
661.3066158173809,1985
663.5953893141935,2014
665.8835373154867,1934
668.1710600396028,1957
670.4579577049639,2038
672.7442305300709,1995
675.0298787335033,2073
677.3149025339197,2089
679.599302150058,2089
681.8830778007342,2076
684.1662297048437,2032
686.4487580813608,1965
688.7306631493387,1962
691.0119451279091,1971
693.2926042362834,2058
695.5726406937516,2028
697.8520547196814,2045
700.1308465335215,2009
702.4090163547982,2035
704.6865644031171,1974
706.9634908981619,2032
709.2397960596965,1971
711.5154801075631,2060
713.7905432616823,2002
716.0649857420548,1969
718.3388077687592,1946
720.612009561953,2076
722.8845913418733,2000
725.1565533288352,2052
727.427895743234,2033
729.6986188055427,2068
731.9687227363137,2012
734.238207756178,1994
736.5070740858458,2038
738.7753219461066,1941
741.0429515578281,2001
743.3099631419569,1966
745.5763569195191,2024
747.8421331116193,2085
750.1072919394409,2033
752.3718336242467,2020
754.6357583873777,1987
756.8990664502545,2039
759.1617580343765,1979
761.423833361321,2006
763.6852926527457,2028
765.9461361303862,2075
768.206364016058,1923
770.4659765316536,2048
772.7249738991469,1998
774.9833563405886,2003
777.2411240781092,1998
779.4982773339183,2082
781.7548163303044,2069
784.010741289634,2033
786.2660524343538,2091
788.5207499869881,2051
790.7748341701416,1978
793.0283052064964,2048
795.2811633188143,2005
797.5334087299362,2060
799.7850416627813,2016
802.0360623403484,2060
804.2864709857143,2036
806.5362678220353,2054
808.7854530725468,2007
811.0340269605625,2010
813.2819897094754,1976
815.5293415427581,1999
817.77608268396,2027
820.0222133567116,2055
822.2677337847211,2003
824.5126441917765,2059
826.7569448017433,2037
829.0006358385675,2058
831.2437175262731,2014
833.4861900889629,2033
835.7280537508192,2036
837.9693087361026,2033
840.2099552691533,2091
842.4499935743896,2002
844.689423876309,2038
846.9282463994886,2019
849.1664613685833,2014
851.4040690083276,1950
853.6410695435349,2002
855.877463199097,2060
858.1132501999847,2018
860.3484307712487,2036
862.5830051380175,2089
864.8169735254988,2031
867.0503361589791,1997
869.2830932638243,2128
871.5152450654786,2158
873.7467917894654,2107
875.9777336613873,2114
878.2080709069252,2107
880.4378037518389,2067
882.666932421968,2086
884.8954571432301,2107
887.1233781416219,2049
889.3506956432192,2146
891.5774098741766,2040
893.803521060728,2098
896.0290294291852,2145
898.2539352059397,2092
900.4782386174619,2027
902.7019398903011,2066
904.925039251085,2119
907.147536926521,2142
909.3694331433943,2040
911.59072812857,2116
913.8114221089921,2040
916.0315153116827,2130
918.2510079637437,2084
920.4699002923547,2024
922.6881925247761,2026
924.905884888345,2064
927.1229776104793,2070
929.3394709186747,2013
931.555365040506,2004
933.7706602036275,2073
935.9853566357709,2008
938.1994545647489,2030
940.4129542184515,2062
942.6258558248488,2108
944.8381596119883,2033
947.0498658079974,2079
949.2609746410825,2101
951.4714863395287,2000
953.6814011316998,2035
955.8907192460387,2056
958.0994409110671,2044
960.3075663553858,2057
962.5150958076741,1980
964.7220294966913,1968
966.928367651274,1978
969.1341105003388,1978
971.3392582728806,2036
973.5438111979742,1992
975.747769504772,2028
977.9511334225061,1976
980.153903180487,1903
982.3560790081052,1932
984.5576611348289,1905
986.7586497902058,1968
988.9590452038618,1885
991.158847605503,1831
993.3580572249133,1851
995.5566742919558,1854
997.7546990365728,1795
999.952131688785,1744
1002.1489724786926,1765
1004.3452216364743,1723
1006.5408793923874,1758
1008.7359459767691,1761
1010.9304216200343,1821
1013.1243065526781,1721
1015.3176010052733,1733
1017.510305208472,1692
1019.7024193930064,1662
1021.8939437896848,1618
1024.0848786293977,1678
1026.2752241431122,1644
1028.4649805618747,1662
1030.6541481168115,1617
1032.842727039127,1554
1035.0307175601051,1601
1037.2181199111074,1569
1039.4049343235752,1556
1041.591161029029,1570
1043.7768002590683,1579
1045.9618522453698,1524
1048.1463172196918,1609
1050.3301954138697,1614
1052.513487059818,1623
1054.69619238953,1642
1056.8783116350783,1639
1059.0598450286152,1613
1061.2407928023704,1639
1063.4211551886528,1627
1065.6009324198508,1534
1067.780124728432,1581
1069.9587323469414,1513
1072.1367555080046,1550
1074.314194444325,1650
1076.4910493886855,1533
1078.667320573947,1573
1080.843008233051,1543
1083.0181125990161,1509
1085.1926339049414,1497
1087.3665723840027,1539
1089.5399282694575,1526
1091.7127017946405,1489
1093.8848931929647,1444
1096.0565026979243,1489
1098.2275305430899,1477
1100.3979769621128,1434
1102.567842188722,1478
1104.737126456726,1508
1106.9058300000124,1474
1109.0739530525475,1462
1111.2414958483764,1477
1113.4084586216231,1481
1115.5748416064907,1470
1117.7406450372605,1532
1119.9058691482942,1500
1122.0705141740304,1461
1124.2345803489884,1445
1126.3980679077658,1505
1128.5609770850388,1438
1130.7233081155623,1453
1132.8850612341707,1436
1135.0462366757774,1483
1137.2068346753745,1520
1139.3668554680326,1491
1141.526299288901,1500
1143.68516637321,1480
1145.8434569562655,1458
1148.001171273455,1463
1150.158309560244,1391
1152.3148720521767,1403
1154.470858984876,1405
1156.626270594044,1463
1158.7811071154629,1454
1160.9353687849912,1454
1163.089055838569,1490
1165.242168512213,1509
1167.3947070420209,1398
1169.5466716641677,1400
1171.6980626149075,1442
1173.8488801305748,1415
1175.9991244475814,1407
1178.1487958024186,1424
1180.2978944316555,1458
1182.4464205719428,1403
1184.5943744600072,1407
1186.7417563326567,1435
1188.8885664267755,1439
1191.0348049793297,1427
1193.1804722273619,1500
1195.325568407995,1417
1197.4700937584303,1442
1199.614048515948,1400
1201.7574329179074,1434
1203.900247201746,1429
1206.042491604982,1339
1208.1841663652099,1432
1210.3252717201053,1449
1212.465807907422,1399
1214.6057751649923,1411
1216.7451737307279,1441
1218.8840038426192,1443
1221.0222657387353,1427
1223.1599596572241,1521
1225.2970858363137,1406
1227.4336445143094,1473
1229.5696359295966,1439
1231.705060320639,1469
1233.8399179259786,1440
1235.9742089842384,1407
1238.107933734118,1504
1240.2410924143974,1407
1242.373685263935,1429
1244.5057125216676,1434
1246.6371744266116,1380
1248.7680712178621,1408
1250.898403134593,1494
1253.028170416058,1496
1255.1573733015875,1468
1257.2860120305932,1454
1259.4140868425648,1406
1261.54159797707,1444
1263.6685456737569,1503
1265.7949301723515,1473
1267.9207517126597,1461
1270.046010534565,1432
1272.1707068780306,1464
1274.2948409830983,1444
1276.4184130898889,1532
1278.541423438603,1544
1280.6638722695184,1535
1282.785759822993,1531
1284.9070863394636,1511
1287.0278520594447,1448
1289.1480572235314,1560
1291.2677020723963,1579
1293.3867868467923,1482
1295.5053117875495,1527
1297.623277135579,1508
1299.740683131868,1577
1301.8575300174857,1513
1303.973818033578,1597
1306.0895474213703,1580
1308.2047184221678,1593
1310.3193312773528,1575
1312.4333862283888,1518
1314.5468835168163,1569
1316.659823384255,1530
1318.7722060724045,1579
1320.8840318230418,1574
1322.9953008780249,1643
1325.1060134792888,1604
1327.2161698688478,1589
1329.3257702887959,1622
1331.4348149813054,1610
1333.5433041886276,1594
1335.6512381530933,1629
1337.7586171171101,1564
1339.8654413231675,1604
1341.9717110138317,1560
1344.0774264317488,1540
1346.1825878196432,1588
1348.2871954203192,1550
1350.3912494766587,1569
1352.4947502316231,1537
1354.5976979282532,1560
1356.7000928096686,1601
1358.8019351190665,1543
1360.9032250997243,1545
1363.0039629949988,1528
1365.1041490483235,1587
1367.2037835032133,1575
1369.3028666032606,1581
1371.401398592137,1475
1373.4993797135926,1566
1375.5968102114575,1556
1377.6936903296396,1532
1379.7900203121262,1587
1381.8858004029835,1611
1383.9810308463561,1602
1386.075711886469,1640
1388.1698437676241,1542
1390.2634267342032,1640
1392.356461030667,1528
1394.4489469015557,1598
1396.5408845914872,1545
1398.6322743451592,1557
1400.7231164073469,1585
1402.813411022907,1584
1404.903158436773,1582
1406.9923588939578,1647
1409.0810126395531,1551
1411.1691199187303,1619
1413.2566809767386,1584
1415.343696058907,1577
1417.4301654106425,1615
1419.5160892774315,1647
1421.6014679048399,1594
1423.6863015385125,1583
1425.7705904241707,1713
1427.8543348076178,1685
1429.9375349347342,1667
1432.0201910514802,1651
1434.102303403894,1698
1436.1838722380944,1714
1438.2648978002767,1700
1440.3453803367174,1751
1442.4253200937692,1754
1444.5047173178677,1709
1446.5835722555234,1755
1448.6618851533285,1796
1450.739656257952,1804
1452.8168858161434,1694
1454.8935740747306,1822
1456.96972128062,1801
1459.045327680797,1846
1461.120393522327,1881
1463.1949190523528,1908
1465.2689045180973,1920
1467.3423501668608,1949
1469.415256246024,1969
1471.4876230030463,1988
1473.559450685465,2025
1475.6307395408976,1971
1477.7014898170391,2062
1479.771701761665,2121
1481.8413756226287,2158
1483.9105116478618,2172
1485.9791100853772,2141
1488.0471711832643,2129
1490.1146951896926,2217
1492.1816823529098,2206
1494.2481329212433,2273
1496.3140471430984,2289
1498.3794252669609,2342
1500.4442675413939,2377
1502.5085742150404,2343
1504.572345536622,2471
1506.6355817549388,2475
1508.6982831188702,2416
1510.7604498773744,2446
1512.8220822794883,2496
1514.8831805743293,2435
1516.9437450110909,2513
1519.003775839048,2506
1521.0632733075522,2525
1523.1222376660367,2658
1525.1806691640113,2695
1527.2385680510652,2656
1529.2959345768668,2678
1531.3527689911643,2766
1533.4090715437833,2872
1535.4648424846291,2818
1537.5200820636855,2851
1539.5747905310159,2870
1541.6289681367616,2899
1543.6826151311434,2987
1545.7357317644614,2982
1547.7883182870937,3048
1549.8403749494987,3051
1551.8919020022113,2980
1553.9428996958477,3101
1555.9933682811015,3300
1558.0433080087469,3246
1560.0927191296346,3408
1562.1416018946961,3435
1564.1899565549415,3358
1566.2377833614592,3445
1568.2850825654164,3289
1570.3318544180606,3275
1572.3780991707158,3292
1574.423817074788,3142
1576.4690083817595,2997
1578.5136733431923,2967
1580.5578122107272,2917
1582.601425236085,2704
1584.6445126710646,2539
1586.6870747675434,2566
1588.7291117774776,2352
1590.7706239529034,2331
1592.8116115459347,2189
1594.8520748087658,2059
1596.8920139936686,2121
1598.9314293529933,1951
1600.9703211391711,1915
1603.008689604711,1936
1605.0465350022005,1882
1607.0838575843068,1871
1609.1206576037753,1783
1611.1569353134305,1774
1613.1926909661765,1755
1615.2279248149953,1737
1617.2626371129481,1702
1619.2968281131757,1665
1621.3304980688963,1640
1623.3636472334088,1660
1625.39627586009,1666
1627.428384202396,1633
1629.459972513861,1651
1631.4910410480993,1636
1633.5215900588028,1592
1635.551619799744,1615
1637.5811305247717,1524
1639.6101224878166,1585
1641.6385959428862,1550
1643.6665511440683,1553
1645.693988345528,1549
1647.7209078015112,1505
1649.7473097663405,1518
1651.7731944944203,1531
1653.7985622402307,1539
1655.823413258333,1488
1657.847747803366,1488
1659.8715661300494,1516
1661.8948684931793,1544
1663.9176551476316,1503
1665.9399263483624,1446
1667.9616823504057,1475
1669.982923408873,1477
1672.0036497789574,1510
1674.0238617159293,1445
1676.043559475138,1487
1678.0627433120121,1525
1680.081413482059,1498
1682.0995702408654,1447
1684.117213844096,1436
1686.134344547495,1518
1688.1509626068864,1485
1690.1670682781705,1531
1692.182661817329,1482
1694.1977434804217,1440
1696.2123135235875,1464
1698.226372203043,1469
1700.2399197750851,1448
1702.2529564960905,1461
1704.2654826225112,1497
1706.277498410882,1480
1708.2890041178139,1504
1710.2999999999988,1521
1712.3104863142066,1563
1714.3204633172854,1470
1716.329931266163,1450
1718.3388904178469,1490
1720.3473410294214,1457
1722.3552833580516,1480
1724.3627176609807,1470
1726.3696441955308,1484
1728.3760632191033,1448
1730.3819749891782,1507
1732.3873797633146,1415
1734.3922777991502,1431
1736.3966693544012,1432
1738.4005546868639,1408
1740.4039340544127,1380
1742.406807715001,1466
1744.4091759266616,1414
1746.4110389475054,1397
1748.4123970357223,1406
1750.413250449582,1416
1752.4135994474318,1434
1754.4134442876993,1378
1756.4127852288902,1415
1758.4116225295893,1428
1760.4099564484595,1382
1762.407787244244,1416
1764.405115175764,1404
1766.4019405019203,1389
1768.3982634816916,1377
1770.3940843741357,1379
1772.3894034383907,1418
1774.3842209336717,1384
1776.378537119274,1372
1778.372352254571,1390
1780.3656665990156,1366
1782.3584804121397,1389
1784.3507939535534,1371
1786.3426074829463,1375
1788.3339212600863,1370
1790.3247355448211,1355
1792.3150505970766,1414
1794.3048666768573,1368
1796.2941840442477,1360
1798.2830029594106,1352
1800.2713236825884,1416
1802.2591464741004,1362
1804.2464715943465,1432
1806.2332993038058,1389
1808.2196298630352,1321
1810.2054635326708,1392
1812.190800573428,1367
1814.175641246101,1334
1816.1599858115628,1375
1818.1438345307652,1336
1820.127187664738,1317
1822.1100454745924,1344
1824.092408221516,1329
1826.0742761667766,1337
1828.055649571721,1316
1830.0365286977735,1356
1832.0169138064398,1371
1833.9968051593014,1356
1835.9762030180214,1331
1837.9551076443408,1359
1839.9335193000788,1375
1841.9114382471344,1316
1843.888864747485,1382
1845.8657990631878,1346
1847.842241456378,1354
1849.8181921892697,1401
1851.7936515241558,1340
1853.7686197234098,1381
1855.7430970494815,1307
1857.7170837649014,1306
1859.6905801322787,1313
1861.6635864143004,1348
1863.6361028737338,1338
1865.608129773424,1369
1867.5796673762961,1377
1869.5507159453537,1406
1871.521275743678,1387
1873.4913470344313,1373
1875.4609300808534,1371
1877.4300251462632,1361
1879.3986324940588,1389
1881.366752387717,1377
1883.3343850907936,1353
1885.3015308669228,1359
1887.268189979819,1417
1889.2343626932739,1341
1891.2000492711595,1422
1893.1652499774254,1425
1895.1299650761011,1425
1897.0941948312952,1359
1899.0579395071945,1464
1901.0211993680641,1353
1902.98397467825,1370
1904.9462657021745,1337
1906.9080727043415,1344
1908.869395949332,1401
1910.8302357018065,1372
1912.790592226504,1378
1914.7504657882428,1406
1916.7098566519212,1372
1918.6687650825133,1380
1920.6271913450764,1387
1922.5851357047422,1388
1924.5425984267245,1363
1926.499579776314,1360
1928.4560800188833,1301
1930.4120994198802,1380
1932.367638244833,1340
1934.32269675935,1317
1936.2772752291175,1378
1938.231373919899,1317
1940.1849930975404,1435
1942.1381330279637,1425
1944.0907939771696,1392
1946.0429762112412,1430
1947.9946799963363,1348
1949.9459055986945,1414
1951.896653284633,1322
1953.8469233205478,1352
1955.7967159729142,1316
1957.7460315082863,1385
1959.6948701932974,1414
1961.6432322946594,1332
1963.5911180791632,1370
1965.5385278136787,1367
1967.4854617651545,1433
1969.4319202006182,1404
1971.377903387176,1391
1973.3234115920136,1381
1975.268445082395,1430
1977.2130041256642,1395
1979.1570889892423,1369
1981.1006999406304,1408
1983.04383724741,1308
1984.986501177238,1356
1986.928691997853,1374
1988.8704099770712,1364
1990.811655382789,1422
1992.7524284829801,1352
1994.692729545698,1349
1996.6325588390755,1340
1998.5719166313224,1344
2000.5108031907307,1353
2002.4492187856677,1410
2004.387163684583,1388
2006.3246381560011,1364
2008.2616424685298,1359
2010.1981768908527,1342
2012.1342416917332,1365
2014.069837140014,1361
2016.0049635046162,1356
2017.9396210545406,1349
2019.8738100588666,1361
2021.8075307867502,1358
2023.740783507431,1298
2025.6735684902228,1355
2027.6058860045214,1315
2029.5377363198004,1324
2031.4691197056118,1340
2033.4000364315875,1325
2035.3304867674374,1438
2037.260470982952,1310
2039.189989347998,1358
2041.1190421325232,1373
2043.047629606554,1365
2044.9757520401945,1357
2046.9034097036288,1381
2048.8306028671195,1289
2050.7573318010086,1376
2052.683596775716,1311
2054.609398061742,1330
2056.5347359296647,1317
2058.4596106501403,1323
2060.384022493906,1332
2062.3079717317764,1347
2064.231458634646,1366
2066.1544834734873,1301
2068.077046519352,1346
2069.99914804337,1303
2071.9207883167524,1356
2073.8419676107865,1312
2075.7626861968406,1324
2077.6829443463607,1326
2079.6027423308715,1346
2081.522080421977,1379
2083.440958891362,1325
2085.359378010786,1318
2087.2773380520907,1400
2089.194839287196,1331
2091.111881988101,1371
2093.0284664268825,1300
2094.9445928756973,1347
2096.86026160678,1336
2098.775472892446,1329
2100.690227005088,1347
2102.604524217178,1348
2104.5183648012676,1356
2106.431749029985,1390
2108.34467717604,1351
2110.2571495122206,1345
2112.169166311393,1324
2114.080727846503,1310
2115.9918343905747,1339
2117.902486216711,1297
2119.8126835980956,1330
2121.722426807987,1379
2123.6317161197285,1395
2125.5405518067364,1323
2127.448934142509,1372
2129.356863400624,1325
2131.264339854737,1308
2133.1713637785815,1341
2135.077935445972,1318
2136.9840551308002,1282
2138.889723107037,1352
2140.7949396487334,1330
2142.699705030018,1383
2144.6040195250994,1297
2146.507883408264,1378
2148.4112969538774,1409
2150.3142604363848,1364
2152.2167741303097,1350
2154.1188383102535,1338
2156.0204532508997,1345
2157.9216192270064,1360
2159.822336513414,1383
2161.7226053850413,1365
2163.622426116884,1269
2165.5217989840185,1273
2167.4207242616,1344
2169.319202224862,1335
2171.2172331491165,1410
2173.1148173097563,1316
2175.0119549822507,1341
2176.90864644215,1350
2178.8048919650823,1309
2180.7006918267534,1365
2182.596046302952,1319
2184.4909556695407,1347
2186.3854202024645,1296
2188.279440177746,1370
2190.173015871487,1365
2192.066147559868,1349
2193.958835519149,1312
2195.851080025667,1397
2197.7428813558417,1329
2199.6342397861667,1332
2201.5251555932186,1351
2203.415629053651,1310
2205.3056604441986,1322
2207.19525004167,1289
2209.084398122958,1369
2210.9731049650327,1357
2212.861370844941,1316
2214.749196039812,1320
2216.636580826851,1309
2218.523525483344,1314
2220.410030286655,1378
2222.296095514226,1385
2224.1817214435805,1394
2226.066908352319,1326
2227.951656518121,1347
2229.835966218746,1306
2231.71983773203,1338
2233.6032713358913,1365
2235.486267308324,1330
2237.3688259274036,1380
2239.2509474712824,1388
2241.132632218193,1343
2243.013880446447,1294
2244.8946924344323,1323
2246.7750684606203,1329
2248.6550088035574,1257
2250.534513741871,1379
2252.413583554265,1385
2254.292218519526,1359
2256.170418916517,1333
2258.0481850241786,1351
2259.925517121534,1345
2261.8024154876825,1371
2263.678880401803,1381
2265.5549121431536,1348
2267.430510991071,1348
2269.305677224971,1365
2271.180411124348,1330
2273.0547129687766,1340
2274.9285830379076,1333
2276.8020216114737,1333
2278.6750289692845,1361
2280.5476053912294,1313
2282.4197511572766,1398
2284.2914665474727,1304
2286.162751841943,1349
2288.0336073208937,1295
2289.904033264608,1309
2291.774029953448,1360
2293.6435976678554,1314
2295.5127366883517,1358
2297.381447295534,1380
2299.2497297700825,1338
2301.1175843927526,1318
2302.9850114443825,1341
2304.852011205885,1382
2306.7185839582553,1386
2308.5847299825664,1340
2310.4504495599676,1366
2312.3157429716925,1367
2314.1806104990483,1329
2316.0450524234247,1345
2317.9090690262888,1363
2319.772660589186,1401
2321.635827393742,1334
2323.498569721661,1375
2325.3608878547248,1375
2327.2227820747967,1381
2329.0842526638157,1316
2330.945299903803,1390
2332.805924076857,1329
2334.6661254651535,1347
2336.525904350951,1376
2338.3852610165827,1315
2340.244195744464,1416
2342.102708817088,1433
2343.9608005170253,1387
2345.8184711269287,1342
2347.675720929526,1354
2349.532550207628,1366
2351.38895924412,1400
2353.24494832197,1351
2355.100517724223,1354
2356.955667734004,1338
2358.810398634514,1409
2360.664710709037,1435
2362.5186042409337,1403
2364.3720795136437,1355
2366.225136810686,1368
2368.0777764156583,1425
2369.929998612237,1403
2371.7818036841777,1374
2373.633191915315,1417
2375.484163589562,1416
2377.3347189909114,1382
2379.184858403434,1443
2381.03458211128,1460
2382.8838903986775,1417
2384.732783549936,1417
2386.5812618494406,1351
2388.4293255816588,1397
2390.2769750311327,1392
2392.1242104824883,1370
2393.971032220427,1395
2395.8174405297295,1364
2397.6634356952563,1411
2399.509018001947,1378
2401.3541877348193,1364
2403.1989451789705,1398
2405.043290619576,1372
2406.8872243418905,1461
2408.730746631247,1419
2410.5738577730594,1412
2412.4165580528183,1424
2414.258847756095,1461
2416.100727168537,1400
2417.9421965758734,1419
2419.783256263912,1381
2421.623906518538,1394
2423.4641476257157,1382
2425.303979871491,1415
2427.143403541984,1514
2428.9824189233977,1416
2430.821026302012,1413
2432.6592259641866,1465
2434.497018196361,1443
2436.33440328505,1444
2438.171381516851,1422
2440.00795317844,1448
2441.844118556569,1426
2443.6798779380724,1441
2445.5152316098606,1470
2447.3501798589255,1481
2449.1847229723357,1418
2451.0188612372403,1400
2452.8525949408663,1383
2454.6859243705203,1424
2456.518849813587,1463
2458.3513715575314,1448
2460.183489889895,1424
2462.015205098301,1390
2463.8465174704493,1402
2465.67742729412,1376
2467.5079348571717,1469
2469.338040447542,1407
2471.1677443532476,1422
2472.9970468623833,1404
2474.825948263123,1424
2476.6544488437207,1415
2478.482548892508,1422
2480.310248697896,1393
2482.137548548374,1408
2483.9644487325118,1432
2485.790949538956,1384
2487.617051256433,1428
2489.44275417375,1388
2491.26805857979,1411
2493.0929647635157,1454
2494.917473013971,1443
2496.741583620276,1446
2498.5652968716304,1449
2500.3886130573137,1437
2502.2115324666834,1494
2504.0340553891765,1484
2505.856182114308,1432
2507.6779129316733,1452
2509.499248130945,1451
2511.3201880018764,1440
2513.140732834298,1415
2514.9608829181198,1494
2516.780638543331,1504
2518.6,1504
2520.418967578273,1424
2522.237541568376,1439
2524.0557222606144,1450
2525.8735099453706,1489
2527.6909049131086,1465
2529.507907454368,1448
2531.32451785977,1428
2533.140736420014,1452
2534.9565634258774,1513
2536.771999168218,1474
2538.5870439379714,1498
2540.4016980261526,1538
2542.2159617238544,1505
2544.02983532225,1530
2545.8433191125914,1525
2547.656413386209,1558
2549.4691184345115,1515
2551.2814345489874,1610
2553.093362021204,1572
2554.904901142808,1530
2556.716052205523,1489
2558.526815501153,1539
2560.3371913215824,1514
2562.147179958771,1659
2563.956781704761,1603
2565.7659968516705,1595
2567.5748256916986,1619
2569.3832685171224,1600
2571.1913256202984,1607
2572.9989972936614,1608
2574.806283829725,1588
2576.613185521084,1606
2578.4197026604074,1691
2580.2258355404483,1589
2582.031584454035,1694
2583.836949694077,1639
2585.6419315535613,1620
2587.4465303255533,1628
2589.2507463032002,1699
2591.0545797797245,1614
2592.8580310484303,1648
2594.6611004026995,1674
2596.463788135992,1665
2598.266094541849,1629
2600.0680199138874,1710
2601.869564545807,1648
2603.670728731383,1627
2605.4715127644704,1654
2607.2719169390048,1730
2609.071941548998,1714
2610.8715868885433,1668
2612.670853251811,1718
2614.469740933052,1706
2616.268250226594,1662
2618.0663814268455,1715
2619.864134828292,1670
2621.6615107255006,1675
2623.458509413115,1721
2625.2551311858597,1681
2627.0513763385347,1652
2628.8472451660223,1687
2630.6427379632833,1640
2632.4378550253564,1625
2634.232596647359,1589
2636.026963124488,1628
2637.8209547520187,1589
2639.6145718253065,1617
2641.407814639785,1571
2643.200683490966,1556
2644.9931786744414,1557
2646.7853004858807,1591
2648.577049221034,1585
2650.3684251757277,1549
2652.1594286458712,1498
2653.9500599274484,1595
2655.740319316525,1547
2657.5302071092437,1527
2659.3197236018286,1515
2661.10886909058,1463
2662.8976438718782,1502
2664.686048242183,1522
2666.4740824980327,1456
2668.2617469360443,1484
2670.0490418529134,1488
2671.8359675454153,1502
2673.622524310403,1485
2675.408712444811,1445
2677.1945322456495,1441
2678.979984010009,1488
2680.76506803506,1411
2682.5497846180497,1441
2684.334134056306,1466
2686.1181166472343,1414
2687.9017326883213,1418
2689.6849824771293,1431
2691.4678663113013,1406
2693.2503844885596,1417
2695.032537306705,1417
2696.8143250636167,1448
2698.5957480572542,1407
2700.3768065856534,1400
2702.1575009469316,1413
2703.937831439283,1314
2705.717798360982,1383
2707.4974020103837,1388
2709.276642685917,1366
2711.055520686095,1405
2712.834036309506,1396
2714.612189854819,1407
2716.389981620782,1353
2718.1674119062204,1377
2719.944481010041,1404
2721.721189231226,1368
2723.4975368688415,1313
2725.273524222027,1394
2727.0491515900053,1378
2728.824419272075,1334
2730.5993275676146,1322
2732.3738767760838,1418
2734.148067197016,1365
2735.921899130031,1346
2737.6953728748194,1405
2739.468488731156,1350
2741.2412469988926,1366
2743.0136479779617,1388
2744.785691968372,1325
2746.5573792702116,1375
2748.3287101836504,1402
2750.099685008934,1338
2751.870304046388,1333
2753.640567596418,1361
2755.4104759595057,1366
2757.1800294362156,1327
2758.949228327187,1371
2760.7180729331412,1324
2762.486563554877,1326
2764.254700493272,1359
2766.022484049284,1394
2767.789914523947,1351
2769.5569922183786,1318
2771.3237174337705,1274
2773.090090471394,1362
2774.8561116326036,1406
2776.6217812188274,1314
2778.3870995315756,1333
2780.1520668724356,1318
2781.9166835430747,1376
2783.6809498452394,1390
2785.444866080754,1397
2787.2084325515225,1397
2788.971649559527,1347
2790.73451740683,1335
2792.4970363955713,1366
2794.2592068279705,1360
2796.0210290063264,1340
2797.7825032330147,1301
2799.543629810493,1289
2801.304409041296,1337
2803.0648412280366,1346
2804.8249266734088,1338
2806.5846656801846,1308
2808.344058551212,1359
2810.1031055894246,1355
2811.8618070978273,1317
2813.6201633795085,1374
2815.378174737636,1359
2817.1358414754536,1359
2818.893163896285,1345
2820.6501423035334,1425
2822.4067770006814,1365
2824.1630682912883,1376
2825.9190164789957,1330
2827.6746218675207,1347
2829.429884760661,1335
2831.184805462294,1330
2832.9393842763743,1352
2834.693621506936,1400
2836.4475174580916,1341
2838.201072434034,1395
2839.954286739034,1353
2841.707160677441,1390
2843.459694553685,1387
2845.2118886722724,1339
2846.96374333779,1290
2848.7152588549034,1360
2850.4664355283567,1368
2852.217273662973,1333
2853.9677735636546,1385
2855.7179355353833,1325
2857.4677598832186,1379
2859.217246912299,1379
2860.9663969278427,1313
2862.715210235146,1298
2864.4636871395846,1331
2866.211827946614,1319
2867.9596329617652,1349
2869.7071024906536,1301
2871.4542368389684,1361
2873.20103631248,1307
2874.947501217038,1388
2876.6936318585695,1354
2878.4394285430812,1356
2880.1848915766604,1331
2881.9300212654707,1400
2883.6748179157553,1334
2885.4192818338374,1346
2887.1634133261173,1354
2888.907212699077,1299
2890.6506802592744,1343
2892.393816313348,1314
2894.1366211680142,1317
2895.8790951300693,1286
2897.621238506388,1406
2899.363051603925,1327
2901.1045347297118,1320
2902.8456881908596,1332
2904.58651229456,1316
2906.327007348081,1320
2908.067173658772,1362
2909.8070115340597,1296
2911.5465212814497,1317
2913.285703208527,1334
2915.0245576229563,1305
2916.7630848324807,1289
2918.5012851449196,1341
2920.2391588681758,1346
2921.976706310227,1287
2923.7139277791334,1341
2925.4508235830313,1298
2927.187394030137,1345
2928.923639428745,1364
2930.6595600872306,1346
2932.395156314046,1321
2934.1304284177218,1328
2935.8653767068713,1341
2937.6000014901815,1337
2939.3343030764227,1343
2941.068281774442,1406
2942.8019378931644,1374
2944.5352717415976,1330
2946.2682836288236,1353
2948.0009738640065,1367
2949.7333427563885,1309
2951.465390615289,1322
2953.1971177501086,1304
2954.9285244703265,1314
2956.6596110855,1350
2958.3903779052657,1349
2960.1208252393385,1314
2961.8509533975125,1342
2963.5807626896617,1304
2965.3102534257378,1332
2967.0394259157715,1330
2968.768280469873,1337
2970.496817398232,1351
2972.2250370111146,1286
2973.952939618869,1303
2975.6805255319196,1344
2977.4077950607707,1349
2979.134748516006,1310
2980.861386208289,1343
2982.587708448359,1333
2984.313715547037,1350
2986.039407815222,1359
2987.764785563891,1326
2989.489849104102,1337
2991.2145987469908,1344
2992.9390348037705,1282
2994.6631575857346,1346
2996.3869674042576,1369
2998.1104645707887,1408
2999.83364939686,1318
3001.5565221940783,1332
3003.2790832741334,1337
3005.0013329487924,1279
3006.7232715298996,1334
3008.4448993293804,1355
3010.166216659239,1326
3011.887223831558,1350
3013.607921158498,1351
3015.3283089522993,1345
3017.0483875252826,1320
3018.7681571898443,1347
3020.4876182584626,1319
3022.2067710436927,1245
3023.9256158581707,1373
3025.644153014609,1321
3027.362382825801,1292
3029.0803056046193,1301
3030.797921664012,1349
3032.5152313170106,1350
3034.2322348767225,1302
3035.9489326563353,1350
3037.665324969115,1298
3039.3814121284063,1357
3041.097194447633,1365
3042.812672240299,1345
3044.5278458199855,1359
3046.2427155003525,1351
3047.9572815951406,1357
3049.671544418167,1346
3051.38550428333,1354
3053.0991615046073,1349
3054.812516396051,1347
3056.5255692717974,1313
3058.2383204460575,1350
3059.9507702331257,1322
3061.662918947372,1334
3063.3747669032446,1307
3065.0863144152736,1312
3066.7975617980674,1302
3068.508509366309,1303
3070.219157434767,1332
3071.9295063182844,1338
3073.639556331785,1352
3075.3493077902704,1346
3077.058761008821,1375
3078.7679163025964,1369
3080.476773986837,1342
3082.1853343768594,1321
3083.89359778806,1346
3085.6015645359153,1319
3087.3092349359786,1303
3089.016609303884,1337
3090.7236879553434,1306
3092.4304712061476,1353
3094.136959372166,1390
3095.843152769349,1321
3097.5490517137237,1360
3099.2546565213966,1313
3100.959967508554,1332
3102.66498499146,1377
3104.3697092864577,1321
3106.0741407099695,1422
3107.778279578498,1330
3109.482126208622,1347
3111.1856809170004,1358
3112.8889440203716,1313
3114.5919158355528,1318
3116.294596679439,1412
3117.996986869006,1364
3119.6990867213062,1364
3121.4008965534726,1344
3123.102416682717,1415
3124.803647426329,1355
3126.5045891016784,1324
3128.205242026213,1325
3129.90560651746,1418
3131.605682893025,1339
3133.3054714705922,1382
3135.0049725679282,1379
3136.7041865028714,1331
3138.4031135933465,1354
3140.101754157353,1390
3141.800108512971,1375
3143.498176978357,1369
3145.1959598717494,1332
3146.8934575114636,1364
3148.5906702158954,1310
3150.2875983035183,1357
3151.9842420928853,1345
3153.680601902627,1346
3155.376678051456,1351
3157.07247085816,1346
3158.767980641609,1301
3160.463207720748,1370
3162.158152414606,1383
3163.8528150422862,1333
3165.5471959229726,1314
3167.2412953759303,1310
3168.9351137204976,1317
3170.628651276098,1381
3172.3219083622307,1318
3174.014885298474,1293
3175.707582404485,1302
3177.4000000000005,1311
3179.092138404835,1365
3180.7839979388846,1324
3182.47557892212,1305
3184.166881674594,1323
3185.8579065164386,1270
3187.5486537678626,1300
3189.2391237491547,1287
3190.9293167806827,1314
3192.6192331828934,1322
3194.3088732763117,1322
3195.998237381542,1365
3197.687325819268,1353
3199.376138910251,1302
3201.064676975334,1348
3202.7529403354347,1363
3204.4409293115523,1276
3206.1286442247647,1340
3207.816085396229,1286
3209.5032531471825,1310
3211.190147798936,1319
3212.8767696728846,1256
3214.5631190905015,1266
3216.2491963733373,1290
3217.9350018430214,1294
3219.6205358212637,1351
3221.305798629851,1322
3222.990790590651,1295
3224.6755120256103,1282
3226.359963256751,1295
3228.0441446061795,1273
3229.7280563960758,1345
3231.411698948703,1330
3233.0950725863995,1336
3234.778177631587,1308
3236.461014406761,1327
3238.1435832345005,1343
3239.8258844374595,1342
3241.507918338374,1340
3243.1896852600576,1356
3244.8711855254023,1334
3246.552419457381,1322
3248.233387379042,1323
3249.914089613516,1304
3251.59452648401,1297
3253.274698313813,1312
3254.95460542629,1245
3256.6342481448855,1266
3258.313626793125,1307
3259.9927416946084,1273
3261.6715931730196,1292
3263.3501815521176,1300
3265.0285071557437,1258
3266.706570307815,1247
3268.3843713323286,1260
3270.0619105533615,1271
3271.739188295068,1252
3273.4162048816834,1340
3275.0929606375184,1346
3276.769455886966,1313
3278.445690954498,1303
3280.1216661646613,1324
3281.797381842087,1312
3283.4728383114807,1350
3285.1480358976296,1300
3286.8229749253996,1298
3288.4976557197333,1297
3290.172078605655,1309
3291.846243908266,1275
3293.5201519527463,1271
3295.193803064357,1290
3296.8671975684374,1305
3298.5403357904024,1286
3300.21321805575,1258
3301.8858446900567,1265
3303.558216018975,1265
3305.23033236824,1297
3306.9021940636603,1284
3308.57380143113,1283
3310.2451547966184,1311
3311.916254486174,1339
3313.5871008259246,1267
3315.2576941420766,1241
3316.9280347609147,1294
3318.5981230088046,1316
3320.2679592121895,1276
3321.9375436975924,1271
3323.606876791612,1286
3325.27595882093,1290
3326.944790112305,1278
3328.6133709925753,1275
3330.2817017886573,1333
3331.949782827547,1266
3333.617614436319,1299
3335.2851969421245,1275
3336.952530672199,1327
3338.619615953853,1327
3340.286453114475,1345
3341.9530424815357,1297
3343.619384382583,1333
3345.2854791452437,1315
3346.951327097224,1245
3348.6169285663073,1342
3350.2822838803577,1296
3351.947393367319,1324
3353.61225735521,1318
3355.2768761721345,1322
3356.9412501462693,1356
3358.605379605873,1281
3360.2692648792827,1283
3361.9329062949146,1365
3363.596304181263,1291
