CollectionTime,6/26/2024 3:44:08 PM
ExposureUsed,3
CalibratedSpectrum
-962.7078968117929,592
-959.9714848408522,618
-957.2358232597828,615
-954.5009119013725,619
-951.7667505983302,643
-949.0333391832855,640
-946.3006774887896,620
-943.5687653473143,636
-940.837602591253,655
-938.1071890529199,635
-935.3775245645503,608
-932.6486089583007,624
-929.9204420662485,672
-927.1930237203925,660
-924.4663537526524,654
-921.7404319948689,643
-919.0152582788041,659
-916.2908324361409,645
-913.5671542984834,705
-910.8442236973568,709
-908.1220404642074,687
-905.4006044304027,700
-902.679915427231,701
-899.959973285902,692
-897.2407778375464,671
-894.5223289132158,650
-891.8046263438832,666
-889.0876699604426,642
-886.3714595937089,628
-883.6559950744183,613
-880.9412762332282,634
-878.2273029007168,632
-875.5140749073835,621
-872.8015920836489,604
-870.0898542598545,608
-867.3788612662631,622
-864.6686129330585,652
-861.9591090903457,620
-859.2503495681506,589
-856.5423341964203,620
-853.8350628050229,634
-851.1285352237478,623
-848.4227512823054,634
-845.7177108103272,635
-843.0134136373656,665
-840.3098595928943,617
-837.6070485063082,624
-834.9049802069229,642
-832.2036545239757,635
-829.5030712866244,638
-826.8032303239481,584
-824.1041314649472,610
-821.4057745385428,617
-818.7081593735775,610
-816.0112857988148,600
-813.3151536429393,603
-810.6197627345566,599
-807.9251129021936,575
-805.2312039742981,614
-802.5380357792392,598
-799.8456081453069,612
-797.1539209007124,626
-794.462973873588,607
-791.772766891987,623
-789.083299783884,667
-786.3945723771743,625
-783.7065844996748,633
-781.0193359791231,649
-778.3328266431781,655
-775.6470563194197,673
-772.9620248353489,666
-770.2777320183878,644
-767.5941776958798,637
-764.9113616950891,650
-762.2292838432011,695
-759.5479439673222,636
-756.8673418944801,683
-754.1874774516235,611
-751.5083504656222,614
-748.8299607632671,609
-746.15230817127,642
-743.475392516264,634
-740.7992136248035,641
-738.1237713233636,651
-735.4490654383407,648
-732.7750957960521,635
-730.1018622227365,649
-727.4293645445534,634
-724.7576025875837,662
-722.0865761778291,635
-719.4162851412126,682
-716.7467293035781,686
-714.0779084906909,714
-711.409822528237,736
-708.7424712418238,671
-706.0758544569796,684
-703.4099719991541,719
-700.7448236937178,726
-698.0804093659622,706
-695.4167288411002,707
-692.7537819442656,696
-690.0915685005134,682
-687.4300883348199,693
-684.7693412720819,664
-682.1093271371178,640
-679.4500457546669,684
-676.7914969493897,688
-674.1336805458676,689
-671.4765963686034,727
-668.8202442420206,705
-666.1646239904642,748
-663.5097354382001,787
-660.8555784094151,707
-658.2021527282176,723
-655.5494582186366,764
-652.8974947046223,716
-650.2462620100463,725
-647.5957599587009,781
-644.9459883742998,794
-642.2969470804776,744
-639.6486359007902,783
-637.0010546587141,776
-634.3542031776476,811
-631.7080812809096,752
-629.0626887917401,704
-626.4180255333008,732
-623.7740913286734,754
-621.1308860008619,728
-618.4884093727904,677
-615.8466612673046,721
-613.2056415071715,695
-610.5653499150785,762
-607.9257863136347,787
-605.28695052537,737
-602.6488423727357,769
-600.0114616781036,734
-597.3748082637674,799
-594.7388819519412,813
-592.1036825647604,792
-589.4692099242818,784
-586.8354638524829,744
-584.2024441712624,801
-581.5701507024403,755
-578.9385832677575,768
-576.3077416888759,779
-573.6776257873787,759
-571.0482353847704,756
-568.4195703024757,748
-565.7916303618415,796
-563.164415384135,867
-560.5379251905453,763
-557.9121596021815,751
-555.2871184400748,763
-552.6628015251767,792
-550.0392086783606,767
-547.4163397204204,797
-544.794194472071,803
-542.1727727539491,774
-539.5520743866118,778
-536.9320991905377,855
-534.3128469861261,900
-531.6943175936979,903
-529.0765108334947,898
-526.4594265256793,970
-523.8430644903358,1136
-521.2274245474689,1303
-518.612506517005,1430
-515.9983102187913,1516
-513.3848354725959,1630
-510.77208209810846,1772
-508.16004991493924,1827
-505.5487387426199,2023
-502.9381484006032,2241
-500.3282787082628,2396
-497.71912948489364,2414
-495.1107005497117,2449
-492.5029917218539,2287
-489.8960028203786,2067
-487.28973366426493,1896
-484.68418407241325,1696
-482.07935386364494,1378
-479.47524285670266,1268
-476.87185087025,1315
-474.2691777228715,1203
-471.66722323307334,1150
-469.0659872192821,1197
-466.4654694998459,1122
-463.86566989303384,1106
-461.26658821703614,1041
-458.66822428996414,1105
-456.07057792985,1066
-453.4736489546475,1086
-450.877437182231,1069
-448.28194243039627,1037
-445.68716451686,976
-443.09310325926003,1033
-440.49975847515555,978
-437.9071299820263,945
-435.31521759727354,1017
-432.72402113821954,1002
-430.13354042210767,1018
-427.5437752661022,1101
-424.95472548728867,1124
-422.36639090267386,1142
-419.7787713291855,1111
-417.1918665836721,1093
-414.60567648290385,1081
-412.0202008435715,1107
-409.4354394822874,1091
-406.8513922155845,1140
-404.26805885991723,1171
-401.685439231661,1143
-399.103533147112,1114
-396.522340422488,1106
-393.9418608739278,1123
-391.3620943174908,1092
-388.7830405691583,1165
-386.2046994448317,1132
-383.6270707603344,1008
-381.05015433141045,963
-378.473949973725,902
-375.8984575028645,878
-373.32367673433623,797
-370.74960748356875,829
-368.1762495659117,783
-365.60360279663576,673
-363.03166699093265,696
-360.4604419639154,726
-357.8899275306178,693
-355.32012350599507,618
-352.7510297049233,579
-350.1826459421999,601
-347.61497203254316,646
-345.04800779059235,620
-342.4817530309082,565
-339.91620756797226,568
-337.35137121618743,585
-334.7872437898774,527
-332.22382510328725,559
-329.66111497058273,570
-327.09911320585127,612
-324.53781962310075,621
-321.9772340362607,611
-319.4173562591816,689
-316.8581861056348,716
-314.2997233893127,720
-311.7419679238294,746
-309.1849195227194,675
-306.62857799943856,658
-304.0729431673641,606
-301.51801483979375,569
-298.963792829947,599
-296.41027695096386,651
-293.85746701590574,692
-291.3053628377552,753
-288.7539642294155,786
-286.2032710037115,704
-283.65328297338897,687
-281.1039999511146,711
-278.5554217494762,868
-276.007548180983,736
-273.4603790580651,644
-270.9139141930734,734
-268.3681533982807,780
-265.8230964858798,748
-263.27874326798565,647
-260.7350935566336,663
-258.1921471637804,779
-255.6499039013039,806
-253.10836358100266,843
-250.56752601459698,841
-248.02739101372765,880
-245.48795838995704,893
-242.94922795476816,845
-240.41119951956557,721
-237.8738728956746,966
-235.33724789434166,1110
-232.80132432673452,1052
-230.2661020039418,1151
-227.73158073697357,1113
-225.19776033676033,855
-222.66464061415422,911
-220.1322213799284,902
-217.60050244477725,966
-215.06948361931552,898
-212.53916471408013,853
-210.00954553952818,933
-207.48062590603843,1047
-204.9524056239104,1049
-202.4248845033651,1020
-199.8980623545441,1125
-197.37193898751036,1073
-194.84651421224817,1014
-192.32178783866232,1107
-189.79775967657952,1103
-187.27442953574644,1034
-184.7517972258321,1013
-182.2298625564256,1005
-179.7086253370378,1281
-177.18808537710026,1318
-174.66824248596583,1256
-172.14909647290835,1212
-169.6306471471229,1268
-167.11289431772548,1266
-164.59583779375328,1236
-162.07947738416453,1260
-159.5638128978386,1358
-157.04884414357605,1376
-154.53457093009854,1466
-152.02099306604828,1295
-149.50811035998936,1257
-146.99592262040665,1350
-144.48442965570587,1318
-141.97363127421409,1467
-139.46352728417958,1825
-136.95411749377126,1984
-134.44540171107985,2006
-131.93737974411636,1868
-129.43005140081357,1964
-126.92341648902493,1891
-124.41747481652521,1834
-121.91222619101006,1733
-119.40767042009657,1664
-116.90380731132257,1553
-114.40063667214702,1848
-111.8981583099503,2153
-109.3963720320337,2291
-106.89527764561933,2039
-104.39487495785067,2197
-101.89516377579241,2149
-99.39614390642998,2003
-96.89781515667039,2053
-94.40017733334128,2470
-91.90323024319173,2491
-89.40697369289148,2420
-86.91140748903172,2317
-84.41653143812482,2281
-81.92234534660395,2302
-79.42884902082358,2770
-76.93604226705907,2800
-74.4439248915071,2789
-71.95249670028534,3016
-69.46175749943245,3034
-66.97170709490854,3024
-64.48234529259423,3413
-61.99367189829195,3538
-59.50568671772464,3820
-57.01838955653636,4144
-54.53178022029283,4228
-52.045858514480074,4070
-49.560624244506016,4660
-47.07607721569923,4941
-44.59221723330904,4521
-42.10904410250669,4740
-39.62655762838392,5708
-37.14475761595372,7661
-34.66364387015028,7957
-32.18321619582866,9103
-29.70347439776515,10351
-27.224418280657005,11621
-24.74604764912317,16595
-22.26836230770266,22642
-19.7913620608565,36758
-17.315046712966478,56584
-14.83941606833514,65038
-12.36446993118659,65038
-9.89020810566592,65038
-7.416630395839093,65038
-4.94373660569363,65038
-2.471526539137585,65038
-6.821210263296962E-13,65038
2.47084320796705,65038
4.941003281093458,65038
7.410480415786196,65038
9.879274808531363,65038
12.347386655893956,65038
14.814816154518212,65038
17.28156350112681,65038
19.74762889252179,65038
22.21301252558385,65038
24.67771459727237,65038
27.141735304626195,65038
29.605074844762612,30423
32.06773341487792,13490
34.52971121224755,9313
36.99100843422559,8754
39.45162527824516,11122
41.91156194181792,10406
44.370818622535126,15964
46.82939551806646,23378
49.287292826160524,21914
51.74451074464503,16403
54.201049471426245,10901
56.65690920448981,7081
59.112090141899785,4896
61.56659248179983,4262
64.02041642241159,4240
66.4735621620365,4488
68.92602989905402,4060
71.37781983192338,3284
73.82893215918205,3537
76.27936707944684,3586
78.72912479141326,4191
81.17820549385567,4072
83.62660938562783,3798
86.07433666566146,3130
88.5213875329681,3518
90.96776218663751,3298
93.41346082583925,3399
95.85848364982041,3594
98.30283085790859,2837
100.7465026495089,3233
103.18949922410604,3522
105.63182078126385,2591
108.07346752062438,3252
110.51443964190923,3347
112.95473734491827,2272
115.39436082953114,2151
117.83331029570547,2432
120.27158594347827,2434
122.7091879729652,2264
125.1461165843615,2233
127.58237197794062,2030
130.01795435405518,1791
132.4528639131364,1675
134.88710085569494,2010
137.32066538231982,2102
139.75355769367923,1973
142.1857779905207,1958
144.61732647366978,1798
147.04820334403132,1803
149.47840880258934,1740
151.90794305040674,1874
154.33680628862487,1930
156.76499871846443,1871
159.19252054122433,1900
161.61937195828352,2176
164.04555317109896,2097
166.47106438120693,2319
168.89590579022217,2887
171.320077599839,2895
173.7435800118302,2619
176.16641322804742,2754
178.58857745042144,2726
181.01007288096173,3035
183.43089972175687,2807
185.85105817497413,2749
188.27054844285988,2790
190.6893707277394,2850
193.10752523201643,2909
195.5250121581745,3164
197.9418317087751,3109
200.3579840864594,2810
202.7734694939469,2856
205.18828813403627,3003
207.6024402096051,2987
210.01592592360964,2889
212.42874547908548,2867
214.84089907914665,2734
217.2523869269868,2832
219.66320922587727,2895
222.0733661791695,2961
224.48285799029293,2839
226.8916848627572,3006
229.29984700014882,3124
231.7073446061355,3091
234.11417788446204,3036
236.520347038953,3026
238.92585227351185,3202
241.33069379212054,3423
243.73487179884035,3365
246.1383864978112,3109
248.541238093252,3061
250.9434267894609,3121
253.34495279081432,3299
255.74581630176783,3044
258.1460175268563,3133
260.54555667069314,3164
262.9444339379703,3145
265.3426495334594,3091
267.7402036620107,3094
270.1370965285529,3078
272.53332833809407,3066
274.9288992957214,2963
277.32380960660055,2873
279.718059475976,2769
282.1116491091717,2890
284.5045787115897,2989
286.89684848871195,2922
289.2884586460981,3008
291.67940938938807,2918
294.0697009242996,2891
296.4593334566299,2978
298.84830719225477,2916
301.23662233712923,2801
303.6242790972866,2849
306.01127767884,2817
308.39761828798066,2831
310.78330113097934,2766
313.16832641418534,2718
315.5526943440269,2682
317.9364051270112,2622
320.3194589697242,2650
322.70185607883093,2594
325.0835966610754,2704
327.4646809232805,2596
329.8451090723478,2685
332.2248813152577,2629
334.6039978590701,2562
336.9824589109231,2511
339.36026467803447,2535
341.7374153677,2517
344.113911187295,2386
346.48975234427337,2385
348.8649390461686,2426
351.2394715005918,2362
353.61334991523415,2391
355.9865744978655,2367
358.35914545633375,2361
360.73106299856715,2300
363.10232733257146,2318
365.47293866643247,2345
367.84289720831396,2351
370.2122031664593,2239
372.5808567491905,2311
374.9488581649083,2319
377.31620762209275,2312
379.6829053293021,2370
382.0489514951745,2371
384.4143463284262,2319
386.7790900378528,2339
389.14318283232853,2178
391.50662492080653,2270
393.86941651231916,2300
396.23155781597745,2144
398.5930490409713,2190
400.9538903965696,2216
403.3140820921202,2266
405.6736243370498,2193
408.03251734086336,2146
410.3907613131465,2217
412.74835646356166,2160
415.10530300185144,2239
417.4616011378372,2187
419.81725108141893,2158
422.1722530425758,2162
424.5266072313656,2093
426.880313857925,2101
429.2333731324701,2152
431.58578526529516,2128
433.9375504667738,2022
436.2886689473588,2114
438.63914091758113,2124
440.9889665880513,2112
443.33814616945835,2160
445.68667987257015,2097
448.03456790823395,2036
450.3818104873759,2021
452.72840782100013,2158
455.07436012019105,2115
457.41966759611057,2164
459.7643304600007,2129
462.10834892318155,2078
464.4517231970525,2096
466.79445349309174,2150
469.1365400228566,2180
471.4779829979826,2215
473.81878263018564,2195
476.15893913125876,2201
478.4984527130747,2219
480.8373235875855,2260
483.17555196682144,2362
485.5131380628919,2460
487.8500820879857,2525
490.1863842543697,2780
492.52204477439034,2962
494.8570638604725,3286
497.1914417251204,3743
499.52517858091653,3993
501.85827464052306,4258
504.19073011668036,4390
506.5225452222086,4270
508.85372017000566,4070
511.18425517304956,4004
513.514150444396,4156
515.8434061971808,4594
518.1720226446176,5168
520.4999999999999,5474
522.8273384766991,5796
525.1540382881666,6068
527.480099647932,5858
529.8055227696037,5090
532.1303078668694,3591
534.454455153496,2741
536.777964843328,2293
539.1008371502907,2140
541.4230722883866,2055
543.744670471698,2009
546.0656319143858,2042
548.3859568306899,2099
550.7056454349294,1950
553.0246979415016,1934
555.3431145648834,1907
557.6608955196306,1970
559.978041020377,1892
562.2945512818363,1857
564.6104265188006,1929
566.9256669461412,1902
569.2402727788082,1874
571.5542442318302,1860
573.8675815203156,1863
576.1802848594508,1844
578.4923544645015,1862
580.8037905508126,1901
583.114593333807,1892
585.4247630289875,1798
587.7342998519354,1818
590.0432040183106,1909
592.3514757438526,1831
594.6591152443794,1899
596.9661227357875,1878
599.2724984340531,1860
601.578242555231,1841
603.8833553154542,1885
606.1878369309362,1937
608.4916876179676,2002
610.7949075929192,2068
613.0974970722403,1957
615.3994562724587,1933
617.7007854101818,1952
620.0014847020951,1942
622.3015543649641,1896
624.6009946156324,1927
626.8998056710224,1886
629.1979877481361,1899
631.4955410640538,1914
633.7924658359349,1871
636.0887622810175,1872
638.3844306166192,1940
640.6794710601358,1931
642.9738838290426,1940
645.2676691408932,1880
647.5608272133207,1941
649.853358264037,1871
652.1452625108324,1894
654.4365401715764,1875
656.7271914642178,1890
659.0172166067838,1868
661.3066158173809,1894
663.5953893141935,1979
665.8835373154867,1882
668.1710600396028,1940
670.4579577049639,1942
672.7442305300709,2002
675.0298787335033,1999
677.3149025339197,2011
679.599302150058,1938
681.8830778007342,1968
684.1662297048437,1950
686.4487580813608,1925
688.7306631493387,1953
691.0119451279091,1938
693.2926042362834,1946
695.5726406937516,1932
697.8520547196814,1917
700.1308465335215,1927
702.4090163547982,1964
704.6865644031171,1968
706.9634908981619,1978
709.2397960596965,1862
711.5154801075631,1919
713.7905432616823,1897
716.0649857420548,1968
718.3388077687592,1982
720.612009561953,1945
722.8845913418733,1915
725.1565533288352,1922
727.427895743234,1965
729.6986188055427,2012
731.9687227363137,2023
734.238207756178,1935
736.5070740858458,1909
738.7753219461066,1882
741.0429515578281,1944
743.3099631419569,1896
745.5763569195191,1992
747.8421331116193,2042
750.1072919394409,1938
752.3718336242467,1998
754.6357583873777,1955
756.8990664502545,1900
759.1617580343765,1902
761.423833361321,1976
763.6852926527457,1897
765.9461361303862,1854
768.206364016058,1966
770.4659765316536,1979
772.7249738991469,1978
774.9833563405886,2034
777.2411240781092,1950
779.4982773339183,1964
781.7548163303044,2015
784.010741289634,2003
786.2660524343538,1992
788.5207499869881,1985
790.7748341701416,1953
793.0283052064964,2001
795.2811633188143,1943
797.5334087299362,1945
799.7850416627813,1976
802.0360623403484,2002
804.2864709857143,1957
806.5362678220353,1954
808.7854530725468,1945
811.0340269605625,2040
813.2819897094754,1989
815.5293415427581,1889
817.77608268396,1975
820.0222133567116,1950
822.2677337847211,1957
824.5126441917765,1997
826.7569448017433,1904
829.0006358385675,1927
831.2437175262731,1938
833.4861900889629,1949
835.7280537508192,1982
837.9693087361026,1955
840.2099552691533,1998
842.4499935743896,2012
844.689423876309,1993
846.9282463994886,1947
849.1664613685833,1947
851.4040690083276,1946
853.6410695435349,1935
855.877463199097,1958
858.1132501999847,2032
860.3484307712487,1973
862.5830051380175,1997
864.8169735254988,1949
867.0503361589791,2008
869.2830932638243,1957
871.5152450654786,1960
873.7467917894654,1999
875.9777336613873,2035
878.2080709069252,2050
880.4378037518389,2029
882.666932421968,2097
884.8954571432301,2027
887.1233781416219,2059
889.3506956432192,2084
891.5774098741766,2092
893.803521060728,2061
896.0290294291852,2031
898.2539352059397,2075
900.4782386174619,2060
902.7019398903011,2083
904.925039251085,2077
907.147536926521,2146
909.3694331433943,2034
911.59072812857,2045
913.8114221089921,2050
916.0315153116827,1977
918.2510079637437,2006
920.4699002923547,2015
922.6881925247761,1957
924.905884888345,2076
927.1229776104793,2029
929.3394709186747,1901
931.555365040506,1996
933.7706602036275,2062
935.9853566357709,2003
938.1994545647489,2024
940.4129542184515,1967
942.6258558248488,1984
944.8381596119883,2012
947.0498658079974,1995
949.2609746410825,2002
951.4714863395287,2010
953.6814011316998,1974
955.8907192460387,2014
958.0994409110671,2006
960.3075663553858,1883
962.5150958076741,1977
964.7220294966913,1950
966.928367651274,1979
969.1341105003388,1869
971.3392582728806,1990
973.5438111979742,1935
975.747769504772,1877
977.9511334225061,1903
980.153903180487,1886
982.3560790081052,1894
984.5576611348289,1887
986.7586497902058,1914
988.9590452038618,1788
991.158847605503,1785
993.3580572249133,1791
995.5566742919558,1804
997.7546990365728,1687
999.952131688785,1734
1002.1489724786926,1694
1004.3452216364743,1716
1006.5408793923874,1671
1008.7359459767691,1690
1010.9304216200343,1690
1013.1243065526781,1669
1015.3176010052733,1638
1017.510305208472,1642
1019.7024193930064,1563
1021.8939437896848,1578
1024.0848786293977,1587
1026.2752241431122,1562
1028.4649805618747,1549
1030.6541481168115,1549
1032.842727039127,1551
1035.0307175601051,1542
1037.2181199111074,1541
1039.4049343235752,1545
1041.591161029029,1528
1043.7768002590683,1564
1045.9618522453698,1527
1048.1463172196918,1482
1050.3301954138697,1578
1052.513487059818,1548
1054.69619238953,1588
1056.8783116350783,1509
1059.0598450286152,1497
1061.2407928023704,1515
1063.4211551886528,1515
1065.6009324198508,1521
1067.780124728432,1488
1069.9587323469414,1579
1072.1367555080046,1534
1074.314194444325,1450
1076.4910493886855,1496
1078.667320573947,1514
1080.843008233051,1499
1083.0181125990161,1521
1085.1926339049414,1485
1087.3665723840027,1508
1089.5399282694575,1430
1091.7127017946405,1468
1093.8848931929647,1385
1096.0565026979243,1470
1098.2275305430899,1457
1100.3979769621128,1456
1102.567842188722,1437
1104.737126456726,1433
1106.9058300000124,1414
1109.0739530525475,1415
1111.2414958483764,1449
1113.4084586216231,1398
1115.5748416064907,1475
1117.7406450372605,1373
1119.9058691482942,1438
1122.0705141740304,1445
1124.2345803489884,1410
1126.3980679077658,1462
1128.5609770850388,1423
1130.7233081155623,1364
1132.8850612341707,1392
1135.0462366757774,1346
1137.2068346753745,1435
1139.3668554680326,1383
1141.526299288901,1422
1143.68516637321,1444
1145.8434569562655,1395
1148.001171273455,1398
1150.158309560244,1419
1152.3148720521767,1404
1154.470858984876,1429
1156.626270594044,1430
1158.7811071154629,1380
1160.9353687849912,1383
1163.089055838569,1396
1165.242168512213,1392
1167.3947070420209,1405
1169.5466716641677,1405
1171.6980626149075,1441
1173.8488801305748,1381
1175.9991244475814,1377
1178.1487958024186,1376
1180.2978944316555,1392
1182.4464205719428,1399
1184.5943744600072,1418
1186.7417563326567,1386
1188.8885664267755,1386
1191.0348049793297,1400
1193.1804722273619,1359
1195.325568407995,1387
1197.4700937584303,1406
1199.614048515948,1393
1201.7574329179074,1308
1203.900247201746,1340
1206.042491604982,1378
1208.1841663652099,1382
1210.3252717201053,1357
1212.465807907422,1354
1214.6057751649923,1382
1216.7451737307279,1400
1218.8840038426192,1430
1221.0222657387353,1415
1223.1599596572241,1370
1225.2970858363137,1370
1227.4336445143094,1398
1229.5696359295966,1406
1231.705060320639,1362
1233.8399179259786,1385
1235.9742089842384,1435
1238.107933734118,1420
1240.2410924143974,1444
1242.373685263935,1378
1244.5057125216676,1351
1246.6371744266116,1482
1248.7680712178621,1373
1250.898403134593,1366
1253.028170416058,1363
1255.1573733015875,1405
1257.2860120305932,1398
1259.4140868425648,1396
1261.54159797707,1360
1263.6685456737569,1458
1265.7949301723515,1382
1267.9207517126597,1385
1270.046010534565,1490
1272.1707068780306,1412
1274.2948409830983,1459
1276.4184130898889,1482
1278.541423438603,1392
1280.6638722695184,1455
1282.785759822993,1441
1284.9070863394636,1456
1287.0278520594447,1474
1289.1480572235314,1441
1291.2677020723963,1449
1293.3867868467923,1514
1295.5053117875495,1485
1297.623277135579,1515
1299.740683131868,1497
1301.8575300174857,1492
1303.973818033578,1515
1306.0895474213703,1548
1308.2047184221678,1539
1310.3193312773528,1528
1312.4333862283888,1502
1314.5468835168163,1541
1316.659823384255,1484
1318.7722060724045,1567
1320.8840318230418,1513
1322.9953008780249,1532
1325.1060134792888,1525
1327.2161698688478,1483
1329.3257702887959,1474
1331.4348149813054,1562
1333.5433041886276,1584
1335.6512381530933,1514
1337.7586171171101,1468
1339.8654413231675,1493
1341.9717110138317,1515
1344.0774264317488,1484
1346.1825878196432,1483
1348.2871954203192,1490
1350.3912494766587,1538
1352.4947502316231,1494
1354.5976979282532,1455
1356.7000928096686,1448
1358.8019351190665,1456
1360.9032250997243,1509
1363.0039629949988,1462
1365.1041490483235,1486
1367.2037835032133,1483
1369.3028666032606,1434
1371.401398592137,1496
1373.4993797135926,1472
1375.5968102114575,1420
1377.6936903296396,1479
1379.7900203121262,1472
1381.8858004029835,1464
1383.9810308463561,1528
1386.075711886469,1521
1388.1698437676241,1449
1390.2634267342032,1526
1392.356461030667,1483
1394.4489469015557,1517
1396.5408845914872,1546
1398.6322743451592,1498
1400.7231164073469,1545
1402.813411022907,1526
1404.903158436773,1478
1406.9923588939578,1520
1409.0810126395531,1483
1411.1691199187303,1512
1413.2566809767386,1451
1415.343696058907,1477
1417.4301654106425,1530
1419.5160892774315,1539
1421.6014679048399,1572
1423.6863015385125,1507
1425.7705904241707,1495
1427.8543348076178,1468
1429.9375349347342,1584
1432.0201910514802,1577
1434.102303403894,1547
1436.1838722380944,1546
1438.2648978002767,1528
1440.3453803367174,1593
1442.4253200937692,1611
1444.5047173178677,1589
1446.5835722555234,1493
1448.6618851533285,1584
1450.739656257952,1596
1452.8168858161434,1601
1454.8935740747306,1652
1456.96972128062,1646
1459.045327680797,1645
1461.120393522327,1641
1463.1949190523528,1700
1465.2689045180973,1706
1467.3423501668608,1688
1469.415256246024,1740
1471.4876230030463,1697
1473.559450685465,1739
1475.6307395408976,1737
1477.7014898170391,1757
1479.771701761665,1767
1481.8413756226287,1844
1483.9105116478618,1886
1485.9791100853772,1876
1488.0471711832643,1881
1490.1146951896926,1954
1492.1816823529098,1944
1494.2481329212433,1906
1496.3140471430984,1955
1498.3794252669609,1928
1500.4442675413939,1997
1502.5085742150404,2012
1504.572345536622,1951
1506.6355817549388,2037
1508.6982831188702,1974
1510.7604498773744,2095
1512.8220822794883,2030
1514.8831805743293,2078
1516.9437450110909,2069
1519.003775839048,2048
1521.0632733075522,2022
1523.1222376660367,2209
1525.1806691640113,2109
1527.2385680510652,2168
1529.2959345768668,2247
1531.3527689911643,2250
1533.4090715437833,2228
1535.4648424846291,2336
1537.5200820636855,2291
1539.5747905310159,2322
1541.6289681367616,2361
1543.6826151311434,2546
1545.7357317644614,2433
1547.7883182870937,2435
1549.8403749494987,2472
1551.8919020022113,2482
1553.9428996958477,2484
1555.9933682811015,2549
1558.0433080087469,2703
1560.0927191296346,2685
1562.1416018946961,2703
1564.1899565549415,2720
1566.2377833614592,2837
1568.2850825654164,2785
1570.3318544180606,2756
1572.3780991707158,2734
1574.423817074788,2777
1576.4690083817595,2731
1578.5136733431923,2561
1580.5578122107272,2551
1582.601425236085,2401
1584.6445126710646,2317
1586.6870747675434,2140
1588.7291117774776,2122
1590.7706239529034,2110
1592.8116115459347,2017
1594.8520748087658,1917
1596.8920139936686,1911
1598.9314293529933,1913
1600.9703211391711,1795
1603.008689604711,1740
1605.0465350022005,1753
1607.0838575843068,1712
1609.1206576037753,1686
1611.1569353134305,1643
1613.1926909661765,1632
1615.2279248149953,1559
1617.2626371129481,1569
1619.2968281131757,1522
1621.3304980688963,1534
1623.3636472334088,1543
1625.39627586009,1566
1627.428384202396,1514
1629.459972513861,1581
1631.4910410480993,1525
1633.5215900588028,1498
1635.551619799744,1496
1637.5811305247717,1437
1639.6101224878166,1514
1641.6385959428862,1513
1643.6665511440683,1519
1645.693988345528,1498
1647.7209078015112,1420
1649.7473097663405,1451
1651.7731944944203,1482
1653.7985622402307,1463
1655.823413258333,1469
1657.847747803366,1440
1659.8715661300494,1416
1661.8948684931793,1450
1663.9176551476316,1449
1665.9399263483624,1441
1667.9616823504057,1446
1669.982923408873,1470
1672.0036497789574,1394
1674.0238617159293,1425
1676.043559475138,1458
1678.0627433120121,1462
1680.081413482059,1433
1682.0995702408654,1425
1684.117213844096,1467
1686.134344547495,1437
1688.1509626068864,1444
1690.1670682781705,1445
1692.182661817329,1463
1694.1977434804217,1497
1696.2123135235875,1457
1698.226372203043,1434
1700.2399197750851,1450
1702.2529564960905,1451
1704.2654826225112,1414
1706.277498410882,1394
1708.2890041178139,1419
1710.2999999999988,1439
1712.3104863142066,1509
1714.3204633172854,1461
1716.329931266163,1456
1718.3388904178469,1447
1720.3473410294214,1418
1722.3552833580516,1406
1724.3627176609807,1361
1726.3696441955308,1469
1728.3760632191033,1390
1730.3819749891782,1420
1732.3873797633146,1413
1734.3922777991502,1421
1736.3966693544012,1392
1738.4005546868639,1373
1740.4039340544127,1389
1742.406807715001,1408
1744.4091759266616,1387
1746.4110389475054,1417
1748.4123970357223,1438
1750.413250449582,1379
1752.4135994474318,1427
1754.4134442876993,1379
1756.4127852288902,1402
1758.4116225295893,1346
1760.4099564484595,1379
1762.407787244244,1350
1764.405115175764,1349
1766.4019405019203,1382
1768.3982634816916,1356
1770.3940843741357,1344
1772.3894034383907,1419
1774.3842209336717,1363
1776.378537119274,1389
1778.372352254571,1393
1780.3656665990156,1403
1782.3584804121397,1361
1784.3507939535534,1396
1786.3426074829463,1327
1788.3339212600863,1408
1790.3247355448211,1341
1792.3150505970766,1382
1794.3048666768573,1340
1796.2941840442477,1304
1798.2830029594106,1336
1800.2713236825884,1381
1802.2591464741004,1310
1804.2464715943465,1369
1806.2332993038058,1349
1808.2196298630352,1403
1810.2054635326708,1363
1812.190800573428,1293
1814.175641246101,1390
1816.1599858115628,1323
1818.1438345307652,1394
1820.127187664738,1383
1822.1100454745924,1408
1824.092408221516,1367
1826.0742761667766,1375
1828.055649571721,1358
1830.0365286977735,1375
1832.0169138064398,1352
1833.9968051593014,1350
1835.9762030180214,1354
1837.9551076443408,1299
1839.9335193000788,1334
1841.9114382471344,1349
1843.888864747485,1365
1845.8657990631878,1359
1847.842241456378,1341
1849.8181921892697,1320
1851.7936515241558,1352
1853.7686197234098,1397
1855.7430970494815,1336
1857.7170837649014,1346
1859.6905801322787,1342
1861.6635864143004,1380
1863.6361028737338,1357
1865.608129773424,1353
1867.5796673762961,1382
1869.5507159453537,1355
1871.521275743678,1306
1873.4913470344313,1376
1875.4609300808534,1320
1877.4300251462632,1321
1879.3986324940588,1366
1881.366752387717,1392
1883.3343850907936,1354
1885.3015308669228,1329
1887.268189979819,1388
1889.2343626932739,1447
1891.2000492711595,1408
1893.1652499774254,1370
1895.1299650761011,1386
1897.0941948312952,1388
1899.0579395071945,1387
1901.0211993680641,1338
1902.98397467825,1357
1904.9462657021745,1344
1906.9080727043415,1387
1908.869395949332,1386
1910.8302357018065,1330
1912.790592226504,1369
1914.7504657882428,1403
1916.7098566519212,1396
1918.6687650825133,1361
1920.6271913450764,1334
1922.5851357047422,1375
1924.5425984267245,1391
1926.499579776314,1372
1928.4560800188833,1386
1930.4120994198802,1358
1932.367638244833,1333
1934.32269675935,1340
1936.2772752291175,1352
1938.231373919899,1343
1940.1849930975404,1379
1942.1381330279637,1346
1944.0907939771696,1409
1946.0429762112412,1340
1947.9946799963363,1375
1949.9459055986945,1354
1951.896653284633,1416
1953.8469233205478,1366
1955.7967159729142,1328
1957.7460315082863,1350
1959.6948701932974,1362
1961.6432322946594,1375
1963.5911180791632,1385
1965.5385278136787,1355
1967.4854617651545,1405
1969.4319202006182,1415
1971.377903387176,1394
1973.3234115920136,1382
1975.268445082395,1364
1977.2130041256642,1375
1979.1570889892423,1377
1981.1006999406304,1406
1983.04383724741,1402
1984.986501177238,1340
1986.928691997853,1395
1988.8704099770712,1338
1990.811655382789,1368
1992.7524284829801,1344
1994.692729545698,1385
1996.6325588390755,1403
1998.5719166313224,1329
2000.5108031907307,1297
2002.4492187856677,1323
2004.387163684583,1339
2006.3246381560011,1379
2008.2616424685298,1332
2010.1981768908527,1349
2012.1342416917332,1362
2014.069837140014,1352
2016.0049635046162,1360
2017.9396210545406,1377
2019.8738100588666,1357
2021.8075307867502,1385
2023.740783507431,1330
2025.6735684902228,1353
2027.6058860045214,1319
2029.5377363198004,1343
2031.4691197056118,1339
2033.4000364315875,1302
2035.3304867674374,1322
2037.260470982952,1307
2039.189989347998,1370
2041.1190421325232,1376
2043.047629606554,1304
2044.9757520401945,1318
2046.9034097036288,1378
2048.8306028671195,1287
2050.7573318010086,1335
2052.683596775716,1341
2054.609398061742,1297
2056.5347359296647,1353
2058.4596106501403,1366
2060.384022493906,1347
2062.3079717317764,1384
2064.231458634646,1342
2066.1544834734873,1377
2068.077046519352,1314
2069.99914804337,1327
2071.9207883167524,1400
2073.8419676107865,1334
2075.7626861968406,1332
2077.6829443463607,1363
2079.6027423308715,1317
2081.522080421977,1366
2083.440958891362,1385
2085.359378010786,1362
2087.2773380520907,1371
2089.194839287196,1376
2091.111881988101,1389
2093.0284664268825,1328
2094.9445928756973,1340
2096.86026160678,1348
2098.775472892446,1351
2100.690227005088,1324
2102.604524217178,1336
2104.5183648012676,1360
2106.431749029985,1366
2108.34467717604,1294
2110.2571495122206,1384
2112.169166311393,1271
2114.080727846503,1320
2115.9918343905747,1258
2117.902486216711,1337
2119.8126835980956,1391
2121.722426807987,1346
2123.6317161197285,1374
2125.5405518067364,1348
2127.448934142509,1322
2129.356863400624,1289
2131.264339854737,1356
2133.1713637785815,1336
2135.077935445972,1341
2136.9840551308002,1324
2138.889723107037,1312
2140.7949396487334,1353
2142.699705030018,1348
2144.6040195250994,1417
2146.507883408264,1382
2148.4112969538774,1327
2150.3142604363848,1345
2152.2167741303097,1320
2154.1188383102535,1403
2156.0204532508997,1375
2157.9216192270064,1374
2159.822336513414,1401
2161.7226053850413,1359
2163.622426116884,1382
2165.5217989840185,1370
2167.4207242616,1392
2169.319202224862,1343
2171.2172331491165,1421
2173.1148173097563,1322
2175.0119549822507,1352
2176.90864644215,1310
2178.8048919650823,1423
2180.7006918267534,1394
2182.596046302952,1335
2184.4909556695407,1383
2186.3854202024645,1383
2188.279440177746,1310
2190.173015871487,1318
2192.066147559868,1349
2193.958835519149,1370
2195.851080025667,1380
2197.7428813558417,1325
2199.6342397861667,1338
2201.5251555932186,1450
2203.415629053651,1347
2205.3056604441986,1337
2207.19525004167,1305
2209.084398122958,1293
2210.9731049650327,1314
2212.861370844941,1333
2214.749196039812,1340
2216.636580826851,1321
2218.523525483344,1387
2220.410030286655,1374
2222.296095514226,1343
2224.1817214435805,1341
2226.066908352319,1348
2227.951656518121,1336
2229.835966218746,1318
2231.71983773203,1366
2233.6032713358913,1347
2235.486267308324,1351
2237.3688259274036,1311
2239.2509474712824,1349
2241.132632218193,1311
2243.013880446447,1372
2244.8946924344323,1349
2246.7750684606203,1304
2248.6550088035574,1316
2250.534513741871,1344
2252.413583554265,1362
2254.292218519526,1270
2256.170418916517,1391
2258.0481850241786,1329
2259.925517121534,1325
2261.8024154876825,1377
2263.678880401803,1320
2265.5549121431536,1352
2267.430510991071,1336
2269.305677224971,1350
2271.180411124348,1396
2273.0547129687766,1318
2274.9285830379076,1310
2276.8020216114737,1334
2278.6750289692845,1306
2280.5476053912294,1349
2282.4197511572766,1317
2284.2914665474727,1342
2286.162751841943,1400
2288.0336073208937,1376
2289.904033264608,1316
2291.774029953448,1364
2293.6435976678554,1352
2295.5127366883517,1365
2297.381447295534,1379
2299.2497297700825,1332
2301.1175843927526,1347
2302.9850114443825,1373
2304.852011205885,1341
2306.7185839582553,1380
2308.5847299825664,1370
2310.4504495599676,1372
2312.3157429716925,1339
2314.1806104990483,1315
2316.0450524234247,1353
2317.9090690262888,1340
2319.772660589186,1313
2321.635827393742,1396
2323.498569721661,1375
2325.3608878547248,1393
2327.2227820747967,1385
2329.0842526638157,1389
2330.945299903803,1391
2332.805924076857,1379
2334.6661254651535,1357
2336.525904350951,1338
2338.3852610165827,1362
2340.244195744464,1358
2342.102708817088,1363
2343.9608005170253,1392
2345.8184711269287,1378
2347.675720929526,1384
2349.532550207628,1352
2351.38895924412,1370
2353.24494832197,1385
2355.100517724223,1423
2356.955667734004,1331
2358.810398634514,1361
2360.664710709037,1404
2362.5186042409337,1409
2364.3720795136437,1426
2366.225136810686,1369
2368.0777764156583,1372
2369.929998612237,1367
2371.7818036841777,1387
2373.633191915315,1381
2375.484163589562,1319
2377.3347189909114,1425
2379.184858403434,1338
2381.03458211128,1417
2382.8838903986775,1384
2384.732783549936,1420
2386.5812618494406,1484
2388.4293255816588,1482
2390.2769750311327,1422
2392.1242104824883,1399
2393.971032220427,1395
2395.8174405297295,1434
2397.6634356952563,1374
2399.509018001947,1330
2401.3541877348193,1402
2403.1989451789705,1373
2405.043290619576,1450
2406.8872243418905,1379
2408.730746631247,1389
2410.5738577730594,1355
2412.4165580528183,1427
2414.258847756095,1389
2416.100727168537,1426
2417.9421965758734,1450
2419.783256263912,1461
2421.623906518538,1357
2423.4641476257157,1408
2425.303979871491,1387
2427.143403541984,1372
2428.9824189233977,1426
2430.821026302012,1451
2432.6592259641866,1429
2434.497018196361,1363
2436.33440328505,1413
2438.171381516851,1455
2440.00795317844,1429
2441.844118556569,1420
2443.6798779380724,1447
2445.5152316098606,1401
2447.3501798589255,1459
2449.1847229723357,1402
2451.0188612372403,1435
2452.8525949408663,1414
2454.6859243705203,1412
2456.518849813587,1450
2458.3513715575314,1419
2460.183489889895,1386
2462.015205098301,1430
2463.8465174704493,1374
2465.67742729412,1433
2467.5079348571717,1421
2469.338040447542,1403
2471.1677443532476,1389
2472.9970468623833,1381
2474.825948263123,1409
2476.6544488437207,1410
2478.482548892508,1421
2480.310248697896,1509
2482.137548548374,1443
2483.9644487325118,1412
2485.790949538956,1419
2487.617051256433,1430
2489.44275417375,1434
2491.26805857979,1404
2493.0929647635157,1424
2494.917473013971,1449
2496.741583620276,1436
2498.5652968716304,1421
2500.3886130573137,1468
2502.2115324666834,1403
2504.0340553891765,1433
2505.856182114308,1412
2507.6779129316733,1440
2509.499248130945,1462
2511.3201880018764,1488
2513.140732834298,1413
2514.9608829181198,1502
2516.780638543331,1416
2518.6,1465
2520.418967578273,1520
2522.237541568376,1391
2524.0557222606144,1365
2525.8735099453706,1411
2527.6909049131086,1443
2529.507907454368,1422
2531.32451785977,1443
2533.140736420014,1459
2534.9565634258774,1438
2536.771999168218,1544
2538.5870439379714,1486
2540.4016980261526,1506
2542.2159617238544,1507
2544.02983532225,1476
2545.8433191125914,1454
2547.656413386209,1452
2549.4691184345115,1481
2551.2814345489874,1490
2553.093362021204,1477
2554.904901142808,1466
2556.716052205523,1533
2558.526815501153,1512
2560.3371913215824,1517
2562.147179958771,1567
2563.956781704761,1498
2565.7659968516705,1539
2567.5748256916986,1526
2569.3832685171224,1577
2571.1913256202984,1558
2572.9989972936614,1570
2574.806283829725,1534
2576.613185521084,1570
2578.4197026604074,1593
2580.2258355404483,1535
2582.031584454035,1600
2583.836949694077,1643
2585.6419315535613,1636
2587.4465303255533,1639
2589.2507463032002,1624
2591.0545797797245,1550
2592.8580310484303,1614
2594.6611004026995,1632
2596.463788135992,1605
2598.266094541849,1663
2600.0680199138874,1649
2601.869564545807,1590
2603.670728731383,1594
2605.4715127644704,1618
2607.2719169390048,1600
2609.071941548998,1606
2610.8715868885433,1620
2612.670853251811,1643
2614.469740933052,1613
2616.268250226594,1706
2618.0663814268455,1630
2619.864134828292,1658
2621.6615107255006,1661
2623.458509413115,1607
2625.2551311858597,1595
2627.0513763385347,1578
2628.8472451660223,1604
2630.6427379632833,1580
2632.4378550253564,1585
2634.232596647359,1616
2636.026963124488,1629
2637.8209547520187,1566
2639.6145718253065,1604
2641.407814639785,1636
2643.200683490966,1551
2644.9931786744414,1533
2646.7853004858807,1537
2648.577049221034,1510
2650.3684251757277,1531
2652.1594286458712,1532
2653.9500599274484,1494
2655.740319316525,1562
2657.5302071092437,1467
2659.3197236018286,1487
2661.10886909058,1478
2662.8976438718782,1438
2664.686048242183,1497
2666.4740824980327,1486
2668.2617469360443,1444
2670.0490418529134,1430
2671.8359675454153,1448
2673.622524310403,1474
2675.408712444811,1477
2677.1945322456495,1497
2678.979984010009,1458
2680.76506803506,1419
2682.5497846180497,1419
2684.334134056306,1366
2686.1181166472343,1470
2687.9017326883213,1470
2689.6849824771293,1423
2691.4678663113013,1435
2693.2503844885596,1412
2695.032537306705,1455
2696.8143250636167,1415
2698.5957480572542,1401
2700.3768065856534,1431
2702.1575009469316,1411
2703.937831439283,1365
2705.717798360982,1376
2707.4974020103837,1409
2709.276642685917,1404
2711.055520686095,1377
2712.834036309506,1390
2714.612189854819,1401
2716.389981620782,1363
2718.1674119062204,1379
2719.944481010041,1378
2721.721189231226,1404
2723.4975368688415,1427
2725.273524222027,1372
2727.0491515900053,1332
2728.824419272075,1369
2730.5993275676146,1373
2732.3738767760838,1381
2734.148067197016,1369
2735.921899130031,1386
2737.6953728748194,1413
2739.468488731156,1427
2741.2412469988926,1397
2743.0136479779617,1393
2744.785691968372,1345
2746.5573792702116,1383
2748.3287101836504,1386
2750.099685008934,1395
2751.870304046388,1342
2753.640567596418,1368
2755.4104759595057,1340
2757.1800294362156,1344
2758.949228327187,1428
2760.7180729331412,1338
2762.486563554877,1338
2764.254700493272,1354
2766.022484049284,1376
2767.789914523947,1357
2769.5569922183786,1396
2771.3237174337705,1392
2773.090090471394,1327
2774.8561116326036,1352
2776.6217812188274,1339
2778.3870995315756,1376
2780.1520668724356,1383
2781.9166835430747,1314
2783.6809498452394,1363
2785.444866080754,1358
2787.2084325515225,1348
2788.971649559527,1398
2790.73451740683,1341
2792.4970363955713,1320
2794.2592068279705,1400
2796.0210290063264,1322
2797.7825032330147,1345
2799.543629810493,1322
2801.304409041296,1369
2803.0648412280366,1384
2804.8249266734088,1324
2806.5846656801846,1351
2808.344058551212,1329
2810.1031055894246,1315
2811.8618070978273,1378
2813.6201633795085,1314
2815.378174737636,1350
2817.1358414754536,1438
2818.893163896285,1380
2820.6501423035334,1310
2822.4067770006814,1359
2824.1630682912883,1367
2825.9190164789957,1366
2827.6746218675207,1369
2829.429884760661,1348
2831.184805462294,1346
2832.9393842763743,1351
2834.693621506936,1359
2836.4475174580916,1359
2838.201072434034,1355
2839.954286739034,1320
2841.707160677441,1411
2843.459694553685,1357
2845.2118886722724,1397
2846.96374333779,1314
2848.7152588549034,1360
2850.4664355283567,1359
2852.217273662973,1375
2853.9677735636546,1391
2855.7179355353833,1360
2857.4677598832186,1342
2859.217246912299,1367
2860.9663969278427,1376
2862.715210235146,1415
2864.4636871395846,1403
2866.211827946614,1389
2867.9596329617652,1378
2869.7071024906536,1346
2871.4542368389684,1320
2873.20103631248,1352
2874.947501217038,1353
2876.6936318585695,1293
2878.4394285430812,1334
2880.1848915766604,1297
2881.9300212654707,1322
2883.6748179157553,1324
2885.4192818338374,1358
2887.1634133261173,1362
2888.907212699077,1352
2890.6506802592744,1357
2892.393816313348,1384
2894.1366211680142,1289
2895.8790951300693,1403
2897.621238506388,1375
2899.363051603925,1416
2901.1045347297118,1352
2902.8456881908596,1403
2904.58651229456,1337
2906.327007348081,1391
2908.067173658772,1324
2909.8070115340597,1298
2911.5465212814497,1318
2913.285703208527,1320
2915.0245576229563,1413
2916.7630848324807,1317
2918.5012851449196,1325
2920.2391588681758,1334
2921.976706310227,1349
2923.7139277791334,1299
2925.4508235830313,1345
2927.187394030137,1370
2928.923639428745,1369
2930.6595600872306,1369
2932.395156314046,1343
2934.1304284177218,1359
2935.8653767068713,1295
2937.6000014901815,1365
2939.3343030764227,1333
2941.068281774442,1351
2942.8019378931644,1359
2944.5352717415976,1343
2946.2682836288236,1349
2948.0009738640065,1375
2949.7333427563885,1386
2951.465390615289,1360
2953.1971177501086,1357
2954.9285244703265,1308
2956.6596110855,1337
2958.3903779052657,1374
2960.1208252393385,1349
2961.8509533975125,1307
2963.5807626896617,1369
2965.3102534257378,1363
2967.0394259157715,1355
2968.768280469873,1373
2970.496817398232,1290
2972.2250370111146,1304
2973.952939618869,1336
2975.6805255319196,1342
2977.4077950607707,1291
2979.134748516006,1303
2980.861386208289,1344
2982.587708448359,1319
2984.313715547037,1314
2986.039407815222,1332
2987.764785563891,1353
2989.489849104102,1309
2991.2145987469908,1300
2992.9390348037705,1336
2994.6631575857346,1370
2996.3869674042576,1357
2998.1104645707887,1393
2999.83364939686,1367
3001.5565221940783,1328
3003.2790832741334,1327
3005.0013329487924,1339
3006.7232715298996,1356
3008.4448993293804,1310
3010.166216659239,1331
3011.887223831558,1373
3013.607921158498,1322
3015.3283089522993,1377
3017.0483875252826,1337
3018.7681571898443,1287
3020.4876182584626,1305
3022.2067710436927,1362
3023.9256158581707,1359
3025.644153014609,1306
3027.362382825801,1324
3029.0803056046193,1340
3030.797921664012,1306
3032.5152313170106,1353
3034.2322348767225,1382
3035.9489326563353,1309
3037.665324969115,1310
3039.3814121284063,1400
3041.097194447633,1372
3042.812672240299,1377
3044.5278458199855,1336
3046.2427155003525,1311
3047.9572815951406,1353
3049.671544418167,1347
3051.38550428333,1334
3053.0991615046073,1313
3054.812516396051,1326
3056.5255692717974,1351
3058.2383204460575,1380
3059.9507702331257,1375
3061.662918947372,1368
3063.3747669032446,1278
3065.0863144152736,1337
3066.7975617980674,1359
3068.508509366309,1341
3070.219157434767,1318
3071.9295063182844,1314
3073.639556331785,1330
3075.3493077902704,1333
3077.058761008821,1335
3078.7679163025964,1297
3080.476773986837,1367
3082.1853343768594,1338
3083.89359778806,1347
3085.6015645359153,1287
3087.3092349359786,1348
3089.016609303884,1342
3090.7236879553434,1394
3092.4304712061476,1314
3094.136959372166,1317
3095.843152769349,1412
3097.5490517137237,1375
3099.2546565213966,1307
3100.959967508554,1348
3102.66498499146,1292
3104.3697092864577,1337
3106.0741407099695,1325
3107.778279578498,1345
3109.482126208622,1355
3111.1856809170004,1362
3112.8889440203716,1317
3114.5919158355528,1298
3116.294596679439,1328
3117.996986869006,1381
3119.6990867213062,1363
3121.4008965534726,1392
3123.102416682717,1270
3124.803647426329,1373
3126.5045891016784,1312
3128.205242026213,1368
3129.90560651746,1362
3131.605682893025,1411
3133.3054714705922,1406
3135.0049725679282,1361
3136.7041865028714,1426
3138.4031135933465,1351
3140.101754157353,1356
3141.800108512971,1310
3143.498176978357,1325
3145.1959598717494,1358
3146.8934575114636,1353
3148.5906702158954,1335
3150.2875983035183,1333
3151.9842420928853,1337
3153.680601902627,1326
3155.376678051456,1363
3157.07247085816,1295
3158.767980641609,1353
3160.463207720748,1294
3162.158152414606,1348
3163.8528150422862,1356
3165.5471959229726,1381
3167.2412953759303,1358
3168.9351137204976,1349
3170.628651276098,1335
3172.3219083622307,1380
3174.014885298474,1328
3175.707582404485,1366
3177.4000000000005,1291
3179.092138404835,1286
3180.7839979388846,1434
3182.47557892212,1397
3184.166881674594,1328
3185.8579065164386,1369
3187.5486537678626,1357
3189.2391237491547,1373
3190.9293167806827,1382
3192.6192331828934,1278
3194.3088732763117,1346
3195.998237381542,1338
3197.687325819268,1335
3199.376138910251,1284
3201.064676975334,1342
3202.7529403354347,1354
3204.4409293115523,1317
3206.1286442247647,1300
3207.816085396229,1295
3209.5032531471825,1341
3211.190147798936,1297
3212.8767696728846,1323
3214.5631190905015,1348
3216.2491963733373,1295
3217.9350018430214,1279
3219.6205358212637,1302
3221.305798629851,1275
3222.990790590651,1297
3224.6755120256103,1292
3226.359963256751,1274
3228.0441446061795,1302
3229.7280563960758,1278
3231.411698948703,1365
3233.0950725863995,1359
3234.778177631587,1334
3236.461014406761,1308
3238.1435832345005,1312
3239.8258844374595,1336
3241.507918338374,1350
3243.1896852600576,1380
3244.8711855254023,1327
3246.552419457381,1302
3248.233387379042,1256
3249.914089613516,1353
3251.59452648401,1338
3253.274698313813,1335
3254.95460542629,1272
3256.6342481448855,1299
3258.313626793125,1306
3259.9927416946084,1339
3261.6715931730196,1324
3263.3501815521176,1282
3265.0285071557437,1361
3266.706570307815,1270
3268.3843713323286,1307
3270.0619105533615,1211
3271.739188295068,1303
3273.4162048816834,1305
3275.0929606375184,1291
3276.769455886966,1307
3278.445690954498,1319
3280.1216661646613,1285
3281.797381842087,1351
3283.4728383114807,1318
3285.1480358976296,1293
3286.8229749253996,1368
3288.4976557197333,1343
3290.172078605655,1247
3291.846243908266,1342
3293.5201519527463,1349
3295.193803064357,1262
3296.8671975684374,1275
3298.5403357904024,1313
3300.21321805575,1334
3301.8858446900567,1251
3303.558216018975,1351
3305.23033236824,1292
3306.9021940636603,1308
3308.57380143113,1297
3310.2451547966184,1333
3311.916254486174,1302
3313.5871008259246,1281
3315.2576941420766,1268
3316.9280347609147,1298
3318.5981230088046,1249
3320.2679592121895,1314
3321.9375436975924,1260
3323.606876791612,1283
3325.27595882093,1253
3326.944790112305,1295
3328.6133709925753,1269
3330.2817017886573,1336
3331.949782827547,1309
3333.617614436319,1304
3335.2851969421245,1332
3336.952530672199,1320
3338.619615953853,1269
3340.286453114475,1303
3341.9530424815357,1296
3343.619384382583,1329
3345.2854791452437,1296
3346.951327097224,1287
3348.6169285663073,1333
3350.2822838803577,1360
3351.947393367319,1265
3353.61225735521,1348
3355.2768761721345,1309
3356.9412501462693,1310
3358.605379605873,1326
3360.2692648792827,1307
3361.9329062949146,1327
3363.596304181263,1297
