CollectionTime,6/26/2024 3:46:07 PM
ExposureUsed,3
CalibratedSpectrum
-962.7078968117929,1175
-959.9714848408522,1245
-957.2358232597828,1236
-954.5009119013725,1245
-951.7667505983302,1215
-949.0333391832855,1301
-946.3006774887896,1273
-943.5687653473143,1272
-940.837602591253,1281
-938.1071890529199,1329
-935.3775245645503,1247
-932.6486089583007,1230
-929.9204420662485,1324
-927.1930237203925,1324
-924.4663537526524,1334
-921.7404319948689,1347
-919.0152582788041,1285
-916.2908324361409,1341
-913.5671542984834,1370
-910.8442236973568,1406
-908.1220404642074,1266
-905.4006044304027,1270
-902.679915427231,1330
-899.959973285902,1325
-897.2407778375464,1282
-894.5223289132158,1254
-891.8046263438832,1298
-889.0876699604426,1215
-886.3714595937089,1226
-883.6559950744183,1267
-880.9412762332282,1281
-878.2273029007168,1251
-875.5140749073835,1267
-872.8015920836489,1267
-870.0898542598545,1222
-867.3788612662631,1258
-864.6686129330585,1268
-861.9591090903457,1206
-859.2503495681506,1188
-856.5423341964203,1248
-853.8350628050229,1350
-851.1285352237478,1291
-848.4227512823054,1256
-845.7177108103272,1287
-843.0134136373656,1277
-840.3098595928943,1262
-837.6070485063082,1254
-834.9049802069229,1233
-832.2036545239757,1263
-829.5030712866244,1286
-826.8032303239481,1208
-824.1041314649472,1186
-821.4057745385428,1256
-818.7081593735775,1220
-816.0112857988148,1280
-813.3151536429393,1260
-810.6197627345566,1237
-807.9251129021936,1274
-805.2312039742981,1252
-802.5380357792392,1257
-799.8456081453069,1282
-797.1539209007124,1304
-794.462973873588,1265
-791.772766891987,1200
-789.083299783884,1200
-786.3945723771743,1249
-783.7065844996748,1291
-781.0193359791231,1275
-778.3328266431781,1275
-775.6470563194197,1305
-772.9620248353489,1308
-770.2777320183878,1269
-767.5941776958798,1248
-764.9113616950891,1298
-762.2292838432011,1324
-759.5479439673222,1322
-756.8673418944801,1251
-754.1874774516235,1226
-751.5083504656222,1228
-748.8299607632671,1263
-746.15230817127,1309
-743.475392516264,1270
-740.7992136248035,1247
-738.1237713233636,1298
-735.4490654383407,1238
-732.7750957960521,1343
-730.1018622227365,1314
-727.4293645445534,1221
-724.7576025875837,1256
-722.0865761778291,1321
-719.4162851412126,1321
-716.7467293035781,1290
-714.0779084906909,1285
-711.409822528237,1332
-708.7424712418238,1333
-706.0758544569796,1254
-703.4099719991541,1290
-700.7448236937178,1355
-698.0804093659622,1357
-695.4167288411002,1315
-692.7537819442656,1338
-690.0915685005134,1360
-687.4300883348199,1370
-684.7693412720819,1402
-682.1093271371178,1327
-679.4500457546669,1310
-676.7914969493897,1374
-674.1336805458676,1328
-671.4765963686034,1310
-668.8202442420206,1365
-666.1646239904642,1329
-663.5097354382001,1336
-660.8555784094151,1354
-658.2021527282176,1349
-655.5494582186366,1339
-652.8974947046223,1399
-650.2462620100463,1425
-647.5957599587009,1415
-644.9459883742998,1397
-642.2969470804776,1418
-639.6486359007902,1386
-637.0010546587141,1427
-634.3542031776476,1398
-631.7080812809096,1351
-629.0626887917401,1369
-626.4180255333008,1347
-623.7740913286734,1357
-621.1308860008619,1355
-618.4884093727904,1365
-615.8466612673046,1341
-613.2056415071715,1330
-610.5653499150785,1399
-607.9257863136347,1401
-605.28695052537,1334
-602.6488423727357,1396
-600.0114616781036,1381
-597.3748082637674,1416
-594.7388819519412,1432
-592.1036825647604,1405
-589.4692099242818,1406
-586.8354638524829,1394
-584.2024441712624,1424
-581.5701507024403,1409
-578.9385832677575,1409
-576.3077416888759,1413
-573.6776257873787,1391
-571.0482353847704,1404
-568.4195703024757,1391
-565.7916303618415,1457
-563.164415384135,1409
-560.5379251905453,1384
-557.9121596021815,1381
-555.2871184400748,1427
-552.6628015251767,1417
-550.0392086783606,1438
-547.4163397204204,1400
-544.794194472071,1386
-542.1727727539491,1378
-539.5520743866118,1429
-536.9320991905377,1442
-534.3128469861261,1493
-531.6943175936979,1495
-529.0765108334947,1540
-526.4594265256793,1614
-523.8430644903358,1812
-521.2274245474689,1851
-518.612506517005,1974
-515.9983102187913,2067
-513.3848354725959,2211
-510.77208209810846,2319
-508.16004991493924,2332
-505.5487387426199,2373
-502.9381484006032,2552
-500.3282787082628,2669
-497.71912948489364,2828
-495.1107005497117,2695
-492.5029917218539,2694
-489.8960028203786,2506
-487.28973366426493,2394
-484.68418407241325,2127
-482.07935386364494,1975
-479.47524285670266,1870
-476.87185087025,1850
-474.2691777228715,1803
-471.66722323307334,1795
-469.0659872192821,1718
-466.4654694998459,1674
-463.86566989303384,1727
-461.26658821703614,1682
-458.66822428996414,1637
-456.07057792985,1720
-453.4736489546475,1665
-450.877437182231,1665
-448.28194243039627,1655
-445.68716451686,1626
-443.09310325926003,1575
-440.49975847515555,1563
-437.9071299820263,1583
-435.31521759727354,1656
-432.72402113821954,1596
-430.13354042210767,1579
-427.5437752661022,1660
-424.95472548728867,1813
-422.36639090267386,1679
-419.7787713291855,1693
-417.1918665836721,1699
-414.60567648290385,1721
-412.0202008435715,1650
-409.4354394822874,1792
-406.8513922155845,1656
-404.26805885991723,1668
-401.685439231661,1692
-399.103533147112,1687
-396.522340422488,1661
-393.9418608739278,1743
-391.3620943174908,1648
-388.7830405691583,1642
-386.2046994448317,1612
-383.6270707603344,1466
-381.05015433141045,1287
-378.473949973725,1225
-375.8984575028645,1172
-373.32367673433623,1079
-370.74960748356875,1022
-368.1762495659117,952
-365.60360279663576,859
-363.03166699093265,779
-360.4604419639154,745
-357.8899275306178,700
-355.32012350599507,629
-352.7510297049233,623
-350.1826459421999,610
-347.61497203254316,586
-345.04800779059235,637
-342.4817530309082,581
-339.91620756797226,575
-337.35137121618743,580
-334.7872437898774,582
-332.22382510328725,535
-329.66111497058273,524
-327.09911320585127,573
-324.53781962310075,579
-321.9772340362607,572
-319.4173562591816,628
-316.8581861056348,625
-314.2997233893127,641
-311.7419679238294,632
-309.1849195227194,629
-306.62857799943856,609
-304.0729431673641,598
-301.51801483979375,591
-298.963792829947,594
-296.41027695096386,671
-293.85746701590574,672
-291.3053628377552,646
-288.7539642294155,693
-286.2032710037115,730
-283.65328297338897,761
-281.1039999511146,763
-278.5554217494762,856
-276.007548180983,745
-273.4603790580651,671
-270.9139141930734,676
-268.3681533982807,731
-265.8230964858798,675
-263.27874326798565,658
-260.7350935566336,754
-258.1921471637804,789
-255.6499039013039,859
-253.10836358100266,769
-250.56752601459698,746
-248.02739101372765,827
-245.48795838995704,869
-242.94922795476816,809
-240.41119951956557,762
-237.8738728956746,919
-235.33724789434166,943
-232.80132432673452,932
-230.2661020039418,1026
-227.73158073697357,1047
-225.19776033676033,937
-222.66464061415422,928
-220.1322213799284,856
-217.60050244477725,955
-215.06948361931552,926
-212.53916471408013,841
-210.00954553952818,835
-207.48062590603843,951
-204.9524056239104,1063
-202.4248845033651,972
-199.8980623545441,895
-197.37193898751036,950
-194.84651421224817,1077
-192.32178783866232,1101
-189.79775967657952,1062
-187.27442953574644,1075
-184.7517972258321,1011
-182.2298625564256,952
-179.7086253370378,1168
-177.18808537710026,1386
-174.66824248596583,1279
-172.14909647290835,1282
-169.6306471471229,1146
-167.11289431772548,1121
-164.59583779375328,1143
-162.07947738416453,1128
-159.5638128978386,1159
-157.04884414357605,1192
-154.53457093009854,1369
-152.02099306604828,1253
-149.50811035998936,1251
-146.99592262040665,1316
-144.48442965570587,1270
-141.97363127421409,1383
-139.46352728417958,1514
-136.95411749377126,1574
-134.44540171107985,1677
-131.93737974411636,1570
-129.43005140081357,1625
-126.92341648902493,1764
-124.41747481652521,1742
-121.91222619101006,1655
-119.40767042009657,1591
-116.90380731132257,1490
-114.40063667214702,1530
-111.8981583099503,1857
-109.3963720320337,1902
-106.89527764561933,1814
-104.39487495785067,1879
-101.89516377579241,2005
-99.39614390642998,1851
-96.89781515667039,1979
-94.40017733334128,2306
-91.90323024319173,2248
-89.40697369289148,2090
-86.91140748903172,1950
-84.41653143812482,2049
-81.92234534660395,2163
-79.42884902082358,2370
-76.93604226705907,2536
-74.4439248915071,2513
-71.95249670028534,2447
-69.46175749943245,2843
-66.97170709490854,2788
-64.48234529259423,2933
-61.99367189829195,3128
-59.50568671772464,3519
-57.01838955653636,3613
-54.53178022029283,3512
-52.045858514480074,3728
-49.560624244506016,4433
-47.07607721569923,4383
-44.59221723330904,4148
-42.10904410250669,4136
-39.62655762838392,4938
-37.14475761595372,6317
-34.66364387015028,6897
-32.18321619582866,7344
-29.70347439776515,8684
-27.224418280657005,10003
-24.74604764912317,13817
-22.26836230770266,19345
-19.7913620608565,32851
-17.315046712966478,53685
-14.83941606833514,63538
-12.36446993118659,65038
-9.89020810566592,65038
-7.416630395839093,65038
-4.94373660569363,65038
-2.471526539137585,65038
-6.821210263296962E-13,65038
2.47084320796705,65038
4.941003281093458,65038
7.410480415786196,65038
9.879274808531363,65038
12.347386655893956,65038
14.814816154518212,65038
17.28156350112681,65038
19.74762889252179,65038
22.21301252558385,65038
24.67771459727237,65038
27.141735304626195,46261
29.605074844762612,19889
32.06773341487792,13452
34.52971121224755,8531
36.99100843422559,7480
39.45162527824516,9012
41.91156194181792,8508
44.370818622535126,13048
46.82939551806646,18969
49.287292826160524,17535
51.74451074464503,13655
54.201049471426245,10263
56.65690920448981,6678
59.112090141899785,4450
61.56659248179983,3645
64.02041642241159,3681
66.4735621620365,4048
68.92602989905402,3732
71.37781983192338,3088
73.82893215918205,3229
76.27936707944684,3512
78.72912479141326,4140
81.17820549385567,4225
83.62660938562783,3877
86.07433666566146,2900
88.5213875329681,3528
90.96776218663751,3139
93.41346082583925,2831
95.85848364982041,3112
98.30283085790859,2532
100.7465026495089,2802
103.18949922410604,3309
105.63182078126385,2627
108.07346752062438,2943
110.51443964190923,3128
112.95473734491827,2493
115.39436082953114,2357
117.83331029570547,2095
120.27158594347827,2131
122.7091879729652,2112
125.1461165843615,2124
127.58237197794062,1816
130.01795435405518,1647
132.4528639131364,1500
134.88710085569494,1839
137.32066538231982,1895
139.75355769367923,1889
142.1857779905207,1873
144.61732647366978,1625
147.04820334403132,1567
149.47840880258934,1599
151.90794305040674,1842
154.33680628862487,1905
156.76499871846443,1933
159.19252054122433,2063
161.61937195828352,2287
164.04555317109896,2280
166.47106438120693,2509
168.89590579022217,3096
171.320077599839,3059
173.7435800118302,2966
176.16641322804742,3181
178.58857745042144,3322
181.01007288096173,3537
183.43089972175687,3428
185.85105817497413,3422
188.27054844285988,3573
190.6893707277394,3632
193.10752523201643,3687
195.5250121581745,3908
197.9418317087751,3898
200.3579840864594,3773
202.7734694939469,3613
205.18828813403627,3848
207.6024402096051,3850
210.01592592360964,3856
212.42874547908548,3702
214.84089907914665,3581
217.2523869269868,3698
219.66320922587727,3799
222.0733661791695,3734
224.48285799029293,3676
226.8916848627572,3776
229.29984700014882,3917
231.7073446061355,3794
234.11417788446204,3806
236.520347038953,3883
238.92585227351185,3980
241.33069379212054,4136
243.73487179884035,3919
246.1383864978112,3990
248.541238093252,3975
250.9434267894609,4035
253.34495279081432,4039
255.74581630176783,3993
258.1460175268563,4026
260.54555667069314,4045
262.9444339379703,3853
265.3426495334594,3781
267.7402036620107,3969
270.1370965285529,3970
272.53332833809407,3645
274.9288992957214,3519
277.32380960660055,3559
279.718059475976,3492
282.1116491091717,3517
284.5045787115897,3627
286.89684848871195,3704
289.2884586460981,3592
291.67940938938807,3541
294.0697009242996,3478
296.4593334566299,3442
298.84830719225477,3439
301.23662233712923,3494
303.6242790972866,3377
306.01127767884,3387
308.39761828798066,3411
310.78330113097934,3253
313.16832641418534,3199
315.5526943440269,3291
317.9364051270112,3269
320.3194589697242,3209
322.70185607883093,3268
325.0835966610754,3206
327.4646809232805,3162
329.8451090723478,3125
332.2248813152577,3090
334.6039978590701,3163
336.9824589109231,3280
339.36026467803447,3088
341.7374153677,3112
344.113911187295,2990
346.48975234427337,2996
348.8649390461686,3046
351.2394715005918,3024
353.61334991523415,3008
355.9865744978655,2891
358.35914545633375,3073
360.73106299856715,2977
363.10232733257146,2946
365.47293866643247,2945
367.84289720831396,2949
370.2122031664593,2911
372.5808567491905,2935
374.9488581649083,2867
377.31620762209275,2915
379.6829053293021,2908
382.0489514951745,2898
384.4143463284262,2838
386.7790900378528,2822
389.14318283232853,2914
391.50662492080653,2818
393.86941651231916,2775
396.23155781597745,2822
398.5930490409713,2770
400.9538903965696,2855
403.3140820921202,2824
405.6736243370498,2718
408.03251734086336,2783
410.3907613131465,2755
412.74835646356166,2713
415.10530300185144,2775
417.4616011378372,2723
419.81725108141893,2779
422.1722530425758,2664
424.5266072313656,2712
426.880313857925,2706
429.2333731324701,2763
431.58578526529516,2738
433.9375504667738,2687
436.2886689473588,2700
438.63914091758113,2677
440.9889665880513,2714
443.33814616945835,2713
445.68667987257015,2678
448.03456790823395,2747
450.3818104873759,2641
452.72840782100013,2687
455.07436012019105,2729
457.41966759611057,2713
459.7643304600007,2702
462.10834892318155,2717
464.4517231970525,2601
466.79445349309174,2788
469.1365400228566,2795
471.4779829979826,2766
473.81878263018564,2818
476.15893913125876,2811
478.4984527130747,2823
480.8373235875855,2781
483.17555196682144,2872
485.5131380628919,2949
487.8500820879857,3039
490.1863842543697,3297
492.52204477439034,3469
494.8570638604725,3718
497.1914417251204,4003
499.52517858091653,4153
501.85827464052306,4290
504.19073011668036,4401
506.5225452222086,4388
508.85372017000566,4271
511.18425517304956,4069
513.514150444396,4321
515.8434061971808,4848
518.1720226446176,5356
520.4999999999999,5793
522.8273384766991,6170
525.1540382881666,6397
527.480099647932,6221
529.8055227696037,5289
532.1303078668694,3906
534.454455153496,3107
536.777964843328,2917
539.1008371502907,2763
541.4230722883866,2683
543.744670471698,2688
546.0656319143858,2646
548.3859568306899,2608
550.7056454349294,2528
553.0246979415016,2531
555.3431145648834,2517
557.6608955196306,2564
559.978041020377,2491
562.2945512818363,2461
564.6104265188006,2475
566.9256669461412,2476
569.2402727788082,2511
571.5542442318302,2500
573.8675815203156,2545
576.1802848594508,2490
578.4923544645015,2443
580.8037905508126,2485
583.114593333807,2492
585.4247630289875,2466
587.7342998519354,2418
590.0432040183106,2474
592.3514757438526,2426
594.6591152443794,2419
596.9661227357875,2482
599.2724984340531,2474
601.578242555231,2508
603.8833553154542,2494
606.1878369309362,2514
608.4916876179676,2560
610.7949075929192,2628
613.0974970722403,2612
615.3994562724587,2502
617.7007854101818,2449
620.0014847020951,2589
622.3015543649641,2510
624.6009946156324,2437
626.8998056710224,2487
629.1979877481361,2505
631.4955410640538,2530
633.7924658359349,2526
636.0887622810175,2493
638.3844306166192,2635
640.6794710601358,2564
642.9738838290426,2564
645.2676691408932,2514
647.5608272133207,2604
649.853358264037,2466
652.1452625108324,2573
654.4365401715764,2514
656.7271914642178,2535
659.0172166067838,2536
661.3066158173809,2546
663.5953893141935,2519
665.8835373154867,2481
668.1710600396028,2567
670.4579577049639,2590
672.7442305300709,2646
675.0298787335033,2549
677.3149025339197,2650
679.599302150058,2607
681.8830778007342,2629
684.1662297048437,2593
686.4487580813608,2619
688.7306631493387,2639
691.0119451279091,2560
693.2926042362834,2618
695.5726406937516,2531
697.8520547196814,2654
700.1308465335215,2588
702.4090163547982,2547
704.6865644031171,2529
706.9634908981619,2498
709.2397960596965,2554
711.5154801075631,2563
713.7905432616823,2543
716.0649857420548,2587
718.3388077687592,2571
720.612009561953,2527
722.8845913418733,2560
725.1565533288352,2567
727.427895743234,2555
729.6986188055427,2664
731.9687227363137,2600
734.238207756178,2604
736.5070740858458,2608
738.7753219461066,2513
741.0429515578281,2536
743.3099631419569,2554
745.5763569195191,2619
747.8421331116193,2568
750.1072919394409,2559
752.3718336242467,2523
754.6357583873777,2504
756.8990664502545,2527
759.1617580343765,2620
761.423833361321,2570
763.6852926527457,2502
765.9461361303862,2475
768.206364016058,2519
770.4659765316536,2535
772.7249738991469,2603
774.9833563405886,2570
777.2411240781092,2541
779.4982773339183,2605
781.7548163303044,2646
784.010741289634,2582
786.2660524343538,2635
788.5207499869881,2581
790.7748341701416,2619
793.0283052064964,2600
795.2811633188143,2478
797.5334087299362,2553
799.7850416627813,2532
802.0360623403484,2689
804.2864709857143,2585
806.5362678220353,2642
808.7854530725468,2661
811.0340269605625,2632
813.2819897094754,2593
815.5293415427581,2624
817.77608268396,2603
820.0222133567116,2521
822.2677337847211,2548
824.5126441917765,2525
826.7569448017433,2590
829.0006358385675,2536
831.2437175262731,2619
833.4861900889629,2586
835.7280537508192,2566
837.9693087361026,2546
840.2099552691533,2482
842.4499935743896,2579
844.689423876309,2550
846.9282463994886,2635
849.1664613685833,2552
851.4040690083276,2618
853.6410695435349,2581
855.877463199097,2570
858.1132501999847,2609
860.3484307712487,2560
862.5830051380175,2571
864.8169735254988,2547
867.0503361589791,2627
869.2830932638243,2572
871.5152450654786,2558
873.7467917894654,2626
875.9777336613873,2551
878.2080709069252,2642
880.4378037518389,2584
882.666932421968,2556
884.8954571432301,2602
887.1233781416219,2703
889.3506956432192,2664
891.5774098741766,2669
893.803521060728,2619
896.0290294291852,2667
898.2539352059397,2689
900.4782386174619,2690
902.7019398903011,2678
904.925039251085,2602
907.147536926521,2572
909.3694331433943,2692
911.59072812857,2669
913.8114221089921,2608
916.0315153116827,2610
918.2510079637437,2577
920.4699002923547,2513
922.6881925247761,2620
924.905884888345,2589
927.1229776104793,2618
929.3394709186747,2594
931.555365040506,2560
933.7706602036275,2509
935.9853566357709,2602
938.1994545647489,2602
940.4129542184515,2568
942.6258558248488,2590
944.8381596119883,2664
947.0498658079974,2641
949.2609746410825,2669
951.4714863395287,2622
953.6814011316998,2667
955.8907192460387,2574
958.0994409110671,2493
960.3075663553858,2552
962.5150958076741,2546
964.7220294966913,2550
966.928367651274,2581
969.1341105003388,2497
971.3392582728806,2547
973.5438111979742,2569
975.747769504772,2547
977.9511334225061,2522
980.153903180487,2484
982.3560790081052,2426
984.5576611348289,2495
986.7586497902058,2445
988.9590452038618,2453
991.158847605503,2414
993.3580572249133,2355
995.5566742919558,2351
997.7546990365728,2365
999.952131688785,2296
1002.1489724786926,2300
1004.3452216364743,2260
1006.5408793923874,2274
1008.7359459767691,2203
1010.9304216200343,2255
1013.1243065526781,2226
1015.3176010052733,2229
1017.510305208472,2232
1019.7024193930064,2155
1021.8939437896848,2203
1024.0848786293977,2139
1026.2752241431122,2216
1028.4649805618747,2135
1030.6541481168115,2244
1032.842727039127,2154
1035.0307175601051,2245
1037.2181199111074,2172
1039.4049343235752,2137
1041.591161029029,2157
1043.7768002590683,2115
1045.9618522453698,2148
1048.1463172196918,2132
1050.3301954138697,2132
1052.513487059818,2199
1054.69619238953,2091
1056.8783116350783,2161
1059.0598450286152,2185
1061.2407928023704,2089
1063.4211551886528,2123
1065.6009324198508,2173
1067.780124728432,2133
1069.9587323469414,2142
1072.1367555080046,2100
1074.314194444325,2156
1076.4910493886855,2170
1078.667320573947,2170
1080.843008233051,2106
1083.0181125990161,2106
1085.1926339049414,2066
1087.3665723840027,2014
1089.5399282694575,2076
1091.7127017946405,2111
1093.8848931929647,2073
1096.0565026979243,2087
1098.2275305430899,2026
1100.3979769621128,2074
1102.567842188722,2070
1104.737126456726,2104
1106.9058300000124,2042
1109.0739530525475,1979
1111.2414958483764,2017
1113.4084586216231,2028
1115.5748416064907,1974
1117.7406450372605,2047
1119.9058691482942,2035
1122.0705141740304,1994
1124.2345803489884,2087
1126.3980679077658,2022
1128.5609770850388,1977
1130.7233081155623,2084
1132.8850612341707,1996
1135.0462366757774,2042
1137.2068346753745,1988
1139.3668554680326,2022
1141.526299288901,2028
1143.68516637321,1980
1145.8434569562655,1986
1148.001171273455,2020
1150.158309560244,1968
1152.3148720521767,1988
1154.470858984876,1993
1156.626270594044,1965
1158.7811071154629,1974
1160.9353687849912,1994
1163.089055838569,1960
1165.242168512213,1972
1167.3947070420209,1973
1169.5466716641677,1988
1171.6980626149075,1998
1173.8488801305748,1977
1175.9991244475814,1948
1178.1487958024186,2000
1180.2978944316555,1960
1182.4464205719428,1983
1184.5943744600072,1936
1186.7417563326567,2008
1188.8885664267755,1965
1191.0348049793297,1972
1193.1804722273619,1930
1195.325568407995,2055
1197.4700937584303,1970
1199.614048515948,1970
1201.7574329179074,1949
1203.900247201746,1987
1206.042491604982,1968
1208.1841663652099,1965
1210.3252717201053,1954
1212.465807907422,1980
1214.6057751649923,2006
1216.7451737307279,2010
1218.8840038426192,2064
1221.0222657387353,2002
1223.1599596572241,1942
1225.2970858363137,1930
1227.4336445143094,1988
1229.5696359295966,1948
1231.705060320639,2052
1233.8399179259786,2014
1235.9742089842384,1983
1238.107933734118,1976
1240.2410924143974,2003
1242.373685263935,1979
1244.5057125216676,1915
1246.6371744266116,1972
1248.7680712178621,2027
1250.898403134593,1968
1253.028170416058,2038
1255.1573733015875,2001
1257.2860120305932,1963
1259.4140868425648,1994
1261.54159797707,1971
1263.6685456737569,2022
1265.7949301723515,1997
1267.9207517126597,2030
1270.046010534565,2055
1272.1707068780306,2024
1274.2948409830983,1985
1276.4184130898889,2034
1278.541423438603,1970
1280.6638722695184,2023
1282.785759822993,2077
1284.9070863394636,2001
1287.0278520594447,2055
1289.1480572235314,2102
1291.2677020723963,2056
1293.3867868467923,2085
1295.5053117875495,2155
1297.623277135579,2023
1299.740683131868,2027
1301.8575300174857,2054
1303.973818033578,2092
1306.0895474213703,2063
1308.2047184221678,2122
1310.3193312773528,2182
1312.4333862283888,2195
1314.5468835168163,2082
1316.659823384255,2120
1318.7722060724045,2118
1320.8840318230418,1999
1322.9953008780249,2064
1325.1060134792888,2085
1327.2161698688478,2156
1329.3257702887959,2125
1331.4348149813054,2131
1333.5433041886276,2135
1335.6512381530933,2093
1337.7586171171101,2050
1339.8654413231675,2109
1341.9717110138317,2070
1344.0774264317488,2065
1346.1825878196432,2117
1348.2871954203192,2079
1350.3912494766587,2050
1352.4947502316231,2053
1354.5976979282532,2107
1356.7000928096686,2203
1358.8019351190665,2077
1360.9032250997243,2099
1363.0039629949988,2114
1365.1041490483235,2058
1367.2037835032133,2020
1369.3028666032606,2033
1371.401398592137,2080
1373.4993797135926,2064
1375.5968102114575,2115
1377.6936903296396,2053
1379.7900203121262,2054
1381.8858004029835,2103
1383.9810308463561,2087
1386.075711886469,2064
1388.1698437676241,2117
1390.2634267342032,2070
1392.356461030667,2089
1394.4489469015557,2123
1396.5408845914872,2068
1398.6322743451592,2120
1400.7231164073469,2022
1402.813411022907,2132
1404.903158436773,2154
1406.9923588939578,2072
1409.0810126395531,2111
1411.1691199187303,2140
1413.2566809767386,2073
1415.343696058907,2122
1417.4301654106425,2131
1419.5160892774315,2100
1421.6014679048399,2110
1423.6863015385125,2161
1425.7705904241707,2173
1427.8543348076178,2153
1429.9375349347342,2151
1432.0201910514802,2161
1434.102303403894,2236
1436.1838722380944,2186
1438.2648978002767,2209
1440.3453803367174,2207
1442.4253200937692,2248
1444.5047173178677,2227
1446.5835722555234,2331
1448.6618851533285,2343
1450.739656257952,2330
1452.8168858161434,2345
1454.8935740747306,2333
1456.96972128062,2406
1459.045327680797,2365
1461.120393522327,2381
1463.1949190523528,2478
1465.2689045180973,2517
1467.3423501668608,2521
1469.415256246024,2505
1471.4876230030463,2509
1473.559450685465,2566
1475.6307395408976,2578
1477.7014898170391,2588
1479.771701761665,2534
1481.8413756226287,2625
1483.9105116478618,2739
1485.9791100853772,2762
1488.0471711832643,2780
1490.1146951896926,2834
1492.1816823529098,2846
1494.2481329212433,2886
1496.3140471430984,2914
1498.3794252669609,2930
1500.4442675413939,2880
1502.5085742150404,3001
1504.572345536622,3004
1506.6355817549388,3049
1508.6982831188702,3023
1510.7604498773744,3086
1512.8220822794883,3095
1514.8831805743293,3154
1516.9437450110909,3169
1519.003775839048,3197
1521.0632733075522,3275
1523.1222376660367,3431
1525.1806691640113,3331
1527.2385680510652,3408
1529.2959345768668,3443
1531.3527689911643,3533
1533.4090715437833,3613
1535.4648424846291,3547
1537.5200820636855,3647
1539.5747905310159,3668
1541.6289681367616,3817
1543.6826151311434,3580
1545.7357317644614,3766
1547.7883182870937,3894
1549.8403749494987,3827
1551.8919020022113,3924
1553.9428996958477,3977
1555.9933682811015,4115
1558.0433080087469,4232
1560.0927191296346,4252
1562.1416018946961,4199
1564.1899565549415,4297
1566.2377833614592,4239
1568.2850825654164,4243
1570.3318544180606,4136
1572.3780991707158,4122
1574.423817074788,3866
1576.4690083817595,3832
1578.5136733431923,3577
1580.5578122107272,3549
1582.601425236085,3363
1584.6445126710646,3270
1586.6870747675434,3057
1588.7291117774776,2947
1590.7706239529034,2917
1592.8116115459347,2857
1594.8520748087658,2772
1596.8920139936686,2666
1598.9314293529933,2614
1600.9703211391711,2441
1603.008689604711,2480
1605.0465350022005,2465
1607.0838575843068,2324
1609.1206576037753,2308
1611.1569353134305,2319
1613.1926909661765,2299
1615.2279248149953,2195
1617.2626371129481,2220
1619.2968281131757,2256
1621.3304980688963,2127
1623.3636472334088,2119
1625.39627586009,2077
1627.428384202396,2038
1629.459972513861,2091
1631.4910410480993,2162
1633.5215900588028,2074
1635.551619799744,2107
1637.5811305247717,2021
1639.6101224878166,2055
1641.6385959428862,2092
1643.6665511440683,2019
1645.693988345528,2024
1647.7209078015112,2007
1649.7473097663405,2040
1651.7731944944203,2026
1653.7985622402307,2033
1655.823413258333,1965
1657.847747803366,1933
1659.8715661300494,1949
1661.8948684931793,2022
1663.9176551476316,1995
1665.9399263483624,1971
1667.9616823504057,1951
1669.982923408873,1938
1672.0036497789574,1905
1674.0238617159293,1988
1676.043559475138,1977
1678.0627433120121,1995
1680.081413482059,1952
1682.0995702408654,1978
1684.117213844096,1902
1686.134344547495,1945
1688.1509626068864,1990
1690.1670682781705,1971
1692.182661817329,1910
1694.1977434804217,1948
1696.2123135235875,1944
1698.226372203043,1985
1700.2399197750851,1924
1702.2529564960905,1932
1704.2654826225112,1962
1706.277498410882,1939
1708.2890041178139,1924
1710.2999999999988,1984
1712.3104863142066,1976
1714.3204633172854,1985
1716.329931266163,1962
1718.3388904178469,1910
1720.3473410294214,1942
1722.3552833580516,1951
1724.3627176609807,2032
1726.3696441955308,1890
1728.3760632191033,1927
1730.3819749891782,2004
1732.3873797633146,1891
1734.3922777991502,1845
1736.3966693544012,1926
1738.4005546868639,1911
1740.4039340544127,1877
1742.406807715001,1926
1744.4091759266616,1917
1746.4110389475054,1919
1748.4123970357223,1887
1750.413250449582,1877
1752.4135994474318,1867
1754.4134442876993,1859
1756.4127852288902,1847
1758.4116225295893,1905
1760.4099564484595,1858
1762.407787244244,1843
1764.405115175764,1829
1766.4019405019203,1880
1768.3982634816916,1846
1770.3940843741357,1798
1772.3894034383907,1790
1774.3842209336717,1766
1776.378537119274,1856
1778.372352254571,1806
1780.3656665990156,1844
1782.3584804121397,1807
1784.3507939535534,1781
1786.3426074829463,1817
1788.3339212600863,1806
1790.3247355448211,1800
1792.3150505970766,1741
1794.3048666768573,1835
1796.2941840442477,1810
1798.2830029594106,1858
1800.2713236825884,1786
1802.2591464741004,1826
1804.2464715943465,1865
1806.2332993038058,1750
1808.2196298630352,1803
1810.2054635326708,1794
1812.190800573428,1820
1814.175641246101,1807
1816.1599858115628,1823
1818.1438345307652,1846
1820.127187664738,1777
1822.1100454745924,1748
1824.092408221516,1793
1826.0742761667766,1787
1828.055649571721,1761
1830.0365286977735,1766
1832.0169138064398,1765
1833.9968051593014,1806
1835.9762030180214,1789
1837.9551076443408,1804
1839.9335193000788,1816
1841.9114382471344,1815
1843.888864747485,1769
1845.8657990631878,1775
1847.842241456378,1784
1849.8181921892697,1769
1851.7936515241558,1805
1853.7686197234098,1800
1855.7430970494815,1774
1857.7170837649014,1818
1859.6905801322787,1786
1861.6635864143004,1757
1863.6361028737338,1807
1865.608129773424,1881
1867.5796673762961,1743
1869.5507159453537,1823
1871.521275743678,1846
1873.4913470344313,1783
1875.4609300808534,1827
1877.4300251462632,1764
1879.3986324940588,1810
1881.366752387717,1827
1883.3343850907936,1733
1885.3015308669228,1776
1887.268189979819,1806
1889.2343626932739,1823
1891.2000492711595,1786
1893.1652499774254,1812
1895.1299650761011,1815
1897.0941948312952,1864
1899.0579395071945,1805
1901.0211993680641,1838
1902.98397467825,1794
1904.9462657021745,1798
1906.9080727043415,1852
1908.869395949332,1920
1910.8302357018065,1774
1912.790592226504,1854
1914.7504657882428,1846
1916.7098566519212,1801
1918.6687650825133,1803
1920.6271913450764,1850
1922.5851357047422,1834
1924.5425984267245,1757
1926.499579776314,1842
1928.4560800188833,1786
1930.4120994198802,1836
1932.367638244833,1853
1934.32269675935,1862
1936.2772752291175,1827
1938.231373919899,1842
1940.1849930975404,1770
1942.1381330279637,1865
1944.0907939771696,1877
1946.0429762112412,1844
1947.9946799963363,1878
1949.9459055986945,1805
1951.896653284633,1797
1953.8469233205478,1824
1955.7967159729142,1822
1957.7460315082863,1876
1959.6948701932974,1803
1961.6432322946594,1812
1963.5911180791632,1779
1965.5385278136787,1778
1967.4854617651545,1795
1969.4319202006182,1860
1971.377903387176,1815
1973.3234115920136,1875
1975.268445082395,1859
1977.2130041256642,1789
1979.1570889892423,1878
1981.1006999406304,1821
1983.04383724741,1797
1984.986501177238,1843
1986.928691997853,1808
1988.8704099770712,1810
1990.811655382789,1847
1992.7524284829801,1772
1994.692729545698,1836
1996.6325588390755,1787
1998.5719166313224,1788
2000.5108031907307,1825
2002.4492187856677,1750
2004.387163684583,1788
2006.3246381560011,1816
2008.2616424685298,1805
2010.1981768908527,1721
2012.1342416917332,1782
2014.069837140014,1773
2016.0049635046162,1780
2017.9396210545406,1808
2019.8738100588666,1794
2021.8075307867502,1831
2023.740783507431,1792
2025.6735684902228,1813
2027.6058860045214,1745
2029.5377363198004,1770
2031.4691197056118,1821
2033.4000364315875,1802
2035.3304867674374,1802
2037.260470982952,1809
2039.189989347998,1739
2041.1190421325232,1791
2043.047629606554,1801
2044.9757520401945,1818
2046.9034097036288,1811
2048.8306028671195,1790
2050.7573318010086,1795
2052.683596775716,1782
2054.609398061742,1761
2056.5347359296647,1768
2058.4596106501403,1823
2060.384022493906,1833
2062.3079717317764,1785
2064.231458634646,1820
2066.1544834734873,1723
2068.077046519352,1792
2069.99914804337,1738
2071.9207883167524,1808
2073.8419676107865,1839
2075.7626861968406,1838
2077.6829443463607,1731
2079.6027423308715,1822
2081.522080421977,1814
2083.440958891362,1820
2085.359378010786,1750
2087.2773380520907,1773
2089.194839287196,1793
2091.111881988101,1750
2093.0284664268825,1806
2094.9445928756973,1869
2096.86026160678,1817
2098.775472892446,1784
2100.690227005088,1759
2102.604524217178,1834
2104.5183648012676,1805
2106.431749029985,1790
2108.34467717604,1811
2110.2571495122206,1771
2112.169166311393,1834
2114.080727846503,1733
2115.9918343905747,1781
2117.902486216711,1764
2119.8126835980956,1735
2121.722426807987,1755
2123.6317161197285,1755
2125.5405518067364,1801
2127.448934142509,1767
2129.356863400624,1786
2131.264339854737,1795
2133.1713637785815,1748
2135.077935445972,1805
2136.9840551308002,1781
2138.889723107037,1749
2140.7949396487334,1786
2142.699705030018,1808
2144.6040195250994,1746
2146.507883408264,1721
2148.4112969538774,1802
2150.3142604363848,1819
2152.2167741303097,1705
2154.1188383102535,1806
2156.0204532508997,1804
2157.9216192270064,1791
2159.822336513414,1763
2161.7226053850413,1803
2163.622426116884,1833
2165.5217989840185,1808
2167.4207242616,1790
2169.319202224862,1778
2171.2172331491165,1760
2173.1148173097563,1776
2175.0119549822507,1799
2176.90864644215,1800
2178.8048919650823,1806
2180.7006918267534,1794
2182.596046302952,1682
2184.4909556695407,1677
2186.3854202024645,1737
2188.279440177746,1728
2190.173015871487,1713
2192.066147559868,1801
2193.958835519149,1752
2195.851080025667,1758
2197.7428813558417,1794
2199.6342397861667,1722
2201.5251555932186,1779
2203.415629053651,1746
2205.3056604441986,1755
2207.19525004167,1814
2209.084398122958,1790
2210.9731049650327,1743
2212.861370844941,1750
2214.749196039812,1805
2216.636580826851,1786
2218.523525483344,1851
2220.410030286655,1799
2222.296095514226,1762
2224.1817214435805,1811
2226.066908352319,1780
2227.951656518121,1783
2229.835966218746,1819
2231.71983773203,1788
2233.6032713358913,1764
2235.486267308324,1808
2237.3688259274036,1754
2239.2509474712824,1791
2241.132632218193,1784
2243.013880446447,1735
2244.8946924344323,1773
2246.7750684606203,1723
2248.6550088035574,1730
2250.534513741871,1783
2252.413583554265,1757
2254.292218519526,1749
2256.170418916517,1729
2258.0481850241786,1811
2259.925517121534,1748
2261.8024154876825,1766
2263.678880401803,1710
2265.5549121431536,1744
2267.430510991071,1768
2269.305677224971,1748
2271.180411124348,1783
2273.0547129687766,1767
2274.9285830379076,1753
2276.8020216114737,1686
2278.6750289692845,1726
2280.5476053912294,1808
2282.4197511572766,1754
2284.2914665474727,1793
2286.162751841943,1767
2288.0336073208937,1829
2289.904033264608,1782
2291.774029953448,1771
2293.6435976678554,1769
2295.5127366883517,1691
2297.381447295534,1855
2299.2497297700825,1707
2301.1175843927526,1698
2302.9850114443825,1690
2304.852011205885,1784
2306.7185839582553,1790
2308.5847299825664,1769
2310.4504495599676,1743
2312.3157429716925,1783
2314.1806104990483,1762
2316.0450524234247,1734
2317.9090690262888,1781
2319.772660589186,1768
2321.635827393742,1776
2323.498569721661,1742
2325.3608878547248,1716
2327.2227820747967,1812
2329.0842526638157,1747
2330.945299903803,1814
2332.805924076857,1852
2334.6661254651535,1780
2336.525904350951,1838
2338.3852610165827,1743
2340.244195744464,1812
2342.102708817088,1750
2343.9608005170253,1687
2345.8184711269287,1773
2347.675720929526,1759
2349.532550207628,1827
2351.38895924412,1831
2353.24494832197,1756
2355.100517724223,1847
2356.955667734004,1768
2358.810398634514,1786
2360.664710709037,1791
2362.5186042409337,1788
2364.3720795136437,1809
2366.225136810686,1778
2368.0777764156583,1794
2369.929998612237,1811
2371.7818036841777,1794
2373.633191915315,1787
2375.484163589562,1846
2377.3347189909114,1831
2379.184858403434,1803
2381.03458211128,1830
2382.8838903986775,1828
2384.732783549936,1768
2386.5812618494406,1830
2388.4293255816588,1832
2390.2769750311327,1833
2392.1242104824883,1821
2393.971032220427,1839
2395.8174405297295,1830
2397.6634356952563,1876
2399.509018001947,1821
2401.3541877348193,1801
2403.1989451789705,1878
2405.043290619576,1763
2406.8872243418905,1839
2408.730746631247,1818
2410.5738577730594,1826
2412.4165580528183,1873
2414.258847756095,1840
2416.100727168537,1879
2417.9421965758734,1775
2419.783256263912,1878
2421.623906518538,1844
2423.4641476257157,1858
2425.303979871491,1863
2427.143403541984,1822
2428.9824189233977,1828
2430.821026302012,1781
2432.6592259641866,1827
2434.497018196361,1863
2436.33440328505,1844
2438.171381516851,1856
2440.00795317844,1898
2441.844118556569,1754
2443.6798779380724,1773
2445.5152316098606,1851
2447.3501798589255,1836
2449.1847229723357,1829
2451.0188612372403,1899
2452.8525949408663,1874
2454.6859243705203,1837
2456.518849813587,1834
2458.3513715575314,1850
2460.183489889895,1873
2462.015205098301,1891
2463.8465174704493,1889
2465.67742729412,1784
2467.5079348571717,1823
2469.338040447542,1857
2471.1677443532476,1890
2472.9970468623833,1801
2474.825948263123,1878
2476.6544488437207,1791
2478.482548892508,1844
2480.310248697896,1827
2482.137548548374,1861
2483.9644487325118,1874
2485.790949538956,1847
2487.617051256433,1837
2489.44275417375,1791
2491.26805857979,1906
2493.0929647635157,1858
2494.917473013971,1952
2496.741583620276,1892
2498.5652968716304,1865
2500.3886130573137,1842
2502.2115324666834,1826
2504.0340553891765,1833
2505.856182114308,1938
2507.6779129316733,1888
2509.499248130945,1846
2511.3201880018764,1903
2513.140732834298,1896
2514.9608829181198,1817
2516.780638543331,1874
2518.6,1860
2520.418967578273,1890
2522.237541568376,1866
2524.0557222606144,1828
2525.8735099453706,1930
2527.6909049131086,1907
2529.507907454368,1959
2531.32451785977,1927
2533.140736420014,1867
2534.9565634258774,1899
2536.771999168218,1897
2538.5870439379714,1922
2540.4016980261526,1880
2542.2159617238544,1944
2544.02983532225,1857
2545.8433191125914,1905
2547.656413386209,1978
2549.4691184345115,1921
2551.2814345489874,1974
2553.093362021204,1978
2554.904901142808,1920
2556.716052205523,1971
2558.526815501153,1952
2560.3371913215824,1952
2562.147179958771,1956
2563.956781704761,2008
2565.7659968516705,1920
2567.5748256916986,2020
2569.3832685171224,2019
2571.1913256202984,1988
2572.9989972936614,2046
2574.806283829725,1946
2576.613185521084,2066
2578.4197026604074,2057
2580.2258355404483,2068
2582.031584454035,2049
2583.836949694077,2034
2585.6419315535613,2004
2587.4465303255533,2007
2589.2507463032002,2065
2591.0545797797245,2066
2592.8580310484303,2080
2594.6611004026995,1992
2596.463788135992,2090
2598.266094541849,2083
2600.0680199138874,2125
2601.869564545807,2082
2603.670728731383,2113
2605.4715127644704,2044
2607.2719169390048,2078
2609.071941548998,2082
2610.8715868885433,2119
2612.670853251811,2112
2614.469740933052,2121
2616.268250226594,2096
2618.0663814268455,2121
2619.864134828292,2122
2621.6615107255006,2127
2623.458509413115,2142
2625.2551311858597,2105
2627.0513763385347,2049
2628.8472451660223,2096
2630.6427379632833,2036
2632.4378550253564,2072
2634.232596647359,2001
2636.026963124488,2092
2637.8209547520187,1975
2639.6145718253065,2009
2641.407814639785,1962
2643.200683490966,1986
2644.9931786744414,1968
2646.7853004858807,2031
2648.577049221034,2042
2650.3684251757277,1988
2652.1594286458712,1955
2653.9500599274484,1953
2655.740319316525,1918
2657.5302071092437,1888
2659.3197236018286,1854
2661.10886909058,1925
2662.8976438718782,1854
2664.686048242183,1913
2666.4740824980327,1916
2668.2617469360443,1899
2670.0490418529134,1870
2671.8359675454153,1926
2673.622524310403,1855
2675.408712444811,1914
2677.1945322456495,1852
2678.979984010009,1903
2680.76506803506,1756
2682.5497846180497,1823
2684.334134056306,1843
2686.1181166472343,1849
2687.9017326883213,1833
2689.6849824771293,1852
2691.4678663113013,1789
2693.2503844885596,1862
2695.032537306705,1864
2696.8143250636167,1783
2698.5957480572542,1767
2700.3768065856534,1835
2702.1575009469316,1796
2703.937831439283,1786
2705.717798360982,1730
2707.4974020103837,1751
2709.276642685917,1762
2711.055520686095,1745
2712.834036309506,1764
2714.612189854819,1739
2716.389981620782,1767
2718.1674119062204,1832
2719.944481010041,1852
2721.721189231226,1717
2723.4975368688415,1738
2725.273524222027,1742
2727.0491515900053,1803
2728.824419272075,1772
2730.5993275676146,1721
2732.3738767760838,1693
2734.148067197016,1702
2735.921899130031,1751
2737.6953728748194,1756
2739.468488731156,1726
2741.2412469988926,1722
2743.0136479779617,1741
2744.785691968372,1735
2746.5573792702116,1654
2748.3287101836504,1677
2750.099685008934,1721
2751.870304046388,1702
2753.640567596418,1717
2755.4104759595057,1712
2757.1800294362156,1684
2758.949228327187,1707
2760.7180729331412,1725
2762.486563554877,1736
2764.254700493272,1704
2766.022484049284,1697
2767.789914523947,1717
2769.5569922183786,1739
2771.3237174337705,1704
2773.090090471394,1744
2774.8561116326036,1706
2776.6217812188274,1731
2778.3870995315756,1737
2780.1520668724356,1669
2781.9166835430747,1654
2783.6809498452394,1757
2785.444866080754,1706
2787.2084325515225,1740
2788.971649559527,1790
2790.73451740683,1718
2792.4970363955713,1764
2794.2592068279705,1738
2796.0210290063264,1711
2797.7825032330147,1707
2799.543629810493,1699
2801.304409041296,1685
2803.0648412280366,1699
2804.8249266734088,1724
2806.5846656801846,1681
2808.344058551212,1681
2810.1031055894246,1659
2811.8618070978273,1709
2813.6201633795085,1666
2815.378174737636,1747
2817.1358414754536,1717
2818.893163896285,1658
2820.6501423035334,1701
2822.4067770006814,1681
2824.1630682912883,1708
2825.9190164789957,1694
2827.6746218675207,1690
2829.429884760661,1694
2831.184805462294,1723
2832.9393842763743,1721
2834.693621506936,1694
2836.4475174580916,1685
2838.201072434034,1649
2839.954286739034,1721
2841.707160677441,1728
2843.459694553685,1746
2845.2118886722724,1691
2846.96374333779,1685
2848.7152588549034,1665
2850.4664355283567,1689
2852.217273662973,1686
2853.9677735636546,1720
2855.7179355353833,1675
2857.4677598832186,1744
2859.217246912299,1589
2860.9663969278427,1723
2862.715210235146,1699
2864.4636871395846,1777
2866.211827946614,1740
2867.9596329617652,1670
2869.7071024906536,1732
2871.4542368389684,1758
2873.20103631248,1653
2874.947501217038,1703
2876.6936318585695,1731
2878.4394285430812,1702
2880.1848915766604,1704
2881.9300212654707,1648
2883.6748179157553,1692
2885.4192818338374,1726
2887.1634133261173,1741
2888.907212699077,1765
2890.6506802592744,1681
2892.393816313348,1670
2894.1366211680142,1730
2895.8790951300693,1700
2897.621238506388,1695
2899.363051603925,1722
2901.1045347297118,1694
2902.8456881908596,1670
2904.58651229456,1673
2906.327007348081,1677
2908.067173658772,1653
2909.8070115340597,1692
2911.5465212814497,1724
2913.285703208527,1719
2915.0245576229563,1676
2916.7630848324807,1701
2918.5012851449196,1726
2920.2391588681758,1652
2921.976706310227,1703
2923.7139277791334,1672
2925.4508235830313,1689
2927.187394030137,1706
2928.923639428745,1709
2930.6595600872306,1689
2932.395156314046,1676
2934.1304284177218,1685
2935.8653767068713,1707
2937.6000014901815,1740
2939.3343030764227,1681
2941.068281774442,1667
2942.8019378931644,1728
2944.5352717415976,1722
2946.2682836288236,1679
2948.0009738640065,1724
2949.7333427563885,1690
2951.465390615289,1650
2953.1971177501086,1641
2954.9285244703265,1715
2956.6596110855,1640
2958.3903779052657,1659
2960.1208252393385,1681
2961.8509533975125,1695
2963.5807626896617,1686
2965.3102534257378,1640
2967.0394259157715,1663
2968.768280469873,1699
2970.496817398232,1742
2972.2250370111146,1655
2973.952939618869,1669
2975.6805255319196,1696
2977.4077950607707,1711
2979.134748516006,1703
2980.861386208289,1660
2982.587708448359,1741
2984.313715547037,1679
2986.039407815222,1649
2987.764785563891,1657
2989.489849104102,1632
2991.2145987469908,1729
2992.9390348037705,1645
2994.6631575857346,1619
2996.3869674042576,1700
2998.1104645707887,1695
2999.83364939686,1714
3001.5565221940783,1667
3003.2790832741334,1700
3005.0013329487924,1655
3006.7232715298996,1698
3008.4448993293804,1684
3010.166216659239,1620
3011.887223831558,1688
3013.607921158498,1626
3015.3283089522993,1643
3017.0483875252826,1665
3018.7681571898443,1682
3020.4876182584626,1598
3022.2067710436927,1634
3023.9256158581707,1679
3025.644153014609,1674
3027.362382825801,1665
3029.0803056046193,1674
3030.797921664012,1652
3032.5152313170106,1625
3034.2322348767225,1664
3035.9489326563353,1632
3037.665324969115,1660
3039.3814121284063,1636
3041.097194447633,1659
3042.812672240299,1624
3044.5278458199855,1637
3046.2427155003525,1689
3047.9572815951406,1631
3049.671544418167,1638
3051.38550428333,1677
3053.0991615046073,1690
3054.812516396051,1655
3056.5255692717974,1650
3058.2383204460575,1649
3059.9507702331257,1690
3061.662918947372,1647
3063.3747669032446,1636
3065.0863144152736,1692
3066.7975617980674,1664
3068.508509366309,1615
3070.219157434767,1683
3071.9295063182844,1701
3073.639556331785,1684
3075.3493077902704,1713
3077.058761008821,1652
3078.7679163025964,1667
3080.476773986837,1665
3082.1853343768594,1719
3083.89359778806,1648
3085.6015645359153,1675
3087.3092349359786,1677
3089.016609303884,1625
3090.7236879553434,1629
3092.4304712061476,1641
3094.136959372166,1670
3095.843152769349,1664
3097.5490517137237,1623
3099.2546565213966,1658
3100.959967508554,1665
3102.66498499146,1662
3104.3697092864577,1682
3106.0741407099695,1635
3107.778279578498,1612
3109.482126208622,1655
3111.1856809170004,1633
3112.8889440203716,1666
3114.5919158355528,1597
3116.294596679439,1599
3117.996986869006,1677
3119.6990867213062,1636
3121.4008965534726,1673
3123.102416682717,1660
3124.803647426329,1658
3126.5045891016784,1657
3128.205242026213,1744
3129.90560651746,1657
3131.605682893025,1712
3133.3054714705922,1692
3135.0049725679282,1688
3136.7041865028714,1617
3138.4031135933465,1658
3140.101754157353,1639
3141.800108512971,1640
3143.498176978357,1610
3145.1959598717494,1667
3146.8934575114636,1666
3148.5906702158954,1723
3150.2875983035183,1618
3151.9842420928853,1718
3153.680601902627,1611
3155.376678051456,1662
3157.07247085816,1603
3158.767980641609,1645
3160.463207720748,1614
3162.158152414606,1628
3163.8528150422862,1661
3165.5471959229726,1651
3167.2412953759303,1632
3168.9351137204976,1653
3170.628651276098,1689
3172.3219083622307,1680
3174.014885298474,1672
3175.707582404485,1650
3177.4000000000005,1605
3179.092138404835,1648
3180.7839979388846,1646
3182.47557892212,1606
3184.166881674594,1632
3185.8579065164386,1634
3187.5486537678626,1637
3189.2391237491547,1647
3190.9293167806827,1723
3192.6192331828934,1689
3194.3088732763117,1630
3195.998237381542,1632
3197.687325819268,1603
3199.376138910251,1633
3201.064676975334,1621
3202.7529403354347,1546
3204.4409293115523,1582
3206.1286442247647,1661
3207.816085396229,1693
3209.5032531471825,1577
3211.190147798936,1599
3212.8767696728846,1573
3214.5631190905015,1589
3216.2491963733373,1553
3217.9350018430214,1657
3219.6205358212637,1585
3221.305798629851,1617
3222.990790590651,1608
3224.6755120256103,1578
3226.359963256751,1591
3228.0441446061795,1568
3229.7280563960758,1558
3231.411698948703,1573
3233.0950725863995,1642
3234.778177631587,1621
3236.461014406761,1579
3238.1435832345005,1638
3239.8258844374595,1583
3241.507918338374,1587
3243.1896852600576,1547
3244.8711855254023,1606
3246.552419457381,1630
3248.233387379042,1671
3249.914089613516,1581
3251.59452648401,1611
3253.274698313813,1621
3254.95460542629,1535
3256.6342481448855,1613
3258.313626793125,1621
3259.9927416946084,1608
3261.6715931730196,1601
3263.3501815521176,1610
3265.0285071557437,1610
3266.706570307815,1533
3268.3843713323286,1636
3270.0619105533615,1589
3271.739188295068,1552
3273.4162048816834,1615
3275.0929606375184,1584
3276.769455886966,1627
3278.445690954498,1631
3280.1216661646613,1632
3281.797381842087,1646
3283.4728383114807,1670
3285.1480358976296,1622
3286.8229749253996,1546
3288.4976557197333,1625
3290.172078605655,1632
3291.846243908266,1591
3293.5201519527463,1619
3295.193803064357,1589
3296.8671975684374,1610
3298.5403357904024,1593
3300.21321805575,1626
3301.8858446900567,1598
3303.558216018975,1628
3305.23033236824,1649
3306.9021940636603,1570
3308.57380143113,1642
3310.2451547966184,1592
3311.916254486174,1635
3313.5871008259246,1611
3315.2576941420766,1648
3316.9280347609147,1635
3318.5981230088046,1597
3320.2679592121895,1572
3321.9375436975924,1637
3323.606876791612,1558
3325.27595882093,1633
3326.944790112305,1552
3328.6133709925753,1613
3330.2817017886573,1612
3331.949782827547,1498
3333.617614436319,1567
3335.2851969421245,1535
3336.952530672199,1624
3338.619615953853,1583
3340.286453114475,1621
3341.9530424815357,1621
3343.619384382583,1619
3345.2854791452437,1672
3346.951327097224,1619
3348.6169285663073,1680
3350.2822838803577,1610
3351.947393367319,1568
3353.61225735521,1638
3355.2768761721345,1581
3356.9412501462693,1602
3358.605379605873,1586
3360.2692648792827,1639
3361.9329062949146,1592
3363.596304181263,1556
