CollectionTime,7/11/2024 11:56:29 AM
ExposureUsed,3
CalibratedSpectrum
-962.7078968117929,412
-959.9714848408522,443
-957.2358232597828,430
-954.5009119013725,436
-951.7667505983302,424
-949.0333391832855,424
-946.3006774887896,444
-943.5687653473143,433
-940.837602591253,413
-938.1071890529199,452
-935.3775245645503,440
-932.6486089583007,449
-929.9204420662485,459
-927.1930237203925,418
-924.4663537526524,458
-921.7404319948689,442
-919.0152582788041,430
-916.2908324361409,462
-913.5671542984834,411
-910.8442236973568,409
-908.1220404642074,419
-905.4006044304027,437
-902.679915427231,427
-899.959973285902,414
-897.2407778375464,420
-894.5223289132158,416
-891.8046263438832,413
-889.0876699604426,433
-886.3714595937089,409
-883.6559950744183,432
-880.9412762332282,433
-878.2273029007168,436
-875.5140749073835,436
-872.8015920836489,451
-870.0898542598545,431
-867.3788612662631,444
-864.6686129330585,446
-861.9591090903457,467
-859.2503495681506,457
-856.5423341964203,456
-853.8350628050229,468
-851.1285352237478,446
-848.4227512823054,481
-845.7177108103272,498
-843.0134136373656,470
-840.3098595928943,482
-837.6070485063082,502
-834.9049802069229,502
-832.2036545239757,471
-829.5030712866244,463
-826.8032303239481,474
-824.1041314649472,474
-821.4057745385428,467
-818.7081593735775,472
-816.0112857988148,458
-813.3151536429393,467
-810.6197627345566,469
-807.9251129021936,467
-805.2312039742981,462
-802.5380357792392,456
-799.8456081453069,514
-797.1539209007124,491
-794.462973873588,479
-791.772766891987,492
-789.083299783884,479
-786.3945723771743,467
-783.7065844996748,440
-781.0193359791231,422
-778.3328266431781,433
-775.6470563194197,453
-772.9620248353489,460
-770.2777320183878,464
-767.5941776958798,478
-764.9113616950891,460
-762.2292838432011,474
-759.5479439673222,490
-756.8673418944801,485
-754.1874774516235,481
-751.5083504656222,496
-748.8299607632671,491
-746.15230817127,476
-743.475392516264,482
-740.7992136248035,492
-738.1237713233636,471
-735.4490654383407,518
-732.7750957960521,525
-730.1018622227365,508
-727.4293645445534,506
-724.7576025875837,469
-722.0865761778291,489
-719.4162851412126,489
-716.7467293035781,497
-714.0779084906909,510
-711.409822528237,500
-708.7424712418238,459
-706.0758544569796,486
-703.4099719991541,501
-700.7448236937178,483
-698.0804093659622,477
-695.4167288411002,508
-692.7537819442656,496
-690.0915685005134,504
-687.4300883348199,505
-684.7693412720819,488
-682.1093271371178,508
-679.4500457546669,517
-676.7914969493897,507
-674.1336805458676,510
-671.4765963686034,500
-668.8202442420206,513
-666.1646239904642,486
-663.5097354382001,508
-660.8555784094151,506
-658.2021527282176,498
-655.5494582186366,510
-652.8974947046223,512
-650.2462620100463,552
-647.5957599587009,533
-644.9459883742998,540
-642.2969470804776,522
-639.6486359007902,535
-637.0010546587141,505
-634.3542031776476,500
-631.7080812809096,518
-629.0626887917401,536
-626.4180255333008,548
-623.7740913286734,566
-621.1308860008619,558
-618.4884093727904,545
-615.8466612673046,581
-613.2056415071715,566
-610.5653499150785,564
-607.9257863136347,561
-605.28695052537,546
-602.6488423727357,517
-600.0114616781036,540
-597.3748082637674,615
-594.7388819519412,604
-592.1036825647604,557
-589.4692099242818,565
-586.8354638524829,571
-584.2024441712624,587
-581.5701507024403,622
-578.9385832677575,578
-576.3077416888759,575
-573.6776257873787,587
-571.0482353847704,589
-568.4195703024757,580
-565.7916303618415,565
-563.164415384135,602
-560.5379251905453,607
-557.9121596021815,576
-555.2871184400748,591
-552.6628015251767,580
-550.0392086783606,603
-547.4163397204204,596
-544.794194472071,576
-542.1727727539491,631
-539.5520743866118,631
-536.9320991905377,673
-534.3128469861261,720
-531.6943175936979,761
-529.0765108334947,769
-526.4594265256793,902
-523.8430644903358,1242
-521.2274245474689,1516
-518.612506517005,1580
-515.9983102187913,1601
-513.3848354725959,1542
-510.77208209810846,1338
-508.16004991493924,1065
-505.5487387426199,890
-502.9381484006032,741
-500.3282787082628,705
-497.71912948489364,656
-495.1107005497117,651
-492.5029917218539,637
-489.8960028203786,647
-487.28973366426493,650
-484.68418407241325,663
-482.07935386364494,648
-479.47524285670266,635
-476.87185087025,670
-474.2691777228715,711
-471.66722323307334,725
-469.0659872192821,730
-466.4654694998459,685
-463.86566989303384,668
-461.26658821703614,693
-458.66822428996414,676
-456.07057792985,695
-453.4736489546475,755
-450.877437182231,698
-448.28194243039627,699
-445.68716451686,726
-443.09310325926003,713
-440.49975847515555,700
-437.9071299820263,770
-435.31521759727354,799
-432.72402113821954,793
-430.13354042210767,776
-427.5437752661022,766
-424.95472548728867,729
-422.36639090267386,752
-419.7787713291855,818
-417.1918665836721,795
-414.60567648290385,788
-412.0202008435715,774
-409.4354394822874,775
-406.8513922155845,812
-404.26805885991723,834
-401.685439231661,787
-399.103533147112,775
-396.522340422488,755
-393.9418608739278,749
-391.3620943174908,745
-388.7830405691583,730
-386.2046994448317,717
-383.6270707603344,746
-381.05015433141045,726
-378.473949973725,656
-375.8984575028645,629
-373.32367673433623,602
-370.74960748356875,614
-368.1762495659117,591
-365.60360279663576,571
-363.03166699093265,523
-360.4604419639154,494
-357.8899275306178,471
-355.32012350599507,463
-352.7510297049233,465
-350.1826459421999,438
-347.61497203254316,458
-345.04800779059235,445
-342.4817530309082,447
-339.91620756797226,455
-337.35137121618743,439
-334.7872437898774,499
-332.22382510328725,545
-329.66111497058273,521
-327.09911320585127,516
-324.53781962310075,473
-321.9772340362607,466
-319.4173562591816,446
-316.8581861056348,464
-314.2997233893127,458
-311.7419679238294,495
-309.1849195227194,517
-306.62857799943856,536
-304.0729431673641,529
-301.51801483979375,537
-298.963792829947,542
-296.41027695096386,544
-293.85746701590574,540
-291.3053628377552,583
-288.7539642294155,532
-286.2032710037115,528
-283.65328297338897,536
-281.1039999511146,572
-278.5554217494762,637
-276.007548180983,665
-273.4603790580651,621
-270.9139141930734,583
-268.3681533982807,641
-265.8230964858798,687
-263.27874326798565,726
-260.7350935566336,725
-258.1921471637804,693
-255.6499039013039,755
-253.10836358100266,625
-250.56752601459698,610
-248.02739101372765,635
-245.48795838995704,683
-242.94922795476816,650
-240.41119951956557,644
-237.8738728956746,643
-235.33724789434166,673
-232.80132432673452,646
-230.2661020039418,588
-227.73158073697357,590
-225.19776033676033,653
-222.66464061415422,675
-220.1322213799284,664
-217.60050244477725,646
-215.06948361931552,638
-212.53916471408013,759
-210.00954553952818,797
-207.48062590603843,872
-204.9524056239104,762
-202.4248845033651,701
-199.8980623545441,679
-197.37193898751036,724
-194.84651421224817,759
-192.32178783866232,793
-189.79775967657952,746
-187.27442953574644,788
-184.7517972258321,743
-182.2298625564256,721
-179.7086253370378,709
-177.18808537710026,688
-174.66824248596583,782
-172.14909647290835,836
-169.6306471471229,858
-167.11289431772548,813
-164.59583779375328,847
-162.07947738416453,998
-159.5638128978386,1007
-157.04884414357605,1067
-154.53457093009854,1046
-152.02099306604828,968
-149.50811035998936,971
-146.99592262040665,962
-144.48442965570587,904
-141.97363127421409,1038
-139.46352728417958,1069
-136.95411749377126,971
-134.44540171107985,933
-131.93737974411636,949
-129.43005140081357,995
-126.92341648902493,1112
-124.41747481652521,1160
-121.91222619101006,1229
-119.40767042009657,1272
-116.90380731132257,1350
-114.40063667214702,1579
-111.8981583099503,1454
-109.3963720320337,1386
-106.89527764561933,1385
-104.39487495785067,1495
-101.89516377579241,1701
-99.39614390642998,1759
-96.89781515667039,1844
-94.40017733334128,2237
-91.90323024319173,2146
-89.40697369289148,2124
-86.91140748903172,2063
-84.41653143812482,2092
-81.92234534660395,2082
-79.42884902082358,2243
-76.93604226705907,3138
-74.4439248915071,4509
-71.95249670028534,5394
-69.46175749943245,6185
-66.97170709490854,6453
-64.48234529259423,6926
-61.99367189829195,7309
-59.50568671772464,8263
-57.01838955653636,8388
-54.53178022029283,8585
-52.045858514480074,10086
-49.560624244506016,12290
-47.07607721569923,13997
-44.59221723330904,15511
-42.10904410250669,14693
-39.62655762838392,14348
-37.14475761595372,14583
-34.66364387015028,13958
-32.18321619582866,12843
-29.70347439776515,13456
-27.224418280657005,12520
-24.74604764912317,11776
-22.26836230770266,17017
-19.7913620608565,31378
-17.315046712966478,55447
-14.83941606833514,65038
-12.36446993118659,65038
-9.89020810566592,65038
-7.416630395839093,65038
-4.94373660569363,65038
-2.471526539137585,65038
-6.821210263296962E-13,65038
2.47084320796705,65038
4.941003281093458,65038
7.410480415786196,65038
9.879274808531363,65038
12.347386655893956,65038
14.814816154518212,65038
17.28156350112681,65038
19.74762889252179,65038
22.21301252558385,65038
24.67771459727237,21186
27.141735304626195,5052
29.605074844762612,3951
32.06773341487792,3239
34.52971121224755,2619
36.99100843422559,2487
39.45162527824516,2347
41.91156194181792,2294
44.370818622535126,2122
46.82939551806646,2259
49.287292826160524,2549
51.74451074464503,2389
54.201049471426245,2317
56.65690920448981,2078
59.112090141899785,1846
61.56659248179983,1534
64.02041642241159,1298
66.4735621620365,1180
68.92602989905402,1085
71.37781983192338,1265
73.82893215918205,1330
76.27936707944684,1423
78.72912479141326,1749
81.17820549385567,1491
83.62660938562783,1181
86.07433666566146,1082
88.5213875329681,970
90.96776218663751,1161
93.41346082583925,1565
95.85848364982041,1718
98.30283085790859,1435
100.7465026495089,1406
103.18949922410604,1301
105.63182078126385,1121
108.07346752062438,1269
110.51443964190923,1264
112.95473734491827,1110
115.39436082953114,1066
117.83331029570547,1288
120.27158594347827,1584
122.7091879729652,1649
125.1461165843615,1397
127.58237197794062,1179
130.01795435405518,1163
132.4528639131364,1120
134.88710085569494,964
137.32066538231982,1000
139.75355769367923,1014
142.1857779905207,860
144.61732647366978,843
147.04820334403132,880
149.47840880258934,952
151.90794305040674,1142
154.33680628862487,1288
156.76499871846443,1368
159.19252054122433,1439
161.61937195828352,1423
164.04555317109896,1543
166.47106438120693,1766
168.89590579022217,1764
171.320077599839,1796
173.7435800118302,1903
176.16641322804742,1941
178.58857745042144,1989
181.01007288096173,1972
183.43089972175687,1962
185.85105817497413,1951
188.27054844285988,2002
190.6893707277394,2081
193.10752523201643,2088
195.5250121581745,2150
197.9418317087751,2172
200.3579840864594,2138
202.7734694939469,2145
205.18828813403627,2295
207.6024402096051,2348
210.01592592360964,2359
212.42874547908548,2253
214.84089907914665,2185
217.2523869269868,2077
219.66320922587727,2250
222.0733661791695,2241
224.48285799029293,2208
226.8916848627572,2291
229.29984700014882,2190
231.7073446061355,2184
234.11417788446204,2209
236.520347038953,2257
238.92585227351185,2227
241.33069379212054,2190
243.73487179884035,2179
246.1383864978112,2155
248.541238093252,2210
250.9434267894609,2286
253.34495279081432,2246
255.74581630176783,2241
258.1460175268563,2202
260.54555667069314,2156
262.9444339379703,2284
265.3426495334594,2103
267.7402036620107,2136
270.1370965285529,2248
272.53332833809407,2206
274.9288992957214,2216
277.32380960660055,2192
279.718059475976,2203
282.1116491091717,2191
284.5045787115897,2042
286.89684848871195,2191
289.2884586460981,2197
291.67940938938807,2256
294.0697009242996,2255
296.4593334566299,2229
298.84830719225477,2260
301.23662233712923,2259
303.6242790972866,2268
306.01127767884,2234
308.39761828798066,2277
310.78330113097934,2255
313.16832641418534,2185
315.5526943440269,2177
317.9364051270112,2082
320.3194589697242,2132
322.70185607883093,2155
325.0835966610754,2029
327.4646809232805,1959
329.8451090723478,2033
332.2248813152577,2082
334.6039978590701,1996
336.9824589109231,2031
339.36026467803447,1996
341.7374153677,1992
344.113911187295,2025
346.48975234427337,1956
348.8649390461686,1965
351.2394715005918,1935
353.61334991523415,1894
355.9865744978655,1900
358.35914545633375,1922
360.73106299856715,1950
363.10232733257146,1916
365.47293866643247,1871
367.84289720831396,1893
370.2122031664593,1979
372.5808567491905,1934
374.9488581649083,1880
377.31620762209275,1803
379.6829053293021,1844
382.0489514951745,1728
384.4143463284262,1831
386.7790900378528,1732
389.14318283232853,1797
391.50662492080653,1772
393.86941651231916,1789
396.23155781597745,1876
398.5930490409713,1783
400.9538903965696,1816
403.3140820921202,1732
405.6736243370498,1758
408.03251734086336,1737
410.3907613131465,1770
412.74835646356166,1819
415.10530300185144,1775
417.4616011378372,1735
419.81725108141893,1735
422.1722530425758,1782
424.5266072313656,1798
426.880313857925,1715
429.2333731324701,1749
431.58578526529516,1704
433.9375504667738,1751
436.2886689473588,1755
438.63914091758113,1756
440.9889665880513,1662
443.33814616945835,1701
445.68667987257015,1650
448.03456790823395,1717
450.3818104873759,1741
452.72840782100013,1696
455.07436012019105,1658
457.41966759611057,1706
459.7643304600007,1668
462.10834892318155,1712
464.4517231970525,1625
466.79445349309174,1604
469.1365400228566,1634
471.4779829979826,1629
473.81878263018564,1607
476.15893913125876,1638
478.4984527130747,1647
480.8373235875855,1661
483.17555196682144,1586
485.5131380628919,1662
487.8500820879857,1727
490.1863842543697,1731
492.52204477439034,1756
494.8570638604725,1713
497.1914417251204,1748
499.52517858091653,1807
501.85827464052306,1922
504.19073011668036,2016
506.5225452222086,2097
508.85372017000566,2524
511.18425517304956,2937
513.514150444396,4457
515.8434061971808,6987
518.1720226446176,9106
520.4999999999999,9672
522.8273384766991,9695
525.1540382881666,9423
527.480099647932,8344
529.8055227696037,6375
532.1303078668694,4357
534.454455153496,3139
536.777964843328,2523
539.1008371502907,2389
541.4230722883866,2255
543.744670471698,2160
546.0656319143858,2064
548.3859568306899,2008
550.7056454349294,1925
553.0246979415016,1940
555.3431145648834,1927
557.6608955196306,1869
559.978041020377,1858
562.2945512818363,1900
564.6104265188006,1881
566.9256669461412,1859
569.2402727788082,1827
571.5542442318302,1815
573.8675815203156,1861
576.1802848594508,1816
578.4923544645015,1886
580.8037905508126,1828
583.114593333807,1806
585.4247630289875,1803
587.7342998519354,1782
590.0432040183106,1758
592.3514757438526,1757
594.6591152443794,1786
596.9661227357875,1787
599.2724984340531,1777
601.578242555231,1774
603.8833553154542,1766
606.1878369309362,1786
608.4916876179676,1698
610.7949075929192,1779
613.0974970722403,1704
615.3994562724587,1791
617.7007854101818,1769
620.0014847020951,1706
622.3015543649641,1708
624.6009946156324,1721
626.8998056710224,1825
629.1979877481361,1805
631.4955410640538,1771
633.7924658359349,1750
636.0887622810175,1750
638.3844306166192,1754
640.6794710601358,1740
642.9738838290426,1791
645.2676691408932,1730
647.5608272133207,1758
649.853358264037,1757
652.1452625108324,1759
654.4365401715764,1739
656.7271914642178,1768
659.0172166067838,1790
661.3066158173809,1718
663.5953893141935,1764
665.8835373154867,1751
668.1710600396028,1778
670.4579577049639,1789
672.7442305300709,1761
675.0298787335033,1770
677.3149025339197,1738
679.599302150058,1767
681.8830778007342,1804
684.1662297048437,1815
686.4487580813608,1792
688.7306631493387,1741
691.0119451279091,1701
693.2926042362834,1813
695.5726406937516,1763
697.8520547196814,1680
700.1308465335215,1713
702.4090163547982,1721
704.6865644031171,1721
706.9634908981619,1685
709.2397960596965,1713
711.5154801075631,1745
713.7905432616823,1708
716.0649857420548,1651
718.3388077687592,1690
720.612009561953,1727
722.8845913418733,1685
725.1565533288352,1642
727.427895743234,1695
729.6986188055427,1714
731.9687227363137,1691
734.238207756178,1781
736.5070740858458,1730
738.7753219461066,1681
741.0429515578281,1767
743.3099631419569,1732
745.5763569195191,1725
747.8421331116193,1731
750.1072919394409,1744
752.3718336242467,1747
754.6357583873777,1732
756.8990664502545,1678
759.1617580343765,1677
761.423833361321,1765
763.6852926527457,1771
765.9461361303862,1737
768.206364016058,1704
770.4659765316536,1745
772.7249738991469,1799
774.9833563405886,1789
777.2411240781092,1776
779.4982773339183,1742
781.7548163303044,1713
784.010741289634,1746
786.2660524343538,1806
788.5207499869881,1770
790.7748341701416,1727
793.0283052064964,1815
795.2811633188143,1776
797.5334087299362,1795
799.7850416627813,1763
802.0360623403484,1799
804.2864709857143,1785
806.5362678220353,1748
808.7854530725468,1703
811.0340269605625,1708
813.2819897094754,1783
815.5293415427581,1849
817.77608268396,1780
820.0222133567116,1795
822.2677337847211,1754
824.5126441917765,1719
826.7569448017433,1741
829.0006358385675,1685
831.2437175262731,1727
833.4861900889629,1730
835.7280537508192,1784
837.9693087361026,1729
840.2099552691533,1748
842.4499935743896,1686
844.689423876309,1766
846.9282463994886,1742
849.1664613685833,1789
851.4040690083276,1770
853.6410695435349,1675
855.877463199097,1698
858.1132501999847,1809
860.3484307712487,1741
862.5830051380175,1716
864.8169735254988,1738
867.0503361589791,1743
869.2830932638243,1763
871.5152450654786,1751
873.7467917894654,1753
875.9777336613873,1775
878.2080709069252,1688
880.4378037518389,1731
882.666932421968,1792
884.8954571432301,1711
887.1233781416219,1805
889.3506956432192,1714
891.5774098741766,1717
893.803521060728,1646
896.0290294291852,1722
898.2539352059397,1674
900.4782386174619,1694
902.7019398903011,1655
904.925039251085,1734
907.147536926521,1618
909.3694331433943,1591
911.59072812857,1668
913.8114221089921,1746
916.0315153116827,1583
918.2510079637437,1644
920.4699002923547,1618
922.6881925247761,1655
924.905884888345,1600
927.1229776104793,1641
929.3394709186747,1632
931.555365040506,1668
933.7706602036275,1750
935.9853566357709,1691
938.1994545647489,1781
940.4129542184515,1843
942.6258558248488,1811
944.8381596119883,1694
947.0498658079974,1829
949.2609746410825,1814
951.4714863395287,1746
953.6814011316998,1765
955.8907192460387,1777
958.0994409110671,1803
960.3075663553858,1879
962.5150958076741,1843
964.7220294966913,1758
966.928367651274,1812
969.1341105003388,1869
971.3392582728806,1844
973.5438111979742,1837
975.747769504772,1842
977.9511334225061,1797
980.153903180487,1762
982.3560790081052,1810
984.5576611348289,1807
986.7586497902058,1740
988.9590452038618,1674
991.158847605503,1673
993.3580572249133,1648
995.5566742919558,1597
997.7546990365728,1606
999.952131688785,1608
1002.1489724786926,1555
1004.3452216364743,1571
1006.5408793923874,1469
1008.7359459767691,1482
1010.9304216200343,1552
1013.1243065526781,1435
1015.3176010052733,1415
1017.510305208472,1428
1019.7024193930064,1413
1021.8939437896848,1391
1024.0848786293977,1358
1026.2752241431122,1361
1028.4649805618747,1391
1030.6541481168115,1304
1032.842727039127,1355
1035.0307175601051,1294
1037.2181199111074,1308
1039.4049343235752,1309
1041.591161029029,1310
1043.7768002590683,1298
1045.9618522453698,1284
1048.1463172196918,1312
1050.3301954138697,1280
1052.513487059818,1340
1054.69619238953,1341
1056.8783116350783,1260
1059.0598450286152,1293
1061.2407928023704,1294
1063.4211551886528,1325
1065.6009324198508,1304
1067.780124728432,1347
1069.9587323469414,1342
1072.1367555080046,1339
1074.314194444325,1253
1076.4910493886855,1317
1078.667320573947,1253
1080.843008233051,1260
1083.0181125990161,1278
1085.1926339049414,1294
1087.3665723840027,1241
1089.5399282694575,1274
1091.7127017946405,1228
1093.8848931929647,1298
1096.0565026979243,1259
1098.2275305430899,1223
1100.3979769621128,1206
1102.567842188722,1227
1104.737126456726,1194
1106.9058300000124,1210
1109.0739530525475,1175
1111.2414958483764,1231
1113.4084586216231,1191
1115.5748416064907,1234
1117.7406450372605,1206
1119.9058691482942,1180
1122.0705141740304,1216
1124.2345803489884,1288
1126.3980679077658,1251
1128.5609770850388,1268
1130.7233081155623,1188
1132.8850612341707,1163
1135.0462366757774,1181
1137.2068346753745,1157
1139.3668554680326,1189
1141.526299288901,1224
1143.68516637321,1207
1145.8434569562655,1187
1148.001171273455,1201
1150.158309560244,1164
1152.3148720521767,1169
1154.470858984876,1197
1156.626270594044,1185
1158.7811071154629,1101
1160.9353687849912,1189
1163.089055838569,1230
1165.242168512213,1185
1167.3947070420209,1126
1169.5466716641677,1123
1171.6980626149075,1146
1173.8488801305748,1207
1175.9991244475814,1135
1178.1487958024186,1144
1180.2978944316555,1166
1182.4464205719428,1126
1184.5943744600072,1155
1186.7417563326567,1161
1188.8885664267755,1163
1191.0348049793297,1168
1193.1804722273619,1081
1195.325568407995,1160
1197.4700937584303,1150
1199.614048515948,1142
1201.7574329179074,1171
1203.900247201746,1105
1206.042491604982,1167
1208.1841663652099,1123
1210.3252717201053,1210
1212.465807907422,1096
1214.6057751649923,1159
1216.7451737307279,1160
1218.8840038426192,1149
1221.0222657387353,1180
1223.1599596572241,1145
1225.2970858363137,1163
1227.4336445143094,1166
1229.5696359295966,1195
1231.705060320639,1126
1233.8399179259786,1147
1235.9742089842384,1197
1238.107933734118,1153
1240.2410924143974,1202
1242.373685263935,1163
1244.5057125216676,1157
1246.6371744266116,1164
1248.7680712178621,1090
1250.898403134593,1131
1253.028170416058,1098
1255.1573733015875,1174
1257.2860120305932,1159
1259.4140868425648,1145
1261.54159797707,1147
1263.6685456737569,1166
1265.7949301723515,1135
1267.9207517126597,1151
1270.046010534565,1153
1272.1707068780306,1135
1274.2948409830983,1153
1276.4184130898889,1103
1278.541423438603,1131
1280.6638722695184,1115
1282.785759822993,1166
1284.9070863394636,1126
1287.0278520594447,1170
1289.1480572235314,1142
1291.2677020723963,1217
1293.3867868467923,1177
1295.5053117875495,1209
1297.623277135579,1142
1299.740683131868,1136
1301.8575300174857,1179
1303.973818033578,1184
1306.0895474213703,1125
1308.2047184221678,1194
1310.3193312773528,1181
1312.4333862283888,1171
1314.5468835168163,1120
1316.659823384255,1128
1318.7722060724045,1168
1320.8840318230418,1146
1322.9953008780249,1166
1325.1060134792888,1187
1327.2161698688478,1126
1329.3257702887959,1182
1331.4348149813054,1208
1333.5433041886276,1124
1335.6512381530933,1174
1337.7586171171101,1175
1339.8654413231675,1152
1341.9717110138317,1194
1344.0774264317488,1244
1346.1825878196432,1129
1348.2871954203192,1207
1350.3912494766587,1162
1352.4947502316231,1198
1354.5976979282532,1123
1356.7000928096686,1195
1358.8019351190665,1186
1360.9032250997243,1169
1363.0039629949988,1133
1365.1041490483235,1171
1367.2037835032133,1191
1369.3028666032606,1176
1371.401398592137,1182
1373.4993797135926,1159
1375.5968102114575,1162
1377.6936903296396,1180
1379.7900203121262,1155
1381.8858004029835,1151
1383.9810308463561,1187
1386.075711886469,1171
1388.1698437676241,1178
1390.2634267342032,1261
1392.356461030667,1207
1394.4489469015557,1225
1396.5408845914872,1192
1398.6322743451592,1171
1400.7231164073469,1234
1402.813411022907,1182
1404.903158436773,1163
1406.9923588939578,1193
1409.0810126395531,1189
1411.1691199187303,1212
1413.2566809767386,1246
1415.343696058907,1217
1417.4301654106425,1182
1419.5160892774315,1239
1421.6014679048399,1213
1423.6863015385125,1184
1425.7705904241707,1186
1427.8543348076178,1190
1429.9375349347342,1162
1432.0201910514802,1170
1434.102303403894,1174
1436.1838722380944,1247
1438.2648978002767,1178
1440.3453803367174,1129
1442.4253200937692,1122
1444.5047173178677,1170
1446.5835722555234,1185
1448.6618851533285,1192
1450.739656257952,1148
1452.8168858161434,1204
1454.8935740747306,1163
1456.96972128062,1204
1459.045327680797,1169
1461.120393522327,1171
1463.1949190523528,1186
1465.2689045180973,1206
1467.3423501668608,1135
1469.415256246024,1157
1471.4876230030463,1214
1473.559450685465,1166
1475.6307395408976,1187
1477.7014898170391,1215
1479.771701761665,1175
1481.8413756226287,1186
1483.9105116478618,1190
1485.9791100853772,1213
1488.0471711832643,1210
1490.1146951896926,1197
1492.1816823529098,1228
1494.2481329212433,1202
1496.3140471430984,1156
1498.3794252669609,1186
1500.4442675413939,1176
1502.5085742150404,1139
1504.572345536622,1176
1506.6355817549388,1197
1508.6982831188702,1203
1510.7604498773744,1177
1512.8220822794883,1174
1514.8831805743293,1193
1516.9437450110909,1209
1519.003775839048,1210
1521.0632733075522,1214
1523.1222376660367,1217
1525.1806691640113,1118
1527.2385680510652,1245
1529.2959345768668,1162
1531.3527689911643,1192
1533.4090715437833,1243
1535.4648424846291,1191
1537.5200820636855,1132
1539.5747905310159,1154
1541.6289681367616,1175
1543.6826151311434,1194
1545.7357317644614,1183
1547.7883182870937,1179
1549.8403749494987,1174
1551.8919020022113,1214
1553.9428996958477,1224
1555.9933682811015,1192
1558.0433080087469,1220
1560.0927191296346,1233
1562.1416018946961,1191
1564.1899565549415,1177
1566.2377833614592,1183
1568.2850825654164,1199
1570.3318544180606,1159
1572.3780991707158,1183
1574.423817074788,1175
1576.4690083817595,1194
1578.5136733431923,1217
1580.5578122107272,1213
1582.601425236085,1155
1584.6445126710646,1206
1586.6870747675434,1184
1588.7291117774776,1170
1590.7706239529034,1133
1592.8116115459347,1263
1594.8520748087658,1190
1596.8920139936686,1185
1598.9314293529933,1190
1600.9703211391711,1230
1603.008689604711,1186
1605.0465350022005,1169
1607.0838575843068,1148
1609.1206576037753,1218
1611.1569353134305,1217
1613.1926909661765,1155
1615.2279248149953,1191
1617.2626371129481,1237
1619.2968281131757,1195
1621.3304980688963,1191
1623.3636472334088,1204
1625.39627586009,1180
1627.428384202396,1210
1629.459972513861,1158
1631.4910410480993,1208
1633.5215900588028,1200
1635.551619799744,1250
1637.5811305247717,1200
1639.6101224878166,1193
1641.6385959428862,1204
1643.6665511440683,1170
1645.693988345528,1237
1647.7209078015112,1201
1649.7473097663405,1190
1651.7731944944203,1286
1653.7985622402307,1237
1655.823413258333,1227
1657.847747803366,1232
1659.8715661300494,1208
1661.8948684931793,1197
1663.9176551476316,1176
1665.9399263483624,1211
1667.9616823504057,1178
1669.982923408873,1190
1672.0036497789574,1262
1674.0238617159293,1209
1676.043559475138,1218
1678.0627433120121,1206
1680.081413482059,1182
1682.0995702408654,1208
1684.117213844096,1218
1686.134344547495,1174
1688.1509626068864,1234
1690.1670682781705,1170
1692.182661817329,1213
1694.1977434804217,1229
1696.2123135235875,1202
1698.226372203043,1195
1700.2399197750851,1226
1702.2529564960905,1224
1704.2654826225112,1186
1706.277498410882,1203
1708.2890041178139,1194
1710.2999999999988,1233
1712.3104863142066,1234
1714.3204633172854,1241
1716.329931266163,1162
1718.3388904178469,1126
1720.3473410294214,1172
1722.3552833580516,1238
1724.3627176609807,1187
1726.3696441955308,1227
1728.3760632191033,1213
1730.3819749891782,1180
1732.3873797633146,1211
1734.3922777991502,1180
1736.3966693544012,1204
1738.4005546868639,1230
1740.4039340544127,1161
1742.406807715001,1179
1744.4091759266616,1196
1746.4110389475054,1202
1748.4123970357223,1215
1750.413250449582,1206
1752.4135994474318,1199
1754.4134442876993,1156
1756.4127852288902,1232
1758.4116225295893,1209
1760.4099564484595,1201
1762.407787244244,1223
1764.405115175764,1173
1766.4019405019203,1181
1768.3982634816916,1167
1770.3940843741357,1163
1772.3894034383907,1230
1774.3842209336717,1203
1776.378537119274,1183
1778.372352254571,1171
1780.3656665990156,1164
1782.3584804121397,1179
1784.3507939535534,1230
1786.3426074829463,1210
1788.3339212600863,1189
1790.3247355448211,1164
1792.3150505970766,1159
1794.3048666768573,1232
1796.2941840442477,1194
1798.2830029594106,1235
1800.2713236825884,1251
1802.2591464741004,1251
1804.2464715943465,1249
1806.2332993038058,1199
1808.2196298630352,1242
1810.2054635326708,1224
1812.190800573428,1231
1814.175641246101,1227
1816.1599858115628,1200
1818.1438345307652,1214
1820.127187664738,1241
1822.1100454745924,1234
1824.092408221516,1187
1826.0742761667766,1231
1828.055649571721,1192
1830.0365286977735,1267
1832.0169138064398,1248
1833.9968051593014,1197
1835.9762030180214,1217
1837.9551076443408,1222
1839.9335193000788,1238
1841.9114382471344,1214
1843.888864747485,1211
1845.8657990631878,1254
1847.842241456378,1196
1849.8181921892697,1180
1851.7936515241558,1160
1853.7686197234098,1170
1855.7430970494815,1199
1857.7170837649014,1172
1859.6905801322787,1219
1861.6635864143004,1183
1863.6361028737338,1181
1865.608129773424,1185
1867.5796673762961,1222
1869.5507159453537,1237
1871.521275743678,1208
1873.4913470344313,1262
1875.4609300808534,1167
1877.4300251462632,1249
1879.3986324940588,1225
1881.366752387717,1223
1883.3343850907936,1229
1885.3015308669228,1195
1887.268189979819,1255
1889.2343626932739,1234
1891.2000492711595,1243
1893.1652499774254,1239
1895.1299650761011,1190
1897.0941948312952,1210
1899.0579395071945,1287
1901.0211993680641,1250
1902.98397467825,1243
1904.9462657021745,1227
1906.9080727043415,1238
1908.869395949332,1214
1910.8302357018065,1177
1912.790592226504,1191
1914.7504657882428,1198
1916.7098566519212,1192
1918.6687650825133,1200
1920.6271913450764,1205
1922.5851357047422,1158
1924.5425984267245,1203
1926.499579776314,1181
1928.4560800188833,1203
1930.4120994198802,1290
1932.367638244833,1193
1934.32269675935,1224
1936.2772752291175,1208
1938.231373919899,1206
1940.1849930975404,1241
1942.1381330279637,1228
1944.0907939771696,1211
1946.0429762112412,1215
1947.9946799963363,1199
1949.9459055986945,1193
1951.896653284633,1177
1953.8469233205478,1233
1955.7967159729142,1159
1957.7460315082863,1245
1959.6948701932974,1183
1961.6432322946594,1166
1963.5911180791632,1215
1965.5385278136787,1268
1967.4854617651545,1270
1969.4319202006182,1207
1971.377903387176,1206
1973.3234115920136,1224
1975.268445082395,1205
1977.2130041256642,1240
1979.1570889892423,1186
1981.1006999406304,1159
1983.04383724741,1247
1984.986501177238,1221
1986.928691997853,1215
1988.8704099770712,1197
1990.811655382789,1267
1992.7524284829801,1213
1994.692729545698,1165
1996.6325588390755,1268
1998.5719166313224,1204
2000.5108031907307,1178
2002.4492187856677,1235
2004.387163684583,1234
2006.3246381560011,1232
2008.2616424685298,1211
2010.1981768908527,1200
2012.1342416917332,1215
2014.069837140014,1134
2016.0049635046162,1241
2017.9396210545406,1190
2019.8738100588666,1157
2021.8075307867502,1204
2023.740783507431,1188
2025.6735684902228,1152
2027.6058860045214,1220
2029.5377363198004,1205
2031.4691197056118,1222
2033.4000364315875,1218
2035.3304867674374,1231
2037.260470982952,1240
2039.189989347998,1154
2041.1190421325232,1223
2043.047629606554,1205
2044.9757520401945,1189
2046.9034097036288,1212
2048.8306028671195,1207
2050.7573318010086,1144
2052.683596775716,1237
2054.609398061742,1237
2056.5347359296647,1184
2058.4596106501403,1217
2060.384022493906,1220
2062.3079717317764,1226
2064.231458634646,1233
2066.1544834734873,1173
2068.077046519352,1172
2069.99914804337,1208
2071.9207883167524,1208
2073.8419676107865,1188
2075.7626861968406,1188
2077.6829443463607,1213
2079.6027423308715,1205
2081.522080421977,1171
2083.440958891362,1191
2085.359378010786,1172
2087.2773380520907,1223
2089.194839287196,1234
2091.111881988101,1164
2093.0284664268825,1176
2094.9445928756973,1233
2096.86026160678,1199
2098.775472892446,1218
2100.690227005088,1230
2102.604524217178,1188
2104.5183648012676,1161
2106.431749029985,1203
2108.34467717604,1185
2110.2571495122206,1211
2112.169166311393,1227
2114.080727846503,1217
2115.9918343905747,1209
2117.902486216711,1225
2119.8126835980956,1172
2121.722426807987,1175
2123.6317161197285,1220
2125.5405518067364,1191
2127.448934142509,1232
2129.356863400624,1267
2131.264339854737,1268
2133.1713637785815,1217
2135.077935445972,1221
2136.9840551308002,1217
2138.889723107037,1234
2140.7949396487334,1272
2142.699705030018,1222
2144.6040195250994,1279
2146.507883408264,1270
2148.4112969538774,1265
2150.3142604363848,1215
2152.2167741303097,1226
2154.1188383102535,1211
2156.0204532508997,1226
2157.9216192270064,1198
2159.822336513414,1248
2161.7226053850413,1281
2163.622426116884,1242
2165.5217989840185,1215
2167.4207242616,1209
2169.319202224862,1218
2171.2172331491165,1285
2173.1148173097563,1227
2175.0119549822507,1239
2176.90864644215,1248
2178.8048919650823,1220
2180.7006918267534,1233
2182.596046302952,1217
2184.4909556695407,1256
2186.3854202024645,1257
2188.279440177746,1235
2190.173015871487,1264
2192.066147559868,1243
2193.958835519149,1303
2195.851080025667,1263
2197.7428813558417,1283
2199.6342397861667,1279
2201.5251555932186,1219
2203.415629053651,1264
2205.3056604441986,1261
2207.19525004167,1283
2209.084398122958,1323
2210.9731049650327,1241
2212.861370844941,1317
2214.749196039812,1295
2216.636580826851,1285
2218.523525483344,1264
2220.410030286655,1292
2222.296095514226,1199
2224.1817214435805,1197
2226.066908352319,1339
2227.951656518121,1231
2229.835966218746,1265
2231.71983773203,1281
2233.6032713358913,1287
2235.486267308324,1247
2237.3688259274036,1260
2239.2509474712824,1263
2241.132632218193,1255
2243.013880446447,1283
2244.8946924344323,1298
2246.7750684606203,1255
2248.6550088035574,1249
2250.534513741871,1270
2252.413583554265,1229
2254.292218519526,1264
2256.170418916517,1225
2258.0481850241786,1240
2259.925517121534,1247
2261.8024154876825,1299
2263.678880401803,1253
2265.5549121431536,1281
2267.430510991071,1296
2269.305677224971,1246
2271.180411124348,1252
2273.0547129687766,1234
2274.9285830379076,1210
2276.8020216114737,1268
2278.6750289692845,1245
2280.5476053912294,1199
2282.4197511572766,1269
2284.2914665474727,1252
2286.162751841943,1270
2288.0336073208937,1318
2289.904033264608,1347
2291.774029953448,1242
2293.6435976678554,1285
2295.5127366883517,1196
2297.381447295534,1181
2299.2497297700825,1231
2301.1175843927526,1185
2302.9850114443825,1160
2304.852011205885,1145
2306.7185839582553,1152
2308.5847299825664,1132
2310.4504495599676,1150
2312.3157429716925,1105
2314.1806104990483,1153
2316.0450524234247,1169
2317.9090690262888,1163
2319.772660589186,1145
2321.635827393742,1126
2323.498569721661,1114
2325.3608878547248,1117
2327.2227820747967,1157
2329.0842526638157,1135
2330.945299903803,1123
2332.805924076857,1146
2334.6661254651535,1116
2336.525904350951,1149
2338.3852610165827,1131
2340.244195744464,1092
2342.102708817088,1128
2343.9608005170253,1147
2345.8184711269287,1112
2347.675720929526,1123
2349.532550207628,1106
2351.38895924412,1147
2353.24494832197,1117
2355.100517724223,1151
2356.955667734004,1106
2358.810398634514,1117
2360.664710709037,1114
2362.5186042409337,1107
2364.3720795136437,1131
2366.225136810686,1093
2368.0777764156583,1110
2369.929998612237,1130
2371.7818036841777,1151
2373.633191915315,1124
2375.484163589562,1116
2377.3347189909114,1128
2379.184858403434,1139
2381.03458211128,1164
2382.8838903986775,1180
2384.732783549936,1121
2386.5812618494406,1123
2388.4293255816588,1098
2390.2769750311327,1142
2392.1242104824883,1167
2393.971032220427,1151
2395.8174405297295,1086
2397.6634356952563,1099
2399.509018001947,1128
2401.3541877348193,1100
2403.1989451789705,1127
2405.043290619576,1124
2406.8872243418905,1077
2408.730746631247,1085
2410.5738577730594,1101
2412.4165580528183,1134
2414.258847756095,1091
2416.100727168537,1073
2417.9421965758734,1082
2419.783256263912,1122
2421.623906518538,1153
2423.4641476257157,1116
2425.303979871491,1133
2427.143403541984,1127
2428.9824189233977,1132
2430.821026302012,1096
2432.6592259641866,1150
2434.497018196361,1081
2436.33440328505,1118
2438.171381516851,1113
2440.00795317844,1152
2441.844118556569,1118
2443.6798779380724,1137
2445.5152316098606,1086
2447.3501798589255,1089
2449.1847229723357,1138
2451.0188612372403,1123
2452.8525949408663,1117
2454.6859243705203,1094
2456.518849813587,1177
2458.3513715575314,1083
2460.183489889895,1125
2462.015205098301,1110
2463.8465174704493,1141
2465.67742729412,1153
2467.5079348571717,1138
2469.338040447542,1157
2471.1677443532476,1081
2472.9970468623833,1109
2474.825948263123,1095
2476.6544488437207,1107
2478.482548892508,1129
2480.310248697896,1126
2482.137548548374,1104
2483.9644487325118,1106
2485.790949538956,1091
2487.617051256433,1136
2489.44275417375,1097
2491.26805857979,1102
2493.0929647635157,1079
2494.917473013971,1117
2496.741583620276,1109
2498.5652968716304,1090
2500.3886130573137,1153
2502.2115324666834,1121
2504.0340553891765,1117
2505.856182114308,1130
2507.6779129316733,1035
2509.499248130945,1126
2511.3201880018764,1094
2513.140732834298,1130
2514.9608829181198,1082
2516.780638543331,1101
2518.6,1084
2520.418967578273,1089
2522.237541568376,1158
2524.0557222606144,1146
2525.8735099453706,1133
2527.6909049131086,1138
2529.507907454368,1110
2531.32451785977,1131
2533.140736420014,1095
2534.9565634258774,1070
2536.771999168218,1128
2538.5870439379714,1121
2540.4016980261526,1095
2542.2159617238544,1108
2544.02983532225,1135
2545.8433191125914,1146
2547.656413386209,1174
2549.4691184345115,1130
2551.2814345489874,1119
2553.093362021204,1110
2554.904901142808,1110
2556.716052205523,1112
2558.526815501153,1101
2560.3371913215824,1113
2562.147179958771,1088
2563.956781704761,1089
2565.7659968516705,1115
2567.5748256916986,1136
2569.3832685171224,1142
2571.1913256202984,1137
2572.9989972936614,1114
2574.806283829725,1125
2576.613185521084,1136
2578.4197026604074,1034
2580.2258355404483,1144
2582.031584454035,1109
2583.836949694077,1136
2585.6419315535613,1138
2587.4465303255533,1092
2589.2507463032002,1096
2591.0545797797245,1093
2592.8580310484303,1149
2594.6611004026995,1117
2596.463788135992,1164
2598.266094541849,1101
2600.0680199138874,1083
2601.869564545807,1093
2603.670728731383,1097
2605.4715127644704,1140
2607.2719169390048,1095
2609.071941548998,1124
2610.8715868885433,1031
2612.670853251811,1049
2614.469740933052,1151
2616.268250226594,1101
2618.0663814268455,1134
2619.864134828292,1069
2621.6615107255006,1185
2623.458509413115,1091
2625.2551311858597,1100
2627.0513763385347,1105
2628.8472451660223,1141
2630.6427379632833,1083
2632.4378550253564,1132
2634.232596647359,1135
2636.026963124488,1108
2637.8209547520187,1121
2639.6145718253065,1100
2641.407814639785,1127
2643.200683490966,1136
2644.9931786744414,1143
2646.7853004858807,1123
2648.577049221034,1155
2650.3684251757277,1147
2652.1594286458712,1121
2653.9500599274484,1101
2655.740319316525,1140
2657.5302071092437,1169
2659.3197236018286,1084
2661.10886909058,1131
2662.8976438718782,1104
2664.686048242183,1115
2666.4740824980327,1128
2668.2617469360443,1113
2670.0490418529134,1142
2671.8359675454153,1107
2673.622524310403,1147
2675.408712444811,1132
2677.1945322456495,1107
2678.979984010009,1097
2680.76506803506,1141
2682.5497846180497,1116
2684.334134056306,1043
2686.1181166472343,1080
2687.9017326883213,1136
2689.6849824771293,1120
2691.4678663113013,1110
2693.2503844885596,1096
2695.032537306705,1177
2696.8143250636167,1128
2698.5957480572542,1107
2700.3768065856534,1066
2702.1575009469316,1112
2703.937831439283,1140
2705.717798360982,1092
2707.4974020103837,1144
2709.276642685917,1107
2711.055520686095,1078
2712.834036309506,1076
2714.612189854819,1126
2716.389981620782,1149
2718.1674119062204,1116
2719.944481010041,1095
2721.721189231226,1135
2723.4975368688415,1106
2725.273524222027,1135
2727.0491515900053,1106
2728.824419272075,1111
2730.5993275676146,1138
2732.3738767760838,1109
2734.148067197016,1086
2735.921899130031,1094
2737.6953728748194,1065
2739.468488731156,1125
2741.2412469988926,1104
2743.0136479779617,1073
2744.785691968372,1038
2746.5573792702116,1088
2748.3287101836504,1096
2750.099685008934,1135
2751.870304046388,1085
2753.640567596418,1121
2755.4104759595057,1145
2757.1800294362156,1130
2758.949228327187,1155
2760.7180729331412,1112
2762.486563554877,1100
2764.254700493272,1112
2766.022484049284,1170
2767.789914523947,1114
2769.5569922183786,1082
2771.3237174337705,1105
2773.090090471394,1093
2774.8561116326036,1127
2776.6217812188274,1080
2778.3870995315756,1129
2780.1520668724356,1074
2781.9166835430747,1084
2783.6809498452394,1142
2785.444866080754,1095
2787.2084325515225,1100
2788.971649559527,1117
2790.73451740683,1109
2792.4970363955713,1143
2794.2592068279705,1143
2796.0210290063264,1107
2797.7825032330147,1155
2799.543629810493,1101
2801.304409041296,1129
2803.0648412280366,1129
2804.8249266734088,1191
2806.5846656801846,1138
2808.344058551212,1127
2810.1031055894246,1154
2811.8618070978273,1158
2813.6201633795085,1153
2815.378174737636,1106
2817.1358414754536,1116
2818.893163896285,1135
2820.6501423035334,1175
2822.4067770006814,1084
2824.1630682912883,1110
2825.9190164789957,1114
2827.6746218675207,1123
2829.429884760661,1134
2831.184805462294,1162
2832.9393842763743,1124
2834.693621506936,1092
2836.4475174580916,1154
2838.201072434034,1129
2839.954286739034,1134
2841.707160677441,1128
2843.459694553685,1146
2845.2118886722724,1118
2846.96374333779,1121
2848.7152588549034,1191
2850.4664355283567,1145
2852.217273662973,1120
2853.9677735636546,1183
2855.7179355353833,1129
2857.4677598832186,1154
2859.217246912299,1110
2860.9663969278427,1114
2862.715210235146,1161
2864.4636871395846,1099
2866.211827946614,1118
2867.9596329617652,1117
2869.7071024906536,1105
2871.4542368389684,1110
2873.20103631248,1136
2874.947501217038,1122
2876.6936318585695,1101
2878.4394285430812,1098
2880.1848915766604,1123
2881.9300212654707,1105
2883.6748179157553,1117
2885.4192818338374,1102
2887.1634133261173,1143
2888.907212699077,1110
2890.6506802592744,1123
2892.393816313348,1139
2894.1366211680142,1148
2895.8790951300693,1151
2897.621238506388,1125
2899.363051603925,1144
2901.1045347297118,1154
2902.8456881908596,1132
2904.58651229456,1115
2906.327007348081,1143
2908.067173658772,1116
2909.8070115340597,1159
2911.5465212814497,1148
2913.285703208527,1116
2915.0245576229563,1140
2916.7630848324807,1157
2918.5012851449196,1105
2920.2391588681758,1118
2921.976706310227,1192
2923.7139277791334,1101
2925.4508235830313,1147
2927.187394030137,1144
2928.923639428745,1089
2930.6595600872306,1114
2932.395156314046,1141
2934.1304284177218,1122
2935.8653767068713,1109
2937.6000014901815,1121
2939.3343030764227,1154
2941.068281774442,1131
2942.8019378931644,1081
2944.5352717415976,1153
2946.2682836288236,1176
2948.0009738640065,1157
2949.7333427563885,1104
2951.465390615289,1107
2953.1971177501086,1168
2954.9285244703265,1133
2956.6596110855,1127
2958.3903779052657,1103
2960.1208252393385,1119
2961.8509533975125,1098
2963.5807626896617,1156
2965.3102534257378,1105
2967.0394259157715,1173
2968.768280469873,1107
2970.496817398232,1129
2972.2250370111146,1134
2973.952939618869,1116
2975.6805255319196,1145
2977.4077950607707,1143
2979.134748516006,1192
2980.861386208289,1139
2982.587708448359,1125
2984.313715547037,1135
2986.039407815222,1072
2987.764785563891,1120
2989.489849104102,1149
2991.2145987469908,1144
2992.9390348037705,1103
2994.6631575857346,1179
2996.3869674042576,1124
2998.1104645707887,1098
2999.83364939686,1162
3001.5565221940783,1109
3003.2790832741334,1079
3005.0013329487924,1159
3006.7232715298996,1156
3008.4448993293804,1134
3010.166216659239,1090
3011.887223831558,1086
3013.607921158498,1144
3015.3283089522993,1127
3017.0483875252826,1114
3018.7681571898443,1186
3020.4876182584626,1121
3022.2067710436927,1097
3023.9256158581707,1085
3025.644153014609,1112
3027.362382825801,1142
3029.0803056046193,1139
3030.797921664012,1103
3032.5152313170106,1145
3034.2322348767225,1119
3035.9489326563353,1095
3037.665324969115,1099
3039.3814121284063,1127
3041.097194447633,1103
3042.812672240299,1117
3044.5278458199855,1057
3046.2427155003525,1143
3047.9572815951406,1123
3049.671544418167,1143
3051.38550428333,1085
3053.0991615046073,1143
3054.812516396051,1125
3056.5255692717974,1135
3058.2383204460575,1103
3059.9507702331257,1139
3061.662918947372,1114
3063.3747669032446,1130
3065.0863144152736,1135
3066.7975617980674,1108
3068.508509366309,1105
3070.219157434767,1110
3071.9295063182844,1135
3073.639556331785,1104
3075.3493077902704,1127
3077.058761008821,1154
3078.7679163025964,1085
3080.476773986837,1098
3082.1853343768594,1112
3083.89359778806,1145
3085.6015645359153,1142
3087.3092349359786,1142
3089.016609303884,1122
3090.7236879553434,1154
3092.4304712061476,1121
3094.136959372166,1113
3095.843152769349,1096
3097.5490517137237,1084
3099.2546565213966,1083
3100.959967508554,1135
3102.66498499146,1122
3104.3697092864577,1109
3106.0741407099695,1095
3107.778279578498,1121
3109.482126208622,1120
3111.1856809170004,1113
3112.8889440203716,1120
3114.5919158355528,1068
3116.294596679439,1119
3117.996986869006,1087
3119.6990867213062,1117
3121.4008965534726,1133
3123.102416682717,1065
3124.803647426329,1120
3126.5045891016784,1201
3128.205242026213,1185
3129.90560651746,1147
3131.605682893025,1127
3133.3054714705922,1109
3135.0049725679282,1167
3136.7041865028714,1128
3138.4031135933465,1128
3140.101754157353,1131
3141.800108512971,1149
3143.498176978357,1124
3145.1959598717494,1159
3146.8934575114636,1085
3148.5906702158954,1107
3150.2875983035183,1126
3151.9842420928853,1089
3153.680601902627,1073
3155.376678051456,1111
3157.07247085816,1091
3158.767980641609,1149
3160.463207720748,1111
3162.158152414606,1127
3163.8528150422862,1123
3165.5471959229726,1122
3167.2412953759303,1134
3168.9351137204976,1117
3170.628651276098,1104
3172.3219083622307,1116
3174.014885298474,1096
3175.707582404485,1137
3177.4000000000005,1148
3179.092138404835,1136
3180.7839979388846,1138
3182.47557892212,1151
3184.166881674594,1137
3185.8579065164386,1110
3187.5486537678626,1123
3189.2391237491547,1121
3190.9293167806827,1125
3192.6192331828934,1156
3194.3088732763117,1123
3195.998237381542,1143
3197.687325819268,1097
3199.376138910251,1051
3201.064676975334,1101
3202.7529403354347,1115
3204.4409293115523,1117
3206.1286442247647,1097
3207.816085396229,1113
3209.5032531471825,1113
3211.190147798936,1073
3212.8767696728846,1099
3214.5631190905015,1098
3216.2491963733373,1104
3217.9350018430214,1102
3219.6205358212637,1088
3221.305798629851,1115
3222.990790590651,1097
3224.6755120256103,1076
3226.359963256751,1053
3228.0441446061795,1144
3229.7280563960758,1120
3231.411698948703,1094
3233.0950725863995,1146
3234.778177631587,1065
3236.461014406761,1086
3238.1435832345005,1143
3239.8258844374595,1090
3241.507918338374,1122
3243.1896852600576,1100
3244.8711855254023,1080
3246.552419457381,1107
3248.233387379042,1088
3249.914089613516,1095
3251.59452648401,1154
3253.274698313813,1111
3254.95460542629,1106
3256.6342481448855,1070
3258.313626793125,1110
3259.9927416946084,1094
3261.6715931730196,1081
3263.3501815521176,1106
3265.0285071557437,1087
3266.706570307815,1100
3268.3843713323286,1100
3270.0619105533615,1097
3271.739188295068,1084
3273.4162048816834,1083
3275.0929606375184,1086
3276.769455886966,1092
3278.445690954498,1149
3280.1216661646613,1135
3281.797381842087,1174
3283.4728383114807,1142
3285.1480358976296,1085
3286.8229749253996,1080
3288.4976557197333,1094
3290.172078605655,1108
3291.846243908266,1127
3293.5201519527463,1145
3295.193803064357,1087
3296.8671975684374,1094
3298.5403357904024,1089
3300.21321805575,1059
3301.8858446900567,1102
3303.558216018975,1089
3305.23033236824,1096
3306.9021940636603,1094
3308.57380143113,1142
3310.2451547966184,1096
3311.916254486174,1154
3313.5871008259246,1150
3315.2576941420766,1118
3316.9280347609147,1105
3318.5981230088046,1096
3320.2679592121895,1051
3321.9375436975924,1092
3323.606876791612,1088
3325.27595882093,1132
3326.944790112305,1099
3328.6133709925753,1123
3330.2817017886573,1067
3331.949782827547,1093
3333.617614436319,1132
3335.2851969421245,1091
3336.952530672199,1116
3338.619615953853,1088
3340.286453114475,1079
3341.9530424815357,1093
3343.619384382583,1134
3345.2854791452437,1141
3346.951327097224,1074
3348.6169285663073,1131
3350.2822838803577,1151
3351.947393367319,1039
3353.61225735521,1084
3355.2768761721345,1098
3356.9412501462693,1164
3358.605379605873,1094
3360.2692648792827,1152
3361.9329062949146,1081
3363.596304181263,1092
