CollectionTime,7/11/2024 11:56:49 AM
ExposureUsed,3
CalibratedSpectrum
-962.7078968117929,65036
-959.9714848408522,65036
-957.2358232597828,65036
-954.5009119013725,65036
-951.7667505983302,65036
-949.0333391832855,65036
-946.3006774887896,65036
-943.5687653473143,65036
-940.837602591253,65036
-938.1071890529199,65036
-935.3775245645503,65036
-932.6486089583007,65036
-929.9204420662485,65036
-927.1930237203925,65036
-924.4663537526524,65036
-921.7404319948689,65036
-919.0152582788041,65036
-916.2908324361409,65036
-913.5671542984834,65036
-910.8442236973568,65036
-908.1220404642074,65036
-905.4006044304027,65036
-902.679915427231,65036
-899.959973285902,65036
-897.2407778375464,65036
-894.5223289132158,65036
-891.8046263438832,65036
-889.0876699604426,65036
-886.3714595937089,65036
-883.6559950744183,65036
-880.9412762332282,65036
-878.2273029007168,65036
-875.5140749073835,65036
-872.8015920836489,65036
-870.0898542598545,65036
-867.3788612662631,65036
-864.6686129330585,65036
-861.9591090903457,65036
-859.2503495681506,65036
-856.5423341964203,65036
-853.8350628050229,65036
-851.1285352237478,65036
-848.4227512823054,65036
-845.7177108103272,65036
-843.0134136373656,65036
-840.3098595928943,65036
-837.6070485063082,65036
-834.9049802069229,65036
-832.2036545239757,65036
-829.5030712866244,65036
-826.8032303239481,65036
-824.1041314649472,65036
-821.4057745385428,65036
-818.7081593735775,65036
-816.0112857988148,65036
-813.3151536429393,65036
-810.6197627345566,65036
-807.9251129021936,65036
-805.2312039742981,65036
-802.5380357792392,65036
-799.8456081453069,65036
-797.1539209007124,65036
-794.462973873588,65036
-791.772766891987,65036
-789.083299783884,65036
-786.3945723771743,65036
-783.7065844996748,65036
-781.0193359791231,65036
-778.3328266431781,65036
-775.6470563194197,65036
-772.9620248353489,65036
-770.2777320183878,65036
-767.5941776958798,65036
-764.9113616950891,65036
-762.2292838432011,65036
-759.5479439673222,65036
-756.8673418944801,65036
-754.1874774516235,65036
-751.5083504656222,65036
-748.8299607632671,65036
-746.15230817127,65036
-743.475392516264,65036
-740.7992136248035,65036
-738.1237713233636,65036
-735.4490654383407,65036
-732.7750957960521,65036
-730.1018622227365,65036
-727.4293645445534,65036
-724.7576025875837,65036
-722.0865761778291,65036
-719.4162851412126,65036
-716.7467293035781,65036
-714.0779084906909,65036
-711.409822528237,65036
-708.7424712418238,65036
-706.0758544569796,65036
-703.4099719991541,65036
-700.7448236937178,65036
-698.0804093659622,65036
-695.4167288411002,65036
-692.7537819442656,65036
-690.0915685005134,65036
-687.4300883348199,65036
-684.7693412720819,65036
-682.1093271371178,65036
-679.4500457546669,65036
-676.7914969493897,65036
-674.1336805458676,65036
-671.4765963686034,65036
-668.8202442420206,65036
-666.1646239904642,65036
-663.5097354382001,65036
-660.8555784094151,65036
-658.2021527282176,65036
-655.5494582186366,65036
-652.8974947046223,65036
-650.2462620100463,65036
-647.5957599587009,65036
-644.9459883742998,65036
-642.2969470804776,65036
-639.6486359007902,65036
-637.0010546587141,65036
-634.3542031776476,65036
-631.7080812809096,65036
-629.0626887917401,65036
-626.4180255333008,65036
-623.7740913286734,65036
-621.1308860008619,65036
-618.4884093727904,65036
-615.8466612673046,65036
-613.2056415071715,65036
-610.5653499150785,65036
-607.9257863136347,65036
-605.28695052537,65036
-602.6488423727357,65036
-600.0114616781036,65036
-597.3748082637674,65036
-594.7388819519412,65036
-592.1036825647604,65036
-589.4692099242818,65036
-586.8354638524829,65036
-584.2024441712624,65036
-581.5701507024403,65036
-578.9385832677575,65036
-576.3077416888759,65036
-573.6776257873787,65036
-571.0482353847704,65036
-568.4195703024757,65036
-565.7916303618415,65036
-563.164415384135,65036
-560.5379251905453,65036
-557.9121596021815,65036
-555.2871184400748,65036
-552.6628015251767,65036
-550.0392086783606,65036
-547.4163397204204,65036
-544.794194472071,65036
-542.1727727539491,65036
-539.5520743866118,65036
-536.9320991905377,65036
-534.3128469861261,65036
-531.6943175936979,65036
-529.0765108334947,65036
-526.4594265256793,65036
-523.8430644903358,65036
-521.2274245474689,65036
-518.612506517005,65036
-515.9983102187913,65036
-513.3848354725959,65036
-510.77208209810846,65036
-508.16004991493924,65036
-505.5487387426199,65036
-502.9381484006032,65036
-500.3282787082628,65036
-497.71912948489364,65036
-495.1107005497117,65036
-492.5029917218539,65036
-489.8960028203786,65036
-487.28973366426493,65036
-484.68418407241325,65036
-482.07935386364494,65036
-479.47524285670266,65036
-476.87185087025,65036
-474.2691777228715,65036
-471.66722323307334,65036
-469.0659872192821,65036
-466.4654694998459,65036
-463.86566989303384,65036
-461.26658821703614,65036
-458.66822428996414,65036
-456.07057792985,65036
-453.4736489546475,65036
-450.877437182231,65036
-448.28194243039627,65036
-445.68716451686,65036
-443.09310325926003,65036
-440.49975847515555,65036
-437.9071299820263,65036
-435.31521759727354,65036
-432.72402113821954,65036
-430.13354042210767,65036
-427.5437752661022,65036
-424.95472548728867,65036
-422.36639090267386,65036
-419.7787713291855,65036
-417.1918665836721,65036
-414.60567648290385,65036
-412.0202008435715,65036
-409.4354394822874,65036
-406.8513922155845,65036
-404.26805885991723,65036
-401.685439231661,65036
-399.103533147112,65036
-396.522340422488,65036
-393.9418608739278,65036
-391.3620943174908,65036
-388.7830405691583,65036
-386.2046994448317,65036
-383.6270707603344,65036
-381.05015433141045,65036
-378.473949973725,65036
-375.8984575028645,65036
-373.32367673433623,65036
-370.74960748356875,65036
-368.1762495659117,65036
-365.60360279663576,65036
-363.03166699093265,65036
-360.4604419639154,65036
-357.8899275306178,43808
-355.32012350599507,18216
-352.7510297049233,12056
-350.1826459421999,9014
-347.61497203254316,7525
-345.04800779059235,6528
-342.4817530309082,5445
-339.91620756797226,5049
-337.35137121618743,4641
-334.7872437898774,4420
-332.22382510328725,4381
-329.66111497058273,4147
-327.09911320585127,4134
-324.53781962310075,4213
-321.9772340362607,4005
-319.4173562591816,3761
-316.8581861056348,3720
-314.2997233893127,3887
-311.7419679238294,4069
-309.1849195227194,4171
-306.62857799943856,4382
-304.0729431673641,4136
-301.51801483979375,4136
-298.963792829947,3947
-296.41027695096386,3806
-293.85746701590574,3660
-291.3053628377552,3623
-288.7539642294155,3616
-286.2032710037115,3500
-283.65328297338897,3636
-281.1039999511146,3764
-278.5554217494762,3904
-276.007548180983,4044
-273.4603790580651,3829
-270.9139141930734,3611
-268.3681533982807,3489
-265.8230964858798,3650
-263.27874326798565,3632
-260.7350935566336,3787
-258.1921471637804,3802
-255.6499039013039,3592
-253.10836358100266,3397
-250.56752601459698,3437
-248.02739101372765,3448
-245.48795838995704,3631
-242.94922795476816,3924
-240.41119951956557,3557
-237.8738728956746,3451
-235.33724789434166,3382
-232.80132432673452,3924
-230.2661020039418,4139
-227.73158073697357,4076
-225.19776033676033,3707
-222.66464061415422,3846
-220.1322213799284,3796
-217.60050244477725,3544
-215.06948361931552,3593
-212.53916471408013,3579
-210.00954553952818,3670
-207.48062590603843,3894
-204.9524056239104,4094
-202.4248845033651,4537
-199.8980623545441,4877
-197.37193898751036,4601
-194.84651421224817,4241
-192.32178783866232,4218
-189.79775967657952,4232
-187.27442953574644,3813
-184.7517972258321,3563
-182.2298625564256,3557
-179.7086253370378,3946
-177.18808537710026,4039
-174.66824248596583,4173
-172.14909647290835,4580
-169.6306471471229,4720
-167.11289431772548,4265
-164.59583779375328,4353
-162.07947738416453,4845
-159.5638128978386,5019
-157.04884414357605,4272
-154.53457093009854,3960
-152.02099306604828,4050
-149.50811035998936,4150
-146.99592262040665,4391
-144.48442965570587,4730
-141.97363127421409,4384
-139.46352728417958,4349
-136.95411749377126,4551
-134.44540171107985,4485
-131.93737974411636,4101
-129.43005140081357,4775
-126.92341648902493,5653
-124.41747481652521,5926
-121.91222619101006,5970
-119.40767042009657,5685
-116.90380731132257,5553
-114.40063667214702,5826
-111.8981583099503,5721
-109.3963720320337,5260
-106.89527764561933,5375
-104.39487495785067,5521
-101.89516377579241,4554
-99.39614390642998,4575
-96.89781515667039,4882
-94.40017733334128,5582
-91.90323024319173,5597
-89.40697369289148,5717
-86.91140748903172,5998
-84.41653143812482,6057
-81.92234534660395,5656
-79.42884902082358,5641
-76.93604226705907,5678
-74.4439248915071,6615
-71.95249670028534,7718
-69.46175749943245,9092
-66.97170709490854,9627
-64.48234529259423,9217
-61.99367189829195,8922
-59.50568671772464,11083
-57.01838955653636,12373
-54.53178022029283,17067
-52.045858514480074,24457
-49.560624244506016,29249
-47.07607721569923,46944
-44.59221723330904,65036
-42.10904410250669,65036
-39.62655762838392,65036
-37.14475761595372,65036
-34.66364387015028,65036
-32.18321619582866,65036
-29.70347439776515,65036
-27.224418280657005,65036
-24.74604764912317,65036
-22.26836230770266,65036
-19.7913620608565,65036
-17.315046712966478,65036
-14.83941606833514,65036
-12.36446993118659,65036
-9.89020810566592,65036
-7.416630395839093,65036
-4.94373660569363,65036
-2.471526539137585,65036
-6.821210263296962E-13,65036
2.47084320796705,65036
4.941003281093458,65036
7.410480415786196,65036
9.879274808531363,65036
12.347386655893956,65036
14.814816154518212,65036
17.28156350112681,65036
19.74762889252179,65036
22.21301252558385,65036
24.67771459727237,65036
27.141735304626195,35701
29.605074844762612,20859
32.06773341487792,15965
34.52971121224755,10636
36.99100843422559,8719
39.45162527824516,9723
41.91156194181792,10187
44.370818622535126,10028
46.82939551806646,8377
49.287292826160524,7345
51.74451074464503,7457
54.201049471426245,7011
56.65690920448981,6577
59.112090141899785,6973
61.56659248179983,7080
64.02041642241159,6074
66.4735621620365,5778
68.92602989905402,5704
71.37781983192338,6238
73.82893215918205,6844
76.27936707944684,6788
78.72912479141326,6792
81.17820549385567,7434
83.62660938562783,6365
86.07433666566146,5503
88.5213875329681,4784
90.96776218663751,5004
93.41346082583925,5121
95.85848364982041,5760
98.30283085790859,6149
100.7465026495089,6736
103.18949922410604,6309
105.63182078126385,5378
108.07346752062438,5417
110.51443964190923,5901
112.95473734491827,6663
115.39436082953114,7352
117.83331029570547,8140
120.27158594347827,7780
122.7091879729652,7257
125.1461165843615,7259
127.58237197794062,8154
130.01795435405518,8896
132.4528639131364,9428
134.88710085569494,10144
137.32066538231982,10123
139.75355769367923,10879
142.1857779905207,12774
144.61732647366978,15720
147.04820334403132,20173
149.47840880258934,27917
151.90794305040674,38749
154.33680628862487,53978
156.76499871846443,65036
159.19252054122433,65036
161.61937195828352,65036
164.04555317109896,65036
166.47106438120693,65036
168.89590579022217,65036
171.320077599839,65036
173.7435800118302,65036
176.16641322804742,65036
178.58857745042144,65036
181.01007288096173,65036
183.43089972175687,65036
185.85105817497413,65036
188.27054844285988,65036
190.6893707277394,65036
193.10752523201643,65036
195.5250121581745,65036
197.9418317087751,65036
200.3579840864594,65036
202.7734694939469,65036
205.18828813403627,65036
207.6024402096051,65036
210.01592592360964,65036
212.42874547908548,65036
214.84089907914665,65036
217.2523869269868,65036
219.66320922587727,65036
222.0733661791695,65036
224.48285799029293,65036
226.8916848627572,65036
229.29984700014882,65036
231.7073446061355,65036
234.11417788446204,65036
236.520347038953,65036
238.92585227351185,65036
241.33069379212054,65036
243.73487179884035,65036
246.1383864978112,65036
248.541238093252,65036
250.9434267894609,65036
253.34495279081432,65036
255.74581630176783,65036
258.1460175268563,65036
260.54555667069314,65036
262.9444339379703,65036
265.3426495334594,65036
267.7402036620107,65036
270.1370965285529,65036
272.53332833809407,65036
274.9288992957214,65036
277.32380960660055,65036
279.718059475976,65036
282.1116491091717,65036
284.5045787115897,65036
286.89684848871195,65036
289.2884586460981,65036
291.67940938938807,65036
294.0697009242996,65036
296.4593334566299,65036
298.84830719225477,65036
301.23662233712923,65036
303.6242790972866,65036
306.01127767884,65036
308.39761828798066,65036
310.78330113097934,65036
313.16832641418534,65036
315.5526943440269,65036
317.9364051270112,65036
320.3194589697242,65036
322.70185607883093,65036
325.0835966610754,65036
327.4646809232805,65036
329.8451090723478,65036
332.2248813152577,65036
334.6039978590701,65036
336.9824589109231,65036
339.36026467803447,65036
341.7374153677,65036
344.113911187295,65036
346.48975234427337,65036
348.8649390461686,65036
351.2394715005918,65036
353.61334991523415,65036
355.9865744978655,65036
358.35914545633375,65036
360.73106299856715,65036
363.10232733257146,65036
365.47293866643247,65036
367.84289720831396,65036
370.2122031664593,65036
372.5808567491905,65036
374.9488581649083,65036
377.31620762209275,65036
379.6829053293021,65036
382.0489514951745,65036
384.4143463284262,65036
386.7790900378528,65036
389.14318283232853,65036
391.50662492080653,65036
393.86941651231916,65036
396.23155781597745,65036
398.5930490409713,65036
400.9538903965696,65036
403.3140820921202,65036
405.6736243370498,65036
408.03251734086336,65036
410.3907613131465,65036
412.74835646356166,65036
415.10530300185144,65036
417.4616011378372,65036
419.81725108141893,65036
422.1722530425758,65036
424.5266072313656,65036
426.880313857925,65036
429.2333731324701,65036
431.58578526529516,65036
433.9375504667738,65036
436.2886689473588,65036
438.63914091758113,65036
440.9889665880513,65036
443.33814616945835,65036
445.68667987257015,65036
448.03456790823395,65036
450.3818104873759,65036
452.72840782100013,65036
455.07436012019105,65036
457.41966759611057,65036
459.7643304600007,65036
462.10834892318155,65036
464.4517231970525,65036
466.79445349309174,65036
469.1365400228566,65036
471.4779829979826,65036
473.81878263018564,65036
476.15893913125876,65036
478.4984527130747,65036
480.8373235875855,65036
483.17555196682144,65036
485.5131380628919,65036
487.8500820879857,65036
490.1863842543697,65036
492.52204477439034,65036
494.8570638604725,65036
497.1914417251204,65036
499.52517858091653,65036
501.85827464052306,65036
504.19073011668036,65036
506.5225452222086,65036
508.85372017000566,65036
511.18425517304956,65036
513.514150444396,65036
515.8434061971808,65036
518.1720226446176,65036
520.4999999999999,65036
522.8273384766991,65036
525.1540382881666,65036
527.480099647932,65036
529.8055227696037,65036
532.1303078668694,65036
534.454455153496,65036
536.777964843328,65036
539.1008371502907,65036
541.4230722883866,65036
543.744670471698,65036
546.0656319143858,65036
548.3859568306899,65036
550.7056454349294,65036
553.0246979415016,65036
555.3431145648834,65036
557.6608955196306,65036
559.978041020377,65036
562.2945512818363,65036
564.6104265188006,65036
566.9256669461412,65036
569.2402727788082,65036
571.5542442318302,65036
573.8675815203156,65036
576.1802848594508,65036
578.4923544645015,65036
580.8037905508126,65036
583.114593333807,65036
585.4247630289875,65036
587.7342998519354,65036
590.0432040183106,65036
592.3514757438526,65036
594.6591152443794,65036
596.9661227357875,65036
599.2724984340531,65036
601.578242555231,65036
603.8833553154542,65036
606.1878369309362,65036
608.4916876179676,65036
610.7949075929192,65036
613.0974970722403,65036
615.3994562724587,65036
617.7007854101818,65036
620.0014847020951,65036
622.3015543649641,65036
624.6009946156324,65036
626.8998056710224,65036
629.1979877481361,65036
631.4955410640538,65036
633.7924658359349,65036
636.0887622810175,65036
638.3844306166192,65036
640.6794710601358,65036
642.9738838290426,65036
645.2676691408932,65036
647.5608272133207,65036
649.853358264037,65036
652.1452625108324,65036
654.4365401715764,65036
656.7271914642178,65036
659.0172166067838,65036
661.3066158173809,65036
663.5953893141935,65036
665.8835373154867,65036
668.1710600396028,65036
670.4579577049639,65036
672.7442305300709,65036
675.0298787335033,65036
677.3149025339197,65036
679.599302150058,65036
681.8830778007342,65036
684.1662297048437,65036
686.4487580813608,65036
688.7306631493387,65036
691.0119451279091,65036
693.2926042362834,65036
695.5726406937516,65036
697.8520547196814,65036
700.1308465335215,65036
702.4090163547982,65036
704.6865644031171,65036
706.9634908981619,65036
709.2397960596965,65036
711.5154801075631,65036
713.7905432616823,65036
716.0649857420548,65036
718.3388077687592,65036
720.612009561953,65036
722.8845913418733,65036
725.1565533288352,65036
727.427895743234,65036
729.6986188055427,65036
731.9687227363137,65036
734.238207756178,65036
736.5070740858458,65036
738.7753219461066,65036
741.0429515578281,65036
743.3099631419569,65036
745.5763569195191,65036
747.8421331116193,65036
750.1072919394409,65036
752.3718336242467,65036
754.6357583873777,65036
756.8990664502545,65036
759.1617580343765,65036
761.423833361321,65036
763.6852926527457,65036
765.9461361303862,65036
768.206364016058,65036
770.4659765316536,65036
772.7249738991469,65036
774.9833563405886,65036
777.2411240781092,65036
779.4982773339183,65036
781.7548163303044,65036
784.010741289634,65036
786.2660524343538,65036
788.5207499869881,65036
790.7748341701416,65036
793.0283052064964,65036
795.2811633188143,65036
797.5334087299362,65036
799.7850416627813,65036
802.0360623403484,65036
804.2864709857143,65036
806.5362678220353,65036
808.7854530725468,65036
811.0340269605625,65036
813.2819897094754,65036
815.5293415427581,65036
817.77608268396,65036
820.0222133567116,65036
822.2677337847211,65036
824.5126441917765,65036
826.7569448017433,65036
829.0006358385675,65036
831.2437175262731,65036
833.4861900889629,65036
835.7280537508192,65036
837.9693087361026,65036
840.2099552691533,65036
842.4499935743896,65036
844.689423876309,65036
846.9282463994886,65036
849.1664613685833,65036
851.4040690083276,65036
853.6410695435349,65036
855.877463199097,65036
858.1132501999847,65036
860.3484307712487,65036
862.5830051380175,65036
864.8169735254988,65036
867.0503361589791,65036
869.2830932638243,65036
871.5152450654786,65036
873.7467917894654,65036
875.9777336613873,65036
878.2080709069252,65036
880.4378037518389,65036
882.666932421968,65036
884.8954571432301,65036
887.1233781416219,65036
889.3506956432192,65036
891.5774098741766,65036
893.803521060728,65036
896.0290294291852,65036
898.2539352059397,65036
900.4782386174619,65036
902.7019398903011,65036
904.925039251085,65036
907.147536926521,65036
909.3694331433943,65036
911.59072812857,65036
913.8114221089921,65036
916.0315153116827,65036
918.2510079637437,65036
920.4699002923547,65036
922.6881925247761,65036
924.905884888345,65036
927.1229776104793,65036
929.3394709186747,65036
931.555365040506,65036
933.7706602036275,65036
935.9853566357709,65036
938.1994545647489,65036
940.4129542184515,65036
942.6258558248488,65036
944.8381596119883,65036
947.0498658079974,65036
949.2609746410825,65036
951.4714863395287,65036
953.6814011316998,65036
955.8907192460387,65036
958.0994409110671,65036
960.3075663553858,65036
962.5150958076741,65036
964.7220294966913,65036
966.928367651274,65036
969.1341105003388,65036
971.3392582728806,65036
973.5438111979742,65036
975.747769504772,65036
977.9511334225061,65036
980.153903180487,65036
982.3560790081052,65036
984.5576611348289,65036
986.7586497902058,65036
988.9590452038618,65036
991.158847605503,65036
993.3580572249133,65036
995.5566742919558,65036
997.7546990365728,65036
999.952131688785,65036
1002.1489724786926,65036
1004.3452216364743,65036
1006.5408793923874,65036
1008.7359459767691,65036
1010.9304216200343,65036
1013.1243065526781,65036
1015.3176010052733,65036
1017.510305208472,65036
1019.7024193930064,65036
1021.8939437896848,65036
1024.0848786293977,65036
1026.2752241431122,65036
1028.4649805618747,65036
1030.6541481168115,65036
1032.842727039127,65036
1035.0307175601051,65036
1037.2181199111074,65036
1039.4049343235752,65036
1041.591161029029,65036
1043.7768002590683,65036
1045.9618522453698,65036
1048.1463172196918,65036
1050.3301954138697,65036
1052.513487059818,65036
1054.69619238953,65036
1056.8783116350783,65036
1059.0598450286152,65036
1061.2407928023704,65036
1063.4211551886528,65036
1065.6009324198508,65036
1067.780124728432,65036
1069.9587323469414,65036
1072.1367555080046,65036
1074.314194444325,65036
1076.4910493886855,65036
1078.667320573947,65036
1080.843008233051,65036
1083.0181125990161,65036
1085.1926339049414,65036
1087.3665723840027,65036
1089.5399282694575,65036
1091.7127017946405,65036
1093.8848931929647,65036
1096.0565026979243,65036
1098.2275305430899,65036
1100.3979769621128,65036
1102.567842188722,65036
1104.737126456726,65036
1106.9058300000124,65036
1109.0739530525475,65036
1111.2414958483764,65036
1113.4084586216231,65036
1115.5748416064907,65036
1117.7406450372605,65036
1119.9058691482942,65036
1122.0705141740304,65036
1124.2345803489884,65036
1126.3980679077658,65036
1128.5609770850388,65036
1130.7233081155623,65036
1132.8850612341707,65036
1135.0462366757774,65036
1137.2068346753745,65036
1139.3668554680326,65036
1141.526299288901,65036
1143.68516637321,65036
1145.8434569562655,65036
1148.001171273455,65036
1150.158309560244,65036
1152.3148720521767,65036
1154.470858984876,65036
1156.626270594044,65036
1158.7811071154629,65036
1160.9353687849912,65036
1163.089055838569,65036
1165.242168512213,65036
1167.3947070420209,65036
1169.5466716641677,65036
1171.6980626149075,65036
1173.8488801305748,65036
1175.9991244475814,65036
1178.1487958024186,65036
1180.2978944316555,65036
1182.4464205719428,65036
1184.5943744600072,65036
1186.7417563326567,65036
1188.8885664267755,65036
1191.0348049793297,65036
1193.1804722273619,65036
1195.325568407995,65036
1197.4700937584303,65036
1199.614048515948,65036
1201.7574329179074,65036
1203.900247201746,65036
1206.042491604982,65036
1208.1841663652099,65036
1210.3252717201053,65036
1212.465807907422,65036
1214.6057751649923,65036
1216.7451737307279,65036
1218.8840038426192,65036
1221.0222657387353,65036
1223.1599596572241,65036
1225.2970858363137,65036
1227.4336445143094,65036
1229.5696359295966,65036
1231.705060320639,65036
1233.8399179259786,65036
1235.9742089842384,65036
1238.107933734118,65036
1240.2410924143974,65036
1242.373685263935,65036
1244.5057125216676,65036
1246.6371744266116,65036
1248.7680712178621,65036
1250.898403134593,65036
1253.028170416058,65036
1255.1573733015875,65036
1257.2860120305932,65036
1259.4140868425648,65036
1261.54159797707,65036
1263.6685456737569,65036
1265.7949301723515,65036
1267.9207517126597,65036
1270.046010534565,65036
1272.1707068780306,65036
1274.2948409830983,65036
1276.4184130898889,65036
1278.541423438603,65036
1280.6638722695184,65036
1282.785759822993,65036
1284.9070863394636,65036
1287.0278520594447,65036
1289.1480572235314,65036
1291.2677020723963,65036
1293.3867868467923,65036
1295.5053117875495,65036
1297.623277135579,65036
1299.740683131868,65036
1301.8575300174857,65036
1303.973818033578,65036
1306.0895474213703,65036
1308.2047184221678,65036
1310.3193312773528,65036
1312.4333862283888,65036
1314.5468835168163,65036
1316.659823384255,65036
1318.7722060724045,65036
1320.8840318230418,65036
1322.9953008780249,65036
1325.1060134792888,65036
1327.2161698688478,65036
1329.3257702887959,65036
1331.4348149813054,65036
1333.5433041886276,65036
1335.6512381530933,65036
1337.7586171171101,65036
1339.8654413231675,65036
1341.9717110138317,65036
1344.0774264317488,65036
1346.1825878196432,65036
1348.2871954203192,65036
1350.3912494766587,65036
1352.4947502316231,65036
1354.5976979282532,65036
1356.7000928096686,65036
1358.8019351190665,65036
1360.9032250997243,65036
1363.0039629949988,65036
1365.1041490483235,65036
1367.2037835032133,65036
1369.3028666032606,65036
1371.401398592137,65036
1373.4993797135926,65036
1375.5968102114575,65036
1377.6936903296396,65036
1379.7900203121262,65036
1381.8858004029835,65036
1383.9810308463561,65036
1386.075711886469,65036
1388.1698437676241,65036
1390.2634267342032,65036
1392.356461030667,65036
1394.4489469015557,65036
1396.5408845914872,65036
1398.6322743451592,65036
1400.7231164073469,65036
1402.813411022907,65036
1404.903158436773,65036
1406.9923588939578,65036
1409.0810126395531,65036
1411.1691199187303,65036
1413.2566809767386,65036
1415.343696058907,65036
1417.4301654106425,65036
1419.5160892774315,65036
1421.6014679048399,65036
1423.6863015385125,65036
1425.7705904241707,65036
1427.8543348076178,65036
1429.9375349347342,65036
1432.0201910514802,65036
1434.102303403894,65036
1436.1838722380944,65036
1438.2648978002767,65036
1440.3453803367174,65036
1442.4253200937692,65036
1444.5047173178677,65036
1446.5835722555234,65036
1448.6618851533285,65036
1450.739656257952,65036
1452.8168858161434,65036
1454.8935740747306,65036
1456.96972128062,65036
1459.045327680797,65036
1461.120393522327,65036
1463.1949190523528,65036
1465.2689045180973,65036
1467.3423501668608,65036
1469.415256246024,65036
1471.4876230030463,65036
1473.559450685465,65036
1475.6307395408976,65036
1477.7014898170391,65036
1479.771701761665,65036
1481.8413756226287,65036
1483.9105116478618,65036
1485.9791100853772,65036
1488.0471711832643,65036
1490.1146951896926,65036
1492.1816823529098,65036
1494.2481329212433,65036
1496.3140471430984,65036
1498.3794252669609,65036
1500.4442675413939,65036
1502.5085742150404,65036
1504.572345536622,65036
1506.6355817549388,65036
1508.6982831188702,65036
1510.7604498773744,65036
1512.8220822794883,65036
1514.8831805743293,65036
1516.9437450110909,65036
1519.003775839048,65036
1521.0632733075522,65036
1523.1222376660367,65036
1525.1806691640113,65036
1527.2385680510652,65036
1529.2959345768668,65036
1531.3527689911643,65036
1533.4090715437833,65036
1535.4648424846291,65036
1537.5200820636855,65036
1539.5747905310159,65036
1541.6289681367616,65036
1543.6826151311434,65036
1545.7357317644614,65036
1547.7883182870937,65036
1549.8403749494987,65036
1551.8919020022113,65036
1553.9428996958477,65036
1555.9933682811015,65036
1558.0433080087469,65036
1560.0927191296346,65036
1562.1416018946961,65036
1564.1899565549415,65036
1566.2377833614592,65036
1568.2850825654164,65036
1570.3318544180606,65036
1572.3780991707158,65036
1574.423817074788,65036
1576.4690083817595,65036
1578.5136733431923,65036
1580.5578122107272,65036
1582.601425236085,65036
1584.6445126710646,65036
1586.6870747675434,65036
1588.7291117774776,65036
1590.7706239529034,65036
1592.8116115459347,65036
1594.8520748087658,65036
1596.8920139936686,65036
1598.9314293529933,65036
1600.9703211391711,65036
1603.008689604711,65036
1605.0465350022005,65036
1607.0838575843068,65036
1609.1206576037753,65036
1611.1569353134305,65036
1613.1926909661765,65036
1615.2279248149953,65036
1617.2626371129481,65036
1619.2968281131757,65036
1621.3304980688963,65036
1623.3636472334088,65036
1625.39627586009,65036
1627.428384202396,65036
1629.459972513861,65036
1631.4910410480993,65036
1633.5215900588028,65036
1635.551619799744,65036
1637.5811305247717,65036
1639.6101224878166,65036
1641.6385959428862,65036
1643.6665511440683,65036
1645.693988345528,65036
1647.7209078015112,65036
1649.7473097663405,65036
1651.7731944944203,65036
1653.7985622402307,65036
1655.823413258333,65036
1657.847747803366,65036
1659.8715661300494,65036
1661.8948684931793,65036
1663.9176551476316,65036
1665.9399263483624,65036
1667.9616823504057,65036
1669.982923408873,65036
1672.0036497789574,65036
1674.0238617159293,65036
1676.043559475138,65036
1678.0627433120121,65036
1680.081413482059,65036
1682.0995702408654,65036
1684.117213844096,65036
1686.134344547495,65036
1688.1509626068864,65036
1690.1670682781705,65036
1692.182661817329,65036
1694.1977434804217,65036
1696.2123135235875,65036
1698.226372203043,65036
1700.2399197750851,65036
1702.2529564960905,65036
1704.2654826225112,65036
1706.277498410882,65036
1708.2890041178139,65036
1710.2999999999988,65036
1712.3104863142066,65036
1714.3204633172854,65036
1716.329931266163,65036
1718.3388904178469,65036
1720.3473410294214,65036
1722.3552833580516,65036
1724.3627176609807,65036
1726.3696441955308,65036
1728.3760632191033,65036
1730.3819749891782,65036
1732.3873797633146,65036
1734.3922777991502,65036
1736.3966693544012,65036
1738.4005546868639,65036
1740.4039340544127,65036
1742.406807715001,65036
1744.4091759266616,65036
1746.4110389475054,65036
1748.4123970357223,65036
1750.413250449582,65036
1752.4135994474318,65036
1754.4134442876993,65036
1756.4127852288902,65036
1758.4116225295893,65036
1760.4099564484595,65036
1762.407787244244,65036
1764.405115175764,65036
1766.4019405019203,65036
1768.3982634816916,65036
1770.3940843741357,65036
1772.3894034383907,65036
1774.3842209336717,65036
1776.378537119274,65036
1778.372352254571,65036
1780.3656665990156,65036
1782.3584804121397,65036
1784.3507939535534,65036
1786.3426074829463,65036
1788.3339212600863,65036
1790.3247355448211,65036
1792.3150505970766,65036
1794.3048666768573,65036
1796.2941840442477,65036
1798.2830029594106,65036
1800.2713236825884,65036
1802.2591464741004,65036
1804.2464715943465,65036
1806.2332993038058,65036
1808.2196298630352,65036
1810.2054635326708,65036
1812.190800573428,65036
1814.175641246101,65036
1816.1599858115628,65036
1818.1438345307652,65036
1820.127187664738,65036
1822.1100454745924,65036
1824.092408221516,65036
1826.0742761667766,65036
1828.055649571721,65036
1830.0365286977735,65036
1832.0169138064398,65036
1833.9968051593014,65036
1835.9762030180214,65036
1837.9551076443408,65036
1839.9335193000788,65036
1841.9114382471344,65036
1843.888864747485,65036
1845.8657990631878,65036
1847.842241456378,65036
1849.8181921892697,65036
1851.7936515241558,65036
1853.7686197234098,65036
1855.7430970494815,65036
1857.7170837649014,65036
1859.6905801322787,65036
1861.6635864143004,65036
1863.6361028737338,65036
1865.608129773424,65036
1867.5796673762961,65036
1869.5507159453537,65036
1871.521275743678,65036
1873.4913470344313,65036
1875.4609300808534,65036
1877.4300251462632,65036
1879.3986324940588,65036
1881.366752387717,65036
1883.3343850907936,65036
1885.3015308669228,65036
1887.268189979819,65036
1889.2343626932739,65036
1891.2000492711595,65036
1893.1652499774254,65036
1895.1299650761011,65036
1897.0941948312952,65036
1899.0579395071945,65036
1901.0211993680641,65036
1902.98397467825,65036
1904.9462657021745,65036
1906.9080727043415,65036
1908.869395949332,65036
1910.8302357018065,65036
1912.790592226504,65036
1914.7504657882428,65036
1916.7098566519212,65036
1918.6687650825133,65036
1920.6271913450764,65036
1922.5851357047422,65036
1924.5425984267245,65036
1926.499579776314,65036
1928.4560800188833,65036
1930.4120994198802,65036
1932.367638244833,65036
1934.32269675935,65036
1936.2772752291175,65036
1938.231373919899,65036
1940.1849930975404,65036
1942.1381330279637,65036
1944.0907939771696,65036
1946.0429762112412,65036
1947.9946799963363,65036
1949.9459055986945,65036
1951.896653284633,65036
1953.8469233205478,65036
1955.7967159729142,65036
1957.7460315082863,65036
1959.6948701932974,65036
1961.6432322946594,65036
1963.5911180791632,65036
1965.5385278136787,65036
1967.4854617651545,65036
1969.4319202006182,65036
1971.377903387176,65036
1973.3234115920136,65036
1975.268445082395,65036
1977.2130041256642,65036
1979.1570889892423,65036
1981.1006999406304,65036
1983.04383724741,65036
1984.986501177238,65036
1986.928691997853,65036
1988.8704099770712,65036
1990.811655382789,65036
1992.7524284829801,65036
1994.692729545698,65036
1996.6325588390755,65036
1998.5719166313224,65036
2000.5108031907307,65036
2002.4492187856677,65036
2004.387163684583,65036
2006.3246381560011,65036
2008.2616424685298,65036
2010.1981768908527,65036
2012.1342416917332,65036
2014.069837140014,65036
2016.0049635046162,65036
2017.9396210545406,65036
2019.8738100588666,65036
2021.8075307867502,65036
2023.740783507431,65036
2025.6735684902228,65036
2027.6058860045214,65036
2029.5377363198004,65036
2031.4691197056118,65036
2033.4000364315875,65036
2035.3304867674374,65036
2037.260470982952,65036
2039.189989347998,65036
2041.1190421325232,65036
2043.047629606554,65036
2044.9757520401945,65036
2046.9034097036288,65036
2048.8306028671195,65036
2050.7573318010086,65036
2052.683596775716,65036
2054.609398061742,65036
2056.5347359296647,65036
2058.4596106501403,65036
2060.384022493906,65036
2062.3079717317764,65036
2064.231458634646,65036
2066.1544834734873,65036
2068.077046519352,65036
2069.99914804337,65036
2071.9207883167524,65036
2073.8419676107865,65036
2075.7626861968406,65036
2077.6829443463607,65036
2079.6027423308715,65036
2081.522080421977,65036
2083.440958891362,65036
2085.359378010786,65036
2087.2773380520907,65036
2089.194839287196,65036
2091.111881988101,65036
2093.0284664268825,65036
2094.9445928756973,65036
2096.86026160678,65036
2098.775472892446,65036
2100.690227005088,65036
2102.604524217178,65036
2104.5183648012676,65036
2106.431749029985,65036
2108.34467717604,65036
2110.2571495122206,65036
2112.169166311393,65036
2114.080727846503,65036
2115.9918343905747,65036
2117.902486216711,65036
2119.8126835980956,65036
2121.722426807987,65036
2123.6317161197285,65036
2125.5405518067364,65036
2127.448934142509,65036
2129.356863400624,65036
2131.264339854737,65036
2133.1713637785815,65036
2135.077935445972,65036
2136.9840551308002,65036
2138.889723107037,65036
2140.7949396487334,65036
2142.699705030018,65036
2144.6040195250994,65036
2146.507883408264,65036
2148.4112969538774,65036
2150.3142604363848,65036
2152.2167741303097,65036
2154.1188383102535,65036
2156.0204532508997,65036
2157.9216192270064,65036
2159.822336513414,65036
2161.7226053850413,65036
2163.622426116884,65036
2165.5217989840185,65036
2167.4207242616,65036
2169.319202224862,65036
2171.2172331491165,65036
2173.1148173097563,65036
2175.0119549822507,65036
2176.90864644215,65036
2178.8048919650823,65036
2180.7006918267534,65036
2182.596046302952,65036
2184.4909556695407,65036
2186.3854202024645,65036
2188.279440177746,65036
2190.173015871487,65036
2192.066147559868,65036
2193.958835519149,65036
2195.851080025667,65036
2197.7428813558417,65036
2199.6342397861667,65036
2201.5251555932186,65036
2203.415629053651,65036
2205.3056604441986,65036
2207.19525004167,65036
2209.084398122958,65036
2210.9731049650327,65036
2212.861370844941,65036
2214.749196039812,65036
2216.636580826851,65036
2218.523525483344,65036
2220.410030286655,65036
2222.296095514226,65036
2224.1817214435805,65036
2226.066908352319,65036
2227.951656518121,65036
2229.835966218746,65036
2231.71983773203,65036
2233.6032713358913,65036
2235.486267308324,65036
2237.3688259274036,65036
2239.2509474712824,65036
2241.132632218193,65036
2243.013880446447,65036
2244.8946924344323,65036
2246.7750684606203,65036
2248.6550088035574,65036
2250.534513741871,65036
2252.413583554265,65036
2254.292218519526,65036
2256.170418916517,65036
2258.0481850241786,65036
2259.925517121534,65036
2261.8024154876825,65036
2263.678880401803,65036
2265.5549121431536,65036
2267.430510991071,65036
2269.305677224971,65036
2271.180411124348,65036
2273.0547129687766,65036
2274.9285830379076,65036
2276.8020216114737,65036
2278.6750289692845,65036
2280.5476053912294,65036
2282.4197511572766,65036
2284.2914665474727,65036
2286.162751841943,65036
2288.0336073208937,65036
2289.904033264608,65036
2291.774029953448,65036
2293.6435976678554,65036
2295.5127366883517,65036
2297.381447295534,65036
2299.2497297700825,65036
2301.1175843927526,65036
2302.9850114443825,65036
2304.852011205885,65036
2306.7185839582553,65036
2308.5847299825664,65036
2310.4504495599676,65036
2312.3157429716925,65036
2314.1806104990483,65036
2316.0450524234247,65036
2317.9090690262888,65036
2319.772660589186,65036
2321.635827393742,65036
2323.498569721661,65036
2325.3608878547248,65036
2327.2227820747967,65036
2329.0842526638157,65036
2330.945299903803,65036
2332.805924076857,65036
2334.6661254651535,65036
2336.525904350951,65036
2338.3852610165827,65036
2340.244195744464,65036
2342.102708817088,65036
2343.9608005170253,65036
2345.8184711269287,65036
2347.675720929526,65036
2349.532550207628,65036
2351.38895924412,65036
2353.24494832197,65036
2355.100517724223,65036
2356.955667734004,65036
2358.810398634514,65036
2360.664710709037,65036
2362.5186042409337,65036
2364.3720795136437,65036
2366.225136810686,65036
2368.0777764156583,65036
2369.929998612237,65036
2371.7818036841777,65036
2373.633191915315,65036
2375.484163589562,65036
2377.3347189909114,65036
2379.184858403434,65036
2381.03458211128,65036
2382.8838903986775,65036
2384.732783549936,65036
2386.5812618494406,65036
2388.4293255816588,65036
2390.2769750311327,65036
2392.1242104824883,65036
2393.971032220427,65036
2395.8174405297295,65036
2397.6634356952563,65036
2399.509018001947,65036
2401.3541877348193,65036
2403.1989451789705,65036
2405.043290619576,65036
2406.8872243418905,65036
2408.730746631247,65036
2410.5738577730594,65036
2412.4165580528183,65036
2414.258847756095,65036
2416.100727168537,65036
2417.9421965758734,65036
2419.783256263912,65036
2421.623906518538,65036
2423.4641476257157,65036
2425.303979871491,65036
2427.143403541984,65036
2428.9824189233977,65036
2430.821026302012,65036
2432.6592259641866,65036
2434.497018196361,65036
2436.33440328505,65036
2438.171381516851,65036
2440.00795317844,65036
2441.844118556569,65036
2443.6798779380724,65036
2445.5152316098606,65036
2447.3501798589255,65036
2449.1847229723357,65036
2451.0188612372403,65036
2452.8525949408663,65036
2454.6859243705203,65036
2456.518849813587,65036
2458.3513715575314,65036
2460.183489889895,65036
2462.015205098301,65036
2463.8465174704493,65036
2465.67742729412,65036
2467.5079348571717,65036
2469.338040447542,65036
2471.1677443532476,65036
2472.9970468623833,65036
2474.825948263123,65036
2476.6544488437207,65036
2478.482548892508,65036
2480.310248697896,65036
2482.137548548374,65036
2483.9644487325118,65036
2485.790949538956,65036
2487.617051256433,65036
2489.44275417375,65036
2491.26805857979,65036
2493.0929647635157,65036
2494.917473013971,65036
2496.741583620276,65036
2498.5652968716304,65036
2500.3886130573137,65036
2502.2115324666834,65036
2504.0340553891765,65036
2505.856182114308,65036
2507.6779129316733,65036
2509.499248130945,65036
2511.3201880018764,65036
2513.140732834298,65036
2514.9608829181198,65036
2516.780638543331,65036
2518.6,65036
2520.418967578273,65036
2522.237541568376,65036
2524.0557222606144,65036
2525.8735099453706,65036
2527.6909049131086,65036
2529.507907454368,65036
2531.32451785977,65036
2533.140736420014,65036
2534.9565634258774,65036
2536.771999168218,65036
2538.5870439379714,65036
2540.4016980261526,65036
2542.2159617238544,65036
2544.02983532225,65036
2545.8433191125914,65036
2547.656413386209,65036
2549.4691184345115,65036
2551.2814345489874,65036
2553.093362021204,65036
2554.904901142808,65036
2556.716052205523,65036
2558.526815501153,65036
2560.3371913215824,65036
2562.147179958771,65036
2563.956781704761,65036
2565.7659968516705,65036
2567.5748256916986,65036
2569.3832685171224,65036
2571.1913256202984,65036
2572.9989972936614,65036
2574.806283829725,65036
2576.613185521084,65036
2578.4197026604074,65036
2580.2258355404483,65036
2582.031584454035,65036
2583.836949694077,65036
2585.6419315535613,65036
2587.4465303255533,65036
2589.2507463032002,65036
2591.0545797797245,65036
2592.8580310484303,65036
2594.6611004026995,65036
2596.463788135992,65036
2598.266094541849,65036
2600.0680199138874,65036
2601.869564545807,65036
2603.670728731383,65036
2605.4715127644704,65036
2607.2719169390048,65036
2609.071941548998,65036
2610.8715868885433,65036
2612.670853251811,65036
2614.469740933052,65036
2616.268250226594,65036
2618.0663814268455,65036
2619.864134828292,65036
2621.6615107255006,65036
2623.458509413115,65036
2625.2551311858597,65036
2627.0513763385347,65036
2628.8472451660223,65036
2630.6427379632833,65036
2632.4378550253564,65036
2634.232596647359,65036
2636.026963124488,65036
2637.8209547520187,65036
2639.6145718253065,65036
2641.407814639785,65036
2643.200683490966,65036
2644.9931786744414,65036
2646.7853004858807,65036
2648.577049221034,65036
2650.3684251757277,65036
2652.1594286458712,65036
2653.9500599274484,65036
2655.740319316525,65036
2657.5302071092437,65036
2659.3197236018286,65036
2661.10886909058,65036
2662.8976438718782,65036
2664.686048242183,65036
2666.4740824980327,65036
2668.2617469360443,65036
2670.0490418529134,65036
2671.8359675454153,65036
2673.622524310403,65036
2675.408712444811,65036
2677.1945322456495,65036
2678.979984010009,65036
2680.76506803506,65036
2682.5497846180497,65036
2684.334134056306,65036
2686.1181166472343,65036
2687.9017326883213,65036
2689.6849824771293,65036
2691.4678663113013,65036
2693.2503844885596,65036
2695.032537306705,65036
2696.8143250636167,65036
2698.5957480572542,65036
2700.3768065856534,65036
2702.1575009469316,65036
2703.937831439283,65036
2705.717798360982,65036
2707.4974020103837,65036
2709.276642685917,65036
2711.055520686095,65036
2712.834036309506,65036
2714.612189854819,65036
2716.389981620782,65036
2718.1674119062204,65036
2719.944481010041,65036
2721.721189231226,65036
2723.4975368688415,65036
2725.273524222027,65036
2727.0491515900053,65036
2728.824419272075,65036
2730.5993275676146,65036
2732.3738767760838,65036
2734.148067197016,65036
2735.921899130031,65036
2737.6953728748194,65036
2739.468488731156,65036
2741.2412469988926,65036
2743.0136479779617,65036
2744.785691968372,65036
2746.5573792702116,65036
2748.3287101836504,65036
2750.099685008934,65036
2751.870304046388,65036
2753.640567596418,65036
2755.4104759595057,65036
2757.1800294362156,65036
2758.949228327187,65036
2760.7180729331412,65036
2762.486563554877,65036
2764.254700493272,65036
2766.022484049284,65036
2767.789914523947,65036
2769.5569922183786,65036
2771.3237174337705,65036
2773.090090471394,65036
2774.8561116326036,65036
2776.6217812188274,65036
2778.3870995315756,65036
2780.1520668724356,65036
2781.9166835430747,65036
2783.6809498452394,65036
2785.444866080754,65036
2787.2084325515225,65036
2788.971649559527,65036
2790.73451740683,65036
2792.4970363955713,65036
2794.2592068279705,65036
2796.0210290063264,65036
2797.7825032330147,65036
2799.543629810493,65036
2801.304409041296,65036
2803.0648412280366,65036
2804.8249266734088,65036
2806.5846656801846,65036
2808.344058551212,65036
2810.1031055894246,65036
2811.8618070978273,65036
2813.6201633795085,65036
2815.378174737636,65036
2817.1358414754536,65036
2818.893163896285,65036
2820.6501423035334,65036
2822.4067770006814,65036
2824.1630682912883,65036
2825.9190164789957,65036
2827.6746218675207,65036
2829.429884760661,65036
2831.184805462294,65036
2832.9393842763743,65036
2834.693621506936,65036
2836.4475174580916,65036
2838.201072434034,65036
2839.954286739034,65036
2841.707160677441,65036
2843.459694553685,65036
2845.2118886722724,65036
2846.96374333779,65036
2848.7152588549034,65036
2850.4664355283567,65036
2852.217273662973,65036
2853.9677735636546,65036
2855.7179355353833,65036
2857.4677598832186,65036
2859.217246912299,65036
2860.9663969278427,65036
2862.715210235146,65036
2864.4636871395846,65036
2866.211827946614,65036
2867.9596329617652,65036
2869.7071024906536,65036
2871.4542368389684,65036
2873.20103631248,65036
2874.947501217038,65036
2876.6936318585695,65036
2878.4394285430812,65036
2880.1848915766604,65036
2881.9300212654707,65036
2883.6748179157553,65036
2885.4192818338374,65036
2887.1634133261173,65036
2888.907212699077,65036
2890.6506802592744,65036
2892.393816313348,65036
2894.1366211680142,65036
2895.8790951300693,65036
2897.621238506388,65036
2899.363051603925,65036
2901.1045347297118,65036
2902.8456881908596,65036
2904.58651229456,65036
2906.327007348081,65036
2908.067173658772,65036
2909.8070115340597,65036
2911.5465212814497,65036
2913.285703208527,65036
2915.0245576229563,65036
2916.7630848324807,65036
2918.5012851449196,65036
2920.2391588681758,65036
2921.976706310227,65036
2923.7139277791334,65036
2925.4508235830313,65036
2927.187394030137,65036
2928.923639428745,65036
2930.6595600872306,65036
2932.395156314046,65036
2934.1304284177218,65036
2935.8653767068713,65036
2937.6000014901815,65036
2939.3343030764227,65036
2941.068281774442,65036
2942.8019378931644,65036
2944.5352717415976,65036
2946.2682836288236,65036
2948.0009738640065,65036
2949.7333427563885,65036
2951.465390615289,65036
2953.1971177501086,65036
2954.9285244703265,65036
2956.6596110855,65036
2958.3903779052657,65036
2960.1208252393385,65036
2961.8509533975125,65036
2963.5807626896617,65036
2965.3102534257378,65036
2967.0394259157715,65036
2968.768280469873,65036
2970.496817398232,65036
2972.2250370111146,65036
2973.952939618869,65036
2975.6805255319196,65036
2977.4077950607707,65036
2979.134748516006,65036
2980.861386208289,65036
2982.587708448359,65036
2984.313715547037,65036
2986.039407815222,65036
2987.764785563891,65036
2989.489849104102,65036
2991.2145987469908,65036
2992.9390348037705,65036
2994.6631575857346,65036
2996.3869674042576,65036
2998.1104645707887,65036
2999.83364939686,65036
3001.5565221940783,65036
3003.2790832741334,65036
3005.0013329487924,65036
3006.7232715298996,65036
3008.4448993293804,65036
3010.166216659239,65036
3011.887223831558,65036
3013.607921158498,65036
3015.3283089522993,65036
3017.0483875252826,65036
3018.7681571898443,65036
3020.4876182584626,65036
3022.2067710436927,65036
3023.9256158581707,65036
3025.644153014609,65036
3027.362382825801,65036
3029.0803056046193,65036
3030.797921664012,65036
3032.5152313170106,65036
3034.2322348767225,65036
3035.9489326563353,65036
3037.665324969115,65036
3039.3814121284063,65036
3041.097194447633,65036
3042.812672240299,65036
3044.5278458199855,65036
3046.2427155003525,65036
3047.9572815951406,65036
3049.671544418167,65036
3051.38550428333,65036
3053.0991615046073,65036
3054.812516396051,65036
3056.5255692717974,65036
3058.2383204460575,65036
3059.9507702331257,65036
3061.662918947372,65036
3063.3747669032446,65036
3065.0863144152736,65036
3066.7975617980674,65036
3068.508509366309,65036
3070.219157434767,65036
3071.9295063182844,65036
3073.639556331785,65036
3075.3493077902704,65036
3077.058761008821,65036
3078.7679163025964,65036
3080.476773986837,65036
3082.1853343768594,65036
3083.89359778806,65036
3085.6015645359153,65036
3087.3092349359786,65036
3089.016609303884,65036
3090.7236879553434,65036
3092.4304712061476,65036
3094.136959372166,65036
3095.843152769349,65036
3097.5490517137237,65036
3099.2546565213966,65036
3100.959967508554,65036
3102.66498499146,65036
3104.3697092864577,65036
3106.0741407099695,65036
3107.778279578498,65036
3109.482126208622,65036
3111.1856809170004,65036
3112.8889440203716,65036
3114.5919158355528,65036
3116.294596679439,65036
3117.996986869006,65036
3119.6990867213062,65036
3121.4008965534726,65036
3123.102416682717,65036
3124.803647426329,65036
3126.5045891016784,65036
3128.205242026213,65036
3129.90560651746,65036
3131.605682893025,65036
3133.3054714705922,65036
3135.0049725679282,65036
3136.7041865028714,65036
3138.4031135933465,65036
3140.101754157353,65036
3141.800108512971,65036
3143.498176978357,65036
3145.1959598717494,65036
3146.8934575114636,65036
3148.5906702158954,65036
3150.2875983035183,65036
3151.9842420928853,65036
3153.680601902627,65036
3155.376678051456,65036
3157.07247085816,65036
3158.767980641609,65036
3160.463207720748,65036
3162.158152414606,65036
3163.8528150422862,65036
3165.5471959229726,51833
3167.2412953759303,40150
3168.9351137204976,39149
3170.628651276098,38892
3172.3219083622307,38397
3174.014885298474,38082
3175.707582404485,38053
3177.4000000000005,38176
3179.092138404835,38008
3180.7839979388846,37924
3182.47557892212,37856
3184.166881674594,37790
3185.8579065164386,37721
3187.5486537678626,37787
3189.2391237491547,37752
3190.9293167806827,38366
3192.6192331828934,38472
3194.3088732763117,38451
3195.998237381542,38687
3197.687325819268,38983
3199.376138910251,39483
3201.064676975334,39710
3202.7529403354347,39825
3204.4409293115523,40163
3206.1286442247647,40527
3207.816085396229,41033
3209.5032531471825,41139
3211.190147798936,41176
3212.8767696728846,41264
3214.5631190905015,41857
3216.2491963733373,42079
3217.9350018430214,42233
3219.6205358212637,42090
3221.305798629851,42538
3222.990790590651,42378
3224.6755120256103,42927
3226.359963256751,43220
3228.0441446061795,43204
3229.7280563960758,43036
3231.411698948703,43242
3233.0950725863995,43199
3234.778177631587,43261
3236.461014406761,43082
3238.1435832345005,43387
3239.8258844374595,43336
3241.507918338374,42317
3243.1896852600576,42425
3244.8711855254023,42366
3246.552419457381,41971
3248.233387379042,41585
3249.914089613516,40875
3251.59452648401,40867
3253.274698313813,40082
3254.95460542629,39425
3256.6342481448855,38649
3258.313626793125,38319
3259.9927416946084,37597
3261.6715931730196,37307
3263.3501815521176,36422
3265.0285071557437,36038
3266.706570307815,35602
3268.3843713323286,35318
3270.0619105533615,35022
3271.739188295068,34995
3273.4162048816834,34716
3275.0929606375184,34749
3276.769455886966,34711
3278.445690954498,34264
3280.1216661646613,34438
3281.797381842087,34380
3283.4728383114807,34095
3285.1480358976296,33790
3286.8229749253996,33989
3288.4976557197333,34126
3290.172078605655,34150
3291.846243908266,34253
3293.5201519527463,34278
3295.193803064357,34454
3296.8671975684374,34650
3298.5403357904024,34803
3300.21321805575,35487
3301.8858446900567,36031
3303.558216018975,36456
3305.23033236824,36975
3306.9021940636603,37635
3308.57380143113,38391
3310.2451547966184,39042
3311.916254486174,39015
3313.5871008259246,39642
3315.2576941420766,39730
3316.9280347609147,40342
3318.5981230088046,40219
3320.2679592121895,40086
3321.9375436975924,40640
3323.606876791612,41162
3325.27595882093,41758
3326.944790112305,41355
3328.6133709925753,41696
3330.2817017886573,42013
3331.949782827547,42359
3333.617614436319,42848
3335.2851969421245,42869
3336.952530672199,43367
3338.619615953853,43351
3340.286453114475,43318
3341.9530424815357,43647
3343.619384382583,43063
3345.2854791452437,43153
3346.951327097224,42863
3348.6169285663073,42892
3350.2822838803577,42365
3351.947393367319,41997
3353.61225735521,41642
3355.2768761721345,41146
3356.9412501462693,41133
3358.605379605873,40002
3360.2692648792827,39741
3361.9329062949146,39102
3363.596304181263,38115
