CollectionTime,7/11/2024 12:00:20 PM
ExposureUsed,3
CalibratedSpectrum
-962.7078968117929,356
-959.9714848408522,367
-957.2358232597828,367
-954.5009119013725,355
-951.7667505983302,346
-949.0333391832855,355
-946.3006774887896,356
-943.5687653473143,366
-940.837602591253,362
-938.1071890529199,361
-935.3775245645503,373
-932.6486089583007,381
-929.9204420662485,361
-927.1930237203925,358
-924.4663537526524,348
-921.7404319948689,344
-919.0152582788041,359
-916.2908324361409,390
-913.5671542984834,376
-910.8442236973568,361
-908.1220404642074,351
-905.4006044304027,356
-902.679915427231,359
-899.959973285902,347
-897.2407778375464,347
-894.5223289132158,343
-891.8046263438832,354
-889.0876699604426,350
-886.3714595937089,354
-883.6559950744183,370
-880.9412762332282,367
-878.2273029007168,360
-875.5140749073835,359
-872.8015920836489,367
-870.0898542598545,364
-867.3788612662631,340
-864.6686129330585,362
-861.9591090903457,349
-859.2503495681506,354
-856.5423341964203,352
-853.8350628050229,357
-851.1285352237478,357
-848.4227512823054,367
-845.7177108103272,369
-843.0134136373656,371
-840.3098595928943,368
-837.6070485063082,349
-834.9049802069229,377
-832.2036545239757,378
-829.5030712866244,386
-826.8032303239481,366
-824.1041314649472,364
-821.4057745385428,358
-818.7081593735775,371
-816.0112857988148,363
-813.3151536429393,358
-810.6197627345566,366
-807.9251129021936,372
-805.2312039742981,371
-802.5380357792392,358
-799.8456081453069,364
-797.1539209007124,364
-794.462973873588,374
-791.772766891987,376
-789.083299783884,386
-786.3945723771743,371
-783.7065844996748,377
-781.0193359791231,365
-778.3328266431781,384
-775.6470563194197,374
-772.9620248353489,361
-770.2777320183878,384
-767.5941776958798,366
-764.9113616950891,373
-762.2292838432011,377
-759.5479439673222,367
-756.8673418944801,369
-754.1874774516235,355
-751.5083504656222,379
-748.8299607632671,386
-746.15230817127,375
-743.475392516264,392
-740.7992136248035,376
-738.1237713233636,382
-735.4490654383407,395
-732.7750957960521,392
-730.1018622227365,387
-727.4293645445534,395
-724.7576025875837,370
-722.0865761778291,370
-719.4162851412126,368
-716.7467293035781,389
-714.0779084906909,394
-711.409822528237,374
-708.7424712418238,379
-706.0758544569796,387
-703.4099719991541,389
-700.7448236937178,372
-698.0804093659622,389
-695.4167288411002,364
-692.7537819442656,379
-690.0915685005134,373
-687.4300883348199,371
-684.7693412720819,380
-682.1093271371178,383
-679.4500457546669,372
-676.7914969493897,379
-674.1336805458676,375
-671.4765963686034,388
-668.8202442420206,399
-666.1646239904642,382
-663.5097354382001,383
-660.8555784094151,379
-658.2021527282176,400
-655.5494582186366,389
-652.8974947046223,368
-650.2462620100463,404
-647.5957599587009,389
-644.9459883742998,411
-642.2969470804776,400
-639.6486359007902,387
-637.0010546587141,380
-634.3542031776476,392
-631.7080812809096,391
-629.0626887917401,397
-626.4180255333008,395
-623.7740913286734,417
-621.1308860008619,413
-618.4884093727904,397
-615.8466612673046,403
-613.2056415071715,402
-610.5653499150785,391
-607.9257863136347,393
-605.28695052537,398
-602.6488423727357,407
-600.0114616781036,402
-597.3748082637674,389
-594.7388819519412,407
-592.1036825647604,407
-589.4692099242818,425
-586.8354638524829,411
-584.2024441712624,395
-581.5701507024403,408
-578.9385832677575,397
-576.3077416888759,398
-573.6776257873787,422
-571.0482353847704,440
-568.4195703024757,418
-565.7916303618415,400
-563.164415384135,416
-560.5379251905453,402
-557.9121596021815,424
-555.2871184400748,403
-552.6628015251767,416
-550.0392086783606,407
-547.4163397204204,413
-544.794194472071,420
-542.1727727539491,444
-539.5520743866118,444
-536.9320991905377,470
-534.3128469861261,465
-531.6943175936979,454
-529.0765108334947,470
-526.4594265256793,478
-523.8430644903358,598
-521.2274245474689,671
-518.612506517005,841
-515.9983102187913,914
-513.3848354725959,882
-510.77208209810846,806
-508.16004991493924,718
-505.5487387426199,625
-502.9381484006032,536
-500.3282787082628,476
-497.71912948489364,462
-495.1107005497117,455
-492.5029917218539,449
-489.8960028203786,445
-487.28973366426493,449
-484.68418407241325,447
-482.07935386364494,437
-479.47524285670266,456
-476.87185087025,468
-474.2691777228715,470
-471.66722323307334,461
-469.0659872192821,437
-466.4654694998459,460
-463.86566989303384,471
-461.26658821703614,440
-458.66822428996414,446
-456.07057792985,447
-453.4736489546475,451
-450.877437182231,431
-448.28194243039627,471
-445.68716451686,442
-443.09310325926003,452
-440.49975847515555,436
-437.9071299820263,473
-435.31521759727354,453
-432.72402113821954,471
-430.13354042210767,471
-427.5437752661022,453
-424.95472548728867,482
-422.36639090267386,471
-419.7787713291855,508
-417.1918665836721,480
-414.60567648290385,501
-412.0202008435715,467
-409.4354394822874,462
-406.8513922155845,490
-404.26805885991723,481
-401.685439231661,493
-399.103533147112,490
-396.522340422488,466
-393.9418608739278,482
-391.3620943174908,472
-388.7830405691583,477
-386.2046994448317,446
-383.6270707603344,449
-381.05015433141045,451
-378.473949973725,453
-375.8984575028645,438
-373.32367673433623,427
-370.74960748356875,448
-368.1762495659117,418
-365.60360279663576,425
-363.03166699093265,407
-360.4604419639154,396
-357.8899275306178,392
-355.32012350599507,383
-352.7510297049233,384
-350.1826459421999,389
-347.61497203254316,376
-345.04800779059235,383
-342.4817530309082,385
-339.91620756797226,374
-337.35137121618743,384
-334.7872437898774,384
-332.22382510328725,394
-329.66111497058273,375
-327.09911320585127,367
-324.53781962310075,371
-321.9772340362607,374
-319.4173562591816,391
-316.8581861056348,376
-314.2997233893127,375
-311.7419679238294,388
-309.1849195227194,404
-306.62857799943856,409
-304.0729431673641,392
-301.51801483979375,420
-298.963792829947,416
-296.41027695096386,411
-293.85746701590574,413
-291.3053628377552,429
-288.7539642294155,417
-286.2032710037115,415
-283.65328297338897,395
-281.1039999511146,411
-278.5554217494762,435
-276.007548180983,398
-273.4603790580651,415
-270.9139141930734,423
-268.3681533982807,441
-265.8230964858798,432
-263.27874326798565,418
-260.7350935566336,436
-258.1921471637804,436
-255.6499039013039,457
-253.10836358100266,460
-250.56752601459698,444
-248.02739101372765,438
-245.48795838995704,474
-242.94922795476816,433
-240.41119951956557,450
-237.8738728956746,464
-235.33724789434166,450
-232.80132432673452,427
-230.2661020039418,418
-227.73158073697357,433
-225.19776033676033,438
-222.66464061415422,452
-220.1322213799284,440
-217.60050244477725,431
-215.06948361931552,415
-212.53916471408013,484
-210.00954553952818,479
-207.48062590603843,468
-204.9524056239104,479
-202.4248845033651,500
-199.8980623545441,486
-197.37193898751036,494
-194.84651421224817,475
-192.32178783866232,471
-189.79775967657952,492
-187.27442953574644,531
-184.7517972258321,513
-182.2298625564256,483
-179.7086253370378,499
-177.18808537710026,471
-174.66824248596583,476
-172.14909647290835,507
-169.6306471471229,509
-167.11289431772548,538
-164.59583779375328,552
-162.07947738416453,540
-159.5638128978386,569
-157.04884414357605,613
-154.53457093009854,636
-152.02099306604828,575
-149.50811035998936,559
-146.99592262040665,581
-144.48442965570587,552
-141.97363127421409,616
-139.46352728417958,618
-136.95411749377126,595
-134.44540171107985,551
-131.93737974411636,545
-129.43005140081357,581
-126.92341648902493,655
-124.41747481652521,708
-121.91222619101006,951
-119.40767042009657,1128
-116.90380731132257,1058
-114.40063667214702,1194
-111.8981583099503,1095
-109.3963720320337,848
-106.89527764561933,803
-104.39487495785067,1026
-101.89516377579241,1355
-99.39614390642998,1805
-96.89781515667039,1707
-94.40017733334128,1572
-91.90323024319173,1839
-89.40697369289148,2609
-86.91140748903172,3058
-84.41653143812482,2604
-81.92234534660395,1828
-79.42884902082358,2091
-76.93604226705907,4086
-74.4439248915071,7387
-71.95249670028534,9852
-69.46175749943245,9785
-66.97170709490854,8003
-64.48234529259423,6321
-61.99367189829195,4934
-59.50568671772464,3494
-57.01838955653636,2811
-54.53178022029283,3235
-52.045858514480074,3372
-49.560624244506016,3471
-47.07607721569923,3794
-44.59221723330904,4035
-42.10904410250669,4411
-39.62655762838392,4272
-37.14475761595372,3871
-34.66364387015028,4082
-32.18321619582866,4651
-29.70347439776515,4819
-27.224418280657005,4346
-24.74604764912317,4395
-22.26836230770266,5891
-19.7913620608565,9934
-17.315046712966478,16261
-14.83941606833514,22435
-12.36446993118659,35591
-9.89020810566592,65039
-7.416630395839093,65039
-4.94373660569363,65039
-2.471526539137585,65039
-6.821210263296962E-13,65039
2.47084320796705,65039
4.941003281093458,65039
7.410480415786196,65039
9.879274808531363,65039
12.347386655893956,65039
14.814816154518212,65039
17.28156350112681,65039
19.74762889252179,65039
22.21301252558385,19543
24.67771459727237,2984
27.141735304626195,1707
29.605074844762612,1818
32.06773341487792,1673
34.52971121224755,1320
36.99100843422559,1418
39.45162527824516,1213
41.91156194181792,948
44.370818622535126,903
46.82939551806646,883
49.287292826160524,970
51.74451074464503,1111
54.201049471426245,1011
56.65690920448981,884
59.112090141899785,963
61.56659248179983,835
64.02041642241159,741
66.4735621620365,728
68.92602989905402,717
71.37781983192338,829
73.82893215918205,854
76.27936707944684,808
78.72912479141326,857
81.17820549385567,797
83.62660938562783,756
86.07433666566146,766
88.5213875329681,645
90.96776218663751,696
93.41346082583925,713
95.85848364982041,905
98.30283085790859,864
100.7465026495089,740
103.18949922410604,651
105.63182078126385,615
108.07346752062438,615
110.51443964190923,605
112.95473734491827,588
115.39436082953114,626
117.83331029570547,674
120.27158594347827,752
122.7091879729652,780
125.1461165843615,712
127.58237197794062,637
130.01795435405518,569
132.4528639131364,594
134.88710085569494,593
137.32066538231982,599
139.75355769367923,568
142.1857779905207,561
144.61732647366978,543
147.04820334403132,580
149.47840880258934,583
151.90794305040674,598
154.33680628862487,701
156.76499871846443,726
159.19252054122433,696
161.61937195828352,694
164.04555317109896,701
166.47106438120693,771
168.89590579022217,819
171.320077599839,856
173.7435800118302,921
176.16641322804742,900
178.58857745042144,930
181.01007288096173,925
183.43089972175687,953
185.85105817497413,880
188.27054844285988,945
190.6893707277394,905
193.10752523201643,965
195.5250121581745,888
197.9418317087751,936
200.3579840864594,942
202.7734694939469,948
205.18828813403627,968
207.6024402096051,1029
210.01592592360964,1072
212.42874547908548,1082
214.84089907914665,1012
217.2523869269868,1001
219.66320922587727,994
222.0733661791695,959
224.48285799029293,988
226.8916848627572,986
229.29984700014882,1034
231.7073446061355,922
234.11417788446204,937
236.520347038953,974
238.92585227351185,1010
241.33069379212054,1003
243.73487179884035,1035
246.1383864978112,977
248.541238093252,994
250.9434267894609,1003
253.34495279081432,995
255.74581630176783,1011
258.1460175268563,984
260.54555667069314,928
262.9444339379703,912
265.3426495334594,926
267.7402036620107,963
270.1370965285529,1059
272.53332833809407,994
274.9288992957214,943
277.32380960660055,995
279.718059475976,966
282.1116491091717,985
284.5045787115897,979
286.89684848871195,971
289.2884586460981,958
291.67940938938807,1009
294.0697009242996,1025
296.4593334566299,1020
298.84830719225477,976
301.23662233712923,1005
303.6242790972866,961
306.01127767884,1001
308.39761828798066,966
310.78330113097934,1007
313.16832641418534,948
315.5526943440269,940
317.9364051270112,944
320.3194589697242,943
322.70185607883093,939
325.0835966610754,936
327.4646809232805,932
329.8451090723478,905
332.2248813152577,953
334.6039978590701,905
336.9824589109231,936
339.36026467803447,874
341.7374153677,898
344.113911187295,880
346.48975234427337,868
348.8649390461686,934
351.2394715005918,853
353.61334991523415,863
355.9865744978655,837
358.35914545633375,875
360.73106299856715,862
363.10232733257146,888
365.47293866643247,875
367.84289720831396,831
370.2122031664593,864
372.5808567491905,882
374.9488581649083,887
377.31620762209275,859
379.6829053293021,821
382.0489514951745,816
384.4143463284262,818
386.7790900378528,809
389.14318283232853,830
391.50662492080653,802
393.86941651231916,806
396.23155781597745,843
398.5930490409713,844
400.9538903965696,803
403.3140820921202,830
405.6736243370498,856
408.03251734086336,828
410.3907613131465,830
412.74835646356166,823
415.10530300185144,798
417.4616011378372,789
419.81725108141893,823
422.1722530425758,804
424.5266072313656,812
426.880313857925,789
429.2333731324701,824
431.58578526529516,817
433.9375504667738,807
436.2886689473588,814
438.63914091758113,790
440.9889665880513,748
443.33814616945835,842
445.68667987257015,802
448.03456790823395,811
450.3818104873759,813
452.72840782100013,802
455.07436012019105,783
457.41966759611057,804
459.7643304600007,777
462.10834892318155,792
464.4517231970525,749
466.79445349309174,782
469.1365400228566,801
471.4779829979826,776
473.81878263018564,790
476.15893913125876,788
478.4984527130747,774
480.8373235875855,786
483.17555196682144,775
485.5131380628919,815
487.8500820879857,828
490.1863842543697,812
492.52204477439034,859
494.8570638604725,855
497.1914417251204,902
499.52517858091653,871
501.85827464052306,934
504.19073011668036,988
506.5225452222086,1175
508.85372017000566,1526
511.18425517304956,2021
513.514150444396,2719
515.8434061971808,3132
518.1720226446176,3364
520.4999999999999,3221
522.8273384766991,2862
525.1540382881666,2370
527.480099647932,1845
529.8055227696037,1503
532.1303078668694,1200
534.454455153496,1050
536.777964843328,941
539.1008371502907,1005
541.4230722883866,943
543.744670471698,922
546.0656319143858,901
548.3859568306899,913
550.7056454349294,893
553.0246979415016,862
555.3431145648834,915
557.6608955196306,861
559.978041020377,859
562.2945512818363,871
564.6104265188006,854
566.9256669461412,882
569.2402727788082,805
571.5542442318302,857
573.8675815203156,846
576.1802848594508,862
578.4923544645015,865
580.8037905508126,848
583.114593333807,896
585.4247630289875,853
587.7342998519354,830
590.0432040183106,870
592.3514757438526,856
594.6591152443794,888
596.9661227357875,846
599.2724984340531,830
601.578242555231,876
603.8833553154542,891
606.1878369309362,864
608.4916876179676,834
610.7949075929192,890
613.0974970722403,887
615.3994562724587,904
617.7007854101818,852
620.0014847020951,836
622.3015543649641,874
624.6009946156324,864
626.8998056710224,851
629.1979877481361,811
631.4955410640538,864
633.7924658359349,837
636.0887622810175,879
638.3844306166192,878
640.6794710601358,827
642.9738838290426,839
645.2676691408932,862
647.5608272133207,846
649.853358264037,827
652.1452625108324,857
654.4365401715764,860
656.7271914642178,843
659.0172166067838,858
661.3066158173809,871
663.5953893141935,851
665.8835373154867,897
668.1710600396028,882
670.4579577049639,911
672.7442305300709,854
675.0298787335033,860
677.3149025339197,857
679.599302150058,882
681.8830778007342,849
684.1662297048437,846
686.4487580813608,841
688.7306631493387,841
691.0119451279091,845
693.2926042362834,827
695.5726406937516,880
697.8520547196814,858
700.1308465335215,832
702.4090163547982,869
704.6865644031171,871
706.9634908981619,854
709.2397960596965,810
711.5154801075631,823
713.7905432616823,859
716.0649857420548,839
718.3388077687592,852
720.612009561953,824
722.8845913418733,826
725.1565533288352,841
727.427895743234,808
729.6986188055427,828
731.9687227363137,867
734.238207756178,834
736.5070740858458,858
738.7753219461066,894
741.0429515578281,853
743.3099631419569,843
745.5763569195191,867
747.8421331116193,828
750.1072919394409,852
752.3718336242467,860
754.6357583873777,814
756.8990664502545,831
759.1617580343765,872
761.423833361321,827
763.6852926527457,904
765.9461361303862,869
768.206364016058,806
770.4659765316536,859
772.7249738991469,906
774.9833563405886,859
777.2411240781092,859
779.4982773339183,893
781.7548163303044,817
784.010741289634,856
786.2660524343538,892
788.5207499869881,860
790.7748341701416,862
793.0283052064964,872
795.2811633188143,908
797.5334087299362,827
799.7850416627813,870
802.0360623403484,875
804.2864709857143,883
806.5362678220353,871
808.7854530725468,840
811.0340269605625,861
813.2819897094754,891
815.5293415427581,899
817.77608268396,906
820.0222133567116,855
822.2677337847211,863
824.5126441917765,855
826.7569448017433,893
829.0006358385675,868
831.2437175262731,835
833.4861900889629,843
835.7280537508192,871
837.9693087361026,857
840.2099552691533,839
842.4499935743896,851
844.689423876309,847
846.9282463994886,875
849.1664613685833,897
851.4040690083276,859
853.6410695435349,894
855.877463199097,831
858.1132501999847,894
860.3484307712487,863
862.5830051380175,848
864.8169735254988,864
867.0503361589791,875
869.2830932638243,899
871.5152450654786,868
873.7467917894654,851
875.9777336613873,878
878.2080709069252,861
880.4378037518389,828
882.666932421968,874
884.8954571432301,851
887.1233781416219,875
889.3506956432192,874
891.5774098741766,871
893.803521060728,847
896.0290294291852,860
898.2539352059397,877
900.4782386174619,858
902.7019398903011,862
904.925039251085,845
907.147536926521,864
909.3694331433943,856
911.59072812857,848
913.8114221089921,845
916.0315153116827,825
918.2510079637437,836
920.4699002923547,879
922.6881925247761,839
924.905884888345,851
927.1229776104793,875
929.3394709186747,929
931.555365040506,898
933.7706602036275,867
935.9853566357709,890
938.1994545647489,921
940.4129542184515,917
942.6258558248488,886
944.8381596119883,884
947.0498658079974,902
949.2609746410825,876
951.4714863395287,888
953.6814011316998,884
955.8907192460387,904
958.0994409110671,839
960.3075663553858,902
962.5150958076741,905
964.7220294966913,948
966.928367651274,894
969.1341105003388,908
971.3392582728806,903
973.5438111979742,883
975.747769504772,880
977.9511334225061,875
980.153903180487,874
982.3560790081052,888
984.5576611348289,873
986.7586497902058,847
988.9590452038618,795
991.158847605503,814
993.3580572249133,850
995.5566742919558,811
997.7546990365728,786
999.952131688785,806
1002.1489724786926,799
1004.3452216364743,787
1006.5408793923874,753
1008.7359459767691,786
1010.9304216200343,795
1013.1243065526781,779
1015.3176010052733,782
1017.510305208472,781
1019.7024193930064,753
1021.8939437896848,763
1024.0848786293977,728
1026.2752241431122,725
1028.4649805618747,765
1030.6541481168115,718
1032.842727039127,731
1035.0307175601051,731
1037.2181199111074,739
1039.4049343235752,692
1041.591161029029,718
1043.7768002590683,719
1045.9618522453698,711
1048.1463172196918,739
1050.3301954138697,725
1052.513487059818,707
1054.69619238953,740
1056.8783116350783,716
1059.0598450286152,765
1061.2407928023704,719
1063.4211551886528,707
1065.6009324198508,687
1067.780124728432,725
1069.9587323469414,734
1072.1367555080046,702
1074.314194444325,687
1076.4910493886855,741
1078.667320573947,704
1080.843008233051,724
1083.0181125990161,681
1085.1926339049414,709
1087.3665723840027,716
1089.5399282694575,702
1091.7127017946405,687
1093.8848931929647,712
1096.0565026979243,719
1098.2275305430899,681
1100.3979769621128,694
1102.567842188722,691
1104.737126456726,712
1106.9058300000124,682
1109.0739530525475,678
1111.2414958483764,689
1113.4084586216231,703
1115.5748416064907,683
1117.7406450372605,694
1119.9058691482942,658
1122.0705141740304,707
1124.2345803489884,702
1126.3980679077658,700
1128.5609770850388,701
1130.7233081155623,682
1132.8850612341707,693
1135.0462366757774,686
1137.2068346753745,652
1139.3668554680326,697
1141.526299288901,661
1143.68516637321,698
1145.8434569562655,676
1148.001171273455,684
1150.158309560244,675
1152.3148720521767,668
1154.470858984876,672
1156.626270594044,647
1158.7811071154629,641
1160.9353687849912,669
1163.089055838569,649
1165.242168512213,683
1167.3947070420209,694
1169.5466716641677,702
1171.6980626149075,668
1173.8488801305748,657
1175.9991244475814,647
1178.1487958024186,674
1180.2978944316555,663
1182.4464205719428,671
1184.5943744600072,644
1186.7417563326567,655
1188.8885664267755,665
1191.0348049793297,648
1193.1804722273619,685
1195.325568407995,672
1197.4700937584303,640
1199.614048515948,663
1201.7574329179074,675
1203.900247201746,639
1206.042491604982,686
1208.1841663652099,660
1210.3252717201053,646
1212.465807907422,666
1214.6057751649923,672
1216.7451737307279,697
1218.8840038426192,639
1221.0222657387353,647
1223.1599596572241,686
1225.2970858363137,688
1227.4336445143094,681
1229.5696359295966,681
1231.705060320639,702
1233.8399179259786,690
1235.9742089842384,662
1238.107933734118,670
1240.2410924143974,649
1242.373685263935,682
1244.5057125216676,686
1246.6371744266116,692
1248.7680712178621,688
1250.898403134593,669
1253.028170416058,689
1255.1573733015875,703
1257.2860120305932,659
1259.4140868425648,674
1261.54159797707,664
1263.6685456737569,706
1265.7949301723515,691
1267.9207517126597,679
1270.046010534565,688
1272.1707068780306,689
1274.2948409830983,723
1276.4184130898889,668
1278.541423438603,658
1280.6638722695184,668
1282.785759822993,653
1284.9070863394636,694
1287.0278520594447,732
1289.1480572235314,682
1291.2677020723963,720
1293.3867868467923,676
1295.5053117875495,694
1297.623277135579,676
1299.740683131868,676
1301.8575300174857,698
1303.973818033578,691
1306.0895474213703,734
1308.2047184221678,692
1310.3193312773528,671
1312.4333862283888,662
1314.5468835168163,708
1316.659823384255,692
1318.7722060724045,695
1320.8840318230418,659
1322.9953008780249,699
1325.1060134792888,689
1327.2161698688478,654
1329.3257702887959,681
1331.4348149813054,668
1333.5433041886276,660
1335.6512381530933,684
1337.7586171171101,686
1339.8654413231675,707
1341.9717110138317,686
1344.0774264317488,706
1346.1825878196432,656
1348.2871954203192,658
1350.3912494766587,704
1352.4947502316231,720
1354.5976979282532,689
1356.7000928096686,712
1358.8019351190665,709
1360.9032250997243,667
1363.0039629949988,680
1365.1041490483235,690
1367.2037835032133,691
1369.3028666032606,703
1371.401398592137,669
1373.4993797135926,722
1375.5968102114575,720
1377.6936903296396,636
1379.7900203121262,648
1381.8858004029835,715
1383.9810308463561,724
1386.075711886469,676
1388.1698437676241,673
1390.2634267342032,687
1392.356461030667,688
1394.4489469015557,696
1396.5408845914872,697
1398.6322743451592,697
1400.7231164073469,683
1402.813411022907,704
1404.903158436773,707
1406.9923588939578,709
1409.0810126395531,657
1411.1691199187303,696
1413.2566809767386,715
1415.343696058907,682
1417.4301654106425,681
1419.5160892774315,694
1421.6014679048399,704
1423.6863015385125,688
1425.7705904241707,715
1427.8543348076178,722
1429.9375349347342,690
1432.0201910514802,685
1434.102303403894,678
1436.1838722380944,697
1438.2648978002767,716
1440.3453803367174,679
1442.4253200937692,724
1444.5047173178677,684
1446.5835722555234,710
1448.6618851533285,704
1450.739656257952,671
1452.8168858161434,727
1454.8935740747306,729
1456.96972128062,706
1459.045327680797,712
1461.120393522327,693
1463.1949190523528,698
1465.2689045180973,710
1467.3423501668608,742
1469.415256246024,699
1471.4876230030463,683
1473.559450685465,704
1475.6307395408976,697
1477.7014898170391,681
1479.771701761665,727
1481.8413756226287,702
1483.9105116478618,701
1485.9791100853772,688
1488.0471711832643,709
1490.1146951896926,683
1492.1816823529098,732
1494.2481329212433,713
1496.3140471430984,709
1498.3794252669609,711
1500.4442675413939,673
1502.5085742150404,709
1504.572345536622,693
1506.6355817549388,719
1508.6982831188702,705
1510.7604498773744,710
1512.8220822794883,701
1514.8831805743293,732
1516.9437450110909,712
1519.003775839048,716
1521.0632733075522,743
1523.1222376660367,712
1525.1806691640113,719
1527.2385680510652,693
1529.2959345768668,704
1531.3527689911643,698
1533.4090715437833,740
1535.4648424846291,703
1537.5200820636855,723
1539.5747905310159,725
1541.6289681367616,709
1543.6826151311434,704
1545.7357317644614,687
1547.7883182870937,727
1549.8403749494987,699
1551.8919020022113,711
1553.9428996958477,732
1555.9933682811015,707
1558.0433080087469,712
1560.0927191296346,714
1562.1416018946961,706
1564.1899565549415,683
1566.2377833614592,701
1568.2850825654164,724
1570.3318544180606,747
1572.3780991707158,760
1574.423817074788,729
1576.4690083817595,696
1578.5136733431923,687
1580.5578122107272,732
1582.601425236085,693
1584.6445126710646,695
1586.6870747675434,656
1588.7291117774776,709
1590.7706239529034,675
1592.8116115459347,718
1594.8520748087658,677
1596.8920139936686,692
1598.9314293529933,692
1600.9703211391711,708
1603.008689604711,699
1605.0465350022005,702
1607.0838575843068,698
1609.1206576037753,715
1611.1569353134305,692
1613.1926909661765,679
1615.2279248149953,671
1617.2626371129481,721
1619.2968281131757,703
1621.3304980688963,677
1623.3636472334088,718
1625.39627586009,663
1627.428384202396,703
1629.459972513861,692
1631.4910410480993,708
1633.5215900588028,735
1635.551619799744,712
1637.5811305247717,698
1639.6101224878166,701
1641.6385959428862,691
1643.6665511440683,697
1645.693988345528,672
1647.7209078015112,670
1649.7473097663405,680
1651.7731944944203,723
1653.7985622402307,713
1655.823413258333,718
1657.847747803366,718
1659.8715661300494,656
1661.8948684931793,704
1663.9176551476316,704
1665.9399263483624,716
1667.9616823504057,697
1669.982923408873,714
1672.0036497789574,669
1674.0238617159293,664
1676.043559475138,692
1678.0627433120121,683
1680.081413482059,671
1682.0995702408654,693
1684.117213844096,641
1686.134344547495,690
1688.1509626068864,708
1690.1670682781705,673
1692.182661817329,707
1694.1977434804217,715
1696.2123135235875,714
1698.226372203043,685
1700.2399197750851,679
1702.2529564960905,684
1704.2654826225112,700
1706.277498410882,648
1708.2890041178139,684
1710.2999999999988,693
1712.3104863142066,666
1714.3204633172854,682
1716.329931266163,697
1718.3388904178469,697
1720.3473410294214,665
1722.3552833580516,700
1724.3627176609807,688
1726.3696441955308,656
1728.3760632191033,705
1730.3819749891782,705
1732.3873797633146,697
1734.3922777991502,683
1736.3966693544012,700
1738.4005546868639,661
1740.4039340544127,688
1742.406807715001,665
1744.4091759266616,673
1746.4110389475054,687
1748.4123970357223,698
1750.413250449582,705
1752.4135994474318,719
1754.4134442876993,645
1756.4127852288902,689
1758.4116225295893,682
1760.4099564484595,695
1762.407787244244,705
1764.405115175764,694
1766.4019405019203,679
1768.3982634816916,687
1770.3940843741357,698
1772.3894034383907,672
1774.3842209336717,682
1776.378537119274,658
1778.372352254571,717
1780.3656665990156,697
1782.3584804121397,698
1784.3507939535534,724
1786.3426074829463,694
1788.3339212600863,688
1790.3247355448211,718
1792.3150505970766,703
1794.3048666768573,668
1796.2941840442477,666
1798.2830029594106,697
1800.2713236825884,688
1802.2591464741004,699
1804.2464715943465,722
1806.2332993038058,694
1808.2196298630352,719
1810.2054635326708,684
1812.190800573428,666
1814.175641246101,736
1816.1599858115628,699
1818.1438345307652,721
1820.127187664738,715
1822.1100454745924,708
1824.092408221516,707
1826.0742761667766,710
1828.055649571721,673
1830.0365286977735,665
1832.0169138064398,695
1833.9968051593014,694
1835.9762030180214,694
1837.9551076443408,731
1839.9335193000788,674
1841.9114382471344,708
1843.888864747485,702
1845.8657990631878,724
1847.842241456378,696
1849.8181921892697,704
1851.7936515241558,664
1853.7686197234098,677
1855.7430970494815,698
1857.7170837649014,714
1859.6905801322787,699
1861.6635864143004,697
1863.6361028737338,693
1865.608129773424,668
1867.5796673762961,699
1869.5507159453537,684
1871.521275743678,708
1873.4913470344313,682
1875.4609300808534,701
1877.4300251462632,708
1879.3986324940588,682
1881.366752387717,730
1883.3343850907936,717
1885.3015308669228,736
1887.268189979819,693
1889.2343626932739,690
1891.2000492711595,687
1893.1652499774254,680
1895.1299650761011,714
1897.0941948312952,691
1899.0579395071945,665
1901.0211993680641,731
1902.98397467825,712
1904.9462657021745,716
1906.9080727043415,701
1908.869395949332,716
1910.8302357018065,706
1912.790592226504,687
1914.7504657882428,677
1916.7098566519212,704
1918.6687650825133,705
1920.6271913450764,683
1922.5851357047422,709
1924.5425984267245,699
1926.499579776314,692
1928.4560800188833,690
1930.4120994198802,688
1932.367638244833,693
1934.32269675935,706
1936.2772752291175,677
1938.231373919899,705
1940.1849930975404,711
1942.1381330279637,714
1944.0907939771696,704
1946.0429762112412,721
1947.9946799963363,708
1949.9459055986945,712
1951.896653284633,687
1953.8469233205478,691
1955.7967159729142,712
1957.7460315082863,716
1959.6948701932974,683
1961.6432322946594,692
1963.5911180791632,659
1965.5385278136787,682
1967.4854617651545,721
1969.4319202006182,695
1971.377903387176,672
1973.3234115920136,691
1975.268445082395,757
1977.2130041256642,688
1979.1570889892423,710
1981.1006999406304,684
1983.04383724741,705
1984.986501177238,687
1986.928691997853,705
1988.8704099770712,690
1990.811655382789,709
1992.7524284829801,694
1994.692729545698,729
1996.6325588390755,673
1998.5719166313224,688
2000.5108031907307,711
2002.4492187856677,694
2004.387163684583,729
2006.3246381560011,713
2008.2616424685298,712
2010.1981768908527,665
2012.1342416917332,695
2014.069837140014,689
2016.0049635046162,725
2017.9396210545406,687
2019.8738100588666,685
2021.8075307867502,697
2023.740783507431,681
2025.6735684902228,718
2027.6058860045214,673
2029.5377363198004,735
2031.4691197056118,732
2033.4000364315875,718
2035.3304867674374,720
2037.260470982952,723
2039.189989347998,685
2041.1190421325232,701
2043.047629606554,700
2044.9757520401945,719
2046.9034097036288,685
2048.8306028671195,696
2050.7573318010086,691
2052.683596775716,700
2054.609398061742,720
2056.5347359296647,709
2058.4596106501403,702
2060.384022493906,723
2062.3079717317764,684
2064.231458634646,683
2066.1544834734873,684
2068.077046519352,706
2069.99914804337,682
2071.9207883167524,698
2073.8419676107865,713
2075.7626861968406,710
2077.6829443463607,723
2079.6027423308715,705
2081.522080421977,690
2083.440958891362,702
2085.359378010786,702
2087.2773380520907,713
2089.194839287196,719
2091.111881988101,713
2093.0284664268825,696
2094.9445928756973,679
2096.86026160678,682
2098.775472892446,685
2100.690227005088,679
2102.604524217178,702
2104.5183648012676,725
2106.431749029985,708
2108.34467717604,720
2110.2571495122206,710
2112.169166311393,686
2114.080727846503,692
2115.9918343905747,719
2117.902486216711,718
2119.8126835980956,707
2121.722426807987,682
2123.6317161197285,723
2125.5405518067364,721
2127.448934142509,693
2129.356863400624,702
2131.264339854737,684
2133.1713637785815,703
2135.077935445972,684
2136.9840551308002,698
2138.889723107037,689
2140.7949396487334,705
2142.699705030018,715
2144.6040195250994,706
2146.507883408264,706
2148.4112969538774,719
2150.3142604363848,711
2152.2167741303097,698
2154.1188383102535,686
2156.0204532508997,714
2157.9216192270064,704
2159.822336513414,696
2161.7226053850413,730
2163.622426116884,693
2165.5217989840185,713
2167.4207242616,721
2169.319202224862,729
2171.2172331491165,711
2173.1148173097563,727
2175.0119549822507,700
2176.90864644215,718
2178.8048919650823,720
2180.7006918267534,703
2182.596046302952,714
2184.4909556695407,737
2186.3854202024645,727
2188.279440177746,672
2190.173015871487,748
2192.066147559868,706
2193.958835519149,696
2195.851080025667,697
2197.7428813558417,703
2199.6342397861667,731
2201.5251555932186,728
2203.415629053651,743
2205.3056604441986,728
2207.19525004167,717
2209.084398122958,746
2210.9731049650327,717
2212.861370844941,737
2214.749196039812,743
2216.636580826851,730
2218.523525483344,721
2220.410030286655,722
2222.296095514226,708
2224.1817214435805,709
2226.066908352319,732
2227.951656518121,734
2229.835966218746,709
2231.71983773203,743
2233.6032713358913,709
2235.486267308324,717
2237.3688259274036,736
2239.2509474712824,695
2241.132632218193,697
2243.013880446447,704
2244.8946924344323,701
2246.7750684606203,718
2248.6550088035574,731
2250.534513741871,710
2252.413583554265,730
2254.292218519526,752
2256.170418916517,713
2258.0481850241786,738
2259.925517121534,712
2261.8024154876825,742
2263.678880401803,717
2265.5549121431536,746
2267.430510991071,730
2269.305677224971,733
2271.180411124348,711
2273.0547129687766,755
2274.9285830379076,694
2276.8020216114737,733
2278.6750289692845,707
2280.5476053912294,738
2282.4197511572766,716
2284.2914665474727,743
2286.162751841943,752
2288.0336073208937,760
2289.904033264608,737
2291.774029953448,726
2293.6435976678554,712
2295.5127366883517,718
2297.381447295534,708
2299.2497297700825,709
2301.1175843927526,673
2302.9850114443825,672
2304.852011205885,665
2306.7185839582553,681
2308.5847299825664,670
2310.4504495599676,643
2312.3157429716925,667
2314.1806104990483,665
2316.0450524234247,652
2317.9090690262888,677
2319.772660589186,681
2321.635827393742,661
2323.498569721661,647
2325.3608878547248,656
2327.2227820747967,644
2329.0842526638157,658
2330.945299903803,653
2332.805924076857,674
2334.6661254651535,642
2336.525904350951,648
2338.3852610165827,634
2340.244195744464,619
2342.102708817088,662
2343.9608005170253,649
2345.8184711269287,643
2347.675720929526,628
2349.532550207628,652
2351.38895924412,604
2353.24494832197,632
2355.100517724223,640
2356.955667734004,656
2358.810398634514,655
2360.664710709037,610
2362.5186042409337,657
2364.3720795136437,624
2366.225136810686,622
2368.0777764156583,666
2369.929998612237,673
2371.7818036841777,662
2373.633191915315,654
2375.484163589562,650
2377.3347189909114,640
2379.184858403434,650
2381.03458211128,641
2382.8838903986775,653
2384.732783549936,676
2386.5812618494406,658
2388.4293255816588,627
2390.2769750311327,682
2392.1242104824883,660
2393.971032220427,646
2395.8174405297295,637
2397.6634356952563,655
2399.509018001947,645
2401.3541877348193,644
2403.1989451789705,661
2405.043290619576,641
2406.8872243418905,649
2408.730746631247,643
2410.5738577730594,667
2412.4165580528183,615
2414.258847756095,651
2416.100727168537,635
2417.9421965758734,650
2419.783256263912,647
2421.623906518538,617
2423.4641476257157,642
2425.303979871491,624
2427.143403541984,647
2428.9824189233977,628
2430.821026302012,641
2432.6592259641866,618
2434.497018196361,616
2436.33440328505,631
2438.171381516851,637
2440.00795317844,625
2441.844118556569,624
2443.6798779380724,638
2445.5152316098606,684
2447.3501798589255,617
2449.1847229723357,633
2451.0188612372403,620
2452.8525949408663,660
2454.6859243705203,640
2456.518849813587,647
2458.3513715575314,618
2460.183489889895,647
2462.015205098301,637
2463.8465174704493,629
2465.67742729412,648
2467.5079348571717,660
2469.338040447542,652
2471.1677443532476,640
2472.9970468623833,682
2474.825948263123,633
2476.6544488437207,634
2478.482548892508,639
2480.310248697896,645
2482.137548548374,626
2483.9644487325118,645
2485.790949538956,657
2487.617051256433,648
2489.44275417375,654
2491.26805857979,654
2493.0929647635157,668
2494.917473013971,629
2496.741583620276,658
2498.5652968716304,659
2500.3886130573137,641
2502.2115324666834,663
2504.0340553891765,654
2505.856182114308,640
2507.6779129316733,629
2509.499248130945,648
2511.3201880018764,655
2513.140732834298,614
2514.9608829181198,638
2516.780638543331,615
2518.6,625
2520.418967578273,635
2522.237541568376,663
2524.0557222606144,670
2525.8735099453706,643
2527.6909049131086,631
2529.507907454368,662
2531.32451785977,636
2533.140736420014,647
2534.9565634258774,645
2536.771999168218,654
2538.5870439379714,629
2540.4016980261526,666
2542.2159617238544,649
2544.02983532225,604
2545.8433191125914,654
2547.656413386209,674
2549.4691184345115,631
2551.2814345489874,635
2553.093362021204,650
2554.904901142808,633
2556.716052205523,628
2558.526815501153,593
2560.3371913215824,631
2562.147179958771,635
2563.956781704761,638
2565.7659968516705,687
2567.5748256916986,648
2569.3832685171224,639
2571.1913256202984,629
2572.9989972936614,636
2574.806283829725,617
2576.613185521084,619
2578.4197026604074,632
2580.2258355404483,663
2582.031584454035,646
2583.836949694077,657
2585.6419315535613,633
2587.4465303255533,639
2589.2507463032002,641
2591.0545797797245,663
2592.8580310484303,630
2594.6611004026995,654
2596.463788135992,640
2598.266094541849,657
2600.0680199138874,634
2601.869564545807,621
2603.670728731383,603
2605.4715127644704,645
2607.2719169390048,647
2609.071941548998,615
2610.8715868885433,653
2612.670853251811,655
2614.469740933052,655
2616.268250226594,645
2618.0663814268455,634
2619.864134828292,661
2621.6615107255006,637
2623.458509413115,641
2625.2551311858597,646
2627.0513763385347,628
2628.8472451660223,640
2630.6427379632833,650
2632.4378550253564,600
2634.232596647359,648
2636.026963124488,632
2637.8209547520187,660
2639.6145718253065,624
2641.407814639785,678
2643.200683490966,657
2644.9931786744414,638
2646.7853004858807,677
2648.577049221034,655
2650.3684251757277,621
2652.1594286458712,660
2653.9500599274484,659
2655.740319316525,637
2657.5302071092437,623
2659.3197236018286,622
2661.10886909058,658
2662.8976438718782,648
2664.686048242183,640
2666.4740824980327,628
2668.2617469360443,626
2670.0490418529134,646
2671.8359675454153,643
2673.622524310403,646
2675.408712444811,640
2677.1945322456495,639
2678.979984010009,625
2680.76506803506,632
2682.5497846180497,645
2684.334134056306,665
2686.1181166472343,659
2687.9017326883213,621
2689.6849824771293,669
2691.4678663113013,642
2693.2503844885596,606
2695.032537306705,628
2696.8143250636167,644
2698.5957480572542,650
2700.3768065856534,636
2702.1575009469316,616
2703.937831439283,629
2705.717798360982,630
2707.4974020103837,633
2709.276642685917,634
2711.055520686095,649
2712.834036309506,629
2714.612189854819,617
2716.389981620782,634
2718.1674119062204,644
2719.944481010041,650
2721.721189231226,601
2723.4975368688415,638
2725.273524222027,661
2727.0491515900053,643
2728.824419272075,637
2730.5993275676146,653
2732.3738767760838,609
2734.148067197016,629
2735.921899130031,631
2737.6953728748194,632
2739.468488731156,629
2741.2412469988926,614
2743.0136479779617,647
2744.785691968372,663
2746.5573792702116,685
2748.3287101836504,634
2750.099685008934,628
2751.870304046388,640
2753.640567596418,663
2755.4104759595057,642
2757.1800294362156,646
2758.949228327187,612
2760.7180729331412,629
2762.486563554877,635
2764.254700493272,625
2766.022484049284,666
2767.789914523947,654
2769.5569922183786,651
2771.3237174337705,648
2773.090090471394,644
2774.8561116326036,648
2776.6217812188274,640
2778.3870995315756,645
2780.1520668724356,642
2781.9166835430747,667
2783.6809498452394,644
2785.444866080754,661
2787.2084325515225,629
2788.971649559527,626
2790.73451740683,628
2792.4970363955713,629
2794.2592068279705,654
2796.0210290063264,640
2797.7825032330147,627
2799.543629810493,624
2801.304409041296,642
2803.0648412280366,663
2804.8249266734088,664
2806.5846656801846,680
2808.344058551212,642
2810.1031055894246,648
2811.8618070978273,644
2813.6201633795085,615
2815.378174737636,635
2817.1358414754536,628
2818.893163896285,655
2820.6501423035334,655
2822.4067770006814,642
2824.1630682912883,654
2825.9190164789957,652
2827.6746218675207,647
2829.429884760661,641
2831.184805462294,655
2832.9393842763743,648
2834.693621506936,630
2836.4475174580916,646
2838.201072434034,649
2839.954286739034,642
2841.707160677441,639
2843.459694553685,630
2845.2118886722724,669
2846.96374333779,656
2848.7152588549034,655
2850.4664355283567,652
2852.217273662973,651
2853.9677735636546,655
2855.7179355353833,643
2857.4677598832186,656
2859.217246912299,643
2860.9663969278427,670
2862.715210235146,640
2864.4636871395846,627
2866.211827946614,625
2867.9596329617652,660
2869.7071024906536,635
2871.4542368389684,640
2873.20103631248,652
2874.947501217038,657
2876.6936318585695,646
2878.4394285430812,612
2880.1848915766604,651
2881.9300212654707,645
2883.6748179157553,647
2885.4192818338374,633
2887.1634133261173,664
2888.907212699077,646
2890.6506802592744,656
2892.393816313348,668
2894.1366211680142,633
2895.8790951300693,615
2897.621238506388,647
2899.363051603925,648
2901.1045347297118,617
2902.8456881908596,630
2904.58651229456,648
2906.327007348081,645
2908.067173658772,624
2909.8070115340597,678
2911.5465212814497,634
2913.285703208527,654
2915.0245576229563,665
2916.7630848324807,642
2918.5012851449196,633
2920.2391588681758,658
2921.976706310227,659
2923.7139277791334,634
2925.4508235830313,641
2927.187394030137,654
2928.923639428745,628
2930.6595600872306,645
2932.395156314046,649
2934.1304284177218,667
2935.8653767068713,687
2937.6000014901815,665
2939.3343030764227,671
2941.068281774442,656
2942.8019378931644,644
2944.5352717415976,663
2946.2682836288236,675
2948.0009738640065,651
2949.7333427563885,624
2951.465390615289,633
2953.1971177501086,647
2954.9285244703265,649
2956.6596110855,656
2958.3903779052657,662
2960.1208252393385,652
2961.8509533975125,658
2963.5807626896617,619
2965.3102534257378,643
2967.0394259157715,662
2968.768280469873,654
2970.496817398232,644
2972.2250370111146,692
2973.952939618869,661
2975.6805255319196,644
2977.4077950607707,643
2979.134748516006,664
2980.861386208289,654
2982.587708448359,661
2984.313715547037,684
2986.039407815222,647
2987.764785563891,634
2989.489849104102,676
2991.2145987469908,618
2992.9390348037705,613
2994.6631575857346,659
2996.3869674042576,654
2998.1104645707887,637
2999.83364939686,632
3001.5565221940783,653
3003.2790832741334,631
3005.0013329487924,614
3006.7232715298996,657
3008.4448993293804,638
3010.166216659239,641
3011.887223831558,626
3013.607921158498,643
3015.3283089522993,666
3017.0483875252826,638
3018.7681571898443,652
3020.4876182584626,669
3022.2067710436927,644
3023.9256158581707,634
3025.644153014609,654
3027.362382825801,654
3029.0803056046193,629
3030.797921664012,655
3032.5152313170106,635
3034.2322348767225,627
3035.9489326563353,634
3037.665324969115,632
3039.3814121284063,632
3041.097194447633,633
3042.812672240299,661
3044.5278458199855,650
3046.2427155003525,656
3047.9572815951406,634
3049.671544418167,649
3051.38550428333,639
3053.0991615046073,636
3054.812516396051,631
3056.5255692717974,637
3058.2383204460575,657
3059.9507702331257,650
3061.662918947372,679
3063.3747669032446,652
3065.0863144152736,659
3066.7975617980674,634
3068.508509366309,651
3070.219157434767,621
3071.9295063182844,632
3073.639556331785,652
3075.3493077902704,639
3077.058761008821,631
3078.7679163025964,627
3080.476773986837,661
3082.1853343768594,641
3083.89359778806,609
3085.6015645359153,647
3087.3092349359786,652
3089.016609303884,662
3090.7236879553434,673
3092.4304712061476,632
3094.136959372166,634
3095.843152769349,684
3097.5490517137237,661
3099.2546565213966,630
3100.959967508554,654
3102.66498499146,642
3104.3697092864577,636
3106.0741407099695,628
3107.778279578498,640
3109.482126208622,628
3111.1856809170004,633
3112.8889440203716,621
3114.5919158355528,629
3116.294596679439,629
3117.996986869006,627
3119.6990867213062,632
3121.4008965534726,639
3123.102416682717,626
3124.803647426329,644
3126.5045891016784,637
3128.205242026213,648
3129.90560651746,631
3131.605682893025,650
3133.3054714705922,626
3135.0049725679282,668
3136.7041865028714,658
3138.4031135933465,655
3140.101754157353,648
3141.800108512971,665
3143.498176978357,681
3145.1959598717494,644
3146.8934575114636,621
3148.5906702158954,618
3150.2875983035183,633
3151.9842420928853,611
3153.680601902627,661
3155.376678051456,653
3157.07247085816,645
3158.767980641609,637
3160.463207720748,648
3162.158152414606,604
3163.8528150422862,628
3165.5471959229726,659
3167.2412953759303,644
3168.9351137204976,636
3170.628651276098,650
3172.3219083622307,636
3174.014885298474,646
3175.707582404485,627
3177.4000000000005,619
3179.092138404835,602
3180.7839979388846,677
3182.47557892212,611
3184.166881674594,643
3185.8579065164386,659
3187.5486537678626,638
3189.2391237491547,667
3190.9293167806827,648
3192.6192331828934,612
3194.3088732763117,641
3195.998237381542,641
3197.687325819268,624
3199.376138910251,637
3201.064676975334,620
3202.7529403354347,633
3204.4409293115523,623
3206.1286442247647,636
3207.816085396229,648
3209.5032531471825,662
3211.190147798936,616
3212.8767696728846,649
3214.5631190905015,659
3216.2491963733373,620
3217.9350018430214,669
3219.6205358212637,623
3221.305798629851,635
3222.990790590651,665
3224.6755120256103,640
3226.359963256751,638
3228.0441446061795,640
3229.7280563960758,646
3231.411698948703,626
3233.0950725863995,630
3234.778177631587,613
3236.461014406761,647
3238.1435832345005,659
3239.8258844374595,662
3241.507918338374,639
3243.1896852600576,616
3244.8711855254023,652
3246.552419457381,622
3248.233387379042,636
3249.914089613516,635
3251.59452648401,692
3253.274698313813,653
3254.95460542629,650
3256.6342481448855,623
3258.313626793125,633
3259.9927416946084,612
3261.6715931730196,633
3263.3501815521176,653
3265.0285071557437,639
3266.706570307815,636
3268.3843713323286,631
3270.0619105533615,619
3271.739188295068,632
3273.4162048816834,620
3275.0929606375184,631
3276.769455886966,629
3278.445690954498,611
3280.1216661646613,640
3281.797381842087,628
3283.4728383114807,631
3285.1480358976296,645
3286.8229749253996,643
3288.4976557197333,626
3290.172078605655,585
3291.846243908266,653
3293.5201519527463,631
3295.193803064357,641
3296.8671975684374,622
3298.5403357904024,632
3300.21321805575,677
3301.8858446900567,624
3303.558216018975,633
3305.23033236824,611
3306.9021940636603,607
3308.57380143113,620
3310.2451547966184,683
3311.916254486174,649
3313.5871008259246,645
3315.2576941420766,677
3316.9280347609147,646
3318.5981230088046,619
3320.2679592121895,601
3321.9375436975924,606
3323.606876791612,629
3325.27595882093,623
3326.944790112305,615
3328.6133709925753,622
3330.2817017886573,642
3331.949782827547,626
3333.617614436319,624
3335.2851969421245,624
3336.952530672199,640
3338.619615953853,631
3340.286453114475,624
3341.9530424815357,649
3343.619384382583,639
3345.2854791452437,624
3346.951327097224,623
3348.6169285663073,622
3350.2822838803577,635
3351.947393367319,631
3353.61225735521,607
3355.2768761721345,643
3356.9412501462693,645
3358.605379605873,632
3360.2692648792827,647
3361.9329062949146,656
3363.596304181263,629
