CollectionTime,7/11/2024 11:56:56 AM
ExposureUsed,3
CalibratedSpectrum
-962.7078968117929,65037
-959.9714848408522,65037
-957.2358232597828,65037
-954.5009119013725,65037
-951.7667505983302,65037
-949.0333391832855,65037
-946.3006774887896,65037
-943.5687653473143,65037
-940.837602591253,65037
-938.1071890529199,65037
-935.3775245645503,65037
-932.6486089583007,65037
-929.9204420662485,65037
-927.1930237203925,65037
-924.4663537526524,65037
-921.7404319948689,65037
-919.0152582788041,65037
-916.2908324361409,65037
-913.5671542984834,65037
-910.8442236973568,65037
-908.1220404642074,65037
-905.4006044304027,65037
-902.679915427231,65037
-899.959973285902,65037
-897.2407778375464,65037
-894.5223289132158,65037
-891.8046263438832,65037
-889.0876699604426,65037
-886.3714595937089,65037
-883.6559950744183,65037
-880.9412762332282,65037
-878.2273029007168,65037
-875.5140749073835,65037
-872.8015920836489,65037
-870.0898542598545,65037
-867.3788612662631,65037
-864.6686129330585,65037
-861.9591090903457,65037
-859.2503495681506,65037
-856.5423341964203,65037
-853.8350628050229,65037
-851.1285352237478,65037
-848.4227512823054,65037
-845.7177108103272,65037
-843.0134136373656,65037
-840.3098595928943,65037
-837.6070485063082,65037
-834.9049802069229,65037
-832.2036545239757,65037
-829.5030712866244,65037
-826.8032303239481,65037
-824.1041314649472,65037
-821.4057745385428,65037
-818.7081593735775,65037
-816.0112857988148,65037
-813.3151536429393,65037
-810.6197627345566,65037
-807.9251129021936,65037
-805.2312039742981,65037
-802.5380357792392,65037
-799.8456081453069,65037
-797.1539209007124,65037
-794.462973873588,65037
-791.772766891987,65037
-789.083299783884,65037
-786.3945723771743,65037
-783.7065844996748,65037
-781.0193359791231,65037
-778.3328266431781,65037
-775.6470563194197,65037
-772.9620248353489,65037
-770.2777320183878,65037
-767.5941776958798,65037
-764.9113616950891,65037
-762.2292838432011,65037
-759.5479439673222,65037
-756.8673418944801,65037
-754.1874774516235,65037
-751.5083504656222,65037
-748.8299607632671,65037
-746.15230817127,65037
-743.475392516264,65037
-740.7992136248035,65037
-738.1237713233636,65037
-735.4490654383407,65037
-732.7750957960521,65037
-730.1018622227365,65037
-727.4293645445534,65037
-724.7576025875837,65037
-722.0865761778291,65037
-719.4162851412126,65037
-716.7467293035781,65037
-714.0779084906909,65037
-711.409822528237,65037
-708.7424712418238,65037
-706.0758544569796,65037
-703.4099719991541,65037
-700.7448236937178,65037
-698.0804093659622,65037
-695.4167288411002,65037
-692.7537819442656,65037
-690.0915685005134,65037
-687.4300883348199,65037
-684.7693412720819,65037
-682.1093271371178,65037
-679.4500457546669,65037
-676.7914969493897,65037
-674.1336805458676,65037
-671.4765963686034,65037
-668.8202442420206,65037
-666.1646239904642,65037
-663.5097354382001,65037
-660.8555784094151,65037
-658.2021527282176,65037
-655.5494582186366,65037
-652.8974947046223,65037
-650.2462620100463,65037
-647.5957599587009,65037
-644.9459883742998,65037
-642.2969470804776,65037
-639.6486359007902,65037
-637.0010546587141,65037
-634.3542031776476,65037
-631.7080812809096,65037
-629.0626887917401,65037
-626.4180255333008,65037
-623.7740913286734,65037
-621.1308860008619,65037
-618.4884093727904,65037
-615.8466612673046,65037
-613.2056415071715,65037
-610.5653499150785,65037
-607.9257863136347,65037
-605.28695052537,65037
-602.6488423727357,65037
-600.0114616781036,65037
-597.3748082637674,65037
-594.7388819519412,65037
-592.1036825647604,65037
-589.4692099242818,65037
-586.8354638524829,65037
-584.2024441712624,65037
-581.5701507024403,65037
-578.9385832677575,65037
-576.3077416888759,65037
-573.6776257873787,65037
-571.0482353847704,65037
-568.4195703024757,65037
-565.7916303618415,65037
-563.164415384135,65037
-560.5379251905453,65037
-557.9121596021815,65037
-555.2871184400748,65037
-552.6628015251767,65037
-550.0392086783606,65037
-547.4163397204204,65037
-544.794194472071,65037
-542.1727727539491,65037
-539.5520743866118,65037
-536.9320991905377,65037
-534.3128469861261,65037
-531.6943175936979,65037
-529.0765108334947,65037
-526.4594265256793,65037
-523.8430644903358,65037
-521.2274245474689,65037
-518.612506517005,65037
-515.9983102187913,65037
-513.3848354725959,65037
-510.77208209810846,65037
-508.16004991493924,65037
-505.5487387426199,65037
-502.9381484006032,65037
-500.3282787082628,65037
-497.71912948489364,65037
-495.1107005497117,65037
-492.5029917218539,65037
-489.8960028203786,65037
-487.28973366426493,65037
-484.68418407241325,65037
-482.07935386364494,65037
-479.47524285670266,65037
-476.87185087025,65037
-474.2691777228715,65037
-471.66722323307334,65037
-469.0659872192821,65037
-466.4654694998459,65037
-463.86566989303384,65037
-461.26658821703614,65037
-458.66822428996414,65037
-456.07057792985,65037
-453.4736489546475,65037
-450.877437182231,65037
-448.28194243039627,65037
-445.68716451686,65037
-443.09310325926003,65037
-440.49975847515555,65037
-437.9071299820263,65037
-435.31521759727354,65037
-432.72402113821954,65037
-430.13354042210767,65037
-427.5437752661022,65037
-424.95472548728867,65037
-422.36639090267386,65037
-419.7787713291855,65037
-417.1918665836721,65037
-414.60567648290385,65037
-412.0202008435715,65037
-409.4354394822874,65037
-406.8513922155845,65037
-404.26805885991723,65037
-401.685439231661,65037
-399.103533147112,65037
-396.522340422488,65037
-393.9418608739278,65037
-391.3620943174908,65037
-388.7830405691583,65037
-386.2046994448317,65037
-383.6270707603344,65037
-381.05015433141045,65037
-378.473949973725,65037
-375.8984575028645,65037
-373.32367673433623,65037
-370.74960748356875,65037
-368.1762495659117,65037
-365.60360279663576,65037
-363.03166699093265,65037
-360.4604419639154,65037
-357.8899275306178,65037
-355.32012350599507,46618
-352.7510297049233,19891
-350.1826459421999,13966
-347.61497203254316,10756
-345.04800779059235,9080
-342.4817530309082,7780
-339.91620756797226,7073
-337.35137121618743,6253
-334.7872437898774,5828
-332.22382510328725,5668
-329.66111497058273,5556
-327.09911320585127,5420
-324.53781962310075,5102
-321.9772340362607,5105
-319.4173562591816,5021
-316.8581861056348,4922
-314.2997233893127,4873
-311.7419679238294,5031
-309.1849195227194,4807
-306.62857799943856,4833
-304.0729431673641,4863
-301.51801483979375,4750
-298.963792829947,4721
-296.41027695096386,4574
-293.85746701590574,4709
-291.3053628377552,4612
-288.7539642294155,4626
-286.2032710037115,4641
-283.65328297338897,4557
-281.1039999511146,4456
-278.5554217494762,4452
-276.007548180983,4446
-273.4603790580651,4426
-270.9139141930734,4478
-268.3681533982807,4468
-265.8230964858798,4314
-263.27874326798565,4360
-260.7350935566336,4232
-258.1921471637804,4283
-255.6499039013039,4232
-253.10836358100266,4189
-250.56752601459698,4216
-248.02739101372765,4231
-245.48795838995704,4223
-242.94922795476816,4151
-240.41119951956557,4105
-237.8738728956746,4104
-235.33724789434166,4103
-232.80132432673452,4059
-230.2661020039418,4158
-227.73158073697357,4000
-225.19776033676033,4077
-222.66464061415422,4048
-220.1322213799284,4070
-217.60050244477725,4014
-215.06948361931552,4010
-212.53916471408013,3940
-210.00954553952818,3945
-207.48062590603843,4024
-204.9524056239104,3910
-202.4248845033651,4078
-199.8980623545441,3877
-197.37193898751036,3860
-194.84651421224817,3927
-192.32178783866232,3889
-189.79775967657952,3949
-187.27442953574644,3872
-184.7517972258321,3833
-182.2298625564256,3883
-179.7086253370378,3942
-177.18808537710026,3938
-174.66824248596583,3854
-172.14909647290835,3914
-169.6306471471229,3807
-167.11289431772548,3834
-164.59583779375328,3901
-162.07947738416453,3782
-159.5638128978386,3853
-157.04884414357605,3645
-154.53457093009854,3687
-152.02099306604828,3700
-149.50811035998936,3894
-146.99592262040665,3737
-144.48442965570587,3699
-141.97363127421409,3707
-139.46352728417958,3760
-136.95411749377126,3705
-134.44540171107985,3690
-131.93737974411636,3700
-129.43005140081357,3711
-126.92341648902493,3604
-124.41747481652521,3660
-121.91222619101006,3630
-119.40767042009657,3704
-116.90380731132257,3691
-114.40063667214702,3714
-111.8981583099503,3751
-109.3963720320337,3588
-106.89527764561933,3535
-104.39487495785067,3624
-101.89516377579241,3599
-99.39614390642998,3546
-96.89781515667039,3627
-94.40017733334128,3607
-91.90323024319173,3708
-89.40697369289148,3619
-86.91140748903172,3602
-84.41653143812482,3565
-81.92234534660395,3582
-79.42884902082358,3561
-76.93604226705907,3603
-74.4439248915071,3496
-71.95249670028534,3553
-69.46175749943245,3393
-66.97170709490854,3425
-64.48234529259423,3546
-61.99367189829195,3574
-59.50568671772464,3534
-57.01838955653636,3530
-54.53178022029283,3589
-52.045858514480074,3471
-49.560624244506016,3610
-47.07607721569923,3535
-44.59221723330904,3529
-42.10904410250669,3526
-39.62655762838392,3594
-37.14475761595372,3574
-34.66364387015028,3587
-32.18321619582866,3592
-29.70347439776515,3542
-27.224418280657005,3400
-24.74604764912317,3564
-22.26836230770266,3562
-19.7913620608565,3523
-17.315046712966478,3490
-14.83941606833514,3515
-12.36446993118659,3520
-9.89020810566592,3402
-7.416630395839093,3515
-4.94373660569363,3569
-2.471526539137585,3605
-6.821210263296962E-13,3543
2.47084320796705,3512
4.941003281093458,3515
7.410480415786196,3507
9.879274808531363,3592
12.347386655893956,3526
14.814816154518212,3470
17.28156350112681,3606
19.74762889252179,3596
22.21301252558385,3505
24.67771459727237,3567
27.141735304626195,3524
29.605074844762612,3576
32.06773341487792,3566
34.52971121224755,3473
36.99100843422559,3635
39.45162527824516,3499
41.91156194181792,3532
44.370818622535126,3578
46.82939551806646,3561
49.287292826160524,3632
51.74451074464503,3654
54.201049471426245,3700
56.65690920448981,3624
59.112090141899785,3583
61.56659248179983,3549
64.02041642241159,3632
66.4735621620365,3669
68.92602989905402,3612
71.37781983192338,3746
73.82893215918205,3690
76.27936707944684,3861
78.72912479141326,3896
81.17820549385567,3802
83.62660938562783,3913
86.07433666566146,4060
88.5213875329681,4213
90.96776218663751,4287
93.41346082583925,4249
95.85848364982041,4316
98.30283085790859,4465
100.7465026495089,4649
103.18949922410604,4681
105.63182078126385,4974
108.07346752062438,5183
110.51443964190923,5208
112.95473734491827,5495
115.39436082953114,5693
117.83331029570547,5961
120.27158594347827,6074
122.7091879729652,6474
125.1461165843615,6904
127.58237197794062,7359
130.01795435405518,7946
132.4528639131364,8719
134.88710085569494,9881
137.32066538231982,11213
139.75355769367923,13839
142.1857779905207,16868
144.61732647366978,22246
147.04820334403132,30451
149.47840880258934,42658
151.90794305040674,60905
154.33680628862487,65037
156.76499871846443,65037
159.19252054122433,65037
161.61937195828352,65037
164.04555317109896,65037
166.47106438120693,65037
168.89590579022217,65037
171.320077599839,65037
173.7435800118302,65037
176.16641322804742,65037
178.58857745042144,65037
181.01007288096173,65037
183.43089972175687,65037
185.85105817497413,65037
188.27054844285988,65037
190.6893707277394,65037
193.10752523201643,65037
195.5250121581745,65037
197.9418317087751,65037
200.3579840864594,65037
202.7734694939469,65037
205.18828813403627,65037
207.6024402096051,65037
210.01592592360964,65037
212.42874547908548,65037
214.84089907914665,65037
217.2523869269868,65037
219.66320922587727,65037
222.0733661791695,65037
224.48285799029293,65037
226.8916848627572,65037
229.29984700014882,65037
231.7073446061355,65037
234.11417788446204,65037
236.520347038953,65037
238.92585227351185,65037
241.33069379212054,65037
243.73487179884035,65037
246.1383864978112,65037
248.541238093252,65037
250.9434267894609,65037
253.34495279081432,65037
255.74581630176783,65037
258.1460175268563,65037
260.54555667069314,65037
262.9444339379703,65037
265.3426495334594,65037
267.7402036620107,65037
270.1370965285529,65037
272.53332833809407,65037
274.9288992957214,65037
277.32380960660055,65037
279.718059475976,65037
282.1116491091717,65037
284.5045787115897,65037
286.89684848871195,65037
289.2884586460981,65037
291.67940938938807,65037
294.0697009242996,65037
296.4593334566299,65037
298.84830719225477,65037
301.23662233712923,65037
303.6242790972866,65037
306.01127767884,65037
308.39761828798066,65037
310.78330113097934,65037
313.16832641418534,65037
315.5526943440269,65037
317.9364051270112,65037
320.3194589697242,65037
322.70185607883093,65037
325.0835966610754,65037
327.4646809232805,65037
329.8451090723478,65037
332.2248813152577,65037
334.6039978590701,65037
336.9824589109231,65037
339.36026467803447,65037
341.7374153677,65037
344.113911187295,65037
346.48975234427337,65037
348.8649390461686,65037
351.2394715005918,65037
353.61334991523415,65037
355.9865744978655,65037
358.35914545633375,65037
360.73106299856715,65037
363.10232733257146,65037
365.47293866643247,65037
367.84289720831396,65037
370.2122031664593,65037
372.5808567491905,65037
374.9488581649083,65037
377.31620762209275,65037
379.6829053293021,65037
382.0489514951745,65037
384.4143463284262,65037
386.7790900378528,65037
389.14318283232853,65037
391.50662492080653,65037
393.86941651231916,65037
396.23155781597745,65037
398.5930490409713,65037
400.9538903965696,65037
403.3140820921202,65037
405.6736243370498,65037
408.03251734086336,65037
410.3907613131465,65037
412.74835646356166,65037
415.10530300185144,65037
417.4616011378372,65037
419.81725108141893,65037
422.1722530425758,65037
424.5266072313656,65037
426.880313857925,65037
429.2333731324701,65037
431.58578526529516,65037
433.9375504667738,65037
436.2886689473588,65037
438.63914091758113,65037
440.9889665880513,65037
443.33814616945835,65037
445.68667987257015,65037
448.03456790823395,65037
450.3818104873759,65037
452.72840782100013,65037
455.07436012019105,65037
457.41966759611057,65037
459.7643304600007,65037
462.10834892318155,65037
464.4517231970525,65037
466.79445349309174,65037
469.1365400228566,65037
471.4779829979826,65037
473.81878263018564,65037
476.15893913125876,65037
478.4984527130747,65037
480.8373235875855,65037
483.17555196682144,65037
485.5131380628919,65037
487.8500820879857,65037
490.1863842543697,65037
492.52204477439034,65037
494.8570638604725,65037
497.1914417251204,65037
499.52517858091653,65037
501.85827464052306,65037
504.19073011668036,65037
506.5225452222086,65037
508.85372017000566,65037
511.18425517304956,65037
513.514150444396,65037
515.8434061971808,65037
518.1720226446176,65037
520.4999999999999,65037
522.8273384766991,65037
525.1540382881666,65037
527.480099647932,65037
529.8055227696037,65037
532.1303078668694,65037
534.454455153496,65037
536.777964843328,65037
539.1008371502907,65037
541.4230722883866,65037
543.744670471698,65037
546.0656319143858,65037
548.3859568306899,65037
550.7056454349294,65037
553.0246979415016,65037
555.3431145648834,65037
557.6608955196306,65037
559.978041020377,65037
562.2945512818363,65037
564.6104265188006,65037
566.9256669461412,65037
569.2402727788082,65037
571.5542442318302,65037
573.8675815203156,65037
576.1802848594508,65037
578.4923544645015,65037
580.8037905508126,65037
583.114593333807,65037
585.4247630289875,65037
587.7342998519354,65037
590.0432040183106,65037
592.3514757438526,65037
594.6591152443794,65037
596.9661227357875,65037
599.2724984340531,65037
601.578242555231,65037
603.8833553154542,65037
606.1878369309362,65037
608.4916876179676,65037
610.7949075929192,65037
613.0974970722403,65037
615.3994562724587,65037
617.7007854101818,65037
620.0014847020951,65037
622.3015543649641,65037
624.6009946156324,65037
626.8998056710224,65037
629.1979877481361,65037
631.4955410640538,65037
633.7924658359349,65037
636.0887622810175,65037
638.3844306166192,65037
640.6794710601358,65037
642.9738838290426,65037
645.2676691408932,65037
647.5608272133207,65037
649.853358264037,65037
652.1452625108324,65037
654.4365401715764,65037
656.7271914642178,65037
659.0172166067838,65037
661.3066158173809,65037
663.5953893141935,65037
665.8835373154867,65037
668.1710600396028,65037
670.4579577049639,65037
672.7442305300709,65037
675.0298787335033,65037
677.3149025339197,65037
679.599302150058,65037
681.8830778007342,65037
684.1662297048437,65037
686.4487580813608,65037
688.7306631493387,65037
691.0119451279091,65037
693.2926042362834,65037
695.5726406937516,65037
697.8520547196814,65037
700.1308465335215,65037
702.4090163547982,65037
704.6865644031171,65037
706.9634908981619,65037
709.2397960596965,65037
711.5154801075631,65037
713.7905432616823,65037
716.0649857420548,65037
718.3388077687592,65037
720.612009561953,65037
722.8845913418733,65037
725.1565533288352,65037
727.427895743234,65037
729.6986188055427,65037
731.9687227363137,65037
734.238207756178,65037
736.5070740858458,65037
738.7753219461066,65037
741.0429515578281,65037
743.3099631419569,65037
745.5763569195191,65037
747.8421331116193,65037
750.1072919394409,65037
752.3718336242467,65037
754.6357583873777,65037
756.8990664502545,65037
759.1617580343765,65037
761.423833361321,65037
763.6852926527457,65037
765.9461361303862,65037
768.206364016058,65037
770.4659765316536,65037
772.7249738991469,65037
774.9833563405886,65037
777.2411240781092,65037
779.4982773339183,65037
781.7548163303044,65037
784.010741289634,65037
786.2660524343538,65037
788.5207499869881,65037
790.7748341701416,65037
793.0283052064964,65037
795.2811633188143,65037
797.5334087299362,65037
799.7850416627813,65037
802.0360623403484,65037
804.2864709857143,65037
806.5362678220353,65037
808.7854530725468,65037
811.0340269605625,65037
813.2819897094754,65037
815.5293415427581,65037
817.77608268396,65037
820.0222133567116,65037
822.2677337847211,65037
824.5126441917765,65037
826.7569448017433,65037
829.0006358385675,65037
831.2437175262731,65037
833.4861900889629,65037
835.7280537508192,65037
837.9693087361026,65037
840.2099552691533,65037
842.4499935743896,65037
844.689423876309,65037
846.9282463994886,65037
849.1664613685833,65037
851.4040690083276,65037
853.6410695435349,65037
855.877463199097,65037
858.1132501999847,65037
860.3484307712487,65037
862.5830051380175,65037
864.8169735254988,65037
867.0503361589791,65037
869.2830932638243,65037
871.5152450654786,65037
873.7467917894654,65037
875.9777336613873,65037
878.2080709069252,65037
880.4378037518389,65037
882.666932421968,65037
884.8954571432301,65037
887.1233781416219,65037
889.3506956432192,65037
891.5774098741766,65037
893.803521060728,65037
896.0290294291852,65037
898.2539352059397,65037
900.4782386174619,65037
902.7019398903011,65037
904.925039251085,65037
907.147536926521,65037
909.3694331433943,65037
911.59072812857,65037
913.8114221089921,65037
916.0315153116827,65037
918.2510079637437,65037
920.4699002923547,65037
922.6881925247761,65037
924.905884888345,65037
927.1229776104793,65037
929.3394709186747,65037
931.555365040506,65037
933.7706602036275,65037
935.9853566357709,65037
938.1994545647489,65037
940.4129542184515,65037
942.6258558248488,65037
944.8381596119883,65037
947.0498658079974,65037
949.2609746410825,65037
951.4714863395287,65037
953.6814011316998,65037
955.8907192460387,65037
958.0994409110671,65037
960.3075663553858,65037
962.5150958076741,65037
964.7220294966913,65037
966.928367651274,65037
969.1341105003388,65037
971.3392582728806,65037
973.5438111979742,65037
975.747769504772,65037
977.9511334225061,65037
980.153903180487,65037
982.3560790081052,65037
984.5576611348289,65037
986.7586497902058,65037
988.9590452038618,65037
991.158847605503,65037
993.3580572249133,65037
995.5566742919558,65037
997.7546990365728,65037
999.952131688785,65037
1002.1489724786926,65037
1004.3452216364743,65037
1006.5408793923874,65037
1008.7359459767691,65037
1010.9304216200343,65037
1013.1243065526781,65037
1015.3176010052733,65037
1017.510305208472,65037
1019.7024193930064,65037
1021.8939437896848,65037
1024.0848786293977,65037
1026.2752241431122,65037
1028.4649805618747,65037
1030.6541481168115,65037
1032.842727039127,65037
1035.0307175601051,65037
1037.2181199111074,65037
1039.4049343235752,65037
1041.591161029029,65037
1043.7768002590683,65037
1045.9618522453698,65037
1048.1463172196918,65037
1050.3301954138697,65037
1052.513487059818,65037
1054.69619238953,65037
1056.8783116350783,65037
1059.0598450286152,65037
1061.2407928023704,65037
1063.4211551886528,65037
1065.6009324198508,65037
1067.780124728432,65037
1069.9587323469414,65037
1072.1367555080046,65037
1074.314194444325,65037
1076.4910493886855,65037
1078.667320573947,65037
1080.843008233051,65037
1083.0181125990161,65037
1085.1926339049414,65037
1087.3665723840027,65037
1089.5399282694575,65037
1091.7127017946405,65037
1093.8848931929647,65037
1096.0565026979243,65037
1098.2275305430899,65037
1100.3979769621128,65037
1102.567842188722,65037
1104.737126456726,65037
1106.9058300000124,65037
1109.0739530525475,65037
1111.2414958483764,65037
1113.4084586216231,65037
1115.5748416064907,65037
1117.7406450372605,65037
1119.9058691482942,65037
1122.0705141740304,65037
1124.2345803489884,65037
1126.3980679077658,65037
1128.5609770850388,65037
1130.7233081155623,65037
1132.8850612341707,65037
1135.0462366757774,65037
1137.2068346753745,65037
1139.3668554680326,65037
1141.526299288901,65037
1143.68516637321,65037
1145.8434569562655,65037
1148.001171273455,65037
1150.158309560244,65037
1152.3148720521767,65037
1154.470858984876,65037
1156.626270594044,65037
1158.7811071154629,65037
1160.9353687849912,65037
1163.089055838569,65037
1165.242168512213,65037
1167.3947070420209,65037
1169.5466716641677,65037
1171.6980626149075,65037
1173.8488801305748,65037
1175.9991244475814,65037
1178.1487958024186,65037
1180.2978944316555,65037
1182.4464205719428,65037
1184.5943744600072,65037
1186.7417563326567,65037
1188.8885664267755,65037
1191.0348049793297,65037
1193.1804722273619,65037
1195.325568407995,65037
1197.4700937584303,65037
1199.614048515948,65037
1201.7574329179074,65037
1203.900247201746,65037
1206.042491604982,65037
1208.1841663652099,65037
1210.3252717201053,65037
1212.465807907422,65037
1214.6057751649923,65037
1216.7451737307279,65037
1218.8840038426192,65037
1221.0222657387353,65037
1223.1599596572241,65037
1225.2970858363137,65037
1227.4336445143094,65037
1229.5696359295966,65037
1231.705060320639,65037
1233.8399179259786,65037
1235.9742089842384,65037
1238.107933734118,65037
1240.2410924143974,65037
1242.373685263935,65037
1244.5057125216676,65037
1246.6371744266116,65037
1248.7680712178621,65037
1250.898403134593,65037
1253.028170416058,65037
1255.1573733015875,65037
1257.2860120305932,65037
1259.4140868425648,65037
1261.54159797707,65037
1263.6685456737569,65037
1265.7949301723515,65037
1267.9207517126597,65037
1270.046010534565,65037
1272.1707068780306,65037
1274.2948409830983,65037
1276.4184130898889,65037
1278.541423438603,65037
1280.6638722695184,65037
1282.785759822993,65037
1284.9070863394636,65037
1287.0278520594447,65037
1289.1480572235314,65037
1291.2677020723963,65037
1293.3867868467923,65037
1295.5053117875495,65037
1297.623277135579,65037
1299.740683131868,65037
1301.8575300174857,65037
1303.973818033578,65037
1306.0895474213703,65037
1308.2047184221678,65037
1310.3193312773528,65037
1312.4333862283888,65037
1314.5468835168163,65037
1316.659823384255,65037
1318.7722060724045,65037
1320.8840318230418,65037
1322.9953008780249,65037
1325.1060134792888,65037
1327.2161698688478,65037
1329.3257702887959,65037
1331.4348149813054,65037
1333.5433041886276,65037
1335.6512381530933,65037
1337.7586171171101,65037
1339.8654413231675,65037
1341.9717110138317,65037
1344.0774264317488,65037
1346.1825878196432,65037
1348.2871954203192,65037
1350.3912494766587,65037
1352.4947502316231,65037
1354.5976979282532,65037
1356.7000928096686,65037
1358.8019351190665,65037
1360.9032250997243,65037
1363.0039629949988,65037
1365.1041490483235,65037
1367.2037835032133,65037
1369.3028666032606,65037
1371.401398592137,65037
1373.4993797135926,65037
1375.5968102114575,65037
1377.6936903296396,65037
1379.7900203121262,65037
1381.8858004029835,65037
1383.9810308463561,65037
1386.075711886469,65037
1388.1698437676241,65037
1390.2634267342032,65037
1392.356461030667,65037
1394.4489469015557,65037
1396.5408845914872,65037
1398.6322743451592,65037
1400.7231164073469,65037
1402.813411022907,65037
1404.903158436773,65037
1406.9923588939578,65037
1409.0810126395531,65037
1411.1691199187303,65037
1413.2566809767386,65037
1415.343696058907,65037
1417.4301654106425,65037
1419.5160892774315,65037
1421.6014679048399,65037
1423.6863015385125,65037
1425.7705904241707,65037
1427.8543348076178,65037
1429.9375349347342,65037
1432.0201910514802,65037
1434.102303403894,65037
1436.1838722380944,65037
1438.2648978002767,65037
1440.3453803367174,65037
1442.4253200937692,65037
1444.5047173178677,65037
1446.5835722555234,65037
1448.6618851533285,65037
1450.739656257952,65037
1452.8168858161434,65037
1454.8935740747306,65037
1456.96972128062,65037
1459.045327680797,65037
1461.120393522327,65037
1463.1949190523528,65037
1465.2689045180973,65037
1467.3423501668608,65037
1469.415256246024,65037
1471.4876230030463,65037
1473.559450685465,65037
1475.6307395408976,65037
1477.7014898170391,65037
1479.771701761665,65037
1481.8413756226287,65037
1483.9105116478618,65037
1485.9791100853772,65037
1488.0471711832643,65037
1490.1146951896926,65037
1492.1816823529098,65037
1494.2481329212433,65037
1496.3140471430984,65037
1498.3794252669609,65037
1500.4442675413939,65037
1502.5085742150404,65037
1504.572345536622,65037
1506.6355817549388,65037
1508.6982831188702,65037
1510.7604498773744,65037
1512.8220822794883,65037
1514.8831805743293,65037
1516.9437450110909,65037
1519.003775839048,65037
1521.0632733075522,65037
1523.1222376660367,65037
1525.1806691640113,65037
1527.2385680510652,65037
1529.2959345768668,65037
1531.3527689911643,65037
1533.4090715437833,65037
1535.4648424846291,65037
1537.5200820636855,65037
1539.5747905310159,65037
1541.6289681367616,65037
1543.6826151311434,65037
1545.7357317644614,65037
1547.7883182870937,65037
1549.8403749494987,65037
1551.8919020022113,65037
1553.9428996958477,65037
1555.9933682811015,65037
1558.0433080087469,65037
1560.0927191296346,65037
1562.1416018946961,65037
1564.1899565549415,65037
1566.2377833614592,65037
1568.2850825654164,65037
1570.3318544180606,65037
1572.3780991707158,65037
1574.423817074788,65037
1576.4690083817595,65037
1578.5136733431923,65037
1580.5578122107272,65037
1582.601425236085,65037
1584.6445126710646,65037
1586.6870747675434,65037
1588.7291117774776,65037
1590.7706239529034,65037
1592.8116115459347,65037
1594.8520748087658,65037
1596.8920139936686,65037
1598.9314293529933,65037
1600.9703211391711,65037
1603.008689604711,65037
1605.0465350022005,65037
1607.0838575843068,65037
1609.1206576037753,65037
1611.1569353134305,65037
1613.1926909661765,65037
1615.2279248149953,65037
1617.2626371129481,65037
1619.2968281131757,65037
1621.3304980688963,65037
1623.3636472334088,65037
1625.39627586009,65037
1627.428384202396,65037
1629.459972513861,65037
1631.4910410480993,65037
1633.5215900588028,65037
1635.551619799744,65037
1637.5811305247717,65037
1639.6101224878166,65037
1641.6385959428862,65037
1643.6665511440683,65037
1645.693988345528,65037
1647.7209078015112,65037
1649.7473097663405,65037
1651.7731944944203,65037
1653.7985622402307,65037
1655.823413258333,65037
1657.847747803366,65037
1659.8715661300494,65037
1661.8948684931793,65037
1663.9176551476316,65037
1665.9399263483624,65037
1667.9616823504057,65037
1669.982923408873,65037
1672.0036497789574,65037
1674.0238617159293,65037
1676.043559475138,65037
1678.0627433120121,65037
1680.081413482059,65037
1682.0995702408654,65037
1684.117213844096,65037
1686.134344547495,65037
1688.1509626068864,65037
1690.1670682781705,65037
1692.182661817329,65037
1694.1977434804217,65037
1696.2123135235875,65037
1698.226372203043,65037
1700.2399197750851,65037
1702.2529564960905,65037
1704.2654826225112,65037
1706.277498410882,65037
1708.2890041178139,65037
1710.2999999999988,65037
1712.3104863142066,65037
1714.3204633172854,65037
1716.329931266163,65037
1718.3388904178469,65037
1720.3473410294214,65037
1722.3552833580516,65037
1724.3627176609807,65037
1726.3696441955308,65037
1728.3760632191033,65037
1730.3819749891782,65037
1732.3873797633146,65037
1734.3922777991502,65037
1736.3966693544012,65037
1738.4005546868639,65037
1740.4039340544127,65037
1742.406807715001,65037
1744.4091759266616,65037
1746.4110389475054,65037
1748.4123970357223,65037
1750.413250449582,65037
1752.4135994474318,65037
1754.4134442876993,65037
1756.4127852288902,65037
1758.4116225295893,65037
1760.4099564484595,65037
1762.407787244244,65037
1764.405115175764,65037
1766.4019405019203,65037
1768.3982634816916,65037
1770.3940843741357,65037
1772.3894034383907,65037
1774.3842209336717,65037
1776.378537119274,65037
1778.372352254571,65037
1780.3656665990156,65037
1782.3584804121397,65037
1784.3507939535534,65037
1786.3426074829463,65037
1788.3339212600863,65037
1790.3247355448211,65037
1792.3150505970766,65037
1794.3048666768573,65037
1796.2941840442477,65037
1798.2830029594106,65037
1800.2713236825884,65037
1802.2591464741004,65037
1804.2464715943465,65037
1806.2332993038058,65037
1808.2196298630352,65037
1810.2054635326708,65037
1812.190800573428,65037
1814.175641246101,65037
1816.1599858115628,65037
1818.1438345307652,65037
1820.127187664738,65037
1822.1100454745924,65037
1824.092408221516,65037
1826.0742761667766,65037
1828.055649571721,65037
1830.0365286977735,65037
1832.0169138064398,65037
1833.9968051593014,65037
1835.9762030180214,65037
1837.9551076443408,65037
1839.9335193000788,65037
1841.9114382471344,65037
1843.888864747485,65037
1845.8657990631878,65037
1847.842241456378,65037
1849.8181921892697,65037
1851.7936515241558,65037
1853.7686197234098,65037
1855.7430970494815,65037
1857.7170837649014,65037
1859.6905801322787,65037
1861.6635864143004,65037
1863.6361028737338,65037
1865.608129773424,65037
1867.5796673762961,65037
1869.5507159453537,65037
1871.521275743678,65037
1873.4913470344313,65037
1875.4609300808534,65037
1877.4300251462632,65037
1879.3986324940588,65037
1881.366752387717,65037
1883.3343850907936,65037
1885.3015308669228,65037
1887.268189979819,65037
1889.2343626932739,65037
1891.2000492711595,65037
1893.1652499774254,65037
1895.1299650761011,65037
1897.0941948312952,65037
1899.0579395071945,65037
1901.0211993680641,65037
1902.98397467825,65037
1904.9462657021745,65037
1906.9080727043415,65037
1908.869395949332,65037
1910.8302357018065,65037
1912.790592226504,65037
1914.7504657882428,65037
1916.7098566519212,65037
1918.6687650825133,65037
1920.6271913450764,65037
1922.5851357047422,65037
1924.5425984267245,65037
1926.499579776314,65037
1928.4560800188833,65037
1930.4120994198802,65037
1932.367638244833,65037
1934.32269675935,65037
1936.2772752291175,65037
1938.231373919899,65037
1940.1849930975404,65037
1942.1381330279637,65037
1944.0907939771696,65037
1946.0429762112412,65037
1947.9946799963363,65037
1949.9459055986945,65037
1951.896653284633,65037
1953.8469233205478,65037
1955.7967159729142,65037
1957.7460315082863,65037
1959.6948701932974,65037
1961.6432322946594,65037
1963.5911180791632,65037
1965.5385278136787,65037
1967.4854617651545,65037
1969.4319202006182,65037
1971.377903387176,65037
1973.3234115920136,65037
1975.268445082395,65037
1977.2130041256642,65037
1979.1570889892423,65037
1981.1006999406304,65037
1983.04383724741,65037
1984.986501177238,65037
1986.928691997853,65037
1988.8704099770712,65037
1990.811655382789,65037
1992.7524284829801,65037
1994.692729545698,65037
1996.6325588390755,65037
1998.5719166313224,65037
2000.5108031907307,65037
2002.4492187856677,65037
2004.387163684583,65037
2006.3246381560011,65037
2008.2616424685298,65037
2010.1981768908527,65037
2012.1342416917332,65037
2014.069837140014,65037
2016.0049635046162,65037
2017.9396210545406,65037
2019.8738100588666,65037
2021.8075307867502,65037
2023.740783507431,65037
2025.6735684902228,65037
2027.6058860045214,65037
2029.5377363198004,65037
2031.4691197056118,65037
2033.4000364315875,65037
2035.3304867674374,65037
2037.260470982952,65037
2039.189989347998,65037
2041.1190421325232,65037
2043.047629606554,65037
2044.9757520401945,65037
2046.9034097036288,65037
2048.8306028671195,65037
2050.7573318010086,65037
2052.683596775716,65037
2054.609398061742,65037
2056.5347359296647,65037
2058.4596106501403,65037
2060.384022493906,65037
2062.3079717317764,65037
2064.231458634646,65037
2066.1544834734873,65037
2068.077046519352,65037
2069.99914804337,65037
2071.9207883167524,65037
2073.8419676107865,65037
2075.7626861968406,65037
2077.6829443463607,65037
2079.6027423308715,65037
2081.522080421977,65037
2083.440958891362,65037
2085.359378010786,65037
2087.2773380520907,65037
2089.194839287196,65037
2091.111881988101,65037
2093.0284664268825,65037
2094.9445928756973,65037
2096.86026160678,65037
2098.775472892446,65037
2100.690227005088,65037
2102.604524217178,65037
2104.5183648012676,65037
2106.431749029985,65037
2108.34467717604,65037
2110.2571495122206,65037
2112.169166311393,65037
2114.080727846503,65037
2115.9918343905747,65037
2117.902486216711,65037
2119.8126835980956,65037
2121.722426807987,65037
2123.6317161197285,65037
2125.5405518067364,65037
2127.448934142509,65037
2129.356863400624,65037
2131.264339854737,65037
2133.1713637785815,65037
2135.077935445972,65037
2136.9840551308002,65037
2138.889723107037,65037
2140.7949396487334,65037
2142.699705030018,65037
2144.6040195250994,65037
2146.507883408264,65037
2148.4112969538774,65037
2150.3142604363848,65037
2152.2167741303097,65037
2154.1188383102535,65037
2156.0204532508997,65037
2157.9216192270064,65037
2159.822336513414,65037
2161.7226053850413,65037
2163.622426116884,65037
2165.5217989840185,65037
2167.4207242616,65037
2169.319202224862,65037
2171.2172331491165,65037
2173.1148173097563,65037
2175.0119549822507,65037
2176.90864644215,65037
2178.8048919650823,65037
2180.7006918267534,65037
2182.596046302952,65037
2184.4909556695407,65037
2186.3854202024645,65037
2188.279440177746,65037
2190.173015871487,65037
2192.066147559868,65037
2193.958835519149,65037
2195.851080025667,65037
2197.7428813558417,65037
2199.6342397861667,65037
2201.5251555932186,65037
2203.415629053651,65037
2205.3056604441986,65037
2207.19525004167,65037
2209.084398122958,65037
2210.9731049650327,65037
2212.861370844941,65037
2214.749196039812,65037
2216.636580826851,65037
2218.523525483344,65037
2220.410030286655,65037
2222.296095514226,65037
2224.1817214435805,65037
2226.066908352319,65037
2227.951656518121,65037
2229.835966218746,65037
2231.71983773203,65037
2233.6032713358913,65037
2235.486267308324,65037
2237.3688259274036,65037
2239.2509474712824,65037
2241.132632218193,65037
2243.013880446447,65037
2244.8946924344323,65037
2246.7750684606203,65037
2248.6550088035574,65037
2250.534513741871,65037
2252.413583554265,65037
2254.292218519526,65037
2256.170418916517,65037
2258.0481850241786,65037
2259.925517121534,65037
2261.8024154876825,65037
2263.678880401803,65037
2265.5549121431536,65037
2267.430510991071,65037
2269.305677224971,65037
2271.180411124348,65037
2273.0547129687766,65037
2274.9285830379076,65037
2276.8020216114737,65037
2278.6750289692845,65037
2280.5476053912294,65037
2282.4197511572766,65037
2284.2914665474727,65037
2286.162751841943,65037
2288.0336073208937,65037
2289.904033264608,65037
2291.774029953448,65037
2293.6435976678554,65037
2295.5127366883517,65037
2297.381447295534,65037
2299.2497297700825,65037
2301.1175843927526,65037
2302.9850114443825,65037
2304.852011205885,65037
2306.7185839582553,65037
2308.5847299825664,65037
2310.4504495599676,65037
2312.3157429716925,65037
2314.1806104990483,65037
2316.0450524234247,65037
2317.9090690262888,65037
2319.772660589186,65037
2321.635827393742,65037
2323.498569721661,65037
2325.3608878547248,65037
2327.2227820747967,65037
2329.0842526638157,65037
2330.945299903803,65037
2332.805924076857,65037
2334.6661254651535,65037
2336.525904350951,65037
2338.3852610165827,65037
2340.244195744464,65037
2342.102708817088,65037
2343.9608005170253,65037
2345.8184711269287,65037
2347.675720929526,65037
2349.532550207628,65037
2351.38895924412,65037
2353.24494832197,65037
2355.100517724223,65037
2356.955667734004,65037
2358.810398634514,65037
2360.664710709037,65037
2362.5186042409337,65037
2364.3720795136437,65037
2366.225136810686,65037
2368.0777764156583,65037
2369.929998612237,65037
2371.7818036841777,65037
2373.633191915315,65037
2375.484163589562,65037
2377.3347189909114,65037
2379.184858403434,65037
2381.03458211128,65037
2382.8838903986775,65037
2384.732783549936,65037
2386.5812618494406,65037
2388.4293255816588,65037
2390.2769750311327,65037
2392.1242104824883,65037
2393.971032220427,65037
2395.8174405297295,65037
2397.6634356952563,65037
2399.509018001947,65037
2401.3541877348193,65037
2403.1989451789705,65037
2405.043290619576,65037
2406.8872243418905,65037
2408.730746631247,65037
2410.5738577730594,65037
2412.4165580528183,65037
2414.258847756095,65037
2416.100727168537,65037
2417.9421965758734,65037
2419.783256263912,65037
2421.623906518538,65037
2423.4641476257157,65037
2425.303979871491,65037
2427.143403541984,65037
2428.9824189233977,65037
2430.821026302012,65037
2432.6592259641866,65037
2434.497018196361,65037
2436.33440328505,65037
2438.171381516851,65037
2440.00795317844,65037
2441.844118556569,65037
2443.6798779380724,65037
2445.5152316098606,65037
2447.3501798589255,65037
2449.1847229723357,65037
2451.0188612372403,65037
2452.8525949408663,65037
2454.6859243705203,65037
2456.518849813587,65037
2458.3513715575314,65037
2460.183489889895,65037
2462.015205098301,65037
2463.8465174704493,65037
2465.67742729412,65037
2467.5079348571717,65037
2469.338040447542,65037
2471.1677443532476,65037
2472.9970468623833,65037
2474.825948263123,65037
2476.6544488437207,65037
2478.482548892508,65037
2480.310248697896,65037
2482.137548548374,65037
2483.9644487325118,65037
2485.790949538956,65037
2487.617051256433,65037
2489.44275417375,65037
2491.26805857979,65037
2493.0929647635157,65037
2494.917473013971,65037
2496.741583620276,65037
2498.5652968716304,65037
2500.3886130573137,65037
2502.2115324666834,65037
2504.0340553891765,65037
2505.856182114308,65037
2507.6779129316733,65037
2509.499248130945,65037
2511.3201880018764,65037
2513.140732834298,65037
2514.9608829181198,65037
2516.780638543331,65037
2518.6,65037
2520.418967578273,65037
2522.237541568376,65037
2524.0557222606144,65037
2525.8735099453706,65037
2527.6909049131086,65037
2529.507907454368,65037
2531.32451785977,65037
2533.140736420014,65037
2534.9565634258774,65037
2536.771999168218,65037
2538.5870439379714,65037
2540.4016980261526,65037
2542.2159617238544,65037
2544.02983532225,65037
2545.8433191125914,65037
2547.656413386209,65037
2549.4691184345115,65037
2551.2814345489874,65037
2553.093362021204,65037
2554.904901142808,65037
2556.716052205523,65037
2558.526815501153,65037
2560.3371913215824,65037
2562.147179958771,65037
2563.956781704761,65037
2565.7659968516705,65037
2567.5748256916986,65037
2569.3832685171224,65037
2571.1913256202984,65037
2572.9989972936614,65037
2574.806283829725,65037
2576.613185521084,65037
2578.4197026604074,65037
2580.2258355404483,65037
2582.031584454035,65037
2583.836949694077,65037
2585.6419315535613,65037
2587.4465303255533,65037
2589.2507463032002,65037
2591.0545797797245,65037
2592.8580310484303,65037
2594.6611004026995,65037
2596.463788135992,65037
2598.266094541849,65037
2600.0680199138874,65037
2601.869564545807,65037
2603.670728731383,65037
2605.4715127644704,65037
2607.2719169390048,65037
2609.071941548998,65037
2610.8715868885433,65037
2612.670853251811,65037
2614.469740933052,65037
2616.268250226594,65037
2618.0663814268455,65037
2619.864134828292,65037
2621.6615107255006,65037
2623.458509413115,65037
2625.2551311858597,65037
2627.0513763385347,65037
2628.8472451660223,65037
2630.6427379632833,65037
2632.4378550253564,65037
2634.232596647359,65037
2636.026963124488,65037
2637.8209547520187,65037
2639.6145718253065,65037
2641.407814639785,65037
2643.200683490966,65037
2644.9931786744414,65037
2646.7853004858807,65037
2648.577049221034,65037
2650.3684251757277,65037
2652.1594286458712,65037
2653.9500599274484,65037
2655.740319316525,65037
2657.5302071092437,65037
2659.3197236018286,65037
2661.10886909058,65037
2662.8976438718782,65037
2664.686048242183,65037
2666.4740824980327,65037
2668.2617469360443,65037
2670.0490418529134,65037
2671.8359675454153,65037
2673.622524310403,65037
2675.408712444811,65037
2677.1945322456495,65037
2678.979984010009,65037
2680.76506803506,65037
2682.5497846180497,65037
2684.334134056306,65037
2686.1181166472343,65037
2687.9017326883213,65037
2689.6849824771293,65037
2691.4678663113013,65037
2693.2503844885596,65037
2695.032537306705,65037
2696.8143250636167,65037
2698.5957480572542,65037
2700.3768065856534,65037
2702.1575009469316,65037
2703.937831439283,65037
2705.717798360982,65037
2707.4974020103837,65037
2709.276642685917,65037
2711.055520686095,65037
2712.834036309506,65037
2714.612189854819,65037
2716.389981620782,65037
2718.1674119062204,65037
2719.944481010041,65037
2721.721189231226,65037
2723.4975368688415,65037
2725.273524222027,65037
2727.0491515900053,65037
2728.824419272075,65037
2730.5993275676146,65037
2732.3738767760838,65037
2734.148067197016,65037
2735.921899130031,65037
2737.6953728748194,65037
2739.468488731156,65037
2741.2412469988926,65037
2743.0136479779617,65037
2744.785691968372,65037
2746.5573792702116,65037
2748.3287101836504,65037
2750.099685008934,65037
2751.870304046388,65037
2753.640567596418,65037
2755.4104759595057,65037
2757.1800294362156,65037
2758.949228327187,65037
2760.7180729331412,65037
2762.486563554877,65037
2764.254700493272,65037
2766.022484049284,65037
2767.789914523947,65037
2769.5569922183786,65037
2771.3237174337705,65037
2773.090090471394,65037
2774.8561116326036,65037
2776.6217812188274,65037
2778.3870995315756,65037
2780.1520668724356,65037
2781.9166835430747,65037
2783.6809498452394,65037
2785.444866080754,65037
2787.2084325515225,65037
2788.971649559527,65037
2790.73451740683,65037
2792.4970363955713,65037
2794.2592068279705,65037
2796.0210290063264,65037
2797.7825032330147,65037
2799.543629810493,65037
2801.304409041296,65037
2803.0648412280366,65037
2804.8249266734088,65037
2806.5846656801846,65037
2808.344058551212,65037
2810.1031055894246,65037
2811.8618070978273,65037
2813.6201633795085,65037
2815.378174737636,65037
2817.1358414754536,65037
2818.893163896285,65037
2820.6501423035334,65037
2822.4067770006814,65037
2824.1630682912883,65037
2825.9190164789957,65037
2827.6746218675207,65037
2829.429884760661,65037
2831.184805462294,65037
2832.9393842763743,65037
2834.693621506936,65037
2836.4475174580916,65037
2838.201072434034,65037
2839.954286739034,65037
2841.707160677441,65037
2843.459694553685,65037
2845.2118886722724,65037
2846.96374333779,65037
2848.7152588549034,65037
2850.4664355283567,65037
2852.217273662973,65037
2853.9677735636546,65037
2855.7179355353833,65037
2857.4677598832186,65037
2859.217246912299,65037
2860.9663969278427,65037
2862.715210235146,65037
2864.4636871395846,65037
2866.211827946614,65037
2867.9596329617652,65037
2869.7071024906536,65037
2871.4542368389684,65037
2873.20103631248,65037
2874.947501217038,65037
2876.6936318585695,65037
2878.4394285430812,65037
2880.1848915766604,65037
2881.9300212654707,65037
2883.6748179157553,65037
2885.4192818338374,65037
2887.1634133261173,65037
2888.907212699077,65037
2890.6506802592744,65037
2892.393816313348,65037
2894.1366211680142,65037
2895.8790951300693,65037
2897.621238506388,65037
2899.363051603925,65037
2901.1045347297118,65037
2902.8456881908596,65037
2904.58651229456,65037
2906.327007348081,65037
2908.067173658772,65037
2909.8070115340597,65037
2911.5465212814497,65037
2913.285703208527,65037
2915.0245576229563,65037
2916.7630848324807,65037
2918.5012851449196,65037
2920.2391588681758,65037
2921.976706310227,65037
2923.7139277791334,65037
2925.4508235830313,65037
2927.187394030137,65037
2928.923639428745,65037
2930.6595600872306,65037
2932.395156314046,65037
2934.1304284177218,65037
2935.8653767068713,65037
2937.6000014901815,65037
2939.3343030764227,65037
2941.068281774442,65037
2942.8019378931644,65037
2944.5352717415976,65037
2946.2682836288236,65037
2948.0009738640065,65037
2949.7333427563885,65037
2951.465390615289,65037
2953.1971177501086,65037
2954.9285244703265,65037
2956.6596110855,65037
2958.3903779052657,65037
2960.1208252393385,65037
2961.8509533975125,65037
2963.5807626896617,65037
2965.3102534257378,65037
2967.0394259157715,65037
2968.768280469873,65037
2970.496817398232,65037
2972.2250370111146,65037
2973.952939618869,65037
2975.6805255319196,65037
2977.4077950607707,65037
2979.134748516006,65037
2980.861386208289,65037
2982.587708448359,65037
2984.313715547037,65037
2986.039407815222,65037
2987.764785563891,65037
2989.489849104102,65037
2991.2145987469908,65037
2992.9390348037705,65037
2994.6631575857346,65037
2996.3869674042576,65037
2998.1104645707887,65037
2999.83364939686,65037
3001.5565221940783,65037
3003.2790832741334,65037
3005.0013329487924,65037
3006.7232715298996,65037
3008.4448993293804,65037
3010.166216659239,65037
3011.887223831558,65037
3013.607921158498,65037
3015.3283089522993,65037
3017.0483875252826,65037
3018.7681571898443,65037
3020.4876182584626,65037
3022.2067710436927,65037
3023.9256158581707,65037
3025.644153014609,65037
3027.362382825801,65037
3029.0803056046193,65037
3030.797921664012,65037
3032.5152313170106,65037
3034.2322348767225,65037
3035.9489326563353,65037
3037.665324969115,65037
3039.3814121284063,65037
3041.097194447633,65037
3042.812672240299,65037
3044.5278458199855,65037
3046.2427155003525,65037
3047.9572815951406,65037
3049.671544418167,65037
3051.38550428333,65037
3053.0991615046073,65037
3054.812516396051,65037
3056.5255692717974,65037
3058.2383204460575,65037
3059.9507702331257,65037
3061.662918947372,65037
3063.3747669032446,65037
3065.0863144152736,65037
3066.7975617980674,65037
3068.508509366309,65037
3070.219157434767,65037
3071.9295063182844,65037
3073.639556331785,65037
3075.3493077902704,65037
3077.058761008821,65037
3078.7679163025964,65037
3080.476773986837,65037
3082.1853343768594,65037
3083.89359778806,65037
3085.6015645359153,65037
3087.3092349359786,65037
3089.016609303884,65037
3090.7236879553434,65037
3092.4304712061476,65037
3094.136959372166,65037
3095.843152769349,65037
3097.5490517137237,65037
3099.2546565213966,65037
3100.959967508554,65037
3102.66498499146,65037
3104.3697092864577,65037
3106.0741407099695,65037
3107.778279578498,65037
3109.482126208622,65037
3111.1856809170004,65037
3112.8889440203716,65037
3114.5919158355528,65037
3116.294596679439,65037
3117.996986869006,65037
3119.6990867213062,65037
3121.4008965534726,65037
3123.102416682717,65037
3124.803647426329,65037
3126.5045891016784,65037
3128.205242026213,65037
3129.90560651746,65037
3131.605682893025,65037
3133.3054714705922,65037
3135.0049725679282,65037
3136.7041865028714,65037
3138.4031135933465,65037
3140.101754157353,65037
3141.800108512971,65037
3143.498176978357,65037
3145.1959598717494,65037
3146.8934575114636,65037
3148.5906702158954,65037
3150.2875983035183,65037
3151.9842420928853,65037
3153.680601902627,65037
3155.376678051456,65037
3157.07247085816,65037
3158.767980641609,65037
3160.463207720748,65037
3162.158152414606,65037
3163.8528150422862,65037
3165.5471959229726,65037
3167.2412953759303,65037
3168.9351137204976,65037
3170.628651276098,65037
3172.3219083622307,65037
3174.014885298474,65037
3175.707582404485,65037
3177.4000000000005,65037
3179.092138404835,65037
3180.7839979388846,65037
3182.47557892212,65037
3184.166881674594,65037
3185.8579065164386,65037
3187.5486537678626,65037
3189.2391237491547,65037
3190.9293167806827,65037
3192.6192331828934,65037
3194.3088732763117,65037
3195.998237381542,65037
3197.687325819268,65037
3199.376138910251,65037
3201.064676975334,65037
3202.7529403354347,65037
3204.4409293115523,65037
3206.1286442247647,65037
3207.816085396229,65037
3209.5032531471825,65037
3211.190147798936,65037
3212.8767696728846,65037
3214.5631190905015,65037
3216.2491963733373,65037
3217.9350018430214,65037
3219.6205358212637,65037
3221.305798629851,65037
3222.990790590651,65037
3224.6755120256103,65037
3226.359963256751,65037
3228.0441446061795,65037
3229.7280563960758,65037
3231.411698948703,65037
3233.0950725863995,65037
3234.778177631587,65037
3236.461014406761,65037
3238.1435832345005,65037
3239.8258844374595,65037
3241.507918338374,65037
3243.1896852600576,65037
3244.8711855254023,65037
3246.552419457381,65037
3248.233387379042,65037
3249.914089613516,65037
3251.59452648401,65037
3253.274698313813,65037
3254.95460542629,65037
3256.6342481448855,65037
3258.313626793125,65037
3259.9927416946084,65037
3261.6715931730196,65037
3263.3501815521176,65037
3265.0285071557437,65037
3266.706570307815,65037
3268.3843713323286,65037
3270.0619105533615,65037
3271.739188295068,65037
3273.4162048816834,65037
3275.0929606375184,65037
3276.769455886966,65037
3278.445690954498,65037
3280.1216661646613,65037
3281.797381842087,65037
3283.4728383114807,65037
3285.1480358976296,65037
3286.8229749253996,65037
3288.4976557197333,65037
3290.172078605655,65037
3291.846243908266,65037
3293.5201519527463,65037
3295.193803064357,65037
3296.8671975684374,65037
3298.5403357904024,65037
3300.21321805575,65037
3301.8858446900567,65037
3303.558216018975,65037
3305.23033236824,65037
3306.9021940636603,65037
3308.57380143113,65037
3310.2451547966184,65037
3311.916254486174,65037
3313.5871008259246,65037
3315.2576941420766,65037
3316.9280347609147,65037
3318.5981230088046,65037
3320.2679592121895,65037
3321.9375436975924,65037
3323.606876791612,65037
3325.27595882093,65037
3326.944790112305,65037
3328.6133709925753,65037
3330.2817017886573,65037
3331.949782827547,65037
3333.617614436319,65037
3335.2851969421245,65037
3336.952530672199,65037
3338.619615953853,65037
3340.286453114475,65037
3341.9530424815357,65037
3343.619384382583,65037
3345.2854791452437,65037
3346.951327097224,65037
3348.6169285663073,65037
3350.2822838803577,65037
3351.947393367319,65037
3353.61225735521,65037
3355.2768761721345,65037
3356.9412501462693,65037
3358.605379605873,65037
3360.2692648792827,65037
3361.9329062949146,65037
3363.596304181263,65037
