CollectionTime,7/3/2024 3:04:09 PM
ExposureUsed,3
CalibratedSpectrum
-962.7078968117929,454
-959.9714848408522,490
-957.2358232597828,491
-954.5009119013725,454
-951.7667505983302,477
-949.0333391832855,496
-946.3006774887896,497
-943.5687653473143,489
-940.837602591253,473
-938.1071890529199,491
-935.3775245645503,497
-932.6486089583007,513
-929.9204420662485,520
-927.1930237203925,493
-924.4663537526524,497
-921.7404319948689,495
-919.0152582788041,495
-916.2908324361409,524
-913.5671542984834,498
-910.8442236973568,464
-908.1220404642074,471
-905.4006044304027,551
-902.679915427231,491
-899.959973285902,462
-897.2407778375464,455
-894.5223289132158,472
-891.8046263438832,495
-889.0876699604426,476
-886.3714595937089,478
-883.6559950744183,451
-880.9412762332282,474
-878.2273029007168,471
-875.5140749073835,437
-872.8015920836489,499
-870.0898542598545,490
-867.3788612662631,466
-864.6686129330585,501
-861.9591090903457,475
-859.2503495681506,490
-856.5423341964203,475
-853.8350628050229,481
-851.1285352237478,474
-848.4227512823054,477
-845.7177108103272,480
-843.0134136373656,466
-840.3098595928943,481
-837.6070485063082,505
-834.9049802069229,506
-832.2036545239757,488
-829.5030712866244,486
-826.8032303239481,484
-824.1041314649472,489
-821.4057745385428,487
-818.7081593735775,479
-816.0112857988148,480
-813.3151536429393,499
-810.6197627345566,489
-807.9251129021936,474
-805.2312039742981,492
-802.5380357792392,518
-799.8456081453069,510
-797.1539209007124,521
-794.462973873588,530
-791.772766891987,538
-789.083299783884,499
-786.3945723771743,489
-783.7065844996748,473
-781.0193359791231,472
-778.3328266431781,504
-775.6470563194197,482
-772.9620248353489,473
-770.2777320183878,496
-767.5941776958798,512
-764.9113616950891,538
-762.2292838432011,501
-759.5479439673222,491
-756.8673418944801,507
-754.1874774516235,525
-751.5083504656222,500
-748.8299607632671,549
-746.15230817127,506
-743.475392516264,522
-740.7992136248035,539
-738.1237713233636,493
-735.4490654383407,530
-732.7750957960521,533
-730.1018622227365,523
-727.4293645445534,495
-724.7576025875837,499
-722.0865761778291,504
-719.4162851412126,537
-716.7467293035781,532
-714.0779084906909,519
-711.409822528237,536
-708.7424712418238,508
-706.0758544569796,541
-703.4099719991541,551
-700.7448236937178,591
-698.0804093659622,560
-695.4167288411002,557
-692.7537819442656,526
-690.0915685005134,515
-687.4300883348199,518
-684.7693412720819,510
-682.1093271371178,549
-679.4500457546669,527
-676.7914969493897,532
-674.1336805458676,532
-671.4765963686034,536
-668.8202442420206,521
-666.1646239904642,520
-663.5097354382001,531
-660.8555784094151,546
-658.2021527282176,518
-655.5494582186366,531
-652.8974947046223,547
-650.2462620100463,538
-647.5957599587009,554
-644.9459883742998,563
-642.2969470804776,542
-639.6486359007902,582
-637.0010546587141,616
-634.3542031776476,564
-631.7080812809096,556
-629.0626887917401,590
-626.4180255333008,572
-623.7740913286734,597
-621.1308860008619,621
-618.4884093727904,561
-615.8466612673046,562
-613.2056415071715,588
-610.5653499150785,605
-607.9257863136347,609
-605.28695052537,569
-602.6488423727357,578
-600.0114616781036,580
-597.3748082637674,542
-594.7388819519412,603
-592.1036825647604,676
-589.4692099242818,680
-586.8354638524829,630
-584.2024441712624,600
-581.5701507024403,632
-578.9385832677575,581
-576.3077416888759,603
-573.6776257873787,628
-571.0482353847704,575
-568.4195703024757,584
-565.7916303618415,605
-563.164415384135,608
-560.5379251905453,601
-557.9121596021815,613
-555.2871184400748,648
-552.6628015251767,616
-550.0392086783606,615
-547.4163397204204,640
-544.794194472071,623
-542.1727727539491,646
-539.5520743866118,665
-536.9320991905377,708
-534.3128469861261,747
-531.6943175936979,707
-529.0765108334947,726
-526.4594265256793,749
-523.8430644903358,898
-521.2274245474689,1013
-518.612506517005,1117
-515.9983102187913,1056
-513.3848354725959,1112
-510.77208209810846,1212
-508.16004991493924,1331
-505.5487387426199,1507
-502.9381484006032,1534
-500.3282787082628,1372
-497.71912948489364,1252
-495.1107005497117,1091
-492.5029917218539,924
-489.8960028203786,831
-487.28973366426493,812
-484.68418407241325,756
-482.07935386364494,745
-479.47524285670266,744
-476.87185087025,727
-474.2691777228715,719
-471.66722323307334,756
-469.0659872192821,787
-466.4654694998459,769
-463.86566989303384,781
-461.26658821703614,749
-458.66822428996414,753
-456.07057792985,711
-453.4736489546475,745
-450.877437182231,726
-448.28194243039627,712
-445.68716451686,732
-443.09310325926003,735
-440.49975847515555,731
-437.9071299820263,747
-435.31521759727354,749
-432.72402113821954,778
-430.13354042210767,770
-427.5437752661022,706
-424.95472548728867,771
-422.36639090267386,769
-419.7787713291855,811
-417.1918665836721,862
-414.60567648290385,843
-412.0202008435715,818
-409.4354394822874,816
-406.8513922155845,846
-404.26805885991723,820
-401.685439231661,859
-399.103533147112,845
-396.522340422488,856
-393.9418608739278,841
-391.3620943174908,847
-388.7830405691583,747
-386.2046994448317,763
-383.6270707603344,749
-381.05015433141045,791
-378.473949973725,711
-375.8984575028645,640
-373.32367673433623,621
-370.74960748356875,616
-368.1762495659117,613
-365.60360279663576,541
-363.03166699093265,548
-360.4604419639154,506
-357.8899275306178,539
-355.32012350599507,532
-352.7510297049233,504
-350.1826459421999,469
-347.61497203254316,492
-345.04800779059235,510
-342.4817530309082,519
-339.91620756797226,509
-337.35137121618743,530
-334.7872437898774,589
-332.22382510328725,574
-329.66111497058273,522
-327.09911320585127,489
-324.53781962310075,494
-321.9772340362607,516
-319.4173562591816,495
-316.8581861056348,524
-314.2997233893127,485
-311.7419679238294,478
-309.1849195227194,529
-306.62857799943856,535
-304.0729431673641,567
-301.51801483979375,578
-298.963792829947,545
-296.41027695096386,602
-293.85746701590574,633
-291.3053628377552,698
-288.7539642294155,603
-286.2032710037115,531
-283.65328297338897,555
-281.1039999511146,671
-278.5554217494762,724
-276.007548180983,655
-273.4603790580651,589
-270.9139141930734,597
-268.3681533982807,577
-265.8230964858798,652
-263.27874326798565,636
-260.7350935566336,629
-258.1921471637804,625
-255.6499039013039,674
-253.10836358100266,659
-250.56752601459698,662
-248.02739101372765,684
-245.48795838995704,708
-242.94922795476816,681
-240.41119951956557,674
-237.8738728956746,688
-235.33724789434166,728
-232.80132432673452,764
-230.2661020039418,668
-227.73158073697357,674
-225.19776033676033,741
-222.66464061415422,796
-220.1322213799284,719
-217.60050244477725,644
-215.06948361931552,643
-212.53916471408013,748
-210.00954553952818,855
-207.48062590603843,733
-204.9524056239104,712
-202.4248845033651,852
-199.8980623545441,841
-197.37193898751036,840
-194.84651421224817,813
-192.32178783866232,737
-189.79775967657952,815
-187.27442953574644,1002
-184.7517972258321,995
-182.2298625564256,926
-179.7086253370378,838
-177.18808537710026,814
-174.66824248596583,870
-172.14909647290835,950
-169.6306471471229,980
-167.11289431772548,963
-164.59583779375328,945
-162.07947738416453,948
-159.5638128978386,1107
-157.04884414357605,1375
-154.53457093009854,1510
-152.02099306604828,1180
-149.50811035998936,921
-146.99592262040665,1107
-144.48442965570587,1235
-141.97363127421409,1535
-139.46352728417958,1734
-136.95411749377126,1777
-134.44540171107985,1508
-131.93737974411636,1170
-129.43005140081357,1399
-126.92341648902493,1759
-124.41747481652521,2102
-121.91222619101006,3112
-119.40767042009657,4333
-116.90380731132257,4403
-114.40063667214702,3833
-111.8981583099503,2552
-109.3963720320337,1613
-106.89527764561933,1483
-104.39487495785067,2233
-101.89516377579241,3793
-99.39614390642998,5459
-96.89781515667039,4976
-94.40017733334128,4557
-91.90323024319173,5693
-89.40697369289148,10223
-86.91140748903172,14016
-84.41653143812482,10556
-81.92234534660395,5608
-79.42884902082358,5345
-76.93604226705907,15261
-74.4439248915071,29257
-71.95249670028534,37661
-69.46175749943245,34783
-66.97170709490854,26089
-64.48234529259423,19138
-61.99367189829195,16337
-59.50568671772464,14909
-57.01838955653636,10874
-54.53178022029283,8537
-52.045858514480074,8956
-49.560624244506016,9112
-47.07607721569923,9613
-44.59221723330904,9776
-42.10904410250669,9995
-39.62655762838392,10750
-37.14475761595372,11112
-34.66364387015028,11230
-32.18321619582866,10897
-29.70347439776515,9994
-27.224418280657005,11258
-24.74604764912317,13780
-22.26836230770266,22860
-19.7913620608565,49908
-17.315046712966478,65039
-14.83941606833514,65039
-12.36446993118659,65039
-9.89020810566592,65039
-7.416630395839093,65039
-4.94373660569363,65039
-2.471526539137585,65039
-6.821210263296962E-13,65039
2.47084320796705,65039
4.941003281093458,65039
7.410480415786196,65039
9.879274808531363,65039
12.347386655893956,65039
14.814816154518212,65039
17.28156350112681,65039
19.74762889252179,65039
22.21301252558385,65039
24.67771459727237,20658
27.141735304626195,3985
29.605074844762612,3020
32.06773341487792,2816
34.52971121224755,2579
36.99100843422559,2661
39.45162527824516,2012
41.91156194181792,2001
44.370818622535126,1822
46.82939551806646,1469
49.287292826160524,1575
51.74451074464503,2215
54.201049471426245,2232
56.65690920448981,1737
59.112090141899785,1432
61.56659248179983,1235
64.02041642241159,1253
66.4735621620365,1449
68.92602989905402,1334
71.37781983192338,1536
73.82893215918205,1725
76.27936707944684,1740
78.72912479141326,1514
81.17820549385567,1649
83.62660938562783,1564
86.07433666566146,1459
88.5213875329681,1186
90.96776218663751,1129
93.41346082583925,1260
95.85848364982041,1511
98.30283085790859,1586
100.7465026495089,1451
103.18949922410604,1159
105.63182078126385,1129
108.07346752062438,1133
110.51443964190923,1057
112.95473734491827,1040
115.39436082953114,1158
117.83331029570547,1015
120.27158594347827,1255
122.7091879729652,1519
125.1461165843615,1265
127.58237197794062,954
130.01795435405518,939
132.4528639131364,1016
134.88710085569494,961
137.32066538231982,970
139.75355769367923,1084
142.1857779905207,1144
144.61732647366978,955
147.04820334403132,854
149.47840880258934,882
151.90794305040674,981
154.33680628862487,1081
156.76499871846443,1322
159.19252054122433,1259
161.61937195828352,1316
164.04555317109896,1374
166.47106438120693,1445
168.89590579022217,1513
171.320077599839,1731
173.7435800118302,1725
176.16641322804742,1783
178.58857745042144,1821
181.01007288096173,1909
183.43089972175687,1994
185.85105817497413,2018
188.27054844285988,1929
190.6893707277394,1927
193.10752523201643,1914
195.5250121581745,1933
197.9418317087751,2059
200.3579840864594,2057
202.7734694939469,2072
205.18828813403627,2050
207.6024402096051,2178
210.01592592360964,2259
212.42874547908548,2215
214.84089907914665,2177
217.2523869269868,2119
219.66320922587727,2151
222.0733661791695,2068
224.48285799029293,2100
226.8916848627572,2080
229.29984700014882,2218
231.7073446061355,2162
234.11417788446204,2084
236.520347038953,2077
238.92585227351185,2191
241.33069379212054,2151
243.73487179884035,2166
246.1383864978112,2158
248.541238093252,2145
250.9434267894609,2139
253.34495279081432,2189
255.74581630176783,2170
258.1460175268563,2130
260.54555667069314,2096
262.9444339379703,2154
265.3426495334594,2151
267.7402036620107,2232
270.1370965285529,2257
272.53332833809407,2161
274.9288992957214,2083
277.32380960660055,2081
279.718059475976,2115
282.1116491091717,2181
284.5045787115897,2171
286.89684848871195,2157
289.2884586460981,2126
291.67940938938807,2160
294.0697009242996,2202
296.4593334566299,2228
298.84830719225477,2068
301.23662233712923,2095
303.6242790972866,2104
306.01127767884,2176
308.39761828798066,2098
310.78330113097934,2049
313.16832641418534,1983
315.5526943440269,1984
317.9364051270112,2019
320.3194589697242,1955
322.70185607883093,2066
325.0835966610754,1971
327.4646809232805,1977
329.8451090723478,1953
332.2248813152577,1938
334.6039978590701,1934
336.9824589109231,1895
339.36026467803447,1924
341.7374153677,1833
344.113911187295,1817
346.48975234427337,1886
348.8649390461686,1820
351.2394715005918,1863
353.61334991523415,1856
355.9865744978655,1901
358.35914545633375,1868
360.73106299856715,1872
363.10232733257146,1874
365.47293866643247,1800
367.84289720831396,1848
370.2122031664593,1789
372.5808567491905,1873
374.9488581649083,1807
377.31620762209275,1799
379.6829053293021,1791
382.0489514951745,1727
384.4143463284262,1747
386.7790900378528,1784
389.14318283232853,1790
391.50662492080653,1774
393.86941651231916,1723
396.23155781597745,1699
398.5930490409713,1722
400.9538903965696,1702
403.3140820921202,1707
405.6736243370498,1833
408.03251734086336,1764
410.3907613131465,1758
412.74835646356166,1694
415.10530300185144,1752
417.4616011378372,1698
419.81725108141893,1660
422.1722530425758,1683
424.5266072313656,1625
426.880313857925,1762
429.2333731324701,1733
431.58578526529516,1698
433.9375504667738,1698
436.2886689473588,1694
438.63914091758113,1693
440.9889665880513,1573
443.33814616945835,1674
445.68667987257015,1600
448.03456790823395,1615
450.3818104873759,1630
452.72840782100013,1596
455.07436012019105,1607
457.41966759611057,1642
459.7643304600007,1669
462.10834892318155,1632
464.4517231970525,1682
466.79445349309174,1617
469.1365400228566,1669
471.4779829979826,1601
473.81878263018564,1580
476.15893913125876,1625
478.4984527130747,1703
480.8373235875855,1667
483.17555196682144,1747
485.5131380628919,1740
487.8500820879857,1746
490.1863842543697,1925
492.52204477439034,2009
494.8570638604725,2087
497.1914417251204,2320
499.52517858091653,2644
501.85827464052306,3102
504.19073011668036,3459
506.5225452222086,3644
508.85372017000566,3886
511.18425517304956,3867
513.514150444396,3855
515.8434061971808,4520
518.1720226446176,5457
520.4999999999999,5549
522.8273384766991,4993
525.1540382881666,4472
527.480099647932,3856
529.8055227696037,3210
532.1303078668694,2582
534.454455153496,2111
536.777964843328,1976
539.1008371502907,1869
541.4230722883866,1856
543.744670471698,1837
546.0656319143858,1877
548.3859568306899,1880
550.7056454349294,1824
553.0246979415016,1776
555.3431145648834,1803
557.6608955196306,1808
559.978041020377,1670
562.2945512818363,1702
564.6104265188006,1731
566.9256669461412,1708
569.2402727788082,1750
571.5542442318302,1762
573.8675815203156,1780
576.1802848594508,1733
578.4923544645015,1689
580.8037905508126,1736
583.114593333807,1765
585.4247630289875,1736
587.7342998519354,1660
590.0432040183106,1684
592.3514757438526,1709
594.6591152443794,1741
596.9661227357875,1692
599.2724984340531,1797
601.578242555231,1779
603.8833553154542,1764
606.1878369309362,1749
608.4916876179676,1768
610.7949075929192,1735
613.0974970722403,1698
615.3994562724587,1727
617.7007854101818,1683
620.0014847020951,1652
622.3015543649641,1683
624.6009946156324,1737
626.8998056710224,1772
629.1979877481361,1687
631.4955410640538,1734
633.7924658359349,1745
636.0887622810175,1704
638.3844306166192,1773
640.6794710601358,1758
642.9738838290426,1801
645.2676691408932,1805
647.5608272133207,1738
649.853358264037,1745
652.1452625108324,1798
654.4365401715764,1842
656.7271914642178,1765
659.0172166067838,1835
661.3066158173809,1811
663.5953893141935,1781
665.8835373154867,1759
668.1710600396028,1718
670.4579577049639,1753
672.7442305300709,1753
675.0298787335033,1771
677.3149025339197,1795
679.599302150058,1706
681.8830778007342,1761
684.1662297048437,1718
686.4487580813608,1800
688.7306631493387,1802
691.0119451279091,1755
693.2926042362834,1779
695.5726406937516,1752
697.8520547196814,1726
700.1308465335215,1751
702.4090163547982,1779
704.6865644031171,1708
706.9634908981619,1741
709.2397960596965,1741
711.5154801075631,1775
713.7905432616823,1745
716.0649857420548,1715
718.3388077687592,1776
720.612009561953,1813
722.8845913418733,1787
725.1565533288352,1882
727.427895743234,1822
729.6986188055427,1757
731.9687227363137,1768
734.238207756178,1715
736.5070740858458,1787
738.7753219461066,1803
741.0429515578281,1793
743.3099631419569,1806
745.5763569195191,1747
747.8421331116193,1744
750.1072919394409,1790
752.3718336242467,1785
754.6357583873777,1755
756.8990664502545,1763
759.1617580343765,1806
761.423833361321,1755
763.6852926527457,1754
765.9461361303862,1815
768.206364016058,1796
770.4659765316536,1860
772.7249738991469,1822
774.9833563405886,1779
777.2411240781092,1749
779.4982773339183,1800
781.7548163303044,1780
784.010741289634,1827
786.2660524343538,1885
788.5207499869881,1829
790.7748341701416,1824
793.0283052064964,1802
795.2811633188143,1832
797.5334087299362,1789
799.7850416627813,1784
802.0360623403484,1864
804.2864709857143,1748
806.5362678220353,1878
808.7854530725468,1868
811.0340269605625,1842
813.2819897094754,1869
815.5293415427581,1782
817.77608268396,1807
820.0222133567116,1782
822.2677337847211,1868
824.5126441917765,1799
826.7569448017433,1830
829.0006358385675,1809
831.2437175262731,1811
833.4861900889629,1775
835.7280537508192,1854
837.9693087361026,1807
840.2099552691533,1839
842.4499935743896,1761
844.689423876309,1738
846.9282463994886,1790
849.1664613685833,1901
851.4040690083276,1904
853.6410695435349,1819
855.877463199097,1757
858.1132501999847,1762
860.3484307712487,1780
862.5830051380175,1827
864.8169735254988,1766
867.0503361589791,1776
869.2830932638243,1863
871.5152450654786,1852
873.7467917894654,1787
875.9777336613873,1798
878.2080709069252,1862
880.4378037518389,1821
882.666932421968,1758
884.8954571432301,1742
887.1233781416219,1783
889.3506956432192,1800
891.5774098741766,1800
893.803521060728,1809
896.0290294291852,1846
898.2539352059397,1762
900.4782386174619,1735
902.7019398903011,1777
904.925039251085,1821
907.147536926521,1827
909.3694331433943,1814
911.59072812857,1770
913.8114221089921,1846
916.0315153116827,1818
918.2510079637437,1841
920.4699002923547,1769
922.6881925247761,1733
924.905884888345,1700
927.1229776104793,1802
929.3394709186747,1779
931.555365040506,1782
933.7706602036275,1774
935.9853566357709,1819
938.1994545647489,1819
940.4129542184515,1817
942.6258558248488,1756
944.8381596119883,1743
947.0498658079974,1791
949.2609746410825,1791
951.4714863395287,1742
953.6814011316998,1768
955.8907192460387,1763
958.0994409110671,1766
960.3075663553858,1707
962.5150958076741,1799
964.7220294966913,1765
966.928367651274,1700
969.1341105003388,1710
971.3392582728806,1685
973.5438111979742,1698
975.747769504772,1641
977.9511334225061,1711
980.153903180487,1725
982.3560790081052,1631
984.5576611348289,1662
986.7586497902058,1664
988.9590452038618,1660
991.158847605503,1673
993.3580572249133,1643
995.5566742919558,1579
997.7546990365728,1585
999.952131688785,1547
1002.1489724786926,1523
1004.3452216364743,1465
1006.5408793923874,1501
1008.7359459767691,1486
1010.9304216200343,1567
1013.1243065526781,1480
1015.3176010052733,1514
1017.510305208472,1445
1019.7024193930064,1405
1021.8939437896848,1435
1024.0848786293977,1441
1026.2752241431122,1431
1028.4649805618747,1432
1030.6541481168115,1466
1032.842727039127,1418
1035.0307175601051,1420
1037.2181199111074,1433
1039.4049343235752,1402
1041.591161029029,1371
1043.7768002590683,1402
1045.9618522453698,1346
1048.1463172196918,1352
1050.3301954138697,1349
1052.513487059818,1352
1054.69619238953,1428
1056.8783116350783,1384
1059.0598450286152,1414
1061.2407928023704,1336
1063.4211551886528,1343
1065.6009324198508,1322
1067.780124728432,1343
1069.9587323469414,1341
1072.1367555080046,1415
1074.314194444325,1346
1076.4910493886855,1337
1078.667320573947,1344
1080.843008233051,1344
1083.0181125990161,1326
1085.1926339049414,1334
1087.3665723840027,1343
1089.5399282694575,1283
1091.7127017946405,1349
1093.8848931929647,1284
1096.0565026979243,1274
1098.2275305430899,1335
1100.3979769621128,1295
1102.567842188722,1341
1104.737126456726,1242
1106.9058300000124,1289
1109.0739530525475,1260
1111.2414958483764,1251
1113.4084586216231,1271
1115.5748416064907,1257
1117.7406450372605,1283
1119.9058691482942,1277
1122.0705141740304,1244
1124.2345803489884,1241
1126.3980679077658,1271
1128.5609770850388,1314
1130.7233081155623,1299
1132.8850612341707,1281
1135.0462366757774,1251
1137.2068346753745,1229
1139.3668554680326,1223
1141.526299288901,1251
1143.68516637321,1219
1145.8434569562655,1282
1148.001171273455,1230
1150.158309560244,1240
1152.3148720521767,1196
1154.470858984876,1232
1156.626270594044,1240
1158.7811071154629,1249
1160.9353687849912,1269
1163.089055838569,1243
1165.242168512213,1215
1167.3947070420209,1264
1169.5466716641677,1233
1171.6980626149075,1296
1173.8488801305748,1238
1175.9991244475814,1276
1178.1487958024186,1291
1180.2978944316555,1258
1182.4464205719428,1259
1184.5943744600072,1219
1186.7417563326567,1261
1188.8885664267755,1215
1191.0348049793297,1274
1193.1804722273619,1209
1195.325568407995,1268
1197.4700937584303,1243
1199.614048515948,1247
1201.7574329179074,1265
1203.900247201746,1262
1206.042491604982,1226
1208.1841663652099,1259
1210.3252717201053,1266
1212.465807907422,1259
1214.6057751649923,1273
1216.7451737307279,1282
1218.8840038426192,1281
1221.0222657387353,1276
1223.1599596572241,1239
1225.2970858363137,1209
1227.4336445143094,1283
1229.5696359295966,1244
1231.705060320639,1309
1233.8399179259786,1243
1235.9742089842384,1266
1238.107933734118,1317
1240.2410924143974,1235
1242.373685263935,1227
1244.5057125216676,1318
1246.6371744266116,1245
1248.7680712178621,1294
1250.898403134593,1280
1253.028170416058,1284
1255.1573733015875,1300
1257.2860120305932,1274
1259.4140868425648,1260
1261.54159797707,1262
1263.6685456737569,1281
1265.7949301723515,1319
1267.9207517126597,1224
1270.046010534565,1305
1272.1707068780306,1360
1274.2948409830983,1276
1276.4184130898889,1275
1278.541423438603,1266
1280.6638722695184,1286
1282.785759822993,1217
1284.9070863394636,1232
1287.0278520594447,1266
1289.1480572235314,1312
1291.2677020723963,1264
1293.3867868467923,1283
1295.5053117875495,1299
1297.623277135579,1287
1299.740683131868,1357
1301.8575300174857,1351
1303.973818033578,1344
1306.0895474213703,1311
1308.2047184221678,1354
1310.3193312773528,1368
1312.4333862283888,1303
1314.5468835168163,1408
1316.659823384255,1367
1318.7722060724045,1339
1320.8840318230418,1322
1322.9953008780249,1327
1325.1060134792888,1325
1327.2161698688478,1399
1329.3257702887959,1347
1331.4348149813054,1378
1333.5433041886276,1323
1335.6512381530933,1336
1337.7586171171101,1300
1339.8654413231675,1355
1341.9717110138317,1389
1344.0774264317488,1344
1346.1825878196432,1337
1348.2871954203192,1379
1350.3912494766587,1383
1352.4947502316231,1336
1354.5976979282532,1335
1356.7000928096686,1315
1358.8019351190665,1302
1360.9032250997243,1296
1363.0039629949988,1347
1365.1041490483235,1299
1367.2037835032133,1309
1369.3028666032606,1299
1371.401398592137,1366
1373.4993797135926,1300
1375.5968102114575,1302
1377.6936903296396,1314
1379.7900203121262,1335
1381.8858004029835,1318
1383.9810308463561,1301
1386.075711886469,1337
1388.1698437676241,1312
1390.2634267342032,1285
1392.356461030667,1284
1394.4489469015557,1326
1396.5408845914872,1301
1398.6322743451592,1304
1400.7231164073469,1351
1402.813411022907,1331
1404.903158436773,1292
1406.9923588939578,1339
1409.0810126395531,1371
1411.1691199187303,1323
1413.2566809767386,1292
1415.343696058907,1344
1417.4301654106425,1326
1419.5160892774315,1317
1421.6014679048399,1343
1423.6863015385125,1331
1425.7705904241707,1308
1427.8543348076178,1310
1429.9375349347342,1332
1432.0201910514802,1375
1434.102303403894,1311
1436.1838722380944,1327
1438.2648978002767,1350
1440.3453803367174,1366
1442.4253200937692,1383
1444.5047173178677,1311
1446.5835722555234,1309
1448.6618851533285,1389
1450.739656257952,1395
1452.8168858161434,1362
1454.8935740747306,1339
1456.96972128062,1352
1459.045327680797,1386
1461.120393522327,1390
1463.1949190523528,1346
1465.2689045180973,1401
1467.3423501668608,1360
1469.415256246024,1396
1471.4876230030463,1374
1473.559450685465,1377
1475.6307395408976,1400
1477.7014898170391,1353
1479.771701761665,1371
1481.8413756226287,1391
1483.9105116478618,1409
1485.9791100853772,1408
1488.0471711832643,1414
1490.1146951896926,1419
1492.1816823529098,1402
1494.2481329212433,1383
1496.3140471430984,1375
1498.3794252669609,1414
1500.4442675413939,1433
1502.5085742150404,1386
1504.572345536622,1403
1506.6355817549388,1423
1508.6982831188702,1408
1510.7604498773744,1469
1512.8220822794883,1449
1514.8831805743293,1410
1516.9437450110909,1448
1519.003775839048,1438
1521.0632733075522,1475
1523.1222376660367,1436
1525.1806691640113,1452
1527.2385680510652,1476
1529.2959345768668,1415
1531.3527689911643,1427
1533.4090715437833,1490
1535.4648424846291,1430
1537.5200820636855,1465
1539.5747905310159,1445
1541.6289681367616,1496
1543.6826151311434,1475
1545.7357317644614,1476
1547.7883182870937,1541
1549.8403749494987,1580
1551.8919020022113,1498
1553.9428996958477,1528
1555.9933682811015,1544
1558.0433080087469,1546
1560.0927191296346,1550
1562.1416018946961,1592
1564.1899565549415,1532
1566.2377833614592,1556
1568.2850825654164,1566
1570.3318544180606,1621
1572.3780991707158,1576
1574.423817074788,1588
1576.4690083817595,1529
1578.5136733431923,1556
1580.5578122107272,1527
1582.601425236085,1558
1584.6445126710646,1491
1586.6870747675434,1514
1588.7291117774776,1500
1590.7706239529034,1438
1592.8116115459347,1424
1594.8520748087658,1439
1596.8920139936686,1444
1598.9314293529933,1432
1600.9703211391711,1455
1603.008689604711,1447
1605.0465350022005,1380
1607.0838575843068,1374
1609.1206576037753,1403
1611.1569353134305,1380
1613.1926909661765,1369
1615.2279248149953,1450
1617.2626371129481,1384
1619.2968281131757,1467
1621.3304980688963,1352
1623.3636472334088,1368
1625.39627586009,1376
1627.428384202396,1361
1629.459972513861,1341
1631.4910410480993,1319
1633.5215900588028,1368
1635.551619799744,1343
1637.5811305247717,1357
1639.6101224878166,1361
1641.6385959428862,1365
1643.6665511440683,1297
1645.693988345528,1248
1647.7209078015112,1274
1649.7473097663405,1287
1651.7731944944203,1288
1653.7985622402307,1304
1655.823413258333,1282
1657.847747803366,1275
1659.8715661300494,1273
1661.8948684931793,1327
1663.9176551476316,1301
1665.9399263483624,1351
1667.9616823504057,1269
1669.982923408873,1348
1672.0036497789574,1341
1674.0238617159293,1314
1676.043559475138,1296
1678.0627433120121,1308
1680.081413482059,1267
1682.0995702408654,1259
1684.117213844096,1339
1686.134344547495,1274
1688.1509626068864,1278
1690.1670682781705,1275
1692.182661817329,1312
1694.1977434804217,1305
1696.2123135235875,1278
1698.226372203043,1328
1700.2399197750851,1267
1702.2529564960905,1343
1704.2654826225112,1315
1706.277498410882,1289
1708.2890041178139,1292
1710.2999999999988,1306
1712.3104863142066,1243
1714.3204633172854,1259
1716.329931266163,1229
1718.3388904178469,1289
1720.3473410294214,1275
1722.3552833580516,1332
1724.3627176609807,1267
1726.3696441955308,1304
1728.3760632191033,1296
1730.3819749891782,1290
1732.3873797633146,1297
1734.3922777991502,1352
1736.3966693544012,1267
1738.4005546868639,1278
1740.4039340544127,1303
1742.406807715001,1301
1744.4091759266616,1275
1746.4110389475054,1236
1748.4123970357223,1235
1750.413250449582,1241
1752.4135994474318,1320
1754.4134442876993,1309
1756.4127852288902,1302
1758.4116225295893,1278
1760.4099564484595,1278
1762.407787244244,1314
1764.405115175764,1267
1766.4019405019203,1315
1768.3982634816916,1326
1770.3940843741357,1298
1772.3894034383907,1284
1774.3842209336717,1269
1776.378537119274,1275
1778.372352254571,1259
1780.3656665990156,1273
1782.3584804121397,1273
1784.3507939535534,1313
1786.3426074829463,1304
1788.3339212600863,1285
1790.3247355448211,1238
1792.3150505970766,1274
1794.3048666768573,1347
1796.2941840442477,1277
1798.2830029594106,1308
1800.2713236825884,1269
1802.2591464741004,1211
1804.2464715943465,1283
1806.2332993038058,1257
1808.2196298630352,1270
1810.2054635326708,1235
1812.190800573428,1240
1814.175641246101,1291
1816.1599858115628,1323
1818.1438345307652,1265
1820.127187664738,1280
1822.1100454745924,1273
1824.092408221516,1281
1826.0742761667766,1285
1828.055649571721,1278
1830.0365286977735,1271
1832.0169138064398,1282
1833.9968051593014,1287
1835.9762030180214,1270
1837.9551076443408,1251
1839.9335193000788,1231
1841.9114382471344,1260
1843.888864747485,1281
1845.8657990631878,1248
1847.842241456378,1234
1849.8181921892697,1214
1851.7936515241558,1271
1853.7686197234098,1243
1855.7430970494815,1240
1857.7170837649014,1234
1859.6905801322787,1251
1861.6635864143004,1272
1863.6361028737338,1283
1865.608129773424,1221
1867.5796673762961,1263
1869.5507159453537,1292
1871.521275743678,1266
1873.4913470344313,1259
1875.4609300808534,1252
1877.4300251462632,1248
1879.3986324940588,1311
1881.366752387717,1306
1883.3343850907936,1268
1885.3015308669228,1266
1887.268189979819,1293
1889.2343626932739,1310
1891.2000492711595,1286
1893.1652499774254,1251
1895.1299650761011,1231
1897.0941948312952,1298
1899.0579395071945,1288
1901.0211993680641,1276
1902.98397467825,1215
1904.9462657021745,1283
1906.9080727043415,1274
1908.869395949332,1251
1910.8302357018065,1281
1912.790592226504,1287
1914.7504657882428,1301
1916.7098566519212,1234
1918.6687650825133,1287
1920.6271913450764,1249
1922.5851357047422,1219
1924.5425984267245,1257
1926.499579776314,1307
1928.4560800188833,1255
1930.4120994198802,1270
1932.367638244833,1286
1934.32269675935,1287
1936.2772752291175,1260
1938.231373919899,1297
1940.1849930975404,1250
1942.1381330279637,1282
1944.0907939771696,1281
1946.0429762112412,1219
1947.9946799963363,1287
1949.9459055986945,1257
1951.896653284633,1265
1953.8469233205478,1340
1955.7967159729142,1262
1957.7460315082863,1292
1959.6948701932974,1288
1961.6432322946594,1282
1963.5911180791632,1297
1965.5385278136787,1255
1967.4854617651545,1276
1969.4319202006182,1284
1971.377903387176,1265
1973.3234115920136,1235
1975.268445082395,1256
1977.2130041256642,1277
1979.1570889892423,1307
1981.1006999406304,1282
1983.04383724741,1292
1984.986501177238,1248
1986.928691997853,1224
1988.8704099770712,1283
1990.811655382789,1309
1992.7524284829801,1325
1994.692729545698,1297
1996.6325588390755,1254
1998.5719166313224,1328
2000.5108031907307,1285
2002.4492187856677,1298
2004.387163684583,1301
2006.3246381560011,1347
2008.2616424685298,1242
2010.1981768908527,1274
2012.1342416917332,1315
2014.069837140014,1271
2016.0049635046162,1320
2017.9396210545406,1360
2019.8738100588666,1284
2021.8075307867502,1292
2023.740783507431,1309
2025.6735684902228,1321
2027.6058860045214,1256
2029.5377363198004,1226
2031.4691197056118,1257
2033.4000364315875,1278
2035.3304867674374,1283
2037.260470982952,1268
2039.189989347998,1292
2041.1190421325232,1273
2043.047629606554,1256
2044.9757520401945,1273
2046.9034097036288,1281
2048.8306028671195,1293
2050.7573318010086,1286
2052.683596775716,1290
2054.609398061742,1251
2056.5347359296647,1210
2058.4596106501403,1240
2060.384022493906,1251
2062.3079717317764,1302
2064.231458634646,1253
2066.1544834734873,1237
2068.077046519352,1294
2069.99914804337,1275
2071.9207883167524,1252
2073.8419676107865,1310
2075.7626861968406,1243
2077.6829443463607,1276
2079.6027423308715,1265
2081.522080421977,1275
2083.440958891362,1260
2085.359378010786,1259
2087.2773380520907,1225
2089.194839287196,1269
2091.111881988101,1195
2093.0284664268825,1217
2094.9445928756973,1252
2096.86026160678,1235
2098.775472892446,1272
2100.690227005088,1246
2102.604524217178,1294
2104.5183648012676,1260
2106.431749029985,1258
2108.34467717604,1283
2110.2571495122206,1234
2112.169166311393,1304
2114.080727846503,1251
2115.9918343905747,1289
2117.902486216711,1232
2119.8126835980956,1238
2121.722426807987,1292
2123.6317161197285,1303
2125.5405518067364,1290
2127.448934142509,1246
2129.356863400624,1276
2131.264339854737,1313
2133.1713637785815,1318
2135.077935445972,1258
2136.9840551308002,1256
2138.889723107037,1254
2140.7949396487334,1257
2142.699705030018,1298
2144.6040195250994,1262
2146.507883408264,1283
2148.4112969538774,1309
2150.3142604363848,1293
2152.2167741303097,1303
2154.1188383102535,1295
2156.0204532508997,1289
2157.9216192270064,1271
2159.822336513414,1276
2161.7226053850413,1253
2163.622426116884,1272
2165.5217989840185,1326
2167.4207242616,1285
2169.319202224862,1283
2171.2172331491165,1227
2173.1148173097563,1290
2175.0119549822507,1303
2176.90864644215,1241
2178.8048919650823,1261
2180.7006918267534,1237
2182.596046302952,1308
2184.4909556695407,1256
2186.3854202024645,1316
2188.279440177746,1251
2190.173015871487,1356
2192.066147559868,1304
2193.958835519149,1260
2195.851080025667,1238
2197.7428813558417,1293
2199.6342397861667,1219
2201.5251555932186,1265
2203.415629053651,1285
2205.3056604441986,1328
2207.19525004167,1329
2209.084398122958,1338
2210.9731049650327,1313
2212.861370844941,1297
2214.749196039812,1275
2216.636580826851,1346
2218.523525483344,1360
2220.410030286655,1344
2222.296095514226,1301
2224.1817214435805,1326
2226.066908352319,1270
2227.951656518121,1340
2229.835966218746,1324
2231.71983773203,1314
2233.6032713358913,1336
2235.486267308324,1342
2237.3688259274036,1339
2239.2509474712824,1349
2241.132632218193,1330
2243.013880446447,1288
2244.8946924344323,1350
2246.7750684606203,1345
2248.6550088035574,1296
2250.534513741871,1295
2252.413583554265,1330
2254.292218519526,1301
2256.170418916517,1305
2258.0481850241786,1338
2259.925517121534,1242
2261.8024154876825,1314
2263.678880401803,1269
2265.5549121431536,1374
2267.430510991071,1311
2269.305677224971,1319
2271.180411124348,1332
2273.0547129687766,1317
2274.9285830379076,1302
2276.8020216114737,1307
2278.6750289692845,1275
2280.5476053912294,1287
2282.4197511572766,1304
2284.2914665474727,1380
2286.162751841943,1320
2288.0336073208937,1387
2289.904033264608,1339
2291.774029953448,1383
2293.6435976678554,1373
2295.5127366883517,1275
2297.381447295534,1296
2299.2497297700825,1277
2301.1175843927526,1289
2302.9850114443825,1233
2304.852011205885,1200
2306.7185839582553,1168
2308.5847299825664,1155
2310.4504495599676,1187
2312.3157429716925,1196
2314.1806104990483,1124
2316.0450524234247,1089
2317.9090690262888,1130
2319.772660589186,1179
2321.635827393742,1146
2323.498569721661,1204
2325.3608878547248,1141
2327.2227820747967,1127
2329.0842526638157,1120
2330.945299903803,1133
2332.805924076857,1146
2334.6661254651535,1161
2336.525904350951,1085
2338.3852610165827,1140
2340.244195744464,1183
2342.102708817088,1139
2343.9608005170253,1173
2345.8184711269287,1107
2347.675720929526,1180
2349.532550207628,1146
2351.38895924412,1139
2353.24494832197,1185
2355.100517724223,1153
2356.955667734004,1123
2358.810398634514,1162
2360.664710709037,1184
2362.5186042409337,1151
2364.3720795136437,1169
2366.225136810686,1156
2368.0777764156583,1131
2369.929998612237,1134
2371.7818036841777,1155
2373.633191915315,1153
2375.484163589562,1173
2377.3347189909114,1151
2379.184858403434,1184
2381.03458211128,1119
2382.8838903986775,1089
2384.732783549936,1158
2386.5812618494406,1110
2388.4293255816588,1106
2390.2769750311327,1132
2392.1242104824883,1136
2393.971032220427,1161
2395.8174405297295,1166
2397.6634356952563,1202
2399.509018001947,1102
2401.3541877348193,1131
2403.1989451789705,1081
2405.043290619576,1146
2406.8872243418905,1138
2408.730746631247,1177
2410.5738577730594,1159
2412.4165580528183,1163
2414.258847756095,1104
2416.100727168537,1187
2417.9421965758734,1138
2419.783256263912,1140
2421.623906518538,1159
2423.4641476257157,1192
2425.303979871491,1183
2427.143403541984,1135
2428.9824189233977,1169
2430.821026302012,1143
2432.6592259641866,1195
2434.497018196361,1214
2436.33440328505,1145
2438.171381516851,1160
2440.00795317844,1223
2441.844118556569,1173
2443.6798779380724,1179
2445.5152316098606,1213
2447.3501798589255,1118
2449.1847229723357,1187
2451.0188612372403,1131
2452.8525949408663,1193
2454.6859243705203,1234
2456.518849813587,1169
2458.3513715575314,1192
2460.183489889895,1175
2462.015205098301,1196
2463.8465174704493,1122
2465.67742729412,1159
2467.5079348571717,1135
2469.338040447542,1148
2471.1677443532476,1101
2472.9970468623833,1142
2474.825948263123,1184
2476.6544488437207,1206
2478.482548892508,1173
2480.310248697896,1206
2482.137548548374,1137
2483.9644487325118,1147
2485.790949538956,1131
2487.617051256433,1123
2489.44275417375,1167
2491.26805857979,1153
2493.0929647635157,1147
2494.917473013971,1129
2496.741583620276,1167
2498.5652968716304,1149
2500.3886130573137,1185
2502.2115324666834,1172
2504.0340553891765,1145
2505.856182114308,1142
2507.6779129316733,1116
2509.499248130945,1188
2511.3201880018764,1168
2513.140732834298,1147
2514.9608829181198,1168
2516.780638543331,1166
2518.6,1132
2520.418967578273,1183
2522.237541568376,1174
2524.0557222606144,1177
2525.8735099453706,1147
2527.6909049131086,1121
2529.507907454368,1186
2531.32451785977,1145
2533.140736420014,1130
2534.9565634258774,1163
2536.771999168218,1153
2538.5870439379714,1156
2540.4016980261526,1172
2542.2159617238544,1144
2544.02983532225,1239
2545.8433191125914,1177
2547.656413386209,1173
2549.4691184345115,1182
2551.2814345489874,1215
2553.093362021204,1168
2554.904901142808,1163
2556.716052205523,1200
2558.526815501153,1182
2560.3371913215824,1149
2562.147179958771,1191
2563.956781704761,1139
2565.7659968516705,1197
2567.5748256916986,1218
2569.3832685171224,1180
2571.1913256202984,1162
2572.9989972936614,1176
2574.806283829725,1183
2576.613185521084,1200
2578.4197026604074,1168
2580.2258355404483,1152
2582.031584454035,1199
2583.836949694077,1218
2585.6419315535613,1198
2587.4465303255533,1164
2589.2507463032002,1185
2591.0545797797245,1174
2592.8580310484303,1186
2594.6611004026995,1182
2596.463788135992,1198
2598.266094541849,1167
2600.0680199138874,1250
2601.869564545807,1210
2603.670728731383,1179
2605.4715127644704,1233
2607.2719169390048,1276
2609.071941548998,1171
2610.8715868885433,1189
2612.670853251811,1194
2614.469740933052,1154
2616.268250226594,1178
2618.0663814268455,1229
2619.864134828292,1190
2621.6615107255006,1194
2623.458509413115,1160
2625.2551311858597,1156
2627.0513763385347,1200
2628.8472451660223,1167
2630.6427379632833,1189
2632.4378550253564,1162
2634.232596647359,1124
2636.026963124488,1170
2637.8209547520187,1206
2639.6145718253065,1166
2641.407814639785,1205
2643.200683490966,1165
2644.9931786744414,1171
2646.7853004858807,1133
2648.577049221034,1139
2650.3684251757277,1137
2652.1594286458712,1184
2653.9500599274484,1171
2655.740319316525,1139
2657.5302071092437,1171
2659.3197236018286,1181
2661.10886909058,1151
2662.8976438718782,1140
2664.686048242183,1185
2666.4740824980327,1170
2668.2617469360443,1191
2670.0490418529134,1157
2671.8359675454153,1149
2673.622524310403,1126
2675.408712444811,1173
2677.1945322456495,1176
2678.979984010009,1172
2680.76506803506,1160
2682.5497846180497,1159
2684.334134056306,1206
2686.1181166472343,1179
2687.9017326883213,1144
2689.6849824771293,1115
2691.4678663113013,1183
2693.2503844885596,1201
2695.032537306705,1121
2696.8143250636167,1140
2698.5957480572542,1118
2700.3768065856534,1167
2702.1575009469316,1154
2703.937831439283,1159
2705.717798360982,1131
2707.4974020103837,1147
2709.276642685917,1124
2711.055520686095,1156
2712.834036309506,1101
2714.612189854819,1119
2716.389981620782,1125
2718.1674119062204,1151
2719.944481010041,1155
2721.721189231226,1130
2723.4975368688415,1148
2725.273524222027,1185
2727.0491515900053,1174
2728.824419272075,1135
2730.5993275676146,1106
2732.3738767760838,1108
2734.148067197016,1163
2735.921899130031,1138
2737.6953728748194,1141
2739.468488731156,1184
2741.2412469988926,1118
2743.0136479779617,1173
2744.785691968372,1145
2746.5573792702116,1123
2748.3287101836504,1156
2750.099685008934,1165
2751.870304046388,1159
2753.640567596418,1205
2755.4104759595057,1141
2757.1800294362156,1181
2758.949228327187,1086
2760.7180729331412,1120
2762.486563554877,1168
2764.254700493272,1143
2766.022484049284,1168
2767.789914523947,1178
2769.5569922183786,1165
2771.3237174337705,1099
2773.090090471394,1210
2774.8561116326036,1121
2776.6217812188274,1143
2778.3870995315756,1083
2780.1520668724356,1123
2781.9166835430747,1160
2783.6809498452394,1161
2785.444866080754,1156
2787.2084325515225,1139
2788.971649559527,1103
2790.73451740683,1137
2792.4970363955713,1131
2794.2592068279705,1117
2796.0210290063264,1127
2797.7825032330147,1067
2799.543629810493,1171
2801.304409041296,1170
2803.0648412280366,1160
2804.8249266734088,1135
2806.5846656801846,1147
2808.344058551212,1153
2810.1031055894246,1104
2811.8618070978273,1128
2813.6201633795085,1176
2815.378174737636,1128
2817.1358414754536,1119
2818.893163896285,1149
2820.6501423035334,1134
2822.4067770006814,1091
2824.1630682912883,1116
2825.9190164789957,1184
2827.6746218675207,1189
2829.429884760661,1107
2831.184805462294,1131
2832.9393842763743,1141
2834.693621506936,1185
2836.4475174580916,1209
2838.201072434034,1135
2839.954286739034,1187
2841.707160677441,1153
2843.459694553685,1168
2845.2118886722724,1121
2846.96374333779,1175
2848.7152588549034,1179
2850.4664355283567,1192
2852.217273662973,1158
2853.9677735636546,1165
2855.7179355353833,1171
2857.4677598832186,1153
2859.217246912299,1123
2860.9663969278427,1099
2862.715210235146,1121
2864.4636871395846,1107
2866.211827946614,1180
2867.9596329617652,1193
2869.7071024906536,1145
2871.4542368389684,1149
2873.20103631248,1158
2874.947501217038,1174
2876.6936318585695,1123
2878.4394285430812,1167
2880.1848915766604,1145
2881.9300212654707,1121
2883.6748179157553,1140
2885.4192818338374,1142
2887.1634133261173,1178
2888.907212699077,1179
2890.6506802592744,1120
2892.393816313348,1180
2894.1366211680142,1184
2895.8790951300693,1187
2897.621238506388,1139
2899.363051603925,1174
2901.1045347297118,1149
2902.8456881908596,1132
2904.58651229456,1123
2906.327007348081,1190
2908.067173658772,1145
2909.8070115340597,1152
2911.5465212814497,1155
2913.285703208527,1178
2915.0245576229563,1120
2916.7630848324807,1140
2918.5012851449196,1119
2920.2391588681758,1178
2921.976706310227,1140
2923.7139277791334,1082
2925.4508235830313,1125
2927.187394030137,1115
2928.923639428745,1144
2930.6595600872306,1174
2932.395156314046,1191
2934.1304284177218,1161
2935.8653767068713,1141
2937.6000014901815,1208
2939.3343030764227,1158
2941.068281774442,1153
2942.8019378931644,1144
2944.5352717415976,1203
2946.2682836288236,1200
2948.0009738640065,1154
2949.7333427563885,1205
2951.465390615289,1189
2953.1971177501086,1147
2954.9285244703265,1177
2956.6596110855,1132
2958.3903779052657,1116
2960.1208252393385,1141
2961.8509533975125,1158
2963.5807626896617,1182
2965.3102534257378,1158
2967.0394259157715,1155
2968.768280469873,1121
2970.496817398232,1164
2972.2250370111146,1169
2973.952939618869,1200
2975.6805255319196,1145
2977.4077950607707,1144
2979.134748516006,1182
2980.861386208289,1147
2982.587708448359,1186
2984.313715547037,1191
2986.039407815222,1178
2987.764785563891,1143
2989.489849104102,1133
2991.2145987469908,1133
2992.9390348037705,1099
2994.6631575857346,1149
2996.3869674042576,1075
2998.1104645707887,1141
2999.83364939686,1116
3001.5565221940783,1163
3003.2790832741334,1113
3005.0013329487924,1108
3006.7232715298996,1144
3008.4448993293804,1120
3010.166216659239,1127
3011.887223831558,1094
3013.607921158498,1148
3015.3283089522993,1148
3017.0483875252826,1156
3018.7681571898443,1143
3020.4876182584626,1087
3022.2067710436927,1118
3023.9256158581707,1082
3025.644153014609,1124
3027.362382825801,1149
3029.0803056046193,1125
3030.797921664012,1107
3032.5152313170106,1143
3034.2322348767225,1102
3035.9489326563353,1078
3037.665324969115,1135
3039.3814121284063,1110
3041.097194447633,1132
3042.812672240299,1159
3044.5278458199855,1112
3046.2427155003525,1125
3047.9572815951406,1134
3049.671544418167,1096
3051.38550428333,1111
3053.0991615046073,1174
3054.812516396051,1124
3056.5255692717974,1121
3058.2383204460575,1124
3059.9507702331257,1144
3061.662918947372,1143
3063.3747669032446,1088
3065.0863144152736,1178
3066.7975617980674,1138
3068.508509366309,1150
3070.219157434767,1153
3071.9295063182844,1117
3073.639556331785,1163
3075.3493077902704,1140
3077.058761008821,1118
3078.7679163025964,1164
3080.476773986837,1108
3082.1853343768594,1083
3083.89359778806,1106
3085.6015645359153,1111
3087.3092349359786,1087
3089.016609303884,1160
3090.7236879553434,1141
3092.4304712061476,1143
3094.136959372166,1153
3095.843152769349,1125
3097.5490517137237,1183
3099.2546565213966,1172
3100.959967508554,1128
3102.66498499146,1127
3104.3697092864577,1152
3106.0741407099695,1156
3107.778279578498,1139
3109.482126208622,1141
3111.1856809170004,1122
3112.8889440203716,1105
3114.5919158355528,1117
3116.294596679439,1136
3117.996986869006,1155
3119.6990867213062,1090
3121.4008965534726,1097
3123.102416682717,1179
3124.803647426329,1152
3126.5045891016784,1104
3128.205242026213,1135
3129.90560651746,1140
3131.605682893025,1141
3133.3054714705922,1129
3135.0049725679282,1135
3136.7041865028714,1171
3138.4031135933465,1126
3140.101754157353,1111
3141.800108512971,1105
3143.498176978357,1130
3145.1959598717494,1072
3146.8934575114636,1135
3148.5906702158954,1126
3150.2875983035183,1128
3151.9842420928853,1136
3153.680601902627,1150
3155.376678051456,1119
3157.07247085816,1113
3158.767980641609,1108
3160.463207720748,1135
3162.158152414606,1129
3163.8528150422862,1150
3165.5471959229726,1084
3167.2412953759303,1148
3168.9351137204976,1130
3170.628651276098,1203
3172.3219083622307,1126
3174.014885298474,1169
3175.707582404485,1097
3177.4000000000005,1109
3179.092138404835,1212
3180.7839979388846,1132
3182.47557892212,1146
3184.166881674594,1094
3185.8579065164386,1144
3187.5486537678626,1126
3189.2391237491547,1119
3190.9293167806827,1106
3192.6192331828934,1131
3194.3088732763117,1147
3195.998237381542,1125
3197.687325819268,1124
3199.376138910251,1103
3201.064676975334,1169
3202.7529403354347,1108
3204.4409293115523,1101
3206.1286442247647,1115
3207.816085396229,1078
3209.5032531471825,1059
3211.190147798936,1075
3212.8767696728846,1085
3214.5631190905015,1134
3216.2491963733373,1126
3217.9350018430214,1160
3219.6205358212637,1123
3221.305798629851,1138
3222.990790590651,1143
3224.6755120256103,1103
3226.359963256751,1097
3228.0441446061795,1094
3229.7280563960758,1110
3231.411698948703,1096
3233.0950725863995,1136
3234.778177631587,1114
3236.461014406761,1184
3238.1435832345005,1127
3239.8258844374595,1084
3241.507918338374,1117
3243.1896852600576,1116
3244.8711855254023,1115
3246.552419457381,1078
3248.233387379042,1150
3249.914089613516,1179
3251.59452648401,1150
3253.274698313813,1121
3254.95460542629,1152
3256.6342481448855,1121
3258.313626793125,1097
3259.9927416946084,1106
3261.6715931730196,1091
3263.3501815521176,1084
3265.0285071557437,1069
3266.706570307815,1087
3268.3843713323286,1098
3270.0619105533615,1065
3271.739188295068,1085
3273.4162048816834,1102
3275.0929606375184,1114
3276.769455886966,1160
3278.445690954498,1121
3280.1216661646613,1159
3281.797381842087,1103
3283.4728383114807,1145
3285.1480358976296,1113
3286.8229749253996,1116
3288.4976557197333,1149
3290.172078605655,1161
3291.846243908266,1166
3293.5201519527463,1167
3295.193803064357,1093
3296.8671975684374,1107
3298.5403357904024,1138
3300.21321805575,1089
3301.8858446900567,1137
3303.558216018975,1110
3305.23033236824,1087
3306.9021940636603,1104
3308.57380143113,1112
3310.2451547966184,1116
3311.916254486174,1102
3313.5871008259246,1155
3315.2576941420766,1051
3316.9280347609147,1125
3318.5981230088046,1175
3320.2679592121895,1096
3321.9375436975924,1131
3323.606876791612,1150
3325.27595882093,1144
3326.944790112305,1147
3328.6133709925753,1096
3330.2817017886573,1126
3331.949782827547,1139
3333.617614436319,1128
3335.2851969421245,1119
3336.952530672199,1142
3338.619615953853,1128
3340.286453114475,1129
3341.9530424815357,1133
3343.619384382583,1151
3345.2854791452437,1121
3346.951327097224,1132
3348.6169285663073,1135
3350.2822838803577,1128
3351.947393367319,1136
3353.61225735521,1135
3355.2768761721345,1133
3356.9412501462693,1147
3358.605379605873,1116
3360.2692648792827,1135
3361.9329062949146,1127
3363.596304181263,1144
