CollectionTime,7/3/2024 3:04:05 PM
ExposureUsed,3
CalibratedSpectrum
-962.7078968117929,476
-959.9714848408522,494
-957.2358232597828,520
-954.5009119013725,489
-951.7667505983302,472
-949.0333391832855,491
-946.3006774887896,483
-943.5687653473143,488
-940.837602591253,471
-938.1071890529199,504
-935.3775245645503,485
-932.6486089583007,496
-929.9204420662485,534
-927.1930237203925,514
-924.4663537526524,468
-921.7404319948689,461
-919.0152582788041,512
-916.2908324361409,536
-913.5671542984834,491
-910.8442236973568,462
-908.1220404642074,479
-905.4006044304027,504
-902.679915427231,492
-899.959973285902,472
-897.2407778375464,479
-894.5223289132158,456
-891.8046263438832,473
-889.0876699604426,473
-886.3714595937089,452
-883.6559950744183,476
-880.9412762332282,461
-878.2273029007168,453
-875.5140749073835,471
-872.8015920836489,499
-870.0898542598545,511
-867.3788612662631,470
-864.6686129330585,487
-861.9591090903457,453
-859.2503495681506,482
-856.5423341964203,466
-853.8350628050229,489
-851.1285352237478,475
-848.4227512823054,457
-845.7177108103272,512
-843.0134136373656,510
-840.3098595928943,486
-837.6070485063082,537
-834.9049802069229,486
-832.2036545239757,491
-829.5030712866244,494
-826.8032303239481,500
-824.1041314649472,499
-821.4057745385428,519
-818.7081593735775,519
-816.0112857988148,489
-813.3151536429393,472
-810.6197627345566,487
-807.9251129021936,498
-805.2312039742981,489
-802.5380357792392,492
-799.8456081453069,511
-797.1539209007124,522
-794.462973873588,555
-791.772766891987,528
-789.083299783884,507
-786.3945723771743,492
-783.7065844996748,498
-781.0193359791231,474
-778.3328266431781,512
-775.6470563194197,500
-772.9620248353489,495
-770.2777320183878,477
-767.5941776958798,511
-764.9113616950891,529
-762.2292838432011,512
-759.5479439673222,485
-756.8673418944801,503
-754.1874774516235,495
-751.5083504656222,493
-748.8299607632671,541
-746.15230817127,507
-743.475392516264,541
-740.7992136248035,529
-738.1237713233636,506
-735.4490654383407,541
-732.7750957960521,516
-730.1018622227365,533
-727.4293645445534,525
-724.7576025875837,512
-722.0865761778291,497
-719.4162851412126,553
-716.7467293035781,570
-714.0779084906909,505
-711.409822528237,535
-708.7424712418238,531
-706.0758544569796,539
-703.4099719991541,552
-700.7448236937178,589
-698.0804093659622,554
-695.4167288411002,528
-692.7537819442656,534
-690.0915685005134,512
-687.4300883348199,527
-684.7693412720819,522
-682.1093271371178,534
-679.4500457546669,547
-676.7914969493897,540
-674.1336805458676,506
-671.4765963686034,542
-668.8202442420206,532
-666.1646239904642,541
-663.5097354382001,554
-660.8555784094151,537
-658.2021527282176,543
-655.5494582186366,548
-652.8974947046223,532
-650.2462620100463,535
-647.5957599587009,573
-644.9459883742998,557
-642.2969470804776,572
-639.6486359007902,574
-637.0010546587141,585
-634.3542031776476,602
-631.7080812809096,571
-629.0626887917401,566
-626.4180255333008,570
-623.7740913286734,585
-621.1308860008619,628
-618.4884093727904,578
-615.8466612673046,557
-613.2056415071715,568
-610.5653499150785,593
-607.9257863136347,622
-605.28695052537,583
-602.6488423727357,600
-600.0114616781036,557
-597.3748082637674,602
-594.7388819519412,608
-592.1036825647604,648
-589.4692099242818,668
-586.8354638524829,654
-584.2024441712624,633
-581.5701507024403,608
-578.9385832677575,590
-576.3077416888759,600
-573.6776257873787,611
-571.0482353847704,564
-568.4195703024757,574
-565.7916303618415,623
-563.164415384135,621
-560.5379251905453,626
-557.9121596021815,630
-555.2871184400748,610
-552.6628015251767,603
-550.0392086783606,610
-547.4163397204204,618
-544.794194472071,649
-542.1727727539491,664
-539.5520743866118,686
-536.9320991905377,737
-534.3128469861261,745
-531.6943175936979,726
-529.0765108334947,746
-526.4594265256793,791
-523.8430644903358,903
-521.2274245474689,1025
-518.612506517005,1104
-515.9983102187913,1024
-513.3848354725959,1136
-510.77208209810846,1263
-508.16004991493924,1352
-505.5487387426199,1505
-502.9381484006032,1575
-500.3282787082628,1389
-497.71912948489364,1253
-495.1107005497117,1150
-492.5029917218539,939
-489.8960028203786,868
-487.28973366426493,816
-484.68418407241325,764
-482.07935386364494,781
-479.47524285670266,720
-476.87185087025,713
-474.2691777228715,750
-471.66722323307334,756
-469.0659872192821,772
-466.4654694998459,820
-463.86566989303384,785
-461.26658821703614,740
-458.66822428996414,741
-456.07057792985,724
-453.4736489546475,752
-450.877437182231,746
-448.28194243039627,750
-445.68716451686,721
-443.09310325926003,742
-440.49975847515555,746
-437.9071299820263,737
-435.31521759727354,736
-432.72402113821954,772
-430.13354042210767,767
-427.5437752661022,727
-424.95472548728867,764
-422.36639090267386,784
-419.7787713291855,842
-417.1918665836721,871
-414.60567648290385,860
-412.0202008435715,813
-409.4354394822874,792
-406.8513922155845,817
-404.26805885991723,862
-401.685439231661,847
-399.103533147112,837
-396.522340422488,887
-393.9418608739278,797
-391.3620943174908,819
-388.7830405691583,835
-386.2046994448317,733
-383.6270707603344,711
-381.05015433141045,732
-378.473949973725,721
-375.8984575028645,658
-373.32367673433623,655
-370.74960748356875,623
-368.1762495659117,601
-365.60360279663576,555
-363.03166699093265,563
-360.4604419639154,547
-357.8899275306178,522
-355.32012350599507,528
-352.7510297049233,518
-350.1826459421999,488
-347.61497203254316,486
-345.04800779059235,506
-342.4817530309082,525
-339.91620756797226,525
-337.35137121618743,520
-334.7872437898774,557
-332.22382510328725,557
-329.66111497058273,533
-327.09911320585127,520
-324.53781962310075,521
-321.9772340362607,509
-319.4173562591816,515
-316.8581861056348,508
-314.2997233893127,485
-311.7419679238294,482
-309.1849195227194,481
-306.62857799943856,571
-304.0729431673641,575
-301.51801483979375,570
-298.963792829947,523
-296.41027695096386,544
-293.85746701590574,634
-291.3053628377552,695
-288.7539642294155,624
-286.2032710037115,532
-283.65328297338897,568
-281.1039999511146,651
-278.5554217494762,708
-276.007548180983,669
-273.4603790580651,628
-270.9139141930734,610
-268.3681533982807,582
-265.8230964858798,677
-263.27874326798565,655
-260.7350935566336,629
-258.1921471637804,637
-255.6499039013039,655
-253.10836358100266,646
-250.56752601459698,672
-248.02739101372765,734
-245.48795838995704,703
-242.94922795476816,671
-240.41119951956557,670
-237.8738728956746,673
-235.33724789434166,692
-232.80132432673452,750
-230.2661020039418,689
-227.73158073697357,687
-225.19776033676033,701
-222.66464061415422,755
-220.1322213799284,700
-217.60050244477725,623
-215.06948361931552,624
-212.53916471408013,737
-210.00954553952818,889
-207.48062590603843,753
-204.9524056239104,764
-202.4248845033651,875
-199.8980623545441,824
-197.37193898751036,852
-194.84651421224817,836
-192.32178783866232,777
-189.79775967657952,867
-187.27442953574644,903
-184.7517972258321,1081
-182.2298625564256,981
-179.7086253370378,841
-177.18808537710026,780
-174.66824248596583,861
-172.14909647290835,967
-169.6306471471229,996
-167.11289431772548,953
-164.59583779375328,935
-162.07947738416453,979
-159.5638128978386,1142
-157.04884414357605,1469
-154.53457093009854,1523
-152.02099306604828,1177
-149.50811035998936,924
-146.99592262040665,1087
-144.48442965570587,1179
-141.97363127421409,1531
-139.46352728417958,1747
-136.95411749377126,1815
-134.44540171107985,1483
-131.93737974411636,1138
-129.43005140081357,1303
-126.92341648902493,1704
-124.41747481652521,2152
-121.91222619101006,3223
-119.40767042009657,4449
-116.90380731132257,4478
-114.40063667214702,3878
-111.8981583099503,2521
-109.3963720320337,1612
-106.89527764561933,1539
-104.39487495785067,2341
-101.89516377579241,3835
-99.39614390642998,5552
-96.89781515667039,5069
-94.40017733334128,4686
-91.90323024319173,6277
-89.40697369289148,11295
-86.91140748903172,14658
-84.41653143812482,10817
-81.92234534660395,5565
-79.42884902082358,5567
-76.93604226705907,16123
-74.4439248915071,30161
-71.95249670028534,38897
-69.46175749943245,35260
-66.97170709490854,26908
-64.48234529259423,20064
-61.99367189829195,16879
-59.50568671772464,15427
-57.01838955653636,11242
-54.53178022029283,8862
-52.045858514480074,9213
-49.560624244506016,9050
-47.07607721569923,9329
-44.59221723330904,9770
-42.10904410250669,9947
-39.62655762838392,9950
-37.14475761595372,10231
-34.66364387015028,9843
-32.18321619582866,8979
-29.70347439776515,8910
-27.224418280657005,10837
-24.74604764912317,13480
-22.26836230770266,22526
-19.7913620608565,49141
-17.315046712966478,65039
-14.83941606833514,65039
-12.36446993118659,65039
-9.89020810566592,65039
-7.416630395839093,65039
-4.94373660569363,65039
-2.471526539137585,65039
-6.821210263296962E-13,65039
2.47084320796705,65039
4.941003281093458,65039
7.410480415786196,65039
9.879274808531363,65039
12.347386655893956,65039
14.814816154518212,65039
17.28156350112681,65039
19.74762889252179,65039
22.21301252558385,65039
24.67771459727237,20703
27.141735304626195,4266
29.605074844762612,3035
32.06773341487792,2870
34.52971121224755,2618
36.99100843422559,2522
39.45162527824516,2004
41.91156194181792,2041
44.370818622535126,1876
46.82939551806646,1534
49.287292826160524,1525
51.74451074464503,2131
54.201049471426245,2297
56.65690920448981,1848
59.112090141899785,1416
61.56659248179983,1252
64.02041642241159,1266
66.4735621620365,1369
68.92602989905402,1314
71.37781983192338,1576
73.82893215918205,1738
76.27936707944684,1816
78.72912479141326,1561
81.17820549385567,1620
83.62660938562783,1581
86.07433666566146,1387
88.5213875329681,1108
90.96776218663751,1143
93.41346082583925,1222
95.85848364982041,1494
98.30283085790859,1658
100.7465026495089,1443
103.18949922410604,1174
105.63182078126385,1184
108.07346752062438,1162
110.51443964190923,1062
112.95473734491827,1036
115.39436082953114,1171
117.83331029570547,1043
120.27158594347827,1131
122.7091879729652,1555
125.1461165843615,1359
127.58237197794062,996
130.01795435405518,948
132.4528639131364,1063
134.88710085569494,1012
137.32066538231982,948
139.75355769367923,1053
142.1857779905207,1150
144.61732647366978,940
147.04820334403132,867
149.47840880258934,901
151.90794305040674,943
154.33680628862487,1061
156.76499871846443,1350
159.19252054122433,1279
161.61937195828352,1343
164.04555317109896,1400
166.47106438120693,1415
168.89590579022217,1543
171.320077599839,1707
173.7435800118302,1699
176.16641322804742,1796
178.58857745042144,1847
181.01007288096173,2013
183.43089972175687,1937
185.85105817497413,1958
188.27054844285988,1997
190.6893707277394,1907
193.10752523201643,1983
195.5250121581745,2047
197.9418317087751,2116
200.3579840864594,1970
202.7734694939469,1976
205.18828813403627,2045
207.6024402096051,2215
210.01592592360964,2288
212.42874547908548,2341
214.84089907914665,2227
217.2523869269868,2109
219.66320922587727,2074
222.0733661791695,2109
224.48285799029293,2072
226.8916848627572,2125
229.29984700014882,2158
231.7073446061355,2178
234.11417788446204,2157
236.520347038953,2152
238.92585227351185,2106
241.33069379212054,2172
243.73487179884035,2215
246.1383864978112,2196
248.541238093252,2181
250.9434267894609,2121
253.34495279081432,2229
255.74581630176783,2086
258.1460175268563,2185
260.54555667069314,2123
262.9444339379703,2151
265.3426495334594,2214
267.7402036620107,2309
270.1370965285529,2213
272.53332833809407,2088
274.9288992957214,2095
277.32380960660055,2082
279.718059475976,2120
282.1116491091717,2260
284.5045787115897,2199
286.89684848871195,2069
289.2884586460981,2127
291.67940938938807,2151
294.0697009242996,2217
296.4593334566299,2258
298.84830719225477,2147
301.23662233712923,2194
303.6242790972866,2144
306.01127767884,2160
308.39761828798066,2059
310.78330113097934,2108
313.16832641418534,1969
315.5526943440269,1970
317.9364051270112,1965
320.3194589697242,2076
322.70185607883093,2050
325.0835966610754,1986
327.4646809232805,1974
329.8451090723478,1936
332.2248813152577,1971
334.6039978590701,1980
336.9824589109231,1885
339.36026467803447,1871
341.7374153677,1801
344.113911187295,1892
346.48975234427337,1835
348.8649390461686,1867
351.2394715005918,1887
353.61334991523415,1894
355.9865744978655,1851
358.35914545633375,1833
360.73106299856715,1832
363.10232733257146,1899
365.47293866643247,1849
367.84289720831396,1760
370.2122031664593,1822
372.5808567491905,1819
374.9488581649083,1789
377.31620762209275,1747
379.6829053293021,1688
382.0489514951745,1749
384.4143463284262,1717
386.7790900378528,1750
389.14318283232853,1755
391.50662492080653,1818
393.86941651231916,1759
396.23155781597745,1848
398.5930490409713,1747
400.9538903965696,1753
403.3140820921202,1867
405.6736243370498,1806
408.03251734086336,1716
410.3907613131465,1712
412.74835646356166,1687
415.10530300185144,1655
417.4616011378372,1666
419.81725108141893,1640
422.1722530425758,1651
424.5266072313656,1713
426.880313857925,1662
429.2333731324701,1750
431.58578526529516,1722
433.9375504667738,1664
436.2886689473588,1688
438.63914091758113,1686
440.9889665880513,1630
443.33814616945835,1641
445.68667987257015,1616
448.03456790823395,1692
450.3818104873759,1653
452.72840782100013,1670
455.07436012019105,1689
457.41966759611057,1654
459.7643304600007,1642
462.10834892318155,1602
464.4517231970525,1666
466.79445349309174,1626
469.1365400228566,1611
471.4779829979826,1596
473.81878263018564,1695
476.15893913125876,1631
478.4984527130747,1710
480.8373235875855,1739
483.17555196682144,1735
485.5131380628919,1687
487.8500820879857,1853
490.1863842543697,1885
492.52204477439034,2010
494.8570638604725,2107
497.1914417251204,2323
499.52517858091653,2562
501.85827464052306,3143
504.19073011668036,3534
506.5225452222086,3687
508.85372017000566,3845
511.18425517304956,4014
513.514150444396,4024
515.8434061971808,4652
518.1720226446176,5483
520.4999999999999,5604
522.8273384766991,5088
525.1540382881666,4521
527.480099647932,3933
529.8055227696037,3126
532.1303078668694,2531
534.454455153496,2149
536.777964843328,1978
539.1008371502907,1846
541.4230722883866,1915
543.744670471698,1790
546.0656319143858,1853
548.3859568306899,1796
550.7056454349294,1838
553.0246979415016,1796
555.3431145648834,1852
557.6608955196306,1777
559.978041020377,1735
562.2945512818363,1646
564.6104265188006,1738
566.9256669461412,1694
569.2402727788082,1742
571.5542442318302,1714
573.8675815203156,1689
576.1802848594508,1658
578.4923544645015,1774
580.8037905508126,1752
583.114593333807,1736
585.4247630289875,1776
587.7342998519354,1751
590.0432040183106,1710
592.3514757438526,1697
594.6591152443794,1661
596.9661227357875,1718
599.2724984340531,1765
601.578242555231,1723
603.8833553154542,1720
606.1878369309362,1718
608.4916876179676,1811
610.7949075929192,1776
613.0974970722403,1756
615.3994562724587,1733
617.7007854101818,1775
620.0014847020951,1677
622.3015543649641,1713
624.6009946156324,1785
626.8998056710224,1770
629.1979877481361,1712
631.4955410640538,1726
633.7924658359349,1696
636.0887622810175,1753
638.3844306166192,1783
640.6794710601358,1776
642.9738838290426,1778
645.2676691408932,1818
647.5608272133207,1770
649.853358264037,1741
652.1452625108324,1843
654.4365401715764,1849
656.7271914642178,1859
659.0172166067838,1853
661.3066158173809,1789
663.5953893141935,1790
665.8835373154867,1779
668.1710600396028,1819
670.4579577049639,1742
672.7442305300709,1752
675.0298787335033,1860
677.3149025339197,1807
679.599302150058,1786
681.8830778007342,1745
684.1662297048437,1772
686.4487580813608,1812
688.7306631493387,1821
691.0119451279091,1839
693.2926042362834,1786
695.5726406937516,1773
697.8520547196814,1806
700.1308465335215,1778
702.4090163547982,1739
704.6865644031171,1752
706.9634908981619,1743
709.2397960596965,1755
711.5154801075631,1836
713.7905432616823,1826
716.0649857420548,1717
718.3388077687592,1790
720.612009561953,1741
722.8845913418733,1844
725.1565533288352,1784
727.427895743234,1793
729.6986188055427,1796
731.9687227363137,1782
734.238207756178,1779
736.5070740858458,1756
738.7753219461066,1790
741.0429515578281,1779
743.3099631419569,1817
745.5763569195191,1873
747.8421331116193,1815
750.1072919394409,1798
752.3718336242467,1770
754.6357583873777,1749
756.8990664502545,1780
759.1617580343765,1869
761.423833361321,1766
763.6852926527457,1811
765.9461361303862,1860
768.206364016058,1825
770.4659765316536,1830
772.7249738991469,1829
774.9833563405886,1871
777.2411240781092,1885
779.4982773339183,1796
781.7548163303044,1785
784.010741289634,1831
786.2660524343538,1914
788.5207499869881,1900
790.7748341701416,1816
793.0283052064964,1884
795.2811633188143,1819
797.5334087299362,1813
799.7850416627813,1854
802.0360623403484,1826
804.2864709857143,1887
806.5362678220353,1843
808.7854530725468,1830
811.0340269605625,1812
813.2819897094754,1815
815.5293415427581,1837
817.77608268396,1894
820.0222133567116,1868
822.2677337847211,1812
824.5126441917765,1822
826.7569448017433,1808
829.0006358385675,1787
831.2437175262731,1846
833.4861900889629,1802
835.7280537508192,1790
837.9693087361026,1767
840.2099552691533,1762
842.4499935743896,1810
844.689423876309,1850
846.9282463994886,1863
849.1664613685833,1855
851.4040690083276,1967
853.6410695435349,1823
855.877463199097,1747
858.1132501999847,1796
860.3484307712487,1828
862.5830051380175,1816
864.8169735254988,1795
867.0503361589791,1856
869.2830932638243,1794
871.5152450654786,1831
873.7467917894654,1862
875.9777336613873,1785
878.2080709069252,1781
880.4378037518389,1855
882.666932421968,1818
884.8954571432301,1851
887.1233781416219,1856
889.3506956432192,1823
891.5774098741766,1834
893.803521060728,1827
896.0290294291852,1786
898.2539352059397,1783
900.4782386174619,1711
902.7019398903011,1800
904.925039251085,1821
907.147536926521,1776
909.3694331433943,1802
911.59072812857,1792
913.8114221089921,1781
916.0315153116827,1803
918.2510079637437,1813
920.4699002923547,1846
922.6881925247761,1811
924.905884888345,1844
927.1229776104793,1785
929.3394709186747,1828
931.555365040506,1713
933.7706602036275,1719
935.9853566357709,1761
938.1994545647489,1780
940.4129542184515,1827
942.6258558248488,1830
944.8381596119883,1799
947.0498658079974,1781
949.2609746410825,1853
951.4714863395287,1832
953.6814011316998,1797
955.8907192460387,1776
958.0994409110671,1825
960.3075663553858,1744
962.5150958076741,1779
964.7220294966913,1762
966.928367651274,1700
969.1341105003388,1712
971.3392582728806,1714
973.5438111979742,1727
975.747769504772,1744
977.9511334225061,1702
980.153903180487,1581
982.3560790081052,1657
984.5576611348289,1618
986.7586497902058,1695
988.9590452038618,1637
991.158847605503,1661
993.3580572249133,1617
995.5566742919558,1617
997.7546990365728,1589
999.952131688785,1537
1002.1489724786926,1549
1004.3452216364743,1551
1006.5408793923874,1546
1008.7359459767691,1533
1010.9304216200343,1520
1013.1243065526781,1487
1015.3176010052733,1482
1017.510305208472,1478
1019.7024193930064,1485
1021.8939437896848,1484
1024.0848786293977,1500
1026.2752241431122,1406
1028.4649805618747,1432
1030.6541481168115,1431
1032.842727039127,1421
1035.0307175601051,1452
1037.2181199111074,1400
1039.4049343235752,1388
1041.591161029029,1380
1043.7768002590683,1363
1045.9618522453698,1374
1048.1463172196918,1319
1050.3301954138697,1368
1052.513487059818,1372
1054.69619238953,1379
1056.8783116350783,1338
1059.0598450286152,1386
1061.2407928023704,1377
1063.4211551886528,1332
1065.6009324198508,1338
1067.780124728432,1387
1069.9587323469414,1386
1072.1367555080046,1379
1074.314194444325,1360
1076.4910493886855,1364
1078.667320573947,1369
1080.843008233051,1369
1083.0181125990161,1325
1085.1926339049414,1290
1087.3665723840027,1341
1089.5399282694575,1283
1091.7127017946405,1311
1093.8848931929647,1318
1096.0565026979243,1266
1098.2275305430899,1335
1100.3979769621128,1300
1102.567842188722,1284
1104.737126456726,1254
1106.9058300000124,1317
1109.0739530525475,1324
1111.2414958483764,1273
1113.4084586216231,1287
1115.5748416064907,1273
1117.7406450372605,1270
1119.9058691482942,1325
1122.0705141740304,1325
1124.2345803489884,1258
1126.3980679077658,1324
1128.5609770850388,1316
1130.7233081155623,1291
1132.8850612341707,1257
1135.0462366757774,1284
1137.2068346753745,1266
1139.3668554680326,1260
1141.526299288901,1271
1143.68516637321,1240
1145.8434569562655,1225
1148.001171273455,1238
1150.158309560244,1227
1152.3148720521767,1281
1154.470858984876,1267
1156.626270594044,1253
1158.7811071154629,1302
1160.9353687849912,1237
1163.089055838569,1247
1165.242168512213,1202
1167.3947070420209,1290
1169.5466716641677,1235
1171.6980626149075,1277
1173.8488801305748,1237
1175.9991244475814,1206
1178.1487958024186,1289
1180.2978944316555,1243
1182.4464205719428,1245
1184.5943744600072,1159
1186.7417563326567,1229
1188.8885664267755,1220
1191.0348049793297,1194
1193.1804722273619,1234
1195.325568407995,1256
1197.4700937584303,1251
1199.614048515948,1239
1201.7574329179074,1262
1203.900247201746,1227
1206.042491604982,1268
1208.1841663652099,1223
1210.3252717201053,1237
1212.465807907422,1291
1214.6057751649923,1327
1216.7451737307279,1262
1218.8840038426192,1282
1221.0222657387353,1282
1223.1599596572241,1285
1225.2970858363137,1286
1227.4336445143094,1228
1229.5696359295966,1252
1231.705060320639,1211
1233.8399179259786,1266
1235.9742089842384,1246
1238.107933734118,1294
1240.2410924143974,1224
1242.373685263935,1254
1244.5057125216676,1287
1246.6371744266116,1299
1248.7680712178621,1257
1250.898403134593,1272
1253.028170416058,1246
1255.1573733015875,1276
1257.2860120305932,1263
1259.4140868425648,1234
1261.54159797707,1244
1263.6685456737569,1254
1265.7949301723515,1233
1267.9207517126597,1253
1270.046010534565,1241
1272.1707068780306,1272
1274.2948409830983,1337
1276.4184130898889,1369
1278.541423438603,1298
1280.6638722695184,1292
1282.785759822993,1297
1284.9070863394636,1289
1287.0278520594447,1247
1289.1480572235314,1320
1291.2677020723963,1282
1293.3867868467923,1385
1295.5053117875495,1313
1297.623277135579,1280
1299.740683131868,1368
1301.8575300174857,1344
1303.973818033578,1319
1306.0895474213703,1410
1308.2047184221678,1300
1310.3193312773528,1390
1312.4333862283888,1306
1314.5468835168163,1355
1316.659823384255,1352
1318.7722060724045,1324
1320.8840318230418,1317
1322.9953008780249,1290
1325.1060134792888,1354
1327.2161698688478,1313
1329.3257702887959,1310
1331.4348149813054,1328
1333.5433041886276,1357
1335.6512381530933,1369
1337.7586171171101,1375
1339.8654413231675,1350
1341.9717110138317,1316
1344.0774264317488,1318
1346.1825878196432,1375
1348.2871954203192,1371
1350.3912494766587,1348
1352.4947502316231,1325
1354.5976979282532,1377
1356.7000928096686,1314
1358.8019351190665,1373
1360.9032250997243,1291
1363.0039629949988,1331
1365.1041490483235,1317
1367.2037835032133,1336
1369.3028666032606,1333
1371.401398592137,1320
1373.4993797135926,1297
1375.5968102114575,1347
1377.6936903296396,1296
1379.7900203121262,1281
1381.8858004029835,1257
1383.9810308463561,1327
1386.075711886469,1286
1388.1698437676241,1289
1390.2634267342032,1325
1392.356461030667,1309
1394.4489469015557,1250
1396.5408845914872,1242
1398.6322743451592,1290
1400.7231164073469,1335
1402.813411022907,1346
1404.903158436773,1330
1406.9923588939578,1284
1409.0810126395531,1364
1411.1691199187303,1317
1413.2566809767386,1371
1415.343696058907,1396
1417.4301654106425,1308
1419.5160892774315,1347
1421.6014679048399,1333
1423.6863015385125,1329
1425.7705904241707,1419
1427.8543348076178,1371
1429.9375349347342,1294
1432.0201910514802,1330
1434.102303403894,1399
1436.1838722380944,1340
1438.2648978002767,1341
1440.3453803367174,1341
1442.4253200937692,1361
1444.5047173178677,1351
1446.5835722555234,1366
1448.6618851533285,1354
1450.739656257952,1395
1452.8168858161434,1419
1454.8935740747306,1334
1456.96972128062,1339
1459.045327680797,1382
1461.120393522327,1339
1463.1949190523528,1370
1465.2689045180973,1408
1467.3423501668608,1424
1469.415256246024,1414
1471.4876230030463,1374
1473.559450685465,1385
1475.6307395408976,1345
1477.7014898170391,1426
1479.771701761665,1435
1481.8413756226287,1394
1483.9105116478618,1415
1485.9791100853772,1383
1488.0471711832643,1428
1490.1146951896926,1410
1492.1816823529098,1372
1494.2481329212433,1394
1496.3140471430984,1438
1498.3794252669609,1424
1500.4442675413939,1433
1502.5085742150404,1454
1504.572345536622,1447
1506.6355817549388,1433
1508.6982831188702,1376
1510.7604498773744,1415
1512.8220822794883,1432
1514.8831805743293,1445
1516.9437450110909,1405
1519.003775839048,1470
1521.0632733075522,1513
1523.1222376660367,1443
1525.1806691640113,1434
1527.2385680510652,1425
1529.2959345768668,1488
1531.3527689911643,1426
1533.4090715437833,1473
1535.4648424846291,1432
1537.5200820636855,1490
1539.5747905310159,1409
1541.6289681367616,1395
1543.6826151311434,1448
1545.7357317644614,1457
1547.7883182870937,1481
1549.8403749494987,1550
1551.8919020022113,1487
1553.9428996958477,1520
1555.9933682811015,1559
1558.0433080087469,1517
1560.0927191296346,1510
1562.1416018946961,1516
1564.1899565549415,1558
1566.2377833614592,1538
1568.2850825654164,1583
1570.3318544180606,1550
1572.3780991707158,1562
1574.423817074788,1581
1576.4690083817595,1523
1578.5136733431923,1518
1580.5578122107272,1539
1582.601425236085,1505
1584.6445126710646,1484
1586.6870747675434,1474
1588.7291117774776,1478
1590.7706239529034,1483
1592.8116115459347,1450
1594.8520748087658,1491
1596.8920139936686,1432
1598.9314293529933,1444
1600.9703211391711,1434
1603.008689604711,1427
1605.0465350022005,1462
1607.0838575843068,1449
1609.1206576037753,1416
1611.1569353134305,1337
1613.1926909661765,1362
1615.2279248149953,1389
1617.2626371129481,1360
1619.2968281131757,1382
1621.3304980688963,1361
1623.3636472334088,1407
1625.39627586009,1370
1627.428384202396,1276
1629.459972513861,1359
1631.4910410480993,1333
1633.5215900588028,1342
1635.551619799744,1321
1637.5811305247717,1339
1639.6101224878166,1344
1641.6385959428862,1305
1643.6665511440683,1331
1645.693988345528,1367
1647.7209078015112,1292
1649.7473097663405,1310
1651.7731944944203,1254
1653.7985622402307,1225
1655.823413258333,1323
1657.847747803366,1319
1659.8715661300494,1300
1661.8948684931793,1323
1663.9176551476316,1313
1665.9399263483624,1294
1667.9616823504057,1324
1669.982923408873,1334
1672.0036497789574,1338
1674.0238617159293,1310
1676.043559475138,1293
1678.0627433120121,1322
1680.081413482059,1274
1682.0995702408654,1296
1684.117213844096,1301
1686.134344547495,1295
1688.1509626068864,1303
1690.1670682781705,1307
1692.182661817329,1329
1694.1977434804217,1291
1696.2123135235875,1291
1698.226372203043,1307
1700.2399197750851,1272
1702.2529564960905,1293
1704.2654826225112,1282
1706.277498410882,1287
1708.2890041178139,1261
1710.2999999999988,1298
1712.3104863142066,1290
1714.3204633172854,1282
1716.329931266163,1278
1718.3388904178469,1287
1720.3473410294214,1271
1722.3552833580516,1270
1724.3627176609807,1335
1726.3696441955308,1311
1728.3760632191033,1329
1730.3819749891782,1306
1732.3873797633146,1290
1734.3922777991502,1295
1736.3966693544012,1339
1738.4005546868639,1298
1740.4039340544127,1310
1742.406807715001,1346
1744.4091759266616,1313
1746.4110389475054,1306
1748.4123970357223,1301
1750.413250449582,1290
1752.4135994474318,1288
1754.4134442876993,1297
1756.4127852288902,1345
1758.4116225295893,1303
1760.4099564484595,1320
1762.407787244244,1360
1764.405115175764,1308
1766.4019405019203,1326
1768.3982634816916,1253
1770.3940843741357,1251
1772.3894034383907,1332
1774.3842209336717,1313
1776.378537119274,1257
1778.372352254571,1296
1780.3656665990156,1311
1782.3584804121397,1309
1784.3507939535534,1293
1786.3426074829463,1284
1788.3339212600863,1329
1790.3247355448211,1298
1792.3150505970766,1284
1794.3048666768573,1284
1796.2941840442477,1278
1798.2830029594106,1342
1800.2713236825884,1282
1802.2591464741004,1300
1804.2464715943465,1264
1806.2332993038058,1331
1808.2196298630352,1300
1810.2054635326708,1251
1812.190800573428,1284
1814.175641246101,1294
1816.1599858115628,1256
1818.1438345307652,1281
1820.127187664738,1233
1822.1100454745924,1354
1824.092408221516,1293
1826.0742761667766,1275
1828.055649571721,1309
1830.0365286977735,1260
1832.0169138064398,1279
1833.9968051593014,1235
1835.9762030180214,1285
1837.9551076443408,1211
1839.9335193000788,1252
1841.9114382471344,1278
1843.888864747485,1277
1845.8657990631878,1259
1847.842241456378,1269
1849.8181921892697,1262
1851.7936515241558,1264
1853.7686197234098,1285
1855.7430970494815,1240
1857.7170837649014,1221
1859.6905801322787,1260
1861.6635864143004,1270
1863.6361028737338,1303
1865.608129773424,1276
1867.5796673762961,1253
1869.5507159453537,1350
1871.521275743678,1301
1873.4913470344313,1322
1875.4609300808534,1277
1877.4300251462632,1269
1879.3986324940588,1296
1881.366752387717,1248
1883.3343850907936,1284
1885.3015308669228,1316
1887.268189979819,1302
1889.2343626932739,1291
1891.2000492711595,1249
1893.1652499774254,1286
1895.1299650761011,1292
1897.0941948312952,1287
1899.0579395071945,1279
1901.0211993680641,1308
1902.98397467825,1300
1904.9462657021745,1323
1906.9080727043415,1333
1908.869395949332,1283
1910.8302357018065,1230
1912.790592226504,1285
1914.7504657882428,1299
1916.7098566519212,1290
1918.6687650825133,1299
1920.6271913450764,1267
1922.5851357047422,1246
1924.5425984267245,1248
1926.499579776314,1303
1928.4560800188833,1296
1930.4120994198802,1310
1932.367638244833,1258
1934.32269675935,1265
1936.2772752291175,1295
1938.231373919899,1302
1940.1849930975404,1306
1942.1381330279637,1281
1944.0907939771696,1260
1946.0429762112412,1289
1947.9946799963363,1285
1949.9459055986945,1290
1951.896653284633,1291
1953.8469233205478,1279
1955.7967159729142,1318
1957.7460315082863,1298
1959.6948701932974,1263
1961.6432322946594,1259
1963.5911180791632,1252
1965.5385278136787,1300
1967.4854617651545,1305
1969.4319202006182,1271
1971.377903387176,1291
1973.3234115920136,1289
1975.268445082395,1291
1977.2130041256642,1292
1979.1570889892423,1265
1981.1006999406304,1245
1983.04383724741,1310
1984.986501177238,1282
1986.928691997853,1238
1988.8704099770712,1275
1990.811655382789,1326
1992.7524284829801,1289
1994.692729545698,1306
1996.6325588390755,1274
1998.5719166313224,1273
2000.5108031907307,1243
2002.4492187856677,1310
2004.387163684583,1282
2006.3246381560011,1281
2008.2616424685298,1324
2010.1981768908527,1225
2012.1342416917332,1227
2014.069837140014,1303
2016.0049635046162,1208
2017.9396210545406,1267
2019.8738100588666,1216
2021.8075307867502,1326
2023.740783507431,1270
2025.6735684902228,1289
2027.6058860045214,1284
2029.5377363198004,1234
2031.4691197056118,1276
2033.4000364315875,1279
2035.3304867674374,1286
2037.260470982952,1230
2039.189989347998,1253
2041.1190421325232,1267
2043.047629606554,1256
2044.9757520401945,1243
2046.9034097036288,1300
2048.8306028671195,1315
2050.7573318010086,1241
2052.683596775716,1280
2054.609398061742,1265
2056.5347359296647,1259
2058.4596106501403,1249
2060.384022493906,1257
2062.3079717317764,1280
2064.231458634646,1291
2066.1544834734873,1234
2068.077046519352,1233
2069.99914804337,1266
2071.9207883167524,1266
2073.8419676107865,1280
2075.7626861968406,1239
2077.6829443463607,1322
2079.6027423308715,1262
2081.522080421977,1267
2083.440958891362,1281
2085.359378010786,1290
2087.2773380520907,1312
2089.194839287196,1259
2091.111881988101,1231
2093.0284664268825,1283
2094.9445928756973,1257
2096.86026160678,1277
2098.775472892446,1241
2100.690227005088,1234
2102.604524217178,1299
2104.5183648012676,1250
2106.431749029985,1304
2108.34467717604,1290
2110.2571495122206,1234
2112.169166311393,1243
2114.080727846503,1272
2115.9918343905747,1249
2117.902486216711,1269
2119.8126835980956,1279
2121.722426807987,1273
2123.6317161197285,1305
2125.5405518067364,1262
2127.448934142509,1254
2129.356863400624,1263
2131.264339854737,1253
2133.1713637785815,1331
2135.077935445972,1295
2136.9840551308002,1293
2138.889723107037,1256
2140.7949396487334,1286
2142.699705030018,1273
2144.6040195250994,1283
2146.507883408264,1347
2148.4112969538774,1299
2150.3142604363848,1283
2152.2167741303097,1309
2154.1188383102535,1284
2156.0204532508997,1315
2157.9216192270064,1329
2159.822336513414,1256
2161.7226053850413,1290
2163.622426116884,1239
2165.5217989840185,1349
2167.4207242616,1241
2169.319202224862,1307
2171.2172331491165,1226
2173.1148173097563,1280
2175.0119549822507,1336
2176.90864644215,1293
2178.8048919650823,1302
2180.7006918267534,1333
2182.596046302952,1266
2184.4909556695407,1303
2186.3854202024645,1289
2188.279440177746,1255
2190.173015871487,1285
2192.066147559868,1262
2193.958835519149,1321
2195.851080025667,1309
2197.7428813558417,1259
2199.6342397861667,1294
2201.5251555932186,1303
2203.415629053651,1278
2205.3056604441986,1301
2207.19525004167,1289
2209.084398122958,1255
2210.9731049650327,1298
2212.861370844941,1339
2214.749196039812,1301
2216.636580826851,1380
2218.523525483344,1341
2220.410030286655,1312
2222.296095514226,1369
2224.1817214435805,1318
2226.066908352319,1329
2227.951656518121,1272
2229.835966218746,1288
2231.71983773203,1333
2233.6032713358913,1368
2235.486267308324,1266
2237.3688259274036,1314
2239.2509474712824,1305
2241.132632218193,1332
2243.013880446447,1297
2244.8946924344323,1373
2246.7750684606203,1355
2248.6550088035574,1286
2250.534513741871,1360
2252.413583554265,1326
2254.292218519526,1323
2256.170418916517,1356
2258.0481850241786,1337
2259.925517121534,1326
2261.8024154876825,1314
2263.678880401803,1348
2265.5549121431536,1326
2267.430510991071,1343
2269.305677224971,1285
2271.180411124348,1312
2273.0547129687766,1277
2274.9285830379076,1307
2276.8020216114737,1216
2278.6750289692845,1315
2280.5476053912294,1336
2282.4197511572766,1296
2284.2914665474727,1277
2286.162751841943,1363
2288.0336073208937,1353
2289.904033264608,1352
2291.774029953448,1407
2293.6435976678554,1423
2295.5127366883517,1344
2297.381447295534,1291
2299.2497297700825,1295
2301.1175843927526,1213
2302.9850114443825,1256
2304.852011205885,1219
2306.7185839582553,1160
2308.5847299825664,1188
2310.4504495599676,1168
2312.3157429716925,1178
2314.1806104990483,1164
2316.0450524234247,1192
2317.9090690262888,1141
2319.772660589186,1155
2321.635827393742,1133
2323.498569721661,1213
2325.3608878547248,1145
2327.2227820747967,1136
2329.0842526638157,1130
2330.945299903803,1156
2332.805924076857,1128
2334.6661254651535,1184
2336.525904350951,1168
2338.3852610165827,1166
2340.244195744464,1159
2342.102708817088,1167
2343.9608005170253,1135
2345.8184711269287,1126
2347.675720929526,1160
2349.532550207628,1139
2351.38895924412,1173
2353.24494832197,1107
2355.100517724223,1150
2356.955667734004,1171
2358.810398634514,1172
2360.664710709037,1175
2362.5186042409337,1167
2364.3720795136437,1174
2366.225136810686,1179
2368.0777764156583,1127
2369.929998612237,1151
2371.7818036841777,1175
2373.633191915315,1167
2375.484163589562,1131
2377.3347189909114,1186
2379.184858403434,1163
2381.03458211128,1165
2382.8838903986775,1164
2384.732783549936,1128
2386.5812618494406,1144
2388.4293255816588,1120
2390.2769750311327,1168
2392.1242104824883,1186
2393.971032220427,1179
2395.8174405297295,1151
2397.6634356952563,1179
2399.509018001947,1175
2401.3541877348193,1127
2403.1989451789705,1165
2405.043290619576,1167
2406.8872243418905,1182
2408.730746631247,1115
2410.5738577730594,1153
2412.4165580528183,1135
2414.258847756095,1156
2416.100727168537,1202
2417.9421965758734,1179
2419.783256263912,1158
2421.623906518538,1171
2423.4641476257157,1200
2425.303979871491,1216
2427.143403541984,1207
2428.9824189233977,1174
2430.821026302012,1194
2432.6592259641866,1189
2434.497018196361,1177
2436.33440328505,1162
2438.171381516851,1199
2440.00795317844,1196
2441.844118556569,1228
2443.6798779380724,1214
2445.5152316098606,1178
2447.3501798589255,1182
2449.1847229723357,1171
2451.0188612372403,1181
2452.8525949408663,1185
2454.6859243705203,1185
2456.518849813587,1148
2458.3513715575314,1163
2460.183489889895,1164
2462.015205098301,1150
2463.8465174704493,1132
2465.67742729412,1119
2467.5079348571717,1169
2469.338040447542,1164
2471.1677443532476,1185
2472.9970468623833,1199
2474.825948263123,1121
2476.6544488437207,1152
2478.482548892508,1202
2480.310248697896,1165
2482.137548548374,1170
2483.9644487325118,1140
2485.790949538956,1151
2487.617051256433,1179
2489.44275417375,1182
2491.26805857979,1174
2493.0929647635157,1164
2494.917473013971,1126
2496.741583620276,1185
2498.5652968716304,1112
2500.3886130573137,1211
2502.2115324666834,1170
2504.0340553891765,1220
2505.856182114308,1174
2507.6779129316733,1150
2509.499248130945,1156
2511.3201880018764,1158
2513.140732834298,1146
2514.9608829181198,1138
2516.780638543331,1099
2518.6,1167
2520.418967578273,1174
2522.237541568376,1166
2524.0557222606144,1188
2525.8735099453706,1126
2527.6909049131086,1153
2529.507907454368,1172
2531.32451785977,1166
2533.140736420014,1174
2534.9565634258774,1147
2536.771999168218,1206
2538.5870439379714,1203
2540.4016980261526,1153
2542.2159617238544,1113
2544.02983532225,1172
2545.8433191125914,1223
2547.656413386209,1172
2549.4691184345115,1187
2551.2814345489874,1197
2553.093362021204,1189
2554.904901142808,1152
2556.716052205523,1157
2558.526815501153,1195
2560.3371913215824,1217
2562.147179958771,1163
2563.956781704761,1144
2565.7659968516705,1175
2567.5748256916986,1154
2569.3832685171224,1166
2571.1913256202984,1188
2572.9989972936614,1217
2574.806283829725,1186
2576.613185521084,1229
2578.4197026604074,1123
2580.2258355404483,1199
2582.031584454035,1187
2583.836949694077,1197
2585.6419315535613,1187
2587.4465303255533,1165
2589.2507463032002,1196
2591.0545797797245,1187
2592.8580310484303,1191
2594.6611004026995,1198
2596.463788135992,1164
2598.266094541849,1150
2600.0680199138874,1154
2601.869564545807,1157
2603.670728731383,1200
2605.4715127644704,1184
2607.2719169390048,1205
2609.071941548998,1230
2610.8715868885433,1236
2612.670853251811,1175
2614.469740933052,1187
2616.268250226594,1145
2618.0663814268455,1213
2619.864134828292,1191
2621.6615107255006,1231
2623.458509413115,1119
2625.2551311858597,1184
2627.0513763385347,1157
2628.8472451660223,1204
2630.6427379632833,1125
2632.4378550253564,1210
2634.232596647359,1144
2636.026963124488,1163
2637.8209547520187,1135
2639.6145718253065,1163
2641.407814639785,1211
2643.200683490966,1192
2644.9931786744414,1171
2646.7853004858807,1208
2648.577049221034,1196
2650.3684251757277,1178
2652.1594286458712,1219
2653.9500599274484,1182
2655.740319316525,1162
2657.5302071092437,1182
2659.3197236018286,1189
2661.10886909058,1186
2662.8976438718782,1122
2664.686048242183,1196
2666.4740824980327,1207
2668.2617469360443,1194
2670.0490418529134,1204
2671.8359675454153,1152
2673.622524310403,1183
2675.408712444811,1189
2677.1945322456495,1151
2678.979984010009,1237
2680.76506803506,1139
2682.5497846180497,1201
2684.334134056306,1189
2686.1181166472343,1141
2687.9017326883213,1156
2689.6849824771293,1142
2691.4678663113013,1088
2693.2503844885596,1125
2695.032537306705,1167
2696.8143250636167,1179
2698.5957480572542,1174
2700.3768065856534,1157
2702.1575009469316,1148
2703.937831439283,1132
2705.717798360982,1127
2707.4974020103837,1115
2709.276642685917,1167
2711.055520686095,1194
2712.834036309506,1138
2714.612189854819,1161
2716.389981620782,1148
2718.1674119062204,1153
2719.944481010041,1139
2721.721189231226,1147
2723.4975368688415,1202
2725.273524222027,1196
2727.0491515900053,1152
2728.824419272075,1177
2730.5993275676146,1172
2732.3738767760838,1126
2734.148067197016,1159
2735.921899130031,1143
2737.6953728748194,1213
2739.468488731156,1140
2741.2412469988926,1180
2743.0136479779617,1195
2744.785691968372,1171
2746.5573792702116,1159
2748.3287101836504,1116
2750.099685008934,1092
2751.870304046388,1120
2753.640567596418,1158
2755.4104759595057,1191
2757.1800294362156,1161
2758.949228327187,1172
2760.7180729331412,1115
2762.486563554877,1180
2764.254700493272,1153
2766.022484049284,1182
2767.789914523947,1135
2769.5569922183786,1159
2771.3237174337705,1050
2773.090090471394,1160
2774.8561116326036,1117
2776.6217812188274,1185
2778.3870995315756,1124
2780.1520668724356,1161
2781.9166835430747,1162
2783.6809498452394,1148
2785.444866080754,1147
2787.2084325515225,1115
2788.971649559527,1138
2790.73451740683,1126
2792.4970363955713,1157
2794.2592068279705,1157
2796.0210290063264,1140
2797.7825032330147,1164
2799.543629810493,1105
2801.304409041296,1112
2803.0648412280366,1113
2804.8249266734088,1141
2806.5846656801846,1133
2808.344058551212,1099
2810.1031055894246,1202
2811.8618070978273,1085
2813.6201633795085,1138
2815.378174737636,1185
2817.1358414754536,1158
2818.893163896285,1205
2820.6501423035334,1161
2822.4067770006814,1172
2824.1630682912883,1124
2825.9190164789957,1153
2827.6746218675207,1152
2829.429884760661,1182
2831.184805462294,1179
2832.9393842763743,1151
2834.693621506936,1148
2836.4475174580916,1175
2838.201072434034,1209
2839.954286739034,1176
2841.707160677441,1146
2843.459694553685,1180
2845.2118886722724,1154
2846.96374333779,1166
2848.7152588549034,1101
2850.4664355283567,1192
2852.217273662973,1169
2853.9677735636546,1132
2855.7179355353833,1187
2857.4677598832186,1127
2859.217246912299,1122
2860.9663969278427,1115
2862.715210235146,1146
2864.4636871395846,1159
2866.211827946614,1197
2867.9596329617652,1176
2869.7071024906536,1120
2871.4542368389684,1188
2873.20103631248,1186
2874.947501217038,1142
2876.6936318585695,1160
2878.4394285430812,1131
2880.1848915766604,1125
2881.9300212654707,1164
2883.6748179157553,1141
2885.4192818338374,1123
2887.1634133261173,1169
2888.907212699077,1151
2890.6506802592744,1193
2892.393816313348,1153
2894.1366211680142,1158
2895.8790951300693,1136
2897.621238506388,1168
2899.363051603925,1127
2901.1045347297118,1154
2902.8456881908596,1139
2904.58651229456,1146
2906.327007348081,1149
2908.067173658772,1116
2909.8070115340597,1156
2911.5465212814497,1150
2913.285703208527,1150
2915.0245576229563,1182
2916.7630848324807,1123
2918.5012851449196,1153
2920.2391588681758,1128
2921.976706310227,1139
2923.7139277791334,1111
2925.4508235830313,1094
2927.187394030137,1141
2928.923639428745,1149
2930.6595600872306,1121
2932.395156314046,1195
2934.1304284177218,1197
2935.8653767068713,1180
2937.6000014901815,1166
2939.3343030764227,1187
2941.068281774442,1148
2942.8019378931644,1191
2944.5352717415976,1209
2946.2682836288236,1141
2948.0009738640065,1218
2949.7333427563885,1210
2951.465390615289,1177
2953.1971177501086,1139
2954.9285244703265,1094
2956.6596110855,1153
2958.3903779052657,1113
2960.1208252393385,1118
2961.8509533975125,1156
2963.5807626896617,1139
2965.3102534257378,1128
2967.0394259157715,1159
2968.768280469873,1206
2970.496817398232,1222
2972.2250370111146,1150
2973.952939618869,1133
2975.6805255319196,1178
2977.4077950607707,1172
2979.134748516006,1188
2980.861386208289,1143
2982.587708448359,1110
2984.313715547037,1158
2986.039407815222,1152
2987.764785563891,1169
2989.489849104102,1163
2991.2145987469908,1103
2992.9390348037705,1166
2994.6631575857346,1100
2996.3869674042576,1183
2998.1104645707887,1183
2999.83364939686,1176
3001.5565221940783,1157
3003.2790832741334,1153
3005.0013329487924,1179
3006.7232715298996,1123
3008.4448993293804,1095
3010.166216659239,1073
3011.887223831558,1137
3013.607921158498,1151
3015.3283089522993,1162
3017.0483875252826,1158
3018.7681571898443,1130
3020.4876182584626,1158
3022.2067710436927,1167
3023.9256158581707,1095
3025.644153014609,1138
3027.362382825801,1182
3029.0803056046193,1119
3030.797921664012,1148
3032.5152313170106,1173
3034.2322348767225,1121
3035.9489326563353,1145
3037.665324969115,1114
3039.3814121284063,1168
3041.097194447633,1126
3042.812672240299,1184
3044.5278458199855,1163
3046.2427155003525,1191
3047.9572815951406,1194
3049.671544418167,1140
3051.38550428333,1155
3053.0991615046073,1144
3054.812516396051,1154
3056.5255692717974,1087
3058.2383204460575,1103
3059.9507702331257,1171
3061.662918947372,1199
3063.3747669032446,1149
3065.0863144152736,1108
3066.7975617980674,1110
3068.508509366309,1160
3070.219157434767,1183
3071.9295063182844,1105
3073.639556331785,1093
3075.3493077902704,1061
3077.058761008821,1110
3078.7679163025964,1046
3080.476773986837,1123
3082.1853343768594,1148
3083.89359778806,1134
3085.6015645359153,1096
3087.3092349359786,1128
3089.016609303884,1103
3090.7236879553434,1152
3092.4304712061476,1124
3094.136959372166,1171
3095.843152769349,1115
3097.5490517137237,1129
3099.2546565213966,1087
3100.959967508554,1153
3102.66498499146,1149
3104.3697092864577,1114
3106.0741407099695,1149
3107.778279578498,1095
3109.482126208622,1166
3111.1856809170004,1085
3112.8889440203716,1101
3114.5919158355528,1126
3116.294596679439,1141
3117.996986869006,1154
3119.6990867213062,1148
3121.4008965534726,1131
3123.102416682717,1135
3124.803647426329,1128
3126.5045891016784,1139
3128.205242026213,1106
3129.90560651746,1157
3131.605682893025,1148
3133.3054714705922,1139
3135.0049725679282,1115
3136.7041865028714,1100
3138.4031135933465,1122
3140.101754157353,1169
3141.800108512971,1109
3143.498176978357,1111
3145.1959598717494,1146
3146.8934575114636,1173
3148.5906702158954,1156
3150.2875983035183,1133
3151.9842420928853,1172
3153.680601902627,1133
3155.376678051456,1139
3157.07247085816,1099
3158.767980641609,1156
3160.463207720748,1180
3162.158152414606,1146
3163.8528150422862,1142
3165.5471959229726,1165
3167.2412953759303,1140
3168.9351137204976,1154
3170.628651276098,1097
3172.3219083622307,1136
3174.014885298474,1132
3175.707582404485,1139
3177.4000000000005,1096
3179.092138404835,1169
3180.7839979388846,1189
3182.47557892212,1173
3184.166881674594,1179
3185.8579065164386,1116
3187.5486537678626,1097
3189.2391237491547,1104
3190.9293167806827,1146
3192.6192331828934,1130
3194.3088732763117,1171
3195.998237381542,1106
3197.687325819268,1117
3199.376138910251,1117
3201.064676975334,1137
3202.7529403354347,1152
3204.4409293115523,1117
3206.1286442247647,1144
3207.816085396229,1133
3209.5032531471825,1105
3211.190147798936,1110
3212.8767696728846,1171
3214.5631190905015,1100
3216.2491963733373,1154
3217.9350018430214,1135
3219.6205358212637,1125
3221.305798629851,1189
3222.990790590651,1081
3224.6755120256103,1128
3226.359963256751,1127
3228.0441446061795,1134
3229.7280563960758,1156
3231.411698948703,1121
3233.0950725863995,1126
3234.778177631587,1091
3236.461014406761,1108
3238.1435832345005,1144
3239.8258844374595,1111
3241.507918338374,1119
3243.1896852600576,1098
3244.8711855254023,1142
3246.552419457381,1168
3248.233387379042,1139
3249.914089613516,1187
3251.59452648401,1164
3253.274698313813,1139
3254.95460542629,1098
3256.6342481448855,1138
3258.313626793125,1090
3259.9927416946084,1171
3261.6715931730196,1121
3263.3501815521176,1077
3265.0285071557437,1117
3266.706570307815,1109
3268.3843713323286,1129
3270.0619105533615,1092
3271.739188295068,1102
3273.4162048816834,1126
3275.0929606375184,1102
3276.769455886966,1100
3278.445690954498,1135
3280.1216661646613,1189
3281.797381842087,1149
3283.4728383114807,1138
3285.1480358976296,1112
3286.8229749253996,1063
3288.4976557197333,1172
3290.172078605655,1110
3291.846243908266,1086
3293.5201519527463,1114
3295.193803064357,1101
3296.8671975684374,1179
3298.5403357904024,1123
3300.21321805575,1090
3301.8858446900567,1135
3303.558216018975,1133
3305.23033236824,1128
3306.9021940636603,1129
3308.57380143113,1126
3310.2451547966184,1128
3311.916254486174,1120
3313.5871008259246,1090
3315.2576941420766,1067
3316.9280347609147,1129
3318.5981230088046,1145
3320.2679592121895,1120
3321.9375436975924,1144
3323.606876791612,1138
3325.27595882093,1092
3326.944790112305,1094
3328.6133709925753,1139
3330.2817017886573,1118
3331.949782827547,1071
3333.617614436319,1114
3335.2851969421245,1118
3336.952530672199,1123
3338.619615953853,1065
3340.286453114475,1095
3341.9530424815357,1111
3343.619384382583,1171
3345.2854791452437,1162
3346.951327097224,1123
3348.6169285663073,1115
3350.2822838803577,1136
3351.947393367319,1100
3353.61225735521,1132
3355.2768761721345,1097
3356.9412501462693,1163
3358.605379605873,1131
3360.2692648792827,1107
3361.9329062949146,1160
3363.596304181263,1063
