CollectionTime,7/3/2024 3:08:00 PM
ExposureUsed,3
CalibratedSpectrum
-962.7078968117929,647
-959.9714848408522,679
-957.2358232597828,681
-954.5009119013725,714
-951.7667505983302,725
-949.0333391832855,725
-946.3006774887896,708
-943.5687653473143,680
-940.837602591253,715
-938.1071890529199,716
-935.3775245645503,673
-932.6486089583007,743
-929.9204420662485,720
-927.1930237203925,711
-924.4663537526524,696
-921.7404319948689,745
-919.0152582788041,688
-916.2908324361409,748
-913.5671542984834,721
-910.8442236973568,749
-908.1220404642074,716
-905.4006044304027,737
-902.679915427231,702
-899.959973285902,695
-897.2407778375464,717
-894.5223289132158,722
-891.8046263438832,715
-889.0876699604426,707
-886.3714595937089,734
-883.6559950744183,714
-880.9412762332282,740
-878.2273029007168,718
-875.5140749073835,733
-872.8015920836489,722
-870.0898542598545,745
-867.3788612662631,691
-864.6686129330585,703
-861.9591090903457,779
-859.2503495681506,749
-856.5423341964203,708
-853.8350628050229,696
-851.1285352237478,709
-848.4227512823054,668
-845.7177108103272,760
-843.0134136373656,768
-840.3098595928943,725
-837.6070485063082,753
-834.9049802069229,728
-832.2036545239757,762
-829.5030712866244,712
-826.8032303239481,757
-824.1041314649472,762
-821.4057745385428,712
-818.7081593735775,735
-816.0112857988148,747
-813.3151536429393,727
-810.6197627345566,796
-807.9251129021936,732
-805.2312039742981,758
-802.5380357792392,805
-799.8456081453069,779
-797.1539209007124,772
-794.462973873588,752
-791.772766891987,766
-789.083299783884,748
-786.3945723771743,765
-783.7065844996748,755
-781.0193359791231,740
-778.3328266431781,759
-775.6470563194197,781
-772.9620248353489,785
-770.2777320183878,791
-767.5941776958798,818
-764.9113616950891,729
-762.2292838432011,775
-759.5479439673222,784
-756.8673418944801,779
-754.1874774516235,797
-751.5083504656222,818
-748.8299607632671,801
-746.15230817127,807
-743.475392516264,791
-740.7992136248035,833
-738.1237713233636,810
-735.4490654383407,804
-732.7750957960521,796
-730.1018622227365,782
-727.4293645445534,814
-724.7576025875837,803
-722.0865761778291,820
-719.4162851412126,818
-716.7467293035781,832
-714.0779084906909,808
-711.409822528237,837
-708.7424712418238,827
-706.0758544569796,831
-703.4099719991541,851
-700.7448236937178,836
-698.0804093659622,810
-695.4167288411002,815
-692.7537819442656,832
-690.0915685005134,822
-687.4300883348199,821
-684.7693412720819,796
-682.1093271371178,802
-679.4500457546669,788
-676.7914969493897,839
-674.1336805458676,837
-671.4765963686034,884
-668.8202442420206,822
-666.1646239904642,879
-663.5097354382001,871
-660.8555784094151,839
-658.2021527282176,853
-655.5494582186366,828
-652.8974947046223,821
-650.2462620100463,841
-647.5957599587009,874
-644.9459883742998,874
-642.2969470804776,835
-639.6486359007902,845
-637.0010546587141,845
-634.3542031776476,839
-631.7080812809096,878
-629.0626887917401,835
-626.4180255333008,877
-623.7740913286734,877
-621.1308860008619,881
-618.4884093727904,873
-615.8466612673046,896
-613.2056415071715,879
-610.5653499150785,877
-607.9257863136347,881
-605.28695052537,921
-602.6488423727357,844
-600.0114616781036,863
-597.3748082637674,912
-594.7388819519412,927
-592.1036825647604,860
-589.4692099242818,904
-586.8354638524829,892
-584.2024441712624,890
-581.5701507024403,887
-578.9385832677575,909
-576.3077416888759,882
-573.6776257873787,926
-571.0482353847704,936
-568.4195703024757,923
-565.7916303618415,910
-563.164415384135,907
-560.5379251905453,904
-557.9121596021815,963
-555.2871184400748,941
-552.6628015251767,918
-550.0392086783606,914
-547.4163397204204,939
-544.794194472071,919
-542.1727727539491,893
-539.5520743866118,946
-536.9320991905377,958
-534.3128469861261,967
-531.6943175936979,1000
-529.0765108334947,931
-526.4594265256793,1018
-523.8430644903358,1095
-521.2274245474689,1174
-518.612506517005,1231
-515.9983102187913,1168
-513.3848354725959,1222
-510.77208209810846,1262
-508.16004991493924,1261
-505.5487387426199,1346
-502.9381484006032,1342
-500.3282787082628,1247
-497.71912948489364,1193
-495.1107005497117,1123
-492.5029917218539,1060
-489.8960028203786,1057
-487.28973366426493,991
-484.68418407241325,1006
-482.07935386364494,1004
-479.47524285670266,972
-476.87185087025,994
-474.2691777228715,1026
-471.66722323307334,1031
-469.0659872192821,1053
-466.4654694998459,1043
-463.86566989303384,1027
-461.26658821703614,1014
-458.66822428996414,1055
-456.07057792985,1054
-453.4736489546475,1032
-450.877437182231,1038
-448.28194243039627,1030
-445.68716451686,1031
-443.09310325926003,1020
-440.49975847515555,1051
-437.9071299820263,1012
-435.31521759727354,1015
-432.72402113821954,1045
-430.13354042210767,1032
-427.5437752661022,1086
-424.95472548728867,1094
-422.36639090267386,1032
-419.7787713291855,1074
-417.1918665836721,1061
-414.60567648290385,1112
-412.0202008435715,1087
-409.4354394822874,1104
-406.8513922155845,1093
-404.26805885991723,1092
-401.685439231661,1131
-399.103533147112,1086
-396.522340422488,1112
-393.9418608739278,1044
-391.3620943174908,1049
-388.7830405691583,1039
-386.2046994448317,990
-383.6270707603344,959
-381.05015433141045,938
-378.473949973725,849
-375.8984575028645,830
-373.32367673433623,734
-370.74960748356875,679
-368.1762495659117,642
-365.60360279663576,594
-363.03166699093265,534
-360.4604419639154,509
-357.8899275306178,462
-355.32012350599507,454
-352.7510297049233,438
-350.1826459421999,436
-347.61497203254316,407
-345.04800779059235,397
-342.4817530309082,409
-339.91620756797226,419
-337.35137121618743,419
-334.7872437898774,390
-332.22382510328725,426
-329.66111497058273,416
-327.09911320585127,413
-324.53781962310075,430
-321.9772340362607,434
-319.4173562591816,433
-316.8581861056348,421
-314.2997233893127,423
-311.7419679238294,420
-309.1849195227194,428
-306.62857799943856,444
-304.0729431673641,439
-301.51801483979375,456
-298.963792829947,456
-296.41027695096386,439
-293.85746701590574,501
-291.3053628377552,505
-288.7539642294155,461
-286.2032710037115,445
-283.65328297338897,448
-281.1039999511146,461
-278.5554217494762,513
-276.007548180983,538
-273.4603790580651,501
-270.9139141930734,485
-268.3681533982807,495
-265.8230964858798,491
-263.27874326798565,522
-260.7350935566336,508
-258.1921471637804,508
-255.6499039013039,548
-253.10836358100266,536
-250.56752601459698,541
-248.02739101372765,490
-245.48795838995704,494
-242.94922795476816,515
-240.41119951956557,510
-237.8738728956746,550
-235.33724789434166,637
-232.80132432673452,593
-230.2661020039418,549
-227.73158073697357,536
-225.19776033676033,550
-222.66464061415422,532
-220.1322213799284,569
-217.60050244477725,518
-215.06948361931552,537
-212.53916471408013,560
-210.00954553952818,587
-207.48062590603843,563
-204.9524056239104,571
-202.4248845033651,555
-199.8980623545441,542
-197.37193898751036,560
-194.84651421224817,573
-192.32178783866232,594
-189.79775967657952,554
-187.27442953574644,579
-184.7517972258321,616
-182.2298625564256,556
-179.7086253370378,532
-177.18808537710026,558
-174.66824248596583,597
-172.14909647290835,636
-169.6306471471229,679
-167.11289431772548,722
-164.59583779375328,660
-162.07947738416453,688
-159.5638128978386,690
-157.04884414357605,770
-154.53457093009854,802
-152.02099306604828,750
-149.50811035998936,672
-146.99592262040665,705
-144.48442965570587,694
-141.97363127421409,732
-139.46352728417958,776
-136.95411749377126,789
-134.44540171107985,761
-131.93737974411636,825
-129.43005140081357,1059
-126.92341648902493,1380
-124.41747481652521,1366
-121.91222619101006,1193
-119.40767042009657,1376
-116.90380731132257,1650
-114.40063667214702,1803
-111.8981583099503,1652
-109.3963720320337,1918
-106.89527764561933,2972
-104.39487495785067,4278
-101.89516377579241,5223
-99.39614390642998,6406
-96.89781515667039,7431
-94.40017733334128,7832
-91.90323024319173,8328
-89.40697369289148,7331
-86.91140748903172,5550
-84.41653143812482,5317
-81.92234534660395,5244
-79.42884902082358,4383
-76.93604226705907,3664
-74.4439248915071,3311
-71.95249670028534,3472
-69.46175749943245,3689
-66.97170709490854,3882
-64.48234529259423,4024
-61.99367189829195,4405
-59.50568671772464,4926
-57.01838955653636,4581
-54.53178022029283,4691
-52.045858514480074,4938
-49.560624244506016,5155
-47.07607721569923,5303
-44.59221723330904,5773
-42.10904410250669,5468
-39.62655762838392,4978
-37.14475761595372,5131
-34.66364387015028,5594
-32.18321619582866,5791
-29.70347439776515,6608
-27.224418280657005,7576
-24.74604764912317,7940
-22.26836230770266,10866
-19.7913620608565,18968
-17.315046712966478,34538
-14.83941606833514,48289
-12.36446993118659,65042
-9.89020810566592,65042
-7.416630395839093,65042
-4.94373660569363,65042
-2.471526539137585,65042
-6.821210263296962E-13,65042
2.47084320796705,65042
4.941003281093458,65042
7.410480415786196,65042
9.879274808531363,65042
12.347386655893956,65042
14.814816154518212,65042
17.28156350112681,65042
19.74762889252179,65042
22.21301252558385,65042
24.67771459727237,18155
27.141735304626195,2874
29.605074844762612,1686
32.06773341487792,1446
34.52971121224755,1393
36.99100843422559,1210
39.45162527824516,1103
41.91156194181792,1182
44.370818622535126,1145
46.82939551806646,932
49.287292826160524,952
51.74451074464503,1015
54.201049471426245,956
56.65690920448981,941
59.112090141899785,872
61.56659248179983,868
64.02041642241159,1004
66.4735621620365,985
68.92602989905402,933
71.37781983192338,901
73.82893215918205,1026
76.27936707944684,1091
78.72912479141326,1029
81.17820549385567,813
83.62660938562783,791
86.07433666566146,812
88.5213875329681,764
90.96776218663751,799
93.41346082583925,837
95.85848364982041,894
98.30283085790859,901
100.7465026495089,862
103.18949922410604,877
105.63182078126385,818
108.07346752062438,809
110.51443964190923,778
112.95473734491827,814
115.39436082953114,744
117.83331029570547,724
120.27158594347827,718
122.7091879729652,862
125.1461165843615,838
127.58237197794062,790
130.01795435405518,783
132.4528639131364,786
134.88710085569494,726
137.32066538231982,778
139.75355769367923,889
142.1857779905207,792
144.61732647366978,693
147.04820334403132,669
149.47840880258934,688
151.90794305040674,703
154.33680628862487,839
156.76499871846443,933
159.19252054122433,1024
161.61937195828352,1075
164.04555317109896,1190
166.47106438120693,1278
168.89590579022217,1423
171.320077599839,1571
173.7435800118302,1531
176.16641322804742,1611
178.58857745042144,1682
181.01007288096173,1785
183.43089972175687,1801
185.85105817497413,1811
188.27054844285988,1974
190.6893707277394,1969
193.10752523201643,2080
195.5250121581745,2101
197.9418317087751,2128
200.3579840864594,2204
202.7734694939469,2155
205.18828813403627,2203
207.6024402096051,2291
210.01592592360964,2215
212.42874547908548,2244
214.84089907914665,2259
217.2523869269868,2189
219.66320922587727,2290
222.0733661791695,2259
224.48285799029293,2293
226.8916848627572,2320
229.29984700014882,2322
231.7073446061355,2274
234.11417788446204,2312
236.520347038953,2329
238.92585227351185,2377
241.33069379212054,2368
243.73487179884035,2410
246.1383864978112,2403
248.541238093252,2412
250.9434267894609,2457
253.34495279081432,2390
255.74581630176783,2394
258.1460175268563,2324
260.54555667069314,2438
262.9444339379703,2460
265.3426495334594,2429
267.7402036620107,2412
270.1370965285529,2299
272.53332833809407,2321
274.9288992957214,2290
277.32380960660055,2279
279.718059475976,2259
282.1116491091717,2347
284.5045787115897,2341
286.89684848871195,2263
289.2884586460981,2316
291.67940938938807,2320
294.0697009242996,2245
296.4593334566299,2273
298.84830719225477,2326
301.23662233712923,2251
303.6242790972866,2266
306.01127767884,2328
308.39761828798066,2263
310.78330113097934,2234
313.16832641418534,2242
315.5526943440269,2268
317.9364051270112,2228
320.3194589697242,2233
322.70185607883093,2234
325.0835966610754,2254
327.4646809232805,2192
329.8451090723478,2238
332.2248813152577,2229
334.6039978590701,2153
336.9824589109231,2204
339.36026467803447,2138
341.7374153677,2191
344.113911187295,2132
346.48975234427337,2171
348.8649390461686,2176
351.2394715005918,2172
353.61334991523415,2107
355.9865744978655,2066
358.35914545633375,2242
360.73106299856715,2203
363.10232733257146,2139
365.47293866643247,2201
367.84289720831396,2239
370.2122031664593,2158
372.5808567491905,2196
374.9488581649083,2118
377.31620762209275,2066
379.6829053293021,2133
382.0489514951745,2091
384.4143463284262,2116
386.7790900378528,2168
389.14318283232853,2183
391.50662492080653,2068
393.86941651231916,2048
396.23155781597745,2093
398.5930490409713,2084
400.9538903965696,2054
403.3140820921202,2082
405.6736243370498,2088
408.03251734086336,2051
410.3907613131465,2086
412.74835646356166,2016
415.10530300185144,2151
417.4616011378372,2071
419.81725108141893,2141
422.1722530425758,2086
424.5266072313656,2073
426.880313857925,2126
429.2333731324701,2065
431.58578526529516,2077
433.9375504667738,2102
436.2886689473588,2062
438.63914091758113,2039
440.9889665880513,2043
443.33814616945835,2055
445.68667987257015,2080
448.03456790823395,2077
450.3818104873759,2041
452.72840782100013,2115
455.07436012019105,2117
457.41966759611057,1986
459.7643304600007,2117
462.10834892318155,2078
464.4517231970525,2097
466.79445349309174,2017
469.1365400228566,2067
471.4779829979826,2055
473.81878263018564,2077
476.15893913125876,2009
478.4984527130747,2076
480.8373235875855,2160
483.17555196682144,2130
485.5131380628919,2164
487.8500820879857,2173
490.1863842543697,2206
492.52204477439034,2223
494.8570638604725,2283
497.1914417251204,2356
499.52517858091653,2420
501.85827464052306,2459
504.19073011668036,2744
506.5225452222086,2864
508.85372017000566,3044
511.18425517304956,3041
513.514150444396,3302
515.8434061971808,3794
518.1720226446176,4666
520.4999999999999,4746
522.8273384766991,4419
525.1540382881666,4204
527.480099647932,3607
529.8055227696037,3073
532.1303078668694,2651
534.454455153496,2313
536.777964843328,2154
539.1008371502907,2213
541.4230722883866,2150
543.744670471698,2110
546.0656319143858,2155
548.3859568306899,2145
550.7056454349294,2061
553.0246979415016,2126
555.3431145648834,2074
557.6608955196306,2065
559.978041020377,2139
562.2945512818363,2131
564.6104265188006,2125
566.9256669461412,2115
569.2402727788082,2098
571.5542442318302,2138
573.8675815203156,2174
576.1802848594508,2122
578.4923544645015,2110
580.8037905508126,2116
583.114593333807,2153
585.4247630289875,2107
587.7342998519354,2102
590.0432040183106,2110
592.3514757438526,2184
594.6591152443794,2070
596.9661227357875,2156
599.2724984340531,2104
601.578242555231,2120
603.8833553154542,2095
606.1878369309362,2121
608.4916876179676,2146
610.7949075929192,2191
613.0974970722403,2081
615.3994562724587,2086
617.7007854101818,2122
620.0014847020951,2140
622.3015543649641,2147
624.6009946156324,2102
626.8998056710224,2144
629.1979877481361,2157
631.4955410640538,2154
633.7924658359349,2161
636.0887622810175,2170
638.3844306166192,2259
640.6794710601358,2175
642.9738838290426,2125
645.2676691408932,2221
647.5608272133207,2096
649.853358264037,2187
652.1452625108324,2249
654.4365401715764,2257
656.7271914642178,2218
659.0172166067838,2279
661.3066158173809,2137
663.5953893141935,2245
665.8835373154867,2200
668.1710600396028,2236
670.4579577049639,2244
672.7442305300709,2284
675.0298787335033,2203
677.3149025339197,2207
679.599302150058,2194
681.8830778007342,2235
684.1662297048437,2203
686.4487580813608,2160
688.7306631493387,2221
691.0119451279091,2194
693.2926042362834,2275
695.5726406937516,2272
697.8520547196814,2244
700.1308465335215,2259
702.4090163547982,2270
704.6865644031171,2247
706.9634908981619,2278
709.2397960596965,2171
711.5154801075631,2295
713.7905432616823,2244
716.0649857420548,2187
718.3388077687592,2217
720.612009561953,2238
722.8845913418733,2266
725.1565533288352,2216
727.427895743234,2273
729.6986188055427,2249
731.9687227363137,2174
734.238207756178,2253
736.5070740858458,2234
738.7753219461066,2257
741.0429515578281,2212
743.3099631419569,2297
745.5763569195191,2153
747.8421331116193,2148
750.1072919394409,2333
752.3718336242467,2247
754.6357583873777,2274
756.8990664502545,2282
759.1617580343765,2269
761.423833361321,2298
763.6852926527457,2263
765.9461361303862,2280
768.206364016058,2305
770.4659765316536,2316
772.7249738991469,2346
774.9833563405886,2316
777.2411240781092,2244
779.4982773339183,2315
781.7548163303044,2379
784.010741289634,2312
786.2660524343538,2338
788.5207499869881,2296
790.7748341701416,2290
793.0283052064964,2250
795.2811633188143,2303
797.5334087299362,2288
799.7850416627813,2291
802.0360623403484,2346
804.2864709857143,2358
806.5362678220353,2318
808.7854530725468,2303
811.0340269605625,2336
813.2819897094754,2429
815.5293415427581,2306
817.77608268396,2335
820.0222133567116,2280
822.2677337847211,2357
824.5126441917765,2306
826.7569448017433,2294
829.0006358385675,2252
831.2437175262731,2319
833.4861900889629,2296
835.7280537508192,2314
837.9693087361026,2304
840.2099552691533,2294
842.4499935743896,2340
844.689423876309,2353
846.9282463994886,2348
849.1664613685833,2327
851.4040690083276,2239
853.6410695435349,2342
855.877463199097,2314
858.1132501999847,2271
860.3484307712487,2429
862.5830051380175,2410
864.8169735254988,2396
867.0503361589791,2275
869.2830932638243,2350
871.5152450654786,2395
873.7467917894654,2348
875.9777336613873,2286
878.2080709069252,2310
880.4378037518389,2350
882.666932421968,2372
884.8954571432301,2392
887.1233781416219,2411
889.3506956432192,2360
891.5774098741766,2418
893.803521060728,2302
896.0290294291852,2269
898.2539352059397,2335
900.4782386174619,2274
902.7019398903011,2307
904.925039251085,2360
907.147536926521,2362
909.3694331433943,2353
911.59072812857,2338
913.8114221089921,2246
916.0315153116827,2229
918.2510079637437,2335
920.4699002923547,2230
922.6881925247761,2255
924.905884888345,2287
927.1229776104793,2333
929.3394709186747,2277
931.555365040506,2213
933.7706602036275,2302
935.9853566357709,2204
938.1994545647489,2265
940.4129542184515,2388
942.6258558248488,2331
944.8381596119883,2350
947.0498658079974,2353
949.2609746410825,2328
951.4714863395287,2285
953.6814011316998,2270
955.8907192460387,2339
958.0994409110671,2365
960.3075663553858,2263
962.5150958076741,2350
964.7220294966913,2354
966.928367651274,2262
969.1341105003388,2337
971.3392582728806,2319
973.5438111979742,2357
975.747769504772,2200
977.9511334225061,2203
980.153903180487,2316
982.3560790081052,2248
984.5576611348289,2251
986.7586497902058,2222
988.9590452038618,2307
991.158847605503,2305
993.3580572249133,2305
995.5566742919558,2322
997.7546990365728,2272
999.952131688785,2164
1002.1489724786926,2239
1004.3452216364743,2286
1006.5408793923874,2204
1008.7359459767691,2244
1010.9304216200343,2152
1013.1243065526781,2137
1015.3176010052733,2137
1017.510305208472,2132
1019.7024193930064,2116
1021.8939437896848,2154
1024.0848786293977,2106
1026.2752241431122,2181
1028.4649805618747,2168
1030.6541481168115,2138
1032.842727039127,2175
1035.0307175601051,2086
1037.2181199111074,2126
1039.4049343235752,2137
1041.591161029029,2124
1043.7768002590683,2114
1045.9618522453698,2151
1048.1463172196918,2145
1050.3301954138697,2163
1052.513487059818,2157
1054.69619238953,2131
1056.8783116350783,2147
1059.0598450286152,2155
1061.2407928023704,2096
1063.4211551886528,2177
1065.6009324198508,2100
1067.780124728432,2124
1069.9587323469414,2190
1072.1367555080046,2139
1074.314194444325,2155
1076.4910493886855,2166
1078.667320573947,2054
1080.843008233051,2146
1083.0181125990161,2077
1085.1926339049414,2077
1087.3665723840027,2090
1089.5399282694575,2105
1091.7127017946405,2066
1093.8848931929647,2076
1096.0565026979243,2162
1098.2275305430899,2121
1100.3979769621128,2045
1102.567842188722,2091
1104.737126456726,2057
1106.9058300000124,2095
1109.0739530525475,2138
1111.2414958483764,2141
1113.4084586216231,2034
1115.5748416064907,2102
1117.7406450372605,2103
1119.9058691482942,2092
1122.0705141740304,2075
1124.2345803489884,2126
1126.3980679077658,2164
1128.5609770850388,2065
1130.7233081155623,2132
1132.8850612341707,2153
1135.0462366757774,2088
1137.2068346753745,2155
1139.3668554680326,2146
1141.526299288901,2138
1143.68516637321,2060
1145.8434569562655,2154
1148.001171273455,2135
1150.158309560244,2093
1152.3148720521767,2124
1154.470858984876,2089
1156.626270594044,2110
1158.7811071154629,2131
1160.9353687849912,2113
1163.089055838569,2078
1165.242168512213,2121
1167.3947070420209,2090
1169.5466716641677,2139
1171.6980626149075,2055
1173.8488801305748,2129
1175.9991244475814,2106
1178.1487958024186,2010
1180.2978944316555,2079
1182.4464205719428,2118
1184.5943744600072,2165
1186.7417563326567,2095
1188.8885664267755,2118
1191.0348049793297,2047
1193.1804722273619,2077
1195.325568407995,2102
1197.4700937584303,2156
1199.614048515948,2103
1201.7574329179074,2064
1203.900247201746,2065
1206.042491604982,2080
1208.1841663652099,2080
1210.3252717201053,2090
1212.465807907422,2177
1214.6057751649923,2070
1216.7451737307279,2138
1218.8840038426192,2067
1221.0222657387353,2132
1223.1599596572241,2098
1225.2970858363137,2115
1227.4336445143094,2162
1229.5696359295966,2163
1231.705060320639,2190
1233.8399179259786,2140
1235.9742089842384,2150
1238.107933734118,2138
1240.2410924143974,2138
1242.373685263935,2096
1244.5057125216676,2149
1246.6371744266116,2135
1248.7680712178621,2140
1250.898403134593,2051
1253.028170416058,2217
1255.1573733015875,2182
1257.2860120305932,2076
1259.4140868425648,2155
1261.54159797707,2236
1263.6685456737569,2217
1265.7949301723515,2126
1267.9207517126597,2209
1270.046010534565,2099
1272.1707068780306,2238
1274.2948409830983,2143
1276.4184130898889,2199
1278.541423438603,2200
1280.6638722695184,2210
1282.785759822993,2186
1284.9070863394636,2181
1287.0278520594447,2156
1289.1480572235314,2253
1291.2677020723963,2225
1293.3867868467923,2261
1295.5053117875495,2245
1297.623277135579,2268
1299.740683131868,2275
1301.8575300174857,2306
1303.973818033578,2379
1306.0895474213703,2311
1308.2047184221678,2257
1310.3193312773528,2381
1312.4333862283888,2300
1314.5468835168163,2312
1316.659823384255,2404
1318.7722060724045,2298
1320.8840318230418,2293
1322.9953008780249,2376
1325.1060134792888,2302
1327.2161698688478,2353
1329.3257702887959,2377
1331.4348149813054,2363
1333.5433041886276,2383
1335.6512381530933,2334
1337.7586171171101,2290
1339.8654413231675,2350
1341.9717110138317,2355
1344.0774264317488,2334
1346.1825878196432,2261
1348.2871954203192,2260
1350.3912494766587,2374
1352.4947502316231,2342
1354.5976979282532,2297
1356.7000928096686,2231
1358.8019351190665,2230
1360.9032250997243,2306
1363.0039629949988,2265
1365.1041490483235,2297
1367.2037835032133,2343
1369.3028666032606,2342
1371.401398592137,2300
1373.4993797135926,2400
1375.5968102114575,2259
1377.6936903296396,2289
1379.7900203121262,2250
1381.8858004029835,2241
1383.9810308463561,2214
1386.075711886469,2276
1388.1698437676241,2251
1390.2634267342032,2232
1392.356461030667,2247
1394.4489469015557,2333
1396.5408845914872,2285
1398.6322743451592,2196
1400.7231164073469,2306
1402.813411022907,2234
1404.903158436773,2220
1406.9923588939578,2268
1409.0810126395531,2340
1411.1691199187303,2282
1413.2566809767386,2247
1415.343696058907,2331
1417.4301654106425,2243
1419.5160892774315,2223
1421.6014679048399,2261
1423.6863015385125,2176
1425.7705904241707,2277
1427.8543348076178,2273
1429.9375349347342,2286
1432.0201910514802,2249
1434.102303403894,2280
1436.1838722380944,2224
1438.2648978002767,2269
1440.3453803367174,2261
1442.4253200937692,2250
1444.5047173178677,2312
1446.5835722555234,2295
1448.6618851533285,2336
1450.739656257952,2260
1452.8168858161434,2401
1454.8935740747306,2374
1456.96972128062,2350
1459.045327680797,2313
1461.120393522327,2331
1463.1949190523528,2343
1465.2689045180973,2365
1467.3423501668608,2455
1469.415256246024,2349
1471.4876230030463,2362
1473.559450685465,2406
1475.6307395408976,2371
1477.7014898170391,2385
1479.771701761665,2393
1481.8413756226287,2419
1483.9105116478618,2375
1485.9791100853772,2471
1488.0471711832643,2450
1490.1146951896926,2448
1492.1816823529098,2450
1494.2481329212433,2409
1496.3140471430984,2537
1498.3794252669609,2405
1500.4442675413939,2388
1502.5085742150404,2545
1504.572345536622,2391
1506.6355817549388,2439
1508.6982831188702,2409
1510.7604498773744,2517
1512.8220822794883,2460
1514.8831805743293,2450
1516.9437450110909,2497
1519.003775839048,2484
1521.0632733075522,2446
1523.1222376660367,2492
1525.1806691640113,2580
1527.2385680510652,2543
1529.2959345768668,2510
1531.3527689911643,2584
1533.4090715437833,2644
1535.4648424846291,2744
1537.5200820636855,2721
1539.5747905310159,2667
1541.6289681367616,2657
1543.6826151311434,2642
1545.7357317644614,2661
1547.7883182870937,2698
1549.8403749494987,2752
1551.8919020022113,2760
1553.9428996958477,2744
1555.9933682811015,2744
1558.0433080087469,2857
1560.0927191296346,2800
1562.1416018946961,2787
1564.1899565549415,2819
1566.2377833614592,2861
1568.2850825654164,2827
1570.3318544180606,2809
1572.3780991707158,2937
1574.423817074788,2816
1576.4690083817595,2787
1578.5136733431923,2801
1580.5578122107272,2715
1582.601425236085,2673
1584.6445126710646,2673
1586.6870747675434,2648
1588.7291117774776,2613
1590.7706239529034,2567
1592.8116115459347,2503
1594.8520748087658,2554
1596.8920139936686,2487
1598.9314293529933,2544
1600.9703211391711,2471
1603.008689604711,2528
1605.0465350022005,2524
1607.0838575843068,2451
1609.1206576037753,2436
1611.1569353134305,2382
1613.1926909661765,2392
1615.2279248149953,2360
1617.2626371129481,2362
1619.2968281131757,2304
1621.3304980688963,2260
1623.3636472334088,2305
1625.39627586009,2350
1627.428384202396,2311
1629.459972513861,2347
1631.4910410480993,2291
1633.5215900588028,2364
1635.551619799744,2346
1637.5811305247717,2284
1639.6101224878166,2258
1641.6385959428862,2255
1643.6665511440683,2227
1645.693988345528,2311
1647.7209078015112,2225
1649.7473097663405,2244
1651.7731944944203,2171
1653.7985622402307,2168
1655.823413258333,2241
1657.847747803366,2174
1659.8715661300494,2237
1661.8948684931793,2282
1663.9176551476316,2289
1665.9399263483624,2238
1667.9616823504057,2252
1669.982923408873,2287
1672.0036497789574,2257
1674.0238617159293,2221
1676.043559475138,2282
1678.0627433120121,2221
1680.081413482059,2203
1682.0995702408654,2231
1684.117213844096,2225
1686.134344547495,2238
1688.1509626068864,2180
1690.1670682781705,2195
1692.182661817329,2154
1694.1977434804217,2337
1696.2123135235875,2207
1698.226372203043,2145
1700.2399197750851,2233
1702.2529564960905,2289
1704.2654826225112,2274
1706.277498410882,2174
1708.2890041178139,2243
1710.2999999999988,2210
1712.3104863142066,2244
1714.3204633172854,2200
1716.329931266163,2265
1718.3388904178469,2166
1720.3473410294214,2200
1722.3552833580516,2279
1724.3627176609807,2188
1726.3696441955308,2212
1728.3760632191033,2254
1730.3819749891782,2167
1732.3873797633146,2204
1734.3922777991502,2244
1736.3966693544012,2173
1738.4005546868639,2278
1740.4039340544127,2130
1742.406807715001,2237
1744.4091759266616,2182
1746.4110389475054,2174
1748.4123970357223,2216
1750.413250449582,2170
1752.4135994474318,2201
1754.4134442876993,2284
1756.4127852288902,2147
1758.4116225295893,2207
1760.4099564484595,2189
1762.407787244244,2229
1764.405115175764,2205
1766.4019405019203,2194
1768.3982634816916,2223
1770.3940843741357,2169
1772.3894034383907,2203
1774.3842209336717,2200
1776.378537119274,2135
1778.372352254571,2196
1780.3656665990156,2245
1782.3584804121397,2205
1784.3507939535534,2194
1786.3426074829463,2257
1788.3339212600863,2315
1790.3247355448211,2241
1792.3150505970766,2198
1794.3048666768573,2187
1796.2941840442477,2169
1798.2830029594106,2161
1800.2713236825884,2177
1802.2591464741004,2188
1804.2464715943465,2155
1806.2332993038058,2239
1808.2196298630352,2158
1810.2054635326708,2183
1812.190800573428,2193
1814.175641246101,2264
1816.1599858115628,2134
1818.1438345307652,2145
1820.127187664738,2162
1822.1100454745924,2296
1824.092408221516,2172
1826.0742761667766,2185
1828.055649571721,2184
1830.0365286977735,2250
1832.0169138064398,2214
1833.9968051593014,2237
1835.9762030180214,2298
1837.9551076443408,2183
1839.9335193000788,2194
1841.9114382471344,2222
1843.888864747485,2225
1845.8657990631878,2199
1847.842241456378,2119
1849.8181921892697,2253
1851.7936515241558,2181
1853.7686197234098,2174
1855.7430970494815,2201
1857.7170837649014,2261
1859.6905801322787,2164
1861.6635864143004,2261
1863.6361028737338,2184
1865.608129773424,2091
1867.5796673762961,2180
1869.5507159453537,2250
1871.521275743678,2196
1873.4913470344313,2180
1875.4609300808534,2246
1877.4300251462632,2253
1879.3986324940588,2271
1881.366752387717,2257
1883.3343850907936,2226
1885.3015308669228,2214
1887.268189979819,2229
1889.2343626932739,2273
1891.2000492711595,2245
1893.1652499774254,2220
1895.1299650761011,2296
1897.0941948312952,2257
1899.0579395071945,2146
1901.0211993680641,2213
1902.98397467825,2222
1904.9462657021745,2161
1906.9080727043415,2265
1908.869395949332,2245
1910.8302357018065,2228
1912.790592226504,2288
1914.7504657882428,2280
1916.7098566519212,2198
1918.6687650825133,2185
1920.6271913450764,2308
1922.5851357047422,2280
1924.5425984267245,2249
1926.499579776314,2184
1928.4560800188833,2232
1930.4120994198802,2195
1932.367638244833,2265
1934.32269675935,2202
1936.2772752291175,2220
1938.231373919899,2204
1940.1849930975404,2290
1942.1381330279637,2291
1944.0907939771696,2238
1946.0429762112412,2261
1947.9946799963363,2294
1949.9459055986945,2188
1951.896653284633,2136
1953.8469233205478,2261
1955.7967159729142,2264
1957.7460315082863,2226
1959.6948701932974,2231
1961.6432322946594,2333
1963.5911180791632,2192
1965.5385278136787,2200
1967.4854617651545,2200
1969.4319202006182,2237
1971.377903387176,2218
1973.3234115920136,2263
1975.268445082395,2242
1977.2130041256642,2300
1979.1570889892423,2232
1981.1006999406304,2213
1983.04383724741,2203
1984.986501177238,2264
1986.928691997853,2236
1988.8704099770712,2286
1990.811655382789,2311
1992.7524284829801,2277
1994.692729545698,2219
1996.6325588390755,2243
1998.5719166313224,2255
2000.5108031907307,2328
2002.4492187856677,2243
2004.387163684583,2220
2006.3246381560011,2211
2008.2616424685298,2328
2010.1981768908527,2297
2012.1342416917332,2269
2014.069837140014,2314
2016.0049635046162,2281
2017.9396210545406,2271
2019.8738100588666,2310
2021.8075307867502,2327
2023.740783507431,2206
2025.6735684902228,2188
2027.6058860045214,2228
2029.5377363198004,2232
2031.4691197056118,2266
2033.4000364315875,2232
2035.3304867674374,2259
2037.260470982952,2219
2039.189989347998,2149
2041.1190421325232,2216
2043.047629606554,2171
2044.9757520401945,2306
2046.9034097036288,2293
2048.8306028671195,2262
2050.7573318010086,2258
2052.683596775716,2270
2054.609398061742,2288
2056.5347359296647,2220
2058.4596106501403,2319
2060.384022493906,2247
2062.3079717317764,2324
2064.231458634646,2215
2066.1544834734873,2321
2068.077046519352,2217
2069.99914804337,2339
2071.9207883167524,2294
2073.8419676107865,2276
2075.7626861968406,2239
2077.6829443463607,2286
2079.6027423308715,2293
2081.522080421977,2306
2083.440958891362,2319
2085.359378010786,2290
2087.2773380520907,2324
2089.194839287196,2300
2091.111881988101,2319
2093.0284664268825,2283
2094.9445928756973,2271
2096.86026160678,2277
2098.775472892446,2327
2100.690227005088,2253
2102.604524217178,2288
2104.5183648012676,2221
2106.431749029985,2295
2108.34467717604,2351
2110.2571495122206,2262
2112.169166311393,2257
2114.080727846503,2223
2115.9918343905747,2316
2117.902486216711,2315
2119.8126835980956,2339
2121.722426807987,2314
2123.6317161197285,2251
2125.5405518067364,2292
2127.448934142509,2284
2129.356863400624,2289
2131.264339854737,2349
2133.1713637785815,2334
2135.077935445972,2327
2136.9840551308002,2309
2138.889723107037,2387
2140.7949396487334,2344
2142.699705030018,2319
2144.6040195250994,2270
2146.507883408264,2377
2148.4112969538774,2384
2150.3142604363848,2320
2152.2167741303097,2298
2154.1188383102535,2303
2156.0204532508997,2306
2157.9216192270064,2294
2159.822336513414,2329
2161.7226053850413,2352
2163.622426116884,2356
2165.5217989840185,2302
2167.4207242616,2389
2169.319202224862,2355
2171.2172331491165,2384
2173.1148173097563,2388
2175.0119549822507,2288
2176.90864644215,2356
2178.8048919650823,2289
2180.7006918267534,2397
2182.596046302952,2351
2184.4909556695407,2338
2186.3854202024645,2328
2188.279440177746,2350
2190.173015871487,2403
2192.066147559868,2403
2193.958835519149,2376
2195.851080025667,2391
2197.7428813558417,2365
2199.6342397861667,2364
2201.5251555932186,2434
2203.415629053651,2340
2205.3056604441986,2367
2207.19525004167,2351
2209.084398122958,2382
2210.9731049650327,2367
2212.861370844941,2400
2214.749196039812,2420
2216.636580826851,2366
2218.523525483344,2381
2220.410030286655,2412
2222.296095514226,2316
2224.1817214435805,2446
2226.066908352319,2422
2227.951656518121,2474
2229.835966218746,2400
2231.71983773203,2365
2233.6032713358913,2375
2235.486267308324,2426
2237.3688259274036,2396
2239.2509474712824,2366
2241.132632218193,2370
2243.013880446447,2472
2244.8946924344323,2312
2246.7750684606203,2354
2248.6550088035574,2385
2250.534513741871,2471
2252.413583554265,2422
2254.292218519526,2400
2256.170418916517,2467
2258.0481850241786,2388
2259.925517121534,2389
2261.8024154876825,2430
2263.678880401803,2412
2265.5549121431536,2346
2267.430510991071,2438
2269.305677224971,2361
2271.180411124348,2377
2273.0547129687766,2425
2274.9285830379076,2423
2276.8020216114737,2398
2278.6750289692845,2378
2280.5476053912294,2450
2282.4197511572766,2396
2284.2914665474727,2498
2286.162751841943,2352
2288.0336073208937,2481
2289.904033264608,2423
2291.774029953448,2413
2293.6435976678554,2398
2295.5127366883517,2336
2297.381447295534,2373
2299.2497297700825,2350
2301.1175843927526,2393
2302.9850114443825,2390
2304.852011205885,2405
2306.7185839582553,2433
2308.5847299825664,2400
2310.4504495599676,2279
2312.3157429716925,2421
2314.1806104990483,2319
2316.0450524234247,2353
2317.9090690262888,2356
2319.772660589186,2358
2321.635827393742,2357
2323.498569721661,2459
2325.3608878547248,2305
2327.2227820747967,2437
2329.0842526638157,2346
2330.945299903803,2270
2332.805924076857,2374
2334.6661254651535,2373
2336.525904350951,2338
2338.3852610165827,2281
2340.244195744464,2311
2342.102708817088,2384
2343.9608005170253,2304
2345.8184711269287,2452
2347.675720929526,2289
2349.532550207628,2352
2351.38895924412,2406
2353.24494832197,2380
2355.100517724223,2406
2356.955667734004,2304
2358.810398634514,2376
2360.664710709037,2273
2362.5186042409337,2364
2364.3720795136437,2392
2366.225136810686,2289
2368.0777764156583,2395
2369.929998612237,2379
2371.7818036841777,2342
2373.633191915315,2275
2375.484163589562,2352
2377.3347189909114,2322
2379.184858403434,2270
2381.03458211128,2357
2382.8838903986775,2309
2384.732783549936,2314
2386.5812618494406,2315
2388.4293255816588,2330
2390.2769750311327,2405
2392.1242104824883,2354
2393.971032220427,2342
2395.8174405297295,2404
2397.6634356952563,2368
2399.509018001947,2387
2401.3541877348193,2388
2403.1989451789705,2374
2405.043290619576,2340
2406.8872243418905,2415
2408.730746631247,2366
2410.5738577730594,2347
2412.4165580528183,2400
2414.258847756095,2368
2416.100727168537,2348
2417.9421965758734,2379
2419.783256263912,2368
2421.623906518538,2321
2423.4641476257157,2384
2425.303979871491,2382
2427.143403541984,2398
2428.9824189233977,2305
2430.821026302012,2389
2432.6592259641866,2372
2434.497018196361,2433
2436.33440328505,2564
2438.171381516851,2377
2440.00795317844,2398
2441.844118556569,2386
2443.6798779380724,2425
2445.5152316098606,2450
2447.3501798589255,2435
2449.1847229723357,2405
2451.0188612372403,2324
2452.8525949408663,2353
2454.6859243705203,2401
2456.518849813587,2432
2458.3513715575314,2396
2460.183489889895,2372
2462.015205098301,2426
2463.8465174704493,2455
2465.67742729412,2396
2467.5079348571717,2416
2469.338040447542,2445
2471.1677443532476,2399
2472.9970468623833,2458
2474.825948263123,2336
2476.6544488437207,2410
2478.482548892508,2350
2480.310248697896,2453
2482.137548548374,2403
2483.9644487325118,2397
2485.790949538956,2445
2487.617051256433,2474
2489.44275417375,2412
2491.26805857979,2405
2493.0929647635157,2461
2494.917473013971,2369
2496.741583620276,2381
2498.5652968716304,2364
2500.3886130573137,2412
2502.2115324666834,2371
2504.0340553891765,2403
2505.856182114308,2441
2507.6779129316733,2534
2509.499248130945,2464
2511.3201880018764,2490
2513.140732834298,2405
2514.9608829181198,2385
2516.780638543331,2431
2518.6,2402
2520.418967578273,2419
2522.237541568376,2445
2524.0557222606144,2461
2525.8735099453706,2452
2527.6909049131086,2392
2529.507907454368,2480
2531.32451785977,2556
2533.140736420014,2470
2534.9565634258774,2446
2536.771999168218,2484
2538.5870439379714,2435
2540.4016980261526,2391
2542.2159617238544,2543
2544.02983532225,2419
2545.8433191125914,2414
2547.656413386209,2507
2549.4691184345115,2460
2551.2814345489874,2533
2553.093362021204,2555
2554.904901142808,2545
2556.716052205523,2388
2558.526815501153,2491
2560.3371913215824,2518
2562.147179958771,2512
2563.956781704761,2542
2565.7659968516705,2516
2567.5748256916986,2597
2569.3832685171224,2538
2571.1913256202984,2464
2572.9989972936614,2490
2574.806283829725,2544
2576.613185521084,2604
2578.4197026604074,2524
2580.2258355404483,2559
2582.031584454035,2507
2583.836949694077,2552
2585.6419315535613,2387
2587.4465303255533,2549
2589.2507463032002,2461
2591.0545797797245,2601
2592.8580310484303,2595
2594.6611004026995,2437
2596.463788135992,2547
2598.266094541849,2555
2600.0680199138874,2518
2601.869564545807,2547
2603.670728731383,2545
2605.4715127644704,2503
2607.2719169390048,2527
2609.071941548998,2613
2610.8715868885433,2587
2612.670853251811,2519
2614.469740933052,2541
2616.268250226594,2637
2618.0663814268455,2633
2619.864134828292,2587
2621.6615107255006,2614
2623.458509413115,2510
2625.2551311858597,2445
2627.0513763385347,2542
2628.8472451660223,2525
2630.6427379632833,2522
2632.4378550253564,2468
2634.232596647359,2573
2636.026963124488,2560
2637.8209547520187,2608
2639.6145718253065,2597
2641.407814639785,2521
2643.200683490966,2513
2644.9931786744414,2579
2646.7853004858807,2541
2648.577049221034,2473
2650.3684251757277,2492
2652.1594286458712,2460
2653.9500599274484,2471
2655.740319316525,2577
2657.5302071092437,2551
2659.3197236018286,2513
2661.10886909058,2475
2662.8976438718782,2443
2664.686048242183,2482
2666.4740824980327,2544
2668.2617469360443,2474
2670.0490418529134,2485
2671.8359675454153,2553
2673.622524310403,2480
2675.408712444811,2470
2677.1945322456495,2525
2678.979984010009,2526
2680.76506803506,2510
2682.5497846180497,2430
2684.334134056306,2477
2686.1181166472343,2415
2687.9017326883213,2453
2689.6849824771293,2468
2691.4678663113013,2492
2693.2503844885596,2495
2695.032537306705,2506
2696.8143250636167,2445
2698.5957480572542,2433
2700.3768065856534,2483
2702.1575009469316,2523
2703.937831439283,2483
2705.717798360982,2405
2707.4974020103837,2486
2709.276642685917,2545
2711.055520686095,2515
2712.834036309506,2550
2714.612189854819,2521
2716.389981620782,2473
2718.1674119062204,2487
2719.944481010041,2488
2721.721189231226,2391
2723.4975368688415,2410
2725.273524222027,2424
2727.0491515900053,2527
2728.824419272075,2490
2730.5993275676146,2462
2732.3738767760838,2482
2734.148067197016,2479
2735.921899130031,2469
2737.6953728748194,2555
2739.468488731156,2438
2741.2412469988926,2455
2743.0136479779617,2441
2744.785691968372,2385
2746.5573792702116,2455
2748.3287101836504,2453
2750.099685008934,2495
2751.870304046388,2488
2753.640567596418,2570
2755.4104759595057,2499
2757.1800294362156,2522
2758.949228327187,2443
2760.7180729331412,2433
2762.486563554877,2492
2764.254700493272,2462
2766.022484049284,2509
2767.789914523947,2355
2769.5569922183786,2447
2771.3237174337705,2461
2773.090090471394,2490
2774.8561116326036,2447
2776.6217812188274,2442
2778.3870995315756,2483
2780.1520668724356,2449
2781.9166835430747,2496
2783.6809498452394,2511
2785.444866080754,2489
2787.2084325515225,2458
2788.971649559527,2498
2790.73451740683,2443
2792.4970363955713,2534
2794.2592068279705,2547
2796.0210290063264,2515
2797.7825032330147,2486
2799.543629810493,2566
2801.304409041296,2473
2803.0648412280366,2471
2804.8249266734088,2433
2806.5846656801846,2520
2808.344058551212,2594
2810.1031055894246,2525
2811.8618070978273,2402
2813.6201633795085,2467
2815.378174737636,2380
2817.1358414754536,2542
2818.893163896285,2523
2820.6501423035334,2530
2822.4067770006814,2457
2824.1630682912883,2509
2825.9190164789957,2441
2827.6746218675207,2570
2829.429884760661,2567
2831.184805462294,2495
2832.9393842763743,2538
2834.693621506936,2503
2836.4475174580916,2515
2838.201072434034,2489
2839.954286739034,2505
2841.707160677441,2597
2843.459694553685,2490
2845.2118886722724,2486
2846.96374333779,2542
2848.7152588549034,2508
2850.4664355283567,2551
2852.217273662973,2539
2853.9677735636546,2584
2855.7179355353833,2492
2857.4677598832186,2514
2859.217246912299,2476
2860.9663969278427,2564
2862.715210235146,2516
2864.4636871395846,2487
2866.211827946614,2491
2867.9596329617652,2475
2869.7071024906536,2454
2871.4542368389684,2529
2873.20103631248,2565
2874.947501217038,2477
2876.6936318585695,2491
2878.4394285430812,2440
2880.1848915766604,2443
2881.9300212654707,2441
2883.6748179157553,2534
2885.4192818338374,2519
2887.1634133261173,2506
2888.907212699077,2558
2890.6506802592744,2544
2892.393816313348,2580
2894.1366211680142,2518
2895.8790951300693,2538
2897.621238506388,2532
2899.363051603925,2498
2901.1045347297118,2577
2902.8456881908596,2468
2904.58651229456,2463
2906.327007348081,2515
2908.067173658772,2536
2909.8070115340597,2444
2911.5465212814497,2473
2913.285703208527,2500
2915.0245576229563,2512
2916.7630848324807,2481
2918.5012851449196,2479
2920.2391588681758,2442
2921.976706310227,2510
2923.7139277791334,2543
2925.4508235830313,2577
2927.187394030137,2534
2928.923639428745,2592
2930.6595600872306,2564
2932.395156314046,2564
2934.1304284177218,2526
2935.8653767068713,2573
2937.6000014901815,2533
2939.3343030764227,2575
2941.068281774442,2546
2942.8019378931644,2525
2944.5352717415976,2638
2946.2682836288236,2619
2948.0009738640065,2469
2949.7333427563885,2592
2951.465390615289,2487
2953.1971177501086,2552
2954.9285244703265,2494
2956.6596110855,2535
2958.3903779052657,2554
2960.1208252393385,2548
2961.8509533975125,2480
2963.5807626896617,2554
2965.3102534257378,2514
2967.0394259157715,2565
2968.768280469873,2626
2970.496817398232,2530
2972.2250370111146,2598
2973.952939618869,2530
2975.6805255319196,2566
2977.4077950607707,2533
2979.134748516006,2574
2980.861386208289,2589
2982.587708448359,2508
2984.313715547037,2617
2986.039407815222,2612
2987.764785563891,2615
2989.489849104102,2548
2991.2145987469908,2586
2992.9390348037705,2532
2994.6631575857346,2554
2996.3869674042576,2608
2998.1104645707887,2574
2999.83364939686,2574
3001.5565221940783,2566
3003.2790832741334,2480
3005.0013329487924,2514
3006.7232715298996,2503
3008.4448993293804,2487
3010.166216659239,2622
3011.887223831558,2502
3013.607921158498,2578
3015.3283089522993,2467
3017.0483875252826,2519
3018.7681571898443,2587
3020.4876182584626,2588
3022.2067710436927,2601
3023.9256158581707,2493
3025.644153014609,2486
3027.362382825801,2663
3029.0803056046193,2435
3030.797921664012,2538
3032.5152313170106,2467
3034.2322348767225,2541
3035.9489326563353,2612
3037.665324969115,2551
3039.3814121284063,2553
3041.097194447633,2585
3042.812672240299,2550
3044.5278458199855,2622
3046.2427155003525,2541
3047.9572815951406,2616
3049.671544418167,2647
3051.38550428333,2621
3053.0991615046073,2559
3054.812516396051,2563
3056.5255692717974,2646
3058.2383204460575,2548
3059.9507702331257,2546
3061.662918947372,2511
3063.3747669032446,2500
3065.0863144152736,2608
3066.7975617980674,2597
3068.508509366309,2626
3070.219157434767,2598
3071.9295063182844,2590
3073.639556331785,2563
3075.3493077902704,2633
3077.058761008821,2608
3078.7679163025964,2582
3080.476773986837,2567
3082.1853343768594,2578
3083.89359778806,2595
3085.6015645359153,2496
3087.3092349359786,2607
3089.016609303884,2690
3090.7236879553434,2604
3092.4304712061476,2632
3094.136959372166,2601
3095.843152769349,2547
3097.5490517137237,2550
3099.2546565213966,2593
3100.959967508554,2619
3102.66498499146,2620
3104.3697092864577,2644
3106.0741407099695,2558
3107.778279578498,2617
3109.482126208622,2629
3111.1856809170004,2489
3112.8889440203716,2557
3114.5919158355528,2564
3116.294596679439,2609
3117.996986869006,2682
3119.6990867213062,2618
3121.4008965534726,2564
3123.102416682717,2580
3124.803647426329,2682
3126.5045891016784,2674
3128.205242026213,2551
3129.90560651746,2603
3131.605682893025,2687
3133.3054714705922,2598
3135.0049725679282,2637
3136.7041865028714,2544
3138.4031135933465,2661
3140.101754157353,2667
3141.800108512971,2654
3143.498176978357,2565
3145.1959598717494,2703
3146.8934575114636,2640
3148.5906702158954,2616
3150.2875983035183,2696
3151.9842420928853,2565
3153.680601902627,2657
3155.376678051456,2646
3157.07247085816,2619
3158.767980641609,2545
3160.463207720748,2676
3162.158152414606,2615
3163.8528150422862,2696
3165.5471959229726,2619
3167.2412953759303,2624
3168.9351137204976,2690
3170.628651276098,2682
3172.3219083622307,2615
3174.014885298474,2665
3175.707582404485,2610
3177.4000000000005,2732
3179.092138404835,2726
3180.7839979388846,2688
3182.47557892212,2756
3184.166881674594,2722
3185.8579065164386,2721
3187.5486537678626,2668
3189.2391237491547,2671
3190.9293167806827,2686
3192.6192331828934,2669
3194.3088732763117,2621
3195.998237381542,2695
3197.687325819268,2654
3199.376138910251,2615
3201.064676975334,2662
3202.7529403354347,2590
3204.4409293115523,2647
3206.1286442247647,2703
3207.816085396229,2695
3209.5032531471825,2761
3211.190147798936,2614
3212.8767696728846,2633
3214.5631190905015,2681
3216.2491963733373,2556
3217.9350018430214,2650
3219.6205358212637,2598
3221.305798629851,2658
3222.990790590651,2516
3224.6755120256103,2621
3226.359963256751,2614
3228.0441446061795,2661
3229.7280563960758,2684
3231.411698948703,2638
3233.0950725863995,2717
3234.778177631587,2623
3236.461014406761,2688
3238.1435832345005,2733
3239.8258844374595,2675
3241.507918338374,2726
3243.1896852600576,2680
3244.8711855254023,2632
3246.552419457381,2759
3248.233387379042,2706
3249.914089613516,2668
3251.59452648401,2669
3253.274698313813,2669
3254.95460542629,2637
3256.6342481448855,2636
3258.313626793125,2692
3259.9927416946084,2598
3261.6715931730196,2606
3263.3501815521176,2634
3265.0285071557437,2659
3266.706570307815,2659
3268.3843713323286,2681
3270.0619105533615,2666
3271.739188295068,2647
3273.4162048816834,2685
3275.0929606375184,2721
3276.769455886966,2621
3278.445690954498,2748
3280.1216661646613,2674
3281.797381842087,2708
3283.4728383114807,2629
3285.1480358976296,2592
3286.8229749253996,2609
3288.4976557197333,2692
3290.172078605655,2692
3291.846243908266,2652
3293.5201519527463,2620
3295.193803064357,2662
3296.8671975684374,2737
3298.5403357904024,2719
3300.21321805575,2678
3301.8858446900567,2665
3303.558216018975,2568
3305.23033236824,2652
3306.9021940636603,2740
3308.57380143113,2719
3310.2451547966184,2708
3311.916254486174,2791
3313.5871008259246,2772
3315.2576941420766,2671
3316.9280347609147,2653
3318.5981230088046,2761
3320.2679592121895,2674
3321.9375436975924,2601
3323.606876791612,2640
3325.27595882093,2740
3326.944790112305,2663
3328.6133709925753,2593
3330.2817017886573,2690
3331.949782827547,2670
3333.617614436319,2734
3335.2851969421245,2629
3336.952530672199,2670
3338.619615953853,2773
3340.286453114475,2784
3341.9530424815357,2750
3343.619384382583,2710
3345.2854791452437,2745
3346.951327097224,2769
3348.6169285663073,2726
3350.2822838803577,2771
3351.947393367319,2714
3353.61225735521,2747
3355.2768761721345,2860
3356.9412501462693,2691
3358.605379605873,2751
3360.2692648792827,2730
3361.9329062949146,2669
3363.596304181263,2738
