CollectionTime,7/3/2024 3:04:45 PM
ExposureUsed,3
CalibratedSpectrum
-962.7078968117929,447
-959.9714848408522,491
-957.2358232597828,487
-954.5009119013725,460
-951.7667505983302,452
-949.0333391832855,469
-946.3006774887896,447
-943.5687653473143,467
-940.837602591253,467
-938.1071890529199,475
-935.3775245645503,458
-932.6486089583007,472
-929.9204420662485,516
-927.1930237203925,480
-924.4663537526524,472
-921.7404319948689,473
-919.0152582788041,484
-916.2908324361409,510
-913.5671542984834,479
-910.8442236973568,425
-908.1220404642074,442
-905.4006044304027,478
-902.679915427231,466
-899.959973285902,461
-897.2407778375464,472
-894.5223289132158,446
-891.8046263438832,451
-889.0876699604426,451
-886.3714595937089,453
-883.6559950744183,473
-880.9412762332282,488
-878.2273029007168,480
-875.5140749073835,461
-872.8015920836489,497
-870.0898542598545,481
-867.3788612662631,472
-864.6686129330585,480
-861.9591090903457,482
-859.2503495681506,475
-856.5423341964203,462
-853.8350628050229,458
-851.1285352237478,453
-848.4227512823054,474
-845.7177108103272,476
-843.0134136373656,495
-840.3098595928943,477
-837.6070485063082,473
-834.9049802069229,485
-832.2036545239757,473
-829.5030712866244,472
-826.8032303239481,466
-824.1041314649472,470
-821.4057745385428,491
-818.7081593735775,460
-816.0112857988148,481
-813.3151536429393,474
-810.6197627345566,477
-807.9251129021936,493
-805.2312039742981,465
-802.5380357792392,472
-799.8456081453069,480
-797.1539209007124,527
-794.462973873588,512
-791.772766891987,486
-789.083299783884,507
-786.3945723771743,487
-783.7065844996748,467
-781.0193359791231,449
-778.3328266431781,480
-775.6470563194197,482
-772.9620248353489,457
-770.2777320183878,469
-767.5941776958798,506
-764.9113616950891,505
-762.2292838432011,482
-759.5479439673222,489
-756.8673418944801,475
-754.1874774516235,490
-751.5083504656222,503
-748.8299607632671,522
-746.15230817127,481
-743.475392516264,478
-740.7992136248035,487
-738.1237713233636,499
-735.4490654383407,513
-732.7750957960521,538
-730.1018622227365,537
-727.4293645445534,505
-724.7576025875837,475
-722.0865761778291,517
-719.4162851412126,531
-716.7467293035781,516
-714.0779084906909,520
-711.409822528237,525
-708.7424712418238,544
-706.0758544569796,541
-703.4099719991541,533
-700.7448236937178,529
-698.0804093659622,516
-695.4167288411002,494
-692.7537819442656,501
-690.0915685005134,522
-687.4300883348199,493
-684.7693412720819,510
-682.1093271371178,501
-679.4500457546669,511
-676.7914969493897,523
-674.1336805458676,497
-671.4765963686034,505
-668.8202442420206,534
-666.1646239904642,546
-663.5097354382001,523
-660.8555784094151,527
-658.2021527282176,522
-655.5494582186366,533
-652.8974947046223,506
-650.2462620100463,504
-647.5957599587009,538
-644.9459883742998,551
-642.2969470804776,538
-639.6486359007902,556
-637.0010546587141,567
-634.3542031776476,529
-631.7080812809096,516
-629.0626887917401,553
-626.4180255333008,526
-623.7740913286734,517
-621.1308860008619,580
-618.4884093727904,532
-615.8466612673046,534
-613.2056415071715,523
-610.5653499150785,561
-607.9257863136347,552
-605.28695052537,545
-602.6488423727357,552
-600.0114616781036,539
-597.3748082637674,557
-594.7388819519412,585
-592.1036825647604,595
-589.4692099242818,620
-586.8354638524829,578
-584.2024441712624,586
-581.5701507024403,593
-578.9385832677575,597
-576.3077416888759,566
-573.6776257873787,575
-571.0482353847704,555
-568.4195703024757,547
-565.7916303618415,568
-563.164415384135,574
-560.5379251905453,577
-557.9121596021815,588
-555.2871184400748,568
-552.6628015251767,602
-550.0392086783606,600
-547.4163397204204,556
-544.794194472071,596
-542.1727727539491,608
-539.5520743866118,600
-536.9320991905377,651
-534.3128469861261,656
-531.6943175936979,642
-529.0765108334947,685
-526.4594265256793,715
-523.8430644903358,842
-521.2274245474689,957
-518.612506517005,1020
-515.9983102187913,955
-513.3848354725959,1000
-510.77208209810846,1102
-508.16004991493924,1214
-505.5487387426199,1251
-502.9381484006032,1264
-500.3282787082628,1121
-497.71912948489364,1066
-495.1107005497117,867
-492.5029917218539,840
-489.8960028203786,758
-487.28973366426493,759
-484.68418407241325,696
-482.07935386364494,687
-479.47524285670266,667
-476.87185087025,674
-474.2691777228715,713
-471.66722323307334,719
-469.0659872192821,714
-466.4654694998459,750
-463.86566989303384,712
-461.26658821703614,687
-458.66822428996414,686
-456.07057792985,709
-453.4736489546475,721
-450.877437182231,691
-448.28194243039627,686
-445.68716451686,675
-443.09310325926003,676
-440.49975847515555,679
-437.9071299820263,679
-435.31521759727354,687
-432.72402113821954,692
-430.13354042210767,709
-427.5437752661022,718
-424.95472548728867,720
-422.36639090267386,698
-419.7787713291855,739
-417.1918665836721,803
-414.60567648290385,730
-412.0202008435715,711
-409.4354394822874,740
-406.8513922155845,770
-404.26805885991723,798
-401.685439231661,804
-399.103533147112,798
-396.522340422488,771
-393.9418608739278,772
-391.3620943174908,731
-388.7830405691583,731
-386.2046994448317,702
-383.6270707603344,717
-381.05015433141045,680
-378.473949973725,665
-375.8984575028645,595
-373.32367673433623,623
-370.74960748356875,603
-368.1762495659117,581
-365.60360279663576,523
-363.03166699093265,512
-360.4604419639154,478
-357.8899275306178,507
-355.32012350599507,472
-352.7510297049233,470
-350.1826459421999,437
-347.61497203254316,458
-345.04800779059235,462
-342.4817530309082,491
-339.91620756797226,470
-337.35137121618743,478
-334.7872437898774,507
-332.22382510328725,505
-329.66111497058273,483
-327.09911320585127,484
-324.53781962310075,487
-321.9772340362607,477
-319.4173562591816,471
-316.8581861056348,475
-314.2997233893127,460
-311.7419679238294,483
-309.1849195227194,521
-306.62857799943856,521
-304.0729431673641,520
-301.51801483979375,520
-298.963792829947,510
-296.41027695096386,540
-293.85746701590574,550
-291.3053628377552,634
-288.7539642294155,572
-286.2032710037115,535
-283.65328297338897,547
-281.1039999511146,600
-278.5554217494762,614
-276.007548180983,613
-273.4603790580651,549
-270.9139141930734,526
-268.3681533982807,538
-265.8230964858798,622
-263.27874326798565,607
-260.7350935566336,572
-258.1921471637804,586
-255.6499039013039,613
-253.10836358100266,587
-250.56752601459698,615
-248.02739101372765,644
-245.48795838995704,624
-242.94922795476816,602
-240.41119951956557,611
-237.8738728956746,660
-235.33724789434166,685
-232.80132432673452,656
-230.2661020039418,622
-227.73158073697357,652
-225.19776033676033,660
-222.66464061415422,768
-220.1322213799284,687
-217.60050244477725,584
-215.06948361931552,583
-212.53916471408013,682
-210.00954553952818,765
-207.48062590603843,718
-204.9524056239104,651
-202.4248845033651,807
-199.8980623545441,814
-197.37193898751036,791
-194.84651421224817,788
-192.32178783866232,728
-189.79775967657952,743
-187.27442953574644,827
-184.7517972258321,883
-182.2298625564256,820
-179.7086253370378,720
-177.18808537710026,755
-174.66824248596583,781
-172.14909647290835,920
-169.6306471471229,942
-167.11289431772548,830
-164.59583779375328,902
-162.07947738416453,926
-159.5638128978386,930
-157.04884414357605,1130
-154.53457093009854,1240
-152.02099306604828,1060
-149.50811035998936,854
-146.99592262040665,952
-144.48442965570587,1038
-141.97363127421409,1256
-139.46352728417958,1409
-136.95411749377126,1458
-134.44540171107985,1302
-131.93737974411636,985
-129.43005140081357,1145
-126.92341648902493,1583
-124.41747481652521,1942
-121.91222619101006,2736
-119.40767042009657,3729
-116.90380731132257,3949
-114.40063667214702,3458
-111.8981583099503,2477
-109.3963720320337,1709
-106.89527764561933,1384
-104.39487495785067,1762
-101.89516377579241,2590
-99.39614390642998,3702
-96.89781515667039,3205
-94.40017733334128,2611
-91.90323024319173,3546
-89.40697369289148,6984
-86.91140748903172,10352
-84.41653143812482,8371
-81.92234534660395,4600
-79.42884902082358,3864
-76.93604226705907,10217
-74.4439248915071,19601
-71.95249670028534,25867
-69.46175749943245,23673
-66.97170709490854,18275
-64.48234529259423,13804
-61.99367189829195,12054
-59.50568671772464,11239
-57.01838955653636,8356
-54.53178022029283,7029
-52.045858514480074,7141
-49.560624244506016,7347
-47.07607721569923,7693
-44.59221723330904,8166
-42.10904410250669,8063
-39.62655762838392,8709
-37.14475761595372,8914
-34.66364387015028,9871
-32.18321619582866,9597
-29.70347439776515,8895
-27.224418280657005,10747
-24.74604764912317,12381
-22.26836230770266,20431
-19.7913620608565,43247
-17.315046712966478,65040
-14.83941606833514,65040
-12.36446993118659,65040
-9.89020810566592,65040
-7.416630395839093,65040
-4.94373660569363,65040
-2.471526539137585,65040
-6.821210263296962E-13,65040
2.47084320796705,65040
4.941003281093458,65040
7.410480415786196,65040
9.879274808531363,65040
12.347386655893956,65040
14.814816154518212,65040
17.28156350112681,65040
19.74762889252179,65040
22.21301252558385,65040
24.67771459727237,19993
27.141735304626195,3559
29.605074844762612,2428
32.06773341487792,2191
34.52971121224755,2056
36.99100843422559,2025
39.45162527824516,1733
41.91156194181792,1671
44.370818622535126,1576
46.82939551806646,1229
49.287292826160524,1225
51.74451074464503,1659
54.201049471426245,1866
56.65690920448981,1510
59.112090141899785,1242
61.56659248179983,1050
64.02041642241159,1069
66.4735621620365,1214
68.92602989905402,1067
71.37781983192338,1247
73.82893215918205,1348
76.27936707944684,1420
78.72912479141326,1298
81.17820549385567,1379
83.62660938562783,1292
86.07433666566146,1159
88.5213875329681,997
90.96776218663751,971
93.41346082583925,973
95.85848364982041,1076
98.30283085790859,1260
100.7465026495089,1266
103.18949922410604,979
105.63182078126385,987
108.07346752062438,988
110.51443964190923,970
112.95473734491827,917
115.39436082953114,1003
117.83331029570547,902
120.27158594347827,1013
122.7091879729652,1249
125.1461165843615,1131
127.58237197794062,884
130.01795435405518,840
132.4528639131364,921
134.88710085569494,826
137.32066538231982,868
139.75355769367923,927
142.1857779905207,915
144.61732647366978,778
147.04820334403132,739
149.47840880258934,758
151.90794305040674,841
154.33680628862487,947
156.76499871846443,1132
159.19252054122433,1144
161.61937195828352,1151
164.04555317109896,1225
166.47106438120693,1278
168.89590579022217,1399
171.320077599839,1580
173.7435800118302,1592
176.16641322804742,1616
178.58857745042144,1575
181.01007288096173,1677
183.43089972175687,1730
185.85105817497413,1807
188.27054844285988,1796
190.6893707277394,1744
193.10752523201643,1794
195.5250121581745,1879
197.9418317087751,1874
200.3579840864594,1800
202.7734694939469,1789
205.18828813403627,1858
207.6024402096051,1935
210.01592592360964,1975
212.42874547908548,1985
214.84089907914665,1985
217.2523869269868,1956
219.66320922587727,1919
222.0733661791695,2001
224.48285799029293,2012
226.8916848627572,1897
229.29984700014882,2001
231.7073446061355,2022
234.11417788446204,1928
236.520347038953,1942
238.92585227351185,1988
241.33069379212054,2005
243.73487179884035,1991
246.1383864978112,2002
248.541238093252,2095
250.9434267894609,1922
253.34495279081432,1991
255.74581630176783,2000
258.1460175268563,1945
260.54555667069314,2028
262.9444339379703,1936
265.3426495334594,2036
267.7402036620107,2021
270.1370965285529,2028
272.53332833809407,1935
274.9288992957214,1909
277.32380960660055,1897
279.718059475976,1905
282.1116491091717,1944
284.5045787115897,1938
286.89684848871195,1889
289.2884586460981,1935
291.67940938938807,1928
294.0697009242996,1956
296.4593334566299,1988
298.84830719225477,1980
301.23662233712923,1941
303.6242790972866,1928
306.01127767884,1936
308.39761828798066,1958
310.78330113097934,1910
313.16832641418534,1871
315.5526943440269,1844
317.9364051270112,1848
320.3194589697242,1898
322.70185607883093,1862
325.0835966610754,1835
327.4646809232805,1821
329.8451090723478,1836
332.2248813152577,1809
334.6039978590701,1671
336.9824589109231,1718
339.36026467803447,1730
341.7374153677,1698
344.113911187295,1743
346.48975234427337,1686
348.8649390461686,1731
351.2394715005918,1681
353.61334991523415,1747
355.9865744978655,1734
358.35914545633375,1702
360.73106299856715,1734
363.10232733257146,1749
365.47293866643247,1681
367.84289720831396,1684
370.2122031664593,1690
372.5808567491905,1711
374.9488581649083,1641
377.31620762209275,1655
379.6829053293021,1607
382.0489514951745,1672
384.4143463284262,1664
386.7790900378528,1542
389.14318283232853,1633
391.50662492080653,1631
393.86941651231916,1641
396.23155781597745,1613
398.5930490409713,1569
400.9538903965696,1589
403.3140820921202,1635
405.6736243370498,1644
408.03251734086336,1600
410.3907613131465,1616
412.74835646356166,1580
415.10530300185144,1572
417.4616011378372,1551
419.81725108141893,1560
422.1722530425758,1529
424.5266072313656,1591
426.880313857925,1556
429.2333731324701,1539
431.58578526529516,1616
433.9375504667738,1588
436.2886689473588,1517
438.63914091758113,1533
440.9889665880513,1562
443.33814616945835,1515
445.68667987257015,1568
448.03456790823395,1557
450.3818104873759,1576
452.72840782100013,1551
455.07436012019105,1532
457.41966759611057,1468
459.7643304600007,1496
462.10834892318155,1503
464.4517231970525,1506
466.79445349309174,1535
469.1365400228566,1537
471.4779829979826,1494
473.81878263018564,1587
476.15893913125876,1541
478.4984527130747,1508
480.8373235875855,1540
483.17555196682144,1592
485.5131380628919,1636
487.8500820879857,1641
490.1863842543697,1661
492.52204477439034,1715
494.8570638604725,1837
497.1914417251204,2025
499.52517858091653,2215
501.85827464052306,2539
504.19073011668036,2858
506.5225452222086,3174
508.85372017000566,3238
511.18425517304956,3253
513.514150444396,3433
515.8434061971808,3960
518.1720226446176,4771
520.4999999999999,5021
522.8273384766991,4619
525.1540382881666,4050
527.480099647932,3484
529.8055227696037,2907
532.1303078668694,2344
534.454455153496,1970
536.777964843328,1831
539.1008371502907,1754
541.4230722883866,1716
543.744670471698,1663
546.0656319143858,1658
548.3859568306899,1614
550.7056454349294,1625
553.0246979415016,1674
555.3431145648834,1719
557.6608955196306,1669
559.978041020377,1571
562.2945512818363,1562
564.6104265188006,1461
566.9256669461412,1608
569.2402727788082,1639
571.5542442318302,1571
573.8675815203156,1606
576.1802848594508,1596
578.4923544645015,1571
580.8037905508126,1589
583.114593333807,1591
585.4247630289875,1620
587.7342998519354,1594
590.0432040183106,1523
592.3514757438526,1550
594.6591152443794,1552
596.9661227357875,1663
599.2724984340531,1590
601.578242555231,1644
603.8833553154542,1675
606.1878369309362,1590
608.4916876179676,1543
610.7949075929192,1593
613.0974970722403,1577
615.3994562724587,1566
617.7007854101818,1618
620.0014847020951,1586
622.3015543649641,1584
624.6009946156324,1585
626.8998056710224,1692
629.1979877481361,1537
631.4955410640538,1570
633.7924658359349,1684
636.0887622810175,1606
638.3844306166192,1560
640.6794710601358,1617
642.9738838290426,1661
645.2676691408932,1636
647.5608272133207,1679
649.853358264037,1627
652.1452625108324,1709
654.4365401715764,1648
656.7271914642178,1693
659.0172166067838,1707
661.3066158173809,1566
663.5953893141935,1607
665.8835373154867,1658
668.1710600396028,1634
670.4579577049639,1595
672.7442305300709,1576
675.0298787335033,1610
677.3149025339197,1638
679.599302150058,1605
681.8830778007342,1652
684.1662297048437,1668
686.4487580813608,1616
688.7306631493387,1664
691.0119451279091,1599
693.2926042362834,1643
695.5726406937516,1640
697.8520547196814,1610
700.1308465335215,1631
702.4090163547982,1594
704.6865644031171,1622
706.9634908981619,1654
709.2397960596965,1595
711.5154801075631,1668
713.7905432616823,1644
716.0649857420548,1647
718.3388077687592,1629
720.612009561953,1604
722.8845913418733,1632
725.1565533288352,1655
727.427895743234,1615
729.6986188055427,1640
731.9687227363137,1643
734.238207756178,1684
736.5070740858458,1643
738.7753219461066,1666
741.0429515578281,1612
743.3099631419569,1643
745.5763569195191,1634
747.8421331116193,1619
750.1072919394409,1643
752.3718336242467,1612
754.6357583873777,1667
756.8990664502545,1688
759.1617580343765,1669
761.423833361321,1601
763.6852926527457,1650
765.9461361303862,1654
768.206364016058,1671
770.4659765316536,1670
772.7249738991469,1647
774.9833563405886,1637
777.2411240781092,1702
779.4982773339183,1616
781.7548163303044,1653
784.010741289634,1653
786.2660524343538,1757
788.5207499869881,1712
790.7748341701416,1722
793.0283052064964,1646
795.2811633188143,1660
797.5334087299362,1682
799.7850416627813,1683
802.0360623403484,1688
804.2864709857143,1681
806.5362678220353,1725
808.7854530725468,1764
811.0340269605625,1745
813.2819897094754,1611
815.5293415427581,1647
817.77608268396,1656
820.0222133567116,1667
822.2677337847211,1718
824.5126441917765,1708
826.7569448017433,1653
829.0006358385675,1591
831.2437175262731,1632
833.4861900889629,1690
835.7280537508192,1635
837.9693087361026,1694
840.2099552691533,1656
842.4499935743896,1629
844.689423876309,1661
846.9282463994886,1718
849.1664613685833,1704
851.4040690083276,1721
853.6410695435349,1685
855.877463199097,1653
858.1132501999847,1656
860.3484307712487,1677
862.5830051380175,1715
864.8169735254988,1630
867.0503361589791,1647
869.2830932638243,1640
871.5152450654786,1689
873.7467917894654,1733
875.9777336613873,1673
878.2080709069252,1669
880.4378037518389,1627
882.666932421968,1608
884.8954571432301,1713
887.1233781416219,1726
889.3506956432192,1723
891.5774098741766,1669
893.803521060728,1703
896.0290294291852,1665
898.2539352059397,1645
900.4782386174619,1680
902.7019398903011,1642
904.925039251085,1641
907.147536926521,1710
909.3694331433943,1592
911.59072812857,1643
913.8114221089921,1664
916.0315153116827,1634
918.2510079637437,1639
920.4699002923547,1576
922.6881925247761,1626
924.905884888345,1629
927.1229776104793,1664
929.3394709186747,1613
931.555365040506,1628
933.7706602036275,1632
935.9853566357709,1705
938.1994545647489,1648
940.4129542184515,1691
942.6258558248488,1656
944.8381596119883,1653
947.0498658079974,1663
949.2609746410825,1673
951.4714863395287,1628
953.6814011316998,1672
955.8907192460387,1649
958.0994409110671,1612
960.3075663553858,1598
962.5150958076741,1567
964.7220294966913,1630
966.928367651274,1593
969.1341105003388,1611
971.3392582728806,1610
973.5438111979742,1589
975.747769504772,1572
977.9511334225061,1608
980.153903180487,1548
982.3560790081052,1573
984.5576611348289,1547
986.7586497902058,1457
988.9590452038618,1535
991.158847605503,1548
993.3580572249133,1529
995.5566742919558,1514
997.7546990365728,1500
999.952131688785,1449
1002.1489724786926,1472
1004.3452216364743,1476
1006.5408793923874,1408
1008.7359459767691,1444
1010.9304216200343,1409
1013.1243065526781,1380
1015.3176010052733,1411
1017.510305208472,1384
1019.7024193930064,1330
1021.8939437896848,1369
1024.0848786293977,1338
1026.2752241431122,1374
1028.4649805618747,1309
1030.6541481168115,1314
1032.842727039127,1338
1035.0307175601051,1305
1037.2181199111074,1365
1039.4049343235752,1352
1041.591161029029,1289
1043.7768002590683,1262
1045.9618522453698,1281
1048.1463172196918,1366
1050.3301954138697,1294
1052.513487059818,1289
1054.69619238953,1297
1056.8783116350783,1270
1059.0598450286152,1249
1061.2407928023704,1298
1063.4211551886528,1319
1065.6009324198508,1274
1067.780124728432,1271
1069.9587323469414,1280
1072.1367555080046,1267
1074.314194444325,1343
1076.4910493886855,1332
1078.667320573947,1280
1080.843008233051,1312
1083.0181125990161,1294
1085.1926339049414,1229
1087.3665723840027,1241
1089.5399282694575,1245
1091.7127017946405,1242
1093.8848931929647,1219
1096.0565026979243,1201
1098.2275305430899,1230
1100.3979769621128,1211
1102.567842188722,1272
1104.737126456726,1255
1106.9058300000124,1215
1109.0739530525475,1220
1111.2414958483764,1218
1113.4084586216231,1226
1115.5748416064907,1225
1117.7406450372605,1172
1119.9058691482942,1206
1122.0705141740304,1189
1124.2345803489884,1247
1126.3980679077658,1280
1128.5609770850388,1233
1130.7233081155623,1183
1132.8850612341707,1200
1135.0462366757774,1211
1137.2068346753745,1219
1139.3668554680326,1206
1141.526299288901,1196
1143.68516637321,1211
1145.8434569562655,1209
1148.001171273455,1228
1150.158309560244,1196
1152.3148720521767,1227
1154.470858984876,1205
1156.626270594044,1165
1158.7811071154629,1193
1160.9353687849912,1178
1163.089055838569,1198
1165.242168512213,1222
1167.3947070420209,1221
1169.5466716641677,1172
1171.6980626149075,1194
1173.8488801305748,1167
1175.9991244475814,1191
1178.1487958024186,1215
1180.2978944316555,1152
1182.4464205719428,1173
1184.5943744600072,1228
1186.7417563326567,1139
1188.8885664267755,1197
1191.0348049793297,1133
1193.1804722273619,1191
1195.325568407995,1190
1197.4700937584303,1203
1199.614048515948,1205
1201.7574329179074,1148
1203.900247201746,1209
1206.042491604982,1194
1208.1841663652099,1155
1210.3252717201053,1218
1212.465807907422,1258
1214.6057751649923,1229
1216.7451737307279,1210
1218.8840038426192,1243
1221.0222657387353,1190
1223.1599596572241,1223
1225.2970858363137,1161
1227.4336445143094,1216
1229.5696359295966,1237
1231.705060320639,1228
1233.8399179259786,1226
1235.9742089842384,1239
1238.107933734118,1227
1240.2410924143974,1186
1242.373685263935,1244
1244.5057125216676,1236
1246.6371744266116,1251
1248.7680712178621,1198
1250.898403134593,1243
1253.028170416058,1219
1255.1573733015875,1226
1257.2860120305932,1224
1259.4140868425648,1248
1261.54159797707,1217
1263.6685456737569,1260
1265.7949301723515,1240
1267.9207517126597,1202
1270.046010534565,1230
1272.1707068780306,1196
1274.2948409830983,1237
1276.4184130898889,1293
1278.541423438603,1240
1280.6638722695184,1280
1282.785759822993,1303
1284.9070863394636,1206
1287.0278520594447,1220
1289.1480572235314,1319
1291.2677020723963,1322
1293.3867868467923,1234
1295.5053117875495,1278
1297.623277135579,1325
1299.740683131868,1331
1301.8575300174857,1319
1303.973818033578,1349
1306.0895474213703,1339
1308.2047184221678,1423
1310.3193312773528,1336
1312.4333862283888,1359
1314.5468835168163,1335
1316.659823384255,1382
1318.7722060724045,1361
1320.8840318230418,1306
1322.9953008780249,1340
1325.1060134792888,1392
1327.2161698688478,1349
1329.3257702887959,1300
1331.4348149813054,1328
1333.5433041886276,1358
1335.6512381530933,1357
1337.7586171171101,1303
1339.8654413231675,1338
1341.9717110138317,1389
1344.0774264317488,1378
1346.1825878196432,1318
1348.2871954203192,1362
1350.3912494766587,1309
1352.4947502316231,1344
1354.5976979282532,1345
1356.7000928096686,1369
1358.8019351190665,1314
1360.9032250997243,1332
1363.0039629949988,1285
1365.1041490483235,1330
1367.2037835032133,1314
1369.3028666032606,1266
1371.401398592137,1258
1373.4993797135926,1321
1375.5968102114575,1299
1377.6936903296396,1273
1379.7900203121262,1340
1381.8858004029835,1329
1383.9810308463561,1286
1386.075711886469,1285
1388.1698437676241,1299
1390.2634267342032,1290
1392.356461030667,1265
1394.4489469015557,1299
1396.5408845914872,1242
1398.6322743451592,1315
1400.7231164073469,1286
1402.813411022907,1294
1404.903158436773,1290
1406.9923588939578,1301
1409.0810126395531,1327
1411.1691199187303,1276
1413.2566809767386,1289
1415.343696058907,1298
1417.4301654106425,1317
1419.5160892774315,1288
1421.6014679048399,1301
1423.6863015385125,1296
1425.7705904241707,1249
1427.8543348076178,1263
1429.9375349347342,1341
1432.0201910514802,1272
1434.102303403894,1306
1436.1838722380944,1323
1438.2648978002767,1315
1440.3453803367174,1293
1442.4253200937692,1287
1444.5047173178677,1285
1446.5835722555234,1289
1448.6618851533285,1327
1450.739656257952,1330
1452.8168858161434,1304
1454.8935740747306,1321
1456.96972128062,1283
1459.045327680797,1352
1461.120393522327,1313
1463.1949190523528,1362
1465.2689045180973,1385
1467.3423501668608,1329
1469.415256246024,1355
1471.4876230030463,1389
1473.559450685465,1336
1475.6307395408976,1414
1477.7014898170391,1360
1479.771701761665,1374
1481.8413756226287,1431
1483.9105116478618,1414
1485.9791100853772,1403
1488.0471711832643,1390
1490.1146951896926,1360
1492.1816823529098,1406
1494.2481329212433,1470
1496.3140471430984,1396
1498.3794252669609,1419
1500.4442675413939,1402
1502.5085742150404,1414
1504.572345536622,1454
1506.6355817549388,1403
1508.6982831188702,1451
1510.7604498773744,1426
1512.8220822794883,1482
1514.8831805743293,1417
1516.9437450110909,1454
1519.003775839048,1441
1521.0632733075522,1471
1523.1222376660367,1480
1525.1806691640113,1506
1527.2385680510652,1515
1529.2959345768668,1484
1531.3527689911643,1466
1533.4090715437833,1489
1535.4648424846291,1489
1537.5200820636855,1572
1539.5747905310159,1521
1541.6289681367616,1554
1543.6826151311434,1560
1545.7357317644614,1565
1547.7883182870937,1602
1549.8403749494987,1636
1551.8919020022113,1624
1553.9428996958477,1633
1555.9933682811015,1657
1558.0433080087469,1587
1560.0927191296346,1711
1562.1416018946961,1647
1564.1899565549415,1709
1566.2377833614592,1722
1568.2850825654164,1725
1570.3318544180606,1756
1572.3780991707158,1736
1574.423817074788,1747
1576.4690083817595,1681
1578.5136733431923,1582
1580.5578122107272,1651
1582.601425236085,1616
1584.6445126710646,1618
1586.6870747675434,1601
1588.7291117774776,1492
1590.7706239529034,1572
1592.8116115459347,1525
1594.8520748087658,1488
1596.8920139936686,1514
1598.9314293529933,1477
1600.9703211391711,1391
1603.008689604711,1401
1605.0465350022005,1451
1607.0838575843068,1446
1609.1206576037753,1383
1611.1569353134305,1391
1613.1926909661765,1400
1615.2279248149953,1387
1617.2626371129481,1338
1619.2968281131757,1408
1621.3304980688963,1349
1623.3636472334088,1395
1625.39627586009,1315
1627.428384202396,1287
1629.459972513861,1310
1631.4910410480993,1288
1633.5215900588028,1308
1635.551619799744,1294
1637.5811305247717,1315
1639.6101224878166,1315
1641.6385959428862,1295
1643.6665511440683,1273
1645.693988345528,1237
1647.7209078015112,1250
1649.7473097663405,1246
1651.7731944944203,1212
1653.7985622402307,1227
1655.823413258333,1200
1657.847747803366,1210
1659.8715661300494,1221
1661.8948684931793,1251
1663.9176551476316,1239
1665.9399263483624,1206
1667.9616823504057,1236
1669.982923408873,1241
1672.0036497789574,1209
1674.0238617159293,1295
1676.043559475138,1284
1678.0627433120121,1253
1680.081413482059,1225
1682.0995702408654,1284
1684.117213844096,1234
1686.134344547495,1236
1688.1509626068864,1174
1690.1670682781705,1201
1692.182661817329,1193
1694.1977434804217,1159
1696.2123135235875,1219
1698.226372203043,1168
1700.2399197750851,1226
1702.2529564960905,1204
1704.2654826225112,1242
1706.277498410882,1237
1708.2890041178139,1229
1710.2999999999988,1222
1712.3104863142066,1183
1714.3204633172854,1215
1716.329931266163,1185
1718.3388904178469,1288
1720.3473410294214,1258
1722.3552833580516,1225
1724.3627176609807,1227
1726.3696441955308,1213
1728.3760632191033,1241
1730.3819749891782,1216
1732.3873797633146,1196
1734.3922777991502,1192
1736.3966693544012,1272
1738.4005546868639,1217
1740.4039340544127,1202
1742.406807715001,1165
1744.4091759266616,1194
1746.4110389475054,1239
1748.4123970357223,1216
1750.413250449582,1212
1752.4135994474318,1244
1754.4134442876993,1297
1756.4127852288902,1237
1758.4116225295893,1211
1760.4099564484595,1211
1762.407787244244,1212
1764.405115175764,1204
1766.4019405019203,1201
1768.3982634816916,1227
1770.3940843741357,1158
1772.3894034383907,1206
1774.3842209336717,1194
1776.378537119274,1275
1778.372352254571,1220
1780.3656665990156,1233
1782.3584804121397,1201
1784.3507939535534,1263
1786.3426074829463,1220
1788.3339212600863,1184
1790.3247355448211,1202
1792.3150505970766,1208
1794.3048666768573,1238
1796.2941840442477,1199
1798.2830029594106,1158
1800.2713236825884,1232
1802.2591464741004,1269
1804.2464715943465,1188
1806.2332993038058,1235
1808.2196298630352,1254
1810.2054635326708,1221
1812.190800573428,1245
1814.175641246101,1208
1816.1599858115628,1279
1818.1438345307652,1215
1820.127187664738,1169
1822.1100454745924,1202
1824.092408221516,1237
1826.0742761667766,1234
1828.055649571721,1179
1830.0365286977735,1201
1832.0169138064398,1188
1833.9968051593014,1250
1835.9762030180214,1163
1837.9551076443408,1228
1839.9335193000788,1166
1841.9114382471344,1188
1843.888864747485,1201
1845.8657990631878,1190
1847.842241456378,1222
1849.8181921892697,1186
1851.7936515241558,1225
1853.7686197234098,1130
1855.7430970494815,1216
1857.7170837649014,1240
1859.6905801322787,1253
1861.6635864143004,1171
1863.6361028737338,1227
1865.608129773424,1217
1867.5796673762961,1217
1869.5507159453537,1216
1871.521275743678,1171
1873.4913470344313,1222
1875.4609300808534,1229
1877.4300251462632,1194
1879.3986324940588,1230
1881.366752387717,1256
1883.3343850907936,1231
1885.3015308669228,1205
1887.268189979819,1232
1889.2343626932739,1196
1891.2000492711595,1187
1893.1652499774254,1238
1895.1299650761011,1220
1897.0941948312952,1241
1899.0579395071945,1245
1901.0211993680641,1220
1902.98397467825,1231
1904.9462657021745,1189
1906.9080727043415,1163
1908.869395949332,1259
1910.8302357018065,1206
1912.790592226504,1235
1914.7504657882428,1198
1916.7098566519212,1234
1918.6687650825133,1178
1920.6271913450764,1185
1922.5851357047422,1204
1924.5425984267245,1173
1926.499579776314,1217
1928.4560800188833,1207
1930.4120994198802,1235
1932.367638244833,1180
1934.32269675935,1188
1936.2772752291175,1226
1938.231373919899,1209
1940.1849930975404,1254
1942.1381330279637,1191
1944.0907939771696,1156
1946.0429762112412,1153
1947.9946799963363,1211
1949.9459055986945,1209
1951.896653284633,1185
1953.8469233205478,1231
1955.7967159729142,1181
1957.7460315082863,1194
1959.6948701932974,1189
1961.6432322946594,1177
1963.5911180791632,1200
1965.5385278136787,1150
1967.4854617651545,1221
1969.4319202006182,1223
1971.377903387176,1215
1973.3234115920136,1210
1975.268445082395,1235
1977.2130041256642,1226
1979.1570889892423,1202
1981.1006999406304,1239
1983.04383724741,1179
1984.986501177238,1149
1986.928691997853,1217
1988.8704099770712,1185
1990.811655382789,1176
1992.7524284829801,1226
1994.692729545698,1152
1996.6325588390755,1221
1998.5719166313224,1190
2000.5108031907307,1180
2002.4492187856677,1168
2004.387163684583,1181
2006.3246381560011,1186
2008.2616424685298,1154
2010.1981768908527,1164
2012.1342416917332,1163
2014.069837140014,1186
2016.0049635046162,1157
2017.9396210545406,1173
2019.8738100588666,1210
2021.8075307867502,1178
2023.740783507431,1223
2025.6735684902228,1169
2027.6058860045214,1179
2029.5377363198004,1205
2031.4691197056118,1192
2033.4000364315875,1252
2035.3304867674374,1140
2037.260470982952,1153
2039.189989347998,1208
2041.1190421325232,1162
2043.047629606554,1174
2044.9757520401945,1200
2046.9034097036288,1222
2048.8306028671195,1215
2050.7573318010086,1186
2052.683596775716,1202
2054.609398061742,1200
2056.5347359296647,1173
2058.4596106501403,1199
2060.384022493906,1200
2062.3079717317764,1232
2064.231458634646,1208
2066.1544834734873,1258
2068.077046519352,1178
2069.99914804337,1142
2071.9207883167524,1160
2073.8419676107865,1174
2075.7626861968406,1170
2077.6829443463607,1196
2079.6027423308715,1184
2081.522080421977,1158
2083.440958891362,1213
2085.359378010786,1188
2087.2773380520907,1168
2089.194839287196,1228
2091.111881988101,1201
2093.0284664268825,1164
2094.9445928756973,1178
2096.86026160678,1175
2098.775472892446,1204
2100.690227005088,1219
2102.604524217178,1148
2104.5183648012676,1186
2106.431749029985,1152
2108.34467717604,1237
2110.2571495122206,1208
2112.169166311393,1169
2114.080727846503,1167
2115.9918343905747,1207
2117.902486216711,1177
2119.8126835980956,1227
2121.722426807987,1216
2123.6317161197285,1223
2125.5405518067364,1214
2127.448934142509,1164
2129.356863400624,1188
2131.264339854737,1169
2133.1713637785815,1238
2135.077935445972,1219
2136.9840551308002,1219
2138.889723107037,1206
2140.7949396487334,1191
2142.699705030018,1193
2144.6040195250994,1224
2146.507883408264,1194
2148.4112969538774,1177
2150.3142604363848,1243
2152.2167741303097,1215
2154.1188383102535,1195
2156.0204532508997,1209
2157.9216192270064,1196
2159.822336513414,1188
2161.7226053850413,1180
2163.622426116884,1172
2165.5217989840185,1199
2167.4207242616,1179
2169.319202224862,1243
2171.2172331491165,1172
2173.1148173097563,1177
2175.0119549822507,1198
2176.90864644215,1196
2178.8048919650823,1193
2180.7006918267534,1210
2182.596046302952,1235
2184.4909556695407,1132
2186.3854202024645,1194
2188.279440177746,1180
2190.173015871487,1155
2192.066147559868,1190
2193.958835519149,1188
2195.851080025667,1181
2197.7428813558417,1180
2199.6342397861667,1266
2201.5251555932186,1185
2203.415629053651,1244
2205.3056604441986,1210
2207.19525004167,1226
2209.084398122958,1235
2210.9731049650327,1211
2212.861370844941,1230
2214.749196039812,1269
2216.636580826851,1212
2218.523525483344,1282
2220.410030286655,1203
2222.296095514226,1235
2224.1817214435805,1257
2226.066908352319,1207
2227.951656518121,1244
2229.835966218746,1193
2231.71983773203,1163
2233.6032713358913,1272
2235.486267308324,1184
2237.3688259274036,1177
2239.2509474712824,1179
2241.132632218193,1251
2243.013880446447,1223
2244.8946924344323,1174
2246.7750684606203,1209
2248.6550088035574,1239
2250.534513741871,1231
2252.413583554265,1256
2254.292218519526,1247
2256.170418916517,1224
2258.0481850241786,1206
2259.925517121534,1222
2261.8024154876825,1225
2263.678880401803,1161
2265.5549121431536,1197
2267.430510991071,1232
2269.305677224971,1225
2271.180411124348,1245
2273.0547129687766,1200
2274.9285830379076,1214
2276.8020216114737,1208
2278.6750289692845,1266
2280.5476053912294,1191
2282.4197511572766,1214
2284.2914665474727,1196
2286.162751841943,1198
2288.0336073208937,1260
2289.904033264608,1233
2291.774029953448,1251
2293.6435976678554,1210
2295.5127366883517,1237
2297.381447295534,1167
2299.2497297700825,1207
2301.1175843927526,1166
2302.9850114443825,1158
2304.852011205885,1158
2306.7185839582553,1138
2308.5847299825664,1108
2310.4504495599676,1108
2312.3157429716925,1122
2314.1806104990483,1140
2316.0450524234247,1133
2317.9090690262888,1084
2319.772660589186,1116
2321.635827393742,1102
2323.498569721661,1134
2325.3608878547248,1075
2327.2227820747967,1077
2329.0842526638157,1119
2330.945299903803,1086
2332.805924076857,1105
2334.6661254651535,1047
2336.525904350951,1078
2338.3852610165827,1073
2340.244195744464,1101
2342.102708817088,1064
2343.9608005170253,1087
2345.8184711269287,1103
2347.675720929526,1106
2349.532550207628,1082
2351.38895924412,1076
2353.24494832197,1078
2355.100517724223,1095
2356.955667734004,1102
2358.810398634514,1082
2360.664710709037,1056
2362.5186042409337,1103
2364.3720795136437,1099
2366.225136810686,1148
2368.0777764156583,1078
2369.929998612237,1150
2371.7818036841777,1087
2373.633191915315,1118
2375.484163589562,1105
2377.3347189909114,1087
2379.184858403434,1062
2381.03458211128,1136
2382.8838903986775,1064
2384.732783549936,1087
2386.5812618494406,1124
2388.4293255816588,1129
2390.2769750311327,1100
2392.1242104824883,1095
2393.971032220427,1063
2395.8174405297295,1115
2397.6634356952563,1173
2399.509018001947,1119
2401.3541877348193,1069
2403.1989451789705,1132
2405.043290619576,1045
2406.8872243418905,1108
2408.730746631247,1113
2410.5738577730594,1130
2412.4165580528183,1096
2414.258847756095,1100
2416.100727168537,1082
2417.9421965758734,1091
2419.783256263912,1091
2421.623906518538,1072
2423.4641476257157,1057
2425.303979871491,1164
2427.143403541984,1116
2428.9824189233977,1141
2430.821026302012,1123
2432.6592259641866,1103
2434.497018196361,1153
2436.33440328505,1112
2438.171381516851,1106
2440.00795317844,1119
2441.844118556569,1113
2443.6798779380724,1105
2445.5152316098606,1072
2447.3501798589255,1097
2449.1847229723357,1113
2451.0188612372403,1095
2452.8525949408663,1144
2454.6859243705203,1123
2456.518849813587,1127
2458.3513715575314,1113
2460.183489889895,1076
2462.015205098301,1092
2463.8465174704493,1084
2465.67742729412,1104
2467.5079348571717,1107
2469.338040447542,1074
2471.1677443532476,1066
2472.9970468623833,1110
2474.825948263123,1088
2476.6544488437207,1122
2478.482548892508,1113
2480.310248697896,1051
2482.137548548374,1136
2483.9644487325118,1112
2485.790949538956,1129
2487.617051256433,1072
2489.44275417375,1152
2491.26805857979,1102
2493.0929647635157,1137
2494.917473013971,1093
2496.741583620276,1125
2498.5652968716304,1094
2500.3886130573137,1108
2502.2115324666834,1137
2504.0340553891765,1080
2505.856182114308,1083
2507.6779129316733,1106
2509.499248130945,1129
2511.3201880018764,1113
2513.140732834298,1124
2514.9608829181198,1127
2516.780638543331,1081
2518.6,1143
2520.418967578273,1124
2522.237541568376,1099
2524.0557222606144,1100
2525.8735099453706,1088
2527.6909049131086,1144
2529.507907454368,1097
2531.32451785977,1147
2533.140736420014,1117
2534.9565634258774,1131
2536.771999168218,1197
2538.5870439379714,1208
2540.4016980261526,1156
2542.2159617238544,1148
2544.02983532225,1122
2545.8433191125914,1129
2547.656413386209,1125
2549.4691184345115,1184
2551.2814345489874,1149
2553.093362021204,1180
2554.904901142808,1075
2556.716052205523,1181
2558.526815501153,1150
2560.3371913215824,1108
2562.147179958771,1194
2563.956781704761,1160
2565.7659968516705,1148
2567.5748256916986,1128
2569.3832685171224,1149
2571.1913256202984,1135
2572.9989972936614,1182
2574.806283829725,1185
2576.613185521084,1140
2578.4197026604074,1161
2580.2258355404483,1194
2582.031584454035,1149
2583.836949694077,1181
2585.6419315535613,1202
2587.4465303255533,1195
2589.2507463032002,1176
2591.0545797797245,1181
2592.8580310484303,1215
2594.6611004026995,1149
2596.463788135992,1166
2598.266094541849,1191
2600.0680199138874,1165
2601.869564545807,1186
2603.670728731383,1170
2605.4715127644704,1208
2607.2719169390048,1205
2609.071941548998,1209
2610.8715868885433,1204
2612.670853251811,1123
2614.469740933052,1205
2616.268250226594,1159
2618.0663814268455,1157
2619.864134828292,1177
2621.6615107255006,1118
2623.458509413115,1192
2625.2551311858597,1105
2627.0513763385347,1169
2628.8472451660223,1184
2630.6427379632833,1191
2632.4378550253564,1130
2634.232596647359,1147
2636.026963124488,1138
2637.8209547520187,1162
2639.6145718253065,1153
2641.407814639785,1183
2643.200683490966,1171
2644.9931786744414,1188
2646.7853004858807,1124
2648.577049221034,1134
2650.3684251757277,1134
2652.1594286458712,1195
2653.9500599274484,1147
2655.740319316525,1136
2657.5302071092437,1140
2659.3197236018286,1159
2661.10886909058,1185
2662.8976438718782,1161
2664.686048242183,1135
2666.4740824980327,1128
2668.2617469360443,1124
2670.0490418529134,1132
2671.8359675454153,1132
2673.622524310403,1159
2675.408712444811,1140
2677.1945322456495,1145
2678.979984010009,1123
2680.76506803506,1124
2682.5497846180497,1144
2684.334134056306,1097
2686.1181166472343,1080
2687.9017326883213,1160
2689.6849824771293,1136
2691.4678663113013,1134
2693.2503844885596,1163
2695.032537306705,1097
2696.8143250636167,1093
2698.5957480572542,1061
2700.3768065856534,1145
2702.1575009469316,1128
2703.937831439283,1059
2705.717798360982,1079
2707.4974020103837,1070
2709.276642685917,1124
2711.055520686095,1112
2712.834036309506,1056
2714.612189854819,1135
2716.389981620782,1076
2718.1674119062204,1088
2719.944481010041,1094
2721.721189231226,1106
2723.4975368688415,1137
2725.273524222027,1108
2727.0491515900053,1081
2728.824419272075,1091
2730.5993275676146,1079
2732.3738767760838,1091
2734.148067197016,1108
2735.921899130031,1138
2737.6953728748194,1068
2739.468488731156,1084
2741.2412469988926,1081
2743.0136479779617,1121
2744.785691968372,1056
2746.5573792702116,1108
2748.3287101836504,1076
2750.099685008934,1077
2751.870304046388,1094
2753.640567596418,1052
2755.4104759595057,1118
2757.1800294362156,1090
2758.949228327187,1048
2760.7180729331412,1115
2762.486563554877,1088
2764.254700493272,1124
2766.022484049284,1124
2767.789914523947,1065
2769.5569922183786,1083
2771.3237174337705,1100
2773.090090471394,1118
2774.8561116326036,1094
2776.6217812188274,1052
2778.3870995315756,1121
2780.1520668724356,1073
2781.9166835430747,1094
2783.6809498452394,1101
2785.444866080754,1109
2787.2084325515225,1090
2788.971649559527,1084
2790.73451740683,1080
2792.4970363955713,1079
2794.2592068279705,1088
2796.0210290063264,1084
2797.7825032330147,1065
2799.543629810493,1063
2801.304409041296,1072
2803.0648412280366,1086
2804.8249266734088,1147
2806.5846656801846,1059
2808.344058551212,1073
2810.1031055894246,1131
2811.8618070978273,1104
2813.6201633795085,1138
2815.378174737636,1115
2817.1358414754536,1108
2818.893163896285,1078
2820.6501423035334,1074
2822.4067770006814,1133
2824.1630682912883,1067
2825.9190164789957,1077
2827.6746218675207,1095
2829.429884760661,1117
2831.184805462294,1111
2832.9393842763743,1115
2834.693621506936,1082
2836.4475174580916,1179
2838.201072434034,1079
2839.954286739034,1144
2841.707160677441,1153
2843.459694553685,1097
2845.2118886722724,1124
2846.96374333779,1134
2848.7152588549034,1071
2850.4664355283567,1111
2852.217273662973,1111
2853.9677735636546,1102
2855.7179355353833,1075
2857.4677598832186,1073
2859.217246912299,1051
2860.9663969278427,1118
2862.715210235146,1143
2864.4636871395846,1079
2866.211827946614,1055
2867.9596329617652,1091
2869.7071024906536,1082
2871.4542368389684,1120
2873.20103631248,1089
2874.947501217038,1055
2876.6936318585695,1059
2878.4394285430812,1082
2880.1848915766604,1098
2881.9300212654707,1059
2883.6748179157553,1077
2885.4192818338374,1066
2887.1634133261173,1122
2888.907212699077,1092
2890.6506802592744,1152
2892.393816313348,1092
2894.1366211680142,1093
2895.8790951300693,1136
2897.621238506388,1081
2899.363051603925,1067
2901.1045347297118,1076
2902.8456881908596,1088
2904.58651229456,1064
2906.327007348081,1046
2908.067173658772,1074
2909.8070115340597,1105
2911.5465212814497,1058
2913.285703208527,1089
2915.0245576229563,1102
2916.7630848324807,1043
2918.5012851449196,1061
2920.2391588681758,1084
2921.976706310227,1031
2923.7139277791334,1061
2925.4508235830313,1105
2927.187394030137,1111
2928.923639428745,1112
2930.6595600872306,1155
2932.395156314046,1075
2934.1304284177218,1167
2935.8653767068713,1140
2937.6000014901815,1084
2939.3343030764227,1094
2941.068281774442,1099
2942.8019378931644,1131
2944.5352717415976,1124
2946.2682836288236,1128
2948.0009738640065,1127
2949.7333427563885,1105
2951.465390615289,1113
2953.1971177501086,1073
2954.9285244703265,1095
2956.6596110855,1081
2958.3903779052657,1031
2960.1208252393385,1080
2961.8509533975125,1084
2963.5807626896617,1046
2965.3102534257378,1101
2967.0394259157715,1066
2968.768280469873,1096
2970.496817398232,1084
2972.2250370111146,1090
2973.952939618869,1112
2975.6805255319196,1090
2977.4077950607707,1120
2979.134748516006,1131
2980.861386208289,1141
2982.587708448359,1087
2984.313715547037,1086
2986.039407815222,1140
2987.764785563891,1122
2989.489849104102,1103
2991.2145987469908,1093
2992.9390348037705,1071
2994.6631575857346,1057
2996.3869674042576,1084
2998.1104645707887,1061
2999.83364939686,1013
3001.5565221940783,1077
3003.2790832741334,1064
3005.0013329487924,1048
3006.7232715298996,1097
3008.4448993293804,1079
3010.166216659239,1029
3011.887223831558,1091
3013.607921158498,1029
3015.3283089522993,1091
3017.0483875252826,1065
3018.7681571898443,1066
3020.4876182584626,1036
3022.2067710436927,1109
3023.9256158581707,1068
3025.644153014609,1089
3027.362382825801,1072
3029.0803056046193,1066
3030.797921664012,1104
3032.5152313170106,1047
3034.2322348767225,1057
3035.9489326563353,1077
3037.665324969115,1044
3039.3814121284063,1090
3041.097194447633,1078
3042.812672240299,1067
3044.5278458199855,1069
3046.2427155003525,1104
3047.9572815951406,1089
3049.671544418167,1065
3051.38550428333,1092
3053.0991615046073,1081
3054.812516396051,1088
3056.5255692717974,1065
3058.2383204460575,1063
3059.9507702331257,1095
3061.662918947372,1044
3063.3747669032446,1077
3065.0863144152736,1096
3066.7975617980674,1071
3068.508509366309,1099
3070.219157434767,1109
3071.9295063182844,1089
3073.639556331785,1047
3075.3493077902704,1038
3077.058761008821,1100
3078.7679163025964,1068
3080.476773986837,1090
3082.1853343768594,1024
3083.89359778806,1064
3085.6015645359153,1073
3087.3092349359786,1102
3089.016609303884,1067
3090.7236879553434,1100
3092.4304712061476,1105
3094.136959372166,1074
3095.843152769349,1054
3097.5490517137237,1067
3099.2546565213966,1070
3100.959967508554,1095
3102.66498499146,1076
3104.3697092864577,1091
3106.0741407099695,1067
3107.778279578498,1098
3109.482126208622,1029
3111.1856809170004,1019
3112.8889440203716,1082
3114.5919158355528,1064
3116.294596679439,1092
3117.996986869006,1121
3119.6990867213062,1082
3121.4008965534726,1082
3123.102416682717,1087
3124.803647426329,1032
3126.5045891016784,1046
3128.205242026213,1096
3129.90560651746,1049
3131.605682893025,1074
3133.3054714705922,1084
3135.0049725679282,1098
3136.7041865028714,1102
3138.4031135933465,1088
3140.101754157353,1075
3141.800108512971,1069
3143.498176978357,1059
3145.1959598717494,1081
3146.8934575114636,1066
3148.5906702158954,1073
3150.2875983035183,1115
3151.9842420928853,1053
3153.680601902627,1066
3155.376678051456,1035
3157.07247085816,1074
3158.767980641609,1048
3160.463207720748,1115
3162.158152414606,1042
3163.8528150422862,1088
3165.5471959229726,1042
3167.2412953759303,1076
3168.9351137204976,1064
3170.628651276098,1112
3172.3219083622307,1071
3174.014885298474,1088
3175.707582404485,1060
3177.4000000000005,1091
3179.092138404835,1051
3180.7839979388846,1089
3182.47557892212,1075
3184.166881674594,1119
3185.8579065164386,1026
3187.5486537678626,1099
3189.2391237491547,1098
3190.9293167806827,1076
3192.6192331828934,1072
3194.3088732763117,1093
3195.998237381542,1056
3197.687325819268,1102
3199.376138910251,1069
3201.064676975334,1012
3202.7529403354347,1066
3204.4409293115523,1062
3206.1286442247647,1061
3207.816085396229,1036
3209.5032531471825,1117
3211.190147798936,1077
3212.8767696728846,1025
3214.5631190905015,1012
3216.2491963733373,1036
3217.9350018430214,1042
3219.6205358212637,1048
3221.305798629851,1074
3222.990790590651,1068
3224.6755120256103,1055
3226.359963256751,1076
3228.0441446061795,1047
3229.7280563960758,1056
3231.411698948703,1049
3233.0950725863995,1054
3234.778177631587,1071
3236.461014406761,1042
3238.1435832345005,1101
3239.8258844374595,1074
3241.507918338374,1048
3243.1896852600576,1062
3244.8711855254023,1045
3246.552419457381,1041
3248.233387379042,1066
3249.914089613516,1032
3251.59452648401,1048
3253.274698313813,1042
3254.95460542629,1045
3256.6342481448855,1023
3258.313626793125,1013
3259.9927416946084,1076
3261.6715931730196,1045
3263.3501815521176,1099
3265.0285071557437,1058
3266.706570307815,1049
3268.3843713323286,1063
3270.0619105533615,1053
3271.739188295068,1042
3273.4162048816834,1009
3275.0929606375184,1039
3276.769455886966,1029
3278.445690954498,1034
3280.1216661646613,1048
3281.797381842087,1068
3283.4728383114807,1080
3285.1480358976296,1055
3286.8229749253996,1054
3288.4976557197333,1073
3290.172078605655,1058
3291.846243908266,1069
3293.5201519527463,1053
3295.193803064357,1062
3296.8671975684374,1011
3298.5403357904024,1044
3300.21321805575,1047
3301.8858446900567,991
3303.558216018975,1035
3305.23033236824,1042
3306.9021940636603,1052
3308.57380143113,1032
3310.2451547966184,1025
3311.916254486174,1060
3313.5871008259246,1062
3315.2576941420766,1069
3316.9280347609147,1066
3318.5981230088046,1055
3320.2679592121895,1050
3321.9375436975924,1059
3323.606876791612,1044
3325.27595882093,1061
3326.944790112305,1030
3328.6133709925753,1051
3330.2817017886573,1041
3331.949782827547,1053
3333.617614436319,1071
3335.2851969421245,1051
3336.952530672199,1045
3338.619615953853,1042
3340.286453114475,1062
3341.9530424815357,1073
3343.619384382583,1164
3345.2854791452437,1029
3346.951327097224,1095
3348.6169285663073,1069
3350.2822838803577,1070
3351.947393367319,1067
3353.61225735521,1114
3355.2768761721345,1098
3356.9412501462693,1056
3358.605379605873,1068
3360.2692648792827,1080
3361.9329062949146,1027
3363.596304181263,1053
