CollectionTime,7/3/2024 3:07:20 PM
ExposureUsed,3
CalibratedSpectrum
-962.7078968117929,678
-959.9714848408522,693
-957.2358232597828,714
-954.5009119013725,710
-951.7667505983302,729
-949.0333391832855,714
-946.3006774887896,719
-943.5687653473143,710
-940.837602591253,704
-938.1071890529199,690
-935.3775245645503,705
-932.6486089583007,726
-929.9204420662485,725
-927.1930237203925,648
-924.4663537526524,693
-921.7404319948689,714
-919.0152582788041,739
-916.2908324361409,722
-913.5671542984834,715
-910.8442236973568,716
-908.1220404642074,740
-905.4006044304027,711
-902.679915427231,734
-899.959973285902,710
-897.2407778375464,735
-894.5223289132158,730
-891.8046263438832,725
-889.0876699604426,711
-886.3714595937089,710
-883.6559950744183,700
-880.9412762332282,751
-878.2273029007168,730
-875.5140749073835,705
-872.8015920836489,709
-870.0898542598545,735
-867.3788612662631,753
-864.6686129330585,732
-861.9591090903457,770
-859.2503495681506,726
-856.5423341964203,722
-853.8350628050229,706
-851.1285352237478,726
-848.4227512823054,740
-845.7177108103272,761
-843.0134136373656,750
-840.3098595928943,722
-837.6070485063082,753
-834.9049802069229,712
-832.2036545239757,740
-829.5030712866244,690
-826.8032303239481,747
-824.1041314649472,756
-821.4057745385428,755
-818.7081593735775,762
-816.0112857988148,742
-813.3151536429393,721
-810.6197627345566,746
-807.9251129021936,770
-805.2312039742981,748
-802.5380357792392,748
-799.8456081453069,780
-797.1539209007124,761
-794.462973873588,768
-791.772766891987,793
-789.083299783884,789
-786.3945723771743,796
-783.7065844996748,792
-781.0193359791231,765
-778.3328266431781,736
-775.6470563194197,778
-772.9620248353489,758
-770.2777320183878,767
-767.5941776958798,815
-764.9113616950891,778
-762.2292838432011,755
-759.5479439673222,749
-756.8673418944801,738
-754.1874774516235,804
-751.5083504656222,775
-748.8299607632671,779
-746.15230817127,765
-743.475392516264,794
-740.7992136248035,783
-738.1237713233636,786
-735.4490654383407,794
-732.7750957960521,786
-730.1018622227365,782
-727.4293645445534,754
-724.7576025875837,799
-722.0865761778291,780
-719.4162851412126,805
-716.7467293035781,828
-714.0779084906909,772
-711.409822528237,858
-708.7424712418238,817
-706.0758544569796,779
-703.4099719991541,827
-700.7448236937178,828
-698.0804093659622,837
-695.4167288411002,872
-692.7537819442656,826
-690.0915685005134,824
-687.4300883348199,799
-684.7693412720819,866
-682.1093271371178,837
-679.4500457546669,830
-676.7914969493897,832
-674.1336805458676,827
-671.4765963686034,819
-668.8202442420206,835
-666.1646239904642,830
-663.5097354382001,859
-660.8555784094151,866
-658.2021527282176,852
-655.5494582186366,838
-652.8974947046223,857
-650.2462620100463,812
-647.5957599587009,805
-644.9459883742998,872
-642.2969470804776,877
-639.6486359007902,870
-637.0010546587141,858
-634.3542031776476,861
-631.7080812809096,919
-629.0626887917401,869
-626.4180255333008,869
-623.7740913286734,867
-621.1308860008619,907
-618.4884093727904,883
-615.8466612673046,846
-613.2056415071715,876
-610.5653499150785,925
-607.9257863136347,908
-605.28695052537,902
-602.6488423727357,878
-600.0114616781036,876
-597.3748082637674,862
-594.7388819519412,877
-592.1036825647604,889
-589.4692099242818,863
-586.8354638524829,918
-584.2024441712624,925
-581.5701507024403,917
-578.9385832677575,937
-576.3077416888759,896
-573.6776257873787,872
-571.0482353847704,915
-568.4195703024757,884
-565.7916303618415,891
-563.164415384135,915
-560.5379251905453,900
-557.9121596021815,917
-555.2871184400748,939
-552.6628015251767,946
-550.0392086783606,951
-547.4163397204204,969
-544.794194472071,941
-542.1727727539491,950
-539.5520743866118,945
-536.9320991905377,946
-534.3128469861261,1018
-531.6943175936979,978
-529.0765108334947,998
-526.4594265256793,1039
-523.8430644903358,1101
-521.2274245474689,1189
-518.612506517005,1247
-515.9983102187913,1209
-513.3848354725959,1215
-510.77208209810846,1267
-508.16004991493924,1239
-505.5487387426199,1296
-502.9381484006032,1328
-500.3282787082628,1305
-497.71912948489364,1219
-495.1107005497117,1119
-492.5029917218539,1084
-489.8960028203786,1049
-487.28973366426493,1021
-484.68418407241325,976
-482.07935386364494,1038
-479.47524285670266,1000
-476.87185087025,951
-474.2691777228715,1055
-471.66722323307334,1001
-469.0659872192821,1025
-466.4654694998459,1038
-463.86566989303384,1074
-461.26658821703614,1061
-458.66822428996414,1052
-456.07057792985,1067
-453.4736489546475,1054
-450.877437182231,1033
-448.28194243039627,1029
-445.68716451686,1025
-443.09310325926003,1055
-440.49975847515555,1054
-437.9071299820263,1030
-435.31521759727354,1073
-432.72402113821954,1092
-430.13354042210767,1046
-427.5437752661022,1019
-424.95472548728867,989
-422.36639090267386,1030
-419.7787713291855,1062
-417.1918665836721,1091
-414.60567648290385,1095
-412.0202008435715,1101
-409.4354394822874,1135
-406.8513922155845,1116
-404.26805885991723,1134
-401.685439231661,1160
-399.103533147112,1102
-396.522340422488,1053
-393.9418608739278,1086
-391.3620943174908,1067
-388.7830405691583,1010
-386.2046994448317,1017
-383.6270707603344,1004
-381.05015433141045,928
-378.473949973725,867
-375.8984575028645,826
-373.32367673433623,729
-370.74960748356875,710
-368.1762495659117,649
-365.60360279663576,588
-363.03166699093265,543
-360.4604419639154,512
-357.8899275306178,495
-355.32012350599507,464
-352.7510297049233,437
-350.1826459421999,405
-347.61497203254316,414
-345.04800779059235,400
-342.4817530309082,405
-339.91620756797226,407
-337.35137121618743,408
-334.7872437898774,406
-332.22382510328725,404
-329.66111497058273,434
-327.09911320585127,418
-324.53781962310075,447
-321.9772340362607,443
-319.4173562591816,406
-316.8581861056348,439
-314.2997233893127,434
-311.7419679238294,397
-309.1849195227194,425
-306.62857799943856,436
-304.0729431673641,453
-301.51801483979375,443
-298.963792829947,416
-296.41027695096386,446
-293.85746701590574,478
-291.3053628377552,492
-288.7539642294155,498
-286.2032710037115,440
-283.65328297338897,423
-281.1039999511146,454
-278.5554217494762,458
-276.007548180983,462
-273.4603790580651,504
-270.9139141930734,481
-268.3681533982807,486
-265.8230964858798,487
-263.27874326798565,497
-260.7350935566336,489
-258.1921471637804,499
-255.6499039013039,512
-253.10836358100266,530
-250.56752601459698,500
-248.02739101372765,493
-245.48795838995704,492
-242.94922795476816,489
-240.41119951956557,518
-237.8738728956746,505
-235.33724789434166,593
-232.80132432673452,537
-230.2661020039418,534
-227.73158073697357,508
-225.19776033676033,545
-222.66464061415422,523
-220.1322213799284,522
-217.60050244477725,506
-215.06948361931552,538
-212.53916471408013,520
-210.00954553952818,550
-207.48062590603843,539
-204.9524056239104,570
-202.4248845033651,586
-199.8980623545441,554
-197.37193898751036,538
-194.84651421224817,552
-192.32178783866232,572
-189.79775967657952,572
-187.27442953574644,562
-184.7517972258321,560
-182.2298625564256,549
-179.7086253370378,538
-177.18808537710026,562
-174.66824248596583,624
-172.14909647290835,614
-169.6306471471229,646
-167.11289431772548,642
-164.59583779375328,659
-162.07947738416453,641
-159.5638128978386,660
-157.04884414357605,706
-154.53457093009854,783
-152.02099306604828,768
-149.50811035998936,612
-146.99592262040665,676
-144.48442965570587,678
-141.97363127421409,709
-139.46352728417958,781
-136.95411749377126,786
-134.44540171107985,747
-131.93737974411636,696
-129.43005140081357,955
-126.92341648902493,1327
-124.41747481652521,1392
-121.91222619101006,1436
-119.40767042009657,1444
-116.90380731132257,1675
-114.40063667214702,1837
-111.8981583099503,1586
-109.3963720320337,1325
-106.89527764561933,1642
-104.39487495785067,2435
-101.89516377579241,3280
-99.39614390642998,4079
-96.89781515667039,4618
-94.40017733334128,4308
-91.90323024319173,4053
-89.40697369289148,3469
-86.91140748903172,3224
-84.41653143812482,3771
-81.92234534660395,3917
-79.42884902082358,2952
-76.93604226705907,2754
-74.4439248915071,3675
-71.95249670028534,4974
-69.46175749943245,5490
-66.97170709490854,5694
-64.48234529259423,5409
-61.99367189829195,5566
-59.50568671772464,5612
-57.01838955653636,5024
-54.53178022029283,5132
-52.045858514480074,5507
-49.560624244506016,6249
-47.07607721569923,6510
-44.59221723330904,6953
-42.10904410250669,6304
-39.62655762838392,5238
-37.14475761595372,5051
-34.66364387015028,5215
-32.18321619582866,5090
-29.70347439776515,5876
-27.224418280657005,7270
-24.74604764912317,7664
-22.26836230770266,10645
-19.7913620608565,18292
-17.315046712966478,32402
-14.83941606833514,44852
-12.36446993118659,64666
-9.89020810566592,65042
-7.416630395839093,65042
-4.94373660569363,65042
-2.471526539137585,65042
-6.821210263296962E-13,65042
2.47084320796705,65042
4.941003281093458,65042
7.410480415786196,65042
9.879274808531363,65042
12.347386655893956,65042
14.814816154518212,65042
17.28156350112681,65042
19.74762889252179,65042
22.21301252558385,19449
24.67771459727237,2920
27.141735304626195,1783
29.605074844762612,1603
32.06773341487792,1408
34.52971121224755,1308
36.99100843422559,1155
39.45162527824516,1111
41.91156194181792,1174
44.370818622535126,1137
46.82939551806646,915
49.287292826160524,863
51.74451074464503,994
54.201049471426245,1013
56.65690920448981,1014
59.112090141899785,850
61.56659248179983,789
64.02041642241159,909
66.4735621620365,877
68.92602989905402,832
71.37781983192338,842
73.82893215918205,911
76.27936707944684,1036
78.72912479141326,1063
81.17820549385567,878
83.62660938562783,804
86.07433666566146,821
88.5213875329681,726
90.96776218663751,739
93.41346082583925,813
95.85848364982041,840
98.30283085790859,781
100.7465026495089,763
103.18949922410604,795
105.63182078126385,792
108.07346752062438,805
110.51443964190923,766
112.95473734491827,775
115.39436082953114,691
117.83331029570547,675
120.27158594347827,695
122.7091879729652,842
125.1461165843615,853
127.58237197794062,762
130.01795435405518,687
132.4528639131364,677
134.88710085569494,661
137.32066538231982,685
139.75355769367923,795
142.1857779905207,738
144.61732647366978,668
147.04820334403132,640
149.47840880258934,689
151.90794305040674,710
154.33680628862487,810
156.76499871846443,909
159.19252054122433,1002
161.61937195828352,1083
164.04555317109896,1172
166.47106438120693,1361
168.89590579022217,1435
171.320077599839,1553
173.7435800118302,1543
176.16641322804742,1604
178.58857745042144,1668
181.01007288096173,1830
183.43089972175687,1836
185.85105817497413,1904
188.27054844285988,1934
190.6893707277394,1981
193.10752523201643,2018
195.5250121581745,2088
197.9418317087751,2162
200.3579840864594,2111
202.7734694939469,2148
205.18828813403627,2111
207.6024402096051,2207
210.01592592360964,2286
212.42874547908548,2193
214.84089907914665,2286
217.2523869269868,2207
219.66320922587727,2247
222.0733661791695,2275
224.48285799029293,2216
226.8916848627572,2232
229.29984700014882,2308
231.7073446061355,2387
234.11417788446204,2271
236.520347038953,2310
238.92585227351185,2283
241.33069379212054,2404
243.73487179884035,2394
246.1383864978112,2344
248.541238093252,2394
250.9434267894609,2353
253.34495279081432,2448
255.74581630176783,2418
258.1460175268563,2320
260.54555667069314,2398
262.9444339379703,2348
265.3426495334594,2397
267.7402036620107,2377
270.1370965285529,2382
272.53332833809407,2371
274.9288992957214,2275
277.32380960660055,2199
279.718059475976,2253
282.1116491091717,2252
284.5045787115897,2298
286.89684848871195,2257
289.2884586460981,2254
291.67940938938807,2346
294.0697009242996,2272
296.4593334566299,2295
298.84830719225477,2265
301.23662233712923,2291
303.6242790972866,2282
306.01127767884,2323
308.39761828798066,2253
310.78330113097934,2272
313.16832641418534,2191
315.5526943440269,2207
317.9364051270112,2226
320.3194589697242,2235
322.70185607883093,2226
325.0835966610754,2200
327.4646809232805,2207
329.8451090723478,2195
332.2248813152577,2115
334.6039978590701,2166
336.9824589109231,2205
339.36026467803447,2180
341.7374153677,2143
344.113911187295,2179
346.48975234427337,2135
348.8649390461686,2102
351.2394715005918,2067
353.61334991523415,2174
355.9865744978655,2111
358.35914545633375,2107
360.73106299856715,2104
363.10232733257146,2214
365.47293866643247,2137
367.84289720831396,2169
370.2122031664593,2149
372.5808567491905,2088
374.9488581649083,2070
377.31620762209275,2135
379.6829053293021,2153
382.0489514951745,2159
384.4143463284262,2119
386.7790900378528,2183
389.14318283232853,2092
391.50662492080653,2136
393.86941651231916,2109
396.23155781597745,2124
398.5930490409713,2080
400.9538903965696,2120
403.3140820921202,2056
405.6736243370498,2102
408.03251734086336,2051
410.3907613131465,2048
412.74835646356166,1972
415.10530300185144,2010
417.4616011378372,1989
419.81725108141893,2115
422.1722530425758,2147
424.5266072313656,2067
426.880313857925,2045
429.2333731324701,2091
431.58578526529516,2055
433.9375504667738,2073
436.2886689473588,2112
438.63914091758113,2062
440.9889665880513,2094
443.33814616945835,1970
445.68667987257015,2026
448.03456790823395,2009
450.3818104873759,2022
452.72840782100013,2014
455.07436012019105,2006
457.41966759611057,1980
459.7643304600007,2089
462.10834892318155,2029
464.4517231970525,1994
466.79445349309174,2023
469.1365400228566,2027
471.4779829979826,1990
473.81878263018564,2079
476.15893913125876,2037
478.4984527130747,2025
480.8373235875855,2015
483.17555196682144,2034
485.5131380628919,2144
487.8500820879857,2109
490.1863842543697,2118
492.52204477439034,2069
494.8570638604725,2193
497.1914417251204,2224
499.52517858091653,2391
501.85827464052306,2566
504.19073011668036,2714
506.5225452222086,2934
508.85372017000566,3027
511.18425517304956,3082
513.514150444396,3313
515.8434061971808,3989
518.1720226446176,4788
520.4999999999999,5030
522.8273384766991,4696
525.1540382881666,4081
527.480099647932,3771
529.8055227696037,3187
532.1303078668694,2642
534.454455153496,2255
536.777964843328,2227
539.1008371502907,2177
541.4230722883866,2169
543.744670471698,2076
546.0656319143858,2014
548.3859568306899,2102
550.7056454349294,2096
553.0246979415016,2014
555.3431145648834,2083
557.6608955196306,2027
559.978041020377,2065
562.2945512818363,2101
564.6104265188006,2123
566.9256669461412,2030
569.2402727788082,2070
571.5542442318302,2112
573.8675815203156,2006
576.1802848594508,2078
578.4923544645015,2075
580.8037905508126,2161
583.114593333807,2071
585.4247630289875,2110
587.7342998519354,2111
590.0432040183106,1999
592.3514757438526,2130
594.6591152443794,2055
596.9661227357875,2062
599.2724984340531,2087
601.578242555231,2099
603.8833553154542,2143
606.1878369309362,2142
608.4916876179676,2113
610.7949075929192,2054
613.0974970722403,2027
615.3994562724587,2051
617.7007854101818,2107
620.0014847020951,2148
622.3015543649641,2052
624.6009946156324,2136
626.8998056710224,2048
629.1979877481361,2065
631.4955410640538,2150
633.7924658359349,2110
636.0887622810175,2155
638.3844306166192,2072
640.6794710601358,2145
642.9738838290426,2112
645.2676691408932,2160
647.5608272133207,2063
649.853358264037,2116
652.1452625108324,2207
654.4365401715764,2151
656.7271914642178,2151
659.0172166067838,2205
661.3066158173809,2133
663.5953893141935,2154
665.8835373154867,2162
668.1710600396028,2134
670.4579577049639,2152
672.7442305300709,2148
675.0298787335033,2175
677.3149025339197,2114
679.599302150058,2155
681.8830778007342,2186
684.1662297048437,2134
686.4487580813608,2232
688.7306631493387,2184
691.0119451279091,2122
693.2926042362834,2191
695.5726406937516,2199
697.8520547196814,2202
700.1308465335215,2118
702.4090163547982,2197
704.6865644031171,2189
706.9634908981619,2239
709.2397960596965,2182
711.5154801075631,2185
713.7905432616823,2153
716.0649857420548,2153
718.3388077687592,2200
720.612009561953,2172
722.8845913418733,2214
725.1565533288352,2226
727.427895743234,2213
729.6986188055427,2136
731.9687227363137,2145
734.238207756178,2135
736.5070740858458,2138
738.7753219461066,2173
741.0429515578281,2206
743.3099631419569,2245
745.5763569195191,2164
747.8421331116193,2090
750.1072919394409,2204
752.3718336242467,2281
754.6357583873777,2258
756.8990664502545,2254
759.1617580343765,2275
761.423833361321,2212
763.6852926527457,2155
765.9461361303862,2195
768.206364016058,2238
770.4659765316536,2222
772.7249738991469,2287
774.9833563405886,2275
777.2411240781092,2243
779.4982773339183,2207
781.7548163303044,2249
784.010741289634,2188
786.2660524343538,2328
788.5207499869881,2174
790.7748341701416,2263
793.0283052064964,2283
795.2811633188143,2268
797.5334087299362,2206
799.7850416627813,2280
802.0360623403484,2198
804.2864709857143,2351
806.5362678220353,2351
808.7854530725468,2226
811.0340269605625,2350
813.2819897094754,2309
815.5293415427581,2217
817.77608268396,2272
820.0222133567116,2265
822.2677337847211,2227
824.5126441917765,2190
826.7569448017433,2223
829.0006358385675,2174
831.2437175262731,2224
833.4861900889629,2260
835.7280537508192,2227
837.9693087361026,2346
840.2099552691533,2252
842.4499935743896,2230
844.689423876309,2286
846.9282463994886,2317
849.1664613685833,2234
851.4040690083276,2255
853.6410695435349,2242
855.877463199097,2268
858.1132501999847,2254
860.3484307712487,2254
862.5830051380175,2282
864.8169735254988,2263
867.0503361589791,2279
869.2830932638243,2310
871.5152450654786,2302
873.7467917894654,2313
875.9777336613873,2302
878.2080709069252,2289
880.4378037518389,2209
882.666932421968,2292
884.8954571432301,2253
887.1233781416219,2205
889.3506956432192,2312
891.5774098741766,2275
893.803521060728,2332
896.0290294291852,2200
898.2539352059397,2221
900.4782386174619,2334
902.7019398903011,2252
904.925039251085,2248
907.147536926521,2314
909.3694331433943,2245
911.59072812857,2269
913.8114221089921,2252
916.0315153116827,2234
918.2510079637437,2198
920.4699002923547,2282
922.6881925247761,2290
924.905884888345,2174
927.1229776104793,2239
929.3394709186747,2216
931.555365040506,2263
933.7706602036275,2171
935.9853566357709,2237
938.1994545647489,2289
940.4129542184515,2368
942.6258558248488,2223
944.8381596119883,2333
947.0498658079974,2316
949.2609746410825,2209
951.4714863395287,2158
953.6814011316998,2188
955.8907192460387,2334
958.0994409110671,2288
960.3075663553858,2243
962.5150958076741,2251
964.7220294966913,2259
966.928367651274,2201
969.1341105003388,2294
971.3392582728806,2309
973.5438111979742,2236
975.747769504772,2247
977.9511334225061,2248
980.153903180487,2262
982.3560790081052,2242
984.5576611348289,2252
986.7586497902058,2209
988.9590452038618,2147
991.158847605503,2224
993.3580572249133,2222
995.5566742919558,2168
997.7546990365728,2194
999.952131688785,2149
1002.1489724786926,2106
1004.3452216364743,2110
1006.5408793923874,2063
1008.7359459767691,2136
1010.9304216200343,2057
1013.1243065526781,2053
1015.3176010052733,2099
1017.510305208472,2082
1019.7024193930064,2061
1021.8939437896848,2099
1024.0848786293977,2098
1026.2752241431122,2082
1028.4649805618747,1985
1030.6541481168115,1999
1032.842727039127,1995
1035.0307175601051,2007
1037.2181199111074,2057
1039.4049343235752,2002
1041.591161029029,1993
1043.7768002590683,2016
1045.9618522453698,2032
1048.1463172196918,2068
1050.3301954138697,2023
1052.513487059818,2076
1054.69619238953,2088
1056.8783116350783,2043
1059.0598450286152,2096
1061.2407928023704,2103
1063.4211551886528,2043
1065.6009324198508,2066
1067.780124728432,2028
1069.9587323469414,2061
1072.1367555080046,2086
1074.314194444325,2057
1076.4910493886855,1991
1078.667320573947,2089
1080.843008233051,2027
1083.0181125990161,2029
1085.1926339049414,1990
1087.3665723840027,1990
1089.5399282694575,2061
1091.7127017946405,2102
1093.8848931929647,1956
1096.0565026979243,2095
1098.2275305430899,2023
1100.3979769621128,2029
1102.567842188722,2051
1104.737126456726,1978
1106.9058300000124,1977
1109.0739530525475,1985
1111.2414958483764,1971
1113.4084586216231,2077
1115.5748416064907,1989
1117.7406450372605,1959
1119.9058691482942,1948
1122.0705141740304,2057
1124.2345803489884,2082
1126.3980679077658,2063
1128.5609770850388,2011
1130.7233081155623,1966
1132.8850612341707,1982
1135.0462366757774,1981
1137.2068346753745,2013
1139.3668554680326,2041
1141.526299288901,1988
1143.68516637321,2031
1145.8434569562655,2055
1148.001171273455,1977
1150.158309560244,2083
1152.3148720521767,2105
1154.470858984876,1989
1156.626270594044,1989
1158.7811071154629,2069
1160.9353687849912,1982
1163.089055838569,1996
1165.242168512213,2037
1167.3947070420209,1970
1169.5466716641677,1999
1171.6980626149075,1985
1173.8488801305748,2042
1175.9991244475814,1940
1178.1487958024186,2007
1180.2978944316555,1983
1182.4464205719428,2006
1184.5943744600072,1946
1186.7417563326567,2033
1188.8885664267755,1979
1191.0348049793297,1961
1193.1804722273619,1994
1195.325568407995,2037
1197.4700937584303,1971
1199.614048515948,1984
1201.7574329179074,2064
1203.900247201746,2060
1206.042491604982,2019
1208.1841663652099,2094
1210.3252717201053,2021
1212.465807907422,2020
1214.6057751649923,2004
1216.7451737307279,2094
1218.8840038426192,2039
1221.0222657387353,2093
1223.1599596572241,2004
1225.2970858363137,2065
1227.4336445143094,2128
1229.5696359295966,2050
1231.705060320639,2050
1233.8399179259786,2018
1235.9742089842384,2063
1238.107933734118,2037
1240.2410924143974,2097
1242.373685263935,1994
1244.5057125216676,2090
1246.6371744266116,2029
1248.7680712178621,2017
1250.898403134593,2080
1253.028170416058,2139
1255.1573733015875,2042
1257.2860120305932,2110
1259.4140868425648,2054
1261.54159797707,2082
1263.6685456737569,2063
1265.7949301723515,2007
1267.9207517126597,2055
1270.046010534565,2081
1272.1707068780306,2158
1274.2948409830983,2058
1276.4184130898889,2197
1278.541423438603,2110
1280.6638722695184,2086
1282.785759822993,2124
1284.9070863394636,2075
1287.0278520594447,2163
1289.1480572235314,2141
1291.2677020723963,2182
1293.3867868467923,2129
1295.5053117875495,2211
1297.623277135579,2189
1299.740683131868,2161
1301.8575300174857,2203
1303.973818033578,2183
1306.0895474213703,2190
1308.2047184221678,2171
1310.3193312773528,2230
1312.4333862283888,2236
1314.5468835168163,2257
1316.659823384255,2267
1318.7722060724045,2367
1320.8840318230418,2295
1322.9953008780249,2293
1325.1060134792888,2199
1327.2161698688478,2317
1329.3257702887959,2247
1331.4348149813054,2276
1333.5433041886276,2262
1335.6512381530933,2318
1337.7586171171101,2288
1339.8654413231675,2213
1341.9717110138317,2285
1344.0774264317488,2212
1346.1825878196432,2341
1348.2871954203192,2203
1350.3912494766587,2195
1352.4947502316231,2201
1354.5976979282532,2221
1356.7000928096686,2227
1358.8019351190665,2070
1360.9032250997243,2214
1363.0039629949988,2171
1365.1041490483235,2214
1367.2037835032133,2260
1369.3028666032606,2128
1371.401398592137,2320
1373.4993797135926,2214
1375.5968102114575,2198
1377.6936903296396,2241
1379.7900203121262,2149
1381.8858004029835,2116
1383.9810308463561,2202
1386.075711886469,2159
1388.1698437676241,2153
1390.2634267342032,2175
1392.356461030667,2126
1394.4489469015557,2219
1396.5408845914872,2146
1398.6322743451592,2221
1400.7231164073469,2243
1402.813411022907,2220
1404.903158436773,2178
1406.9923588939578,2187
1409.0810126395531,2180
1411.1691199187303,2229
1413.2566809767386,2202
1415.343696058907,2248
1417.4301654106425,2286
1419.5160892774315,2143
1421.6014679048399,2174
1423.6863015385125,2132
1425.7705904241707,2225
1427.8543348076178,2199
1429.9375349347342,2134
1432.0201910514802,2252
1434.102303403894,2212
1436.1838722380944,2174
1438.2648978002767,2200
1440.3453803367174,2201
1442.4253200937692,2252
1444.5047173178677,2228
1446.5835722555234,2218
1448.6618851533285,2167
1450.739656257952,2165
1452.8168858161434,2181
1454.8935740747306,2231
1456.96972128062,2290
1459.045327680797,2222
1461.120393522327,2246
1463.1949190523528,2267
1465.2689045180973,2332
1467.3423501668608,2240
1469.415256246024,2322
1471.4876230030463,2255
1473.559450685465,2256
1475.6307395408976,2284
1477.7014898170391,2287
1479.771701761665,2265
1481.8413756226287,2325
1483.9105116478618,2346
1485.9791100853772,2288
1488.0471711832643,2363
1490.1146951896926,2422
1492.1816823529098,2382
1494.2481329212433,2345
1496.3140471430984,2348
1498.3794252669609,2362
1500.4442675413939,2395
1502.5085742150404,2310
1504.572345536622,2337
1506.6355817549388,2406
1508.6982831188702,2431
1510.7604498773744,2425
1512.8220822794883,2388
1514.8831805743293,2427
1516.9437450110909,2395
1519.003775839048,2425
1521.0632733075522,2423
1523.1222376660367,2326
1525.1806691640113,2508
1527.2385680510652,2503
1529.2959345768668,2497
1531.3527689911643,2408
1533.4090715437833,2523
1535.4648424846291,2451
1537.5200820636855,2497
1539.5747905310159,2551
1541.6289681367616,2517
1543.6826151311434,2620
1545.7357317644614,2522
1547.7883182870937,2612
1549.8403749494987,2721
1551.8919020022113,2655
1553.9428996958477,2673
1555.9933682811015,2700
1558.0433080087469,2667
1560.0927191296346,2717
1562.1416018946961,2786
1564.1899565549415,2790
1566.2377833614592,2825
1568.2850825654164,2775
1570.3318544180606,2784
1572.3780991707158,2842
1574.423817074788,2713
1576.4690083817595,2716
1578.5136733431923,2685
1580.5578122107272,2640
1582.601425236085,2630
1584.6445126710646,2585
1586.6870747675434,2622
1588.7291117774776,2509
1590.7706239529034,2604
1592.8116115459347,2496
1594.8520748087658,2471
1596.8920139936686,2394
1598.9314293529933,2451
1600.9703211391711,2374
1603.008689604711,2375
1605.0465350022005,2364
1607.0838575843068,2305
1609.1206576037753,2399
1611.1569353134305,2297
1613.1926909661765,2287
1615.2279248149953,2272
1617.2626371129481,2324
1619.2968281131757,2227
1621.3304980688963,2275
1623.3636472334088,2224
1625.39627586009,2262
1627.428384202396,2185
1629.459972513861,2211
1631.4910410480993,2220
1633.5215900588028,2236
1635.551619799744,2242
1637.5811305247717,2137
1639.6101224878166,2149
1641.6385959428862,2173
1643.6665511440683,2102
1645.693988345528,2126
1647.7209078015112,2211
1649.7473097663405,2117
1651.7731944944203,2190
1653.7985622402307,2151
1655.823413258333,2091
1657.847747803366,2104
1659.8715661300494,2201
1661.8948684931793,2130
1663.9176551476316,2117
1665.9399263483624,2077
1667.9616823504057,2118
1669.982923408873,2092
1672.0036497789574,2068
1674.0238617159293,2189
1676.043559475138,2131
1678.0627433120121,2176
1680.081413482059,2097
1682.0995702408654,2024
1684.117213844096,2140
1686.134344547495,2182
1688.1509626068864,2104
1690.1670682781705,2081
1692.182661817329,2091
1694.1977434804217,2186
1696.2123135235875,2093
1698.226372203043,2079
1700.2399197750851,2094
1702.2529564960905,2156
1704.2654826225112,2057
1706.277498410882,2095
1708.2890041178139,2108
1710.2999999999988,2121
1712.3104863142066,2080
1714.3204633172854,2137
1716.329931266163,2083
1718.3388904178469,2061
1720.3473410294214,2129
1722.3552833580516,2149
1724.3627176609807,2137
1726.3696441955308,2136
1728.3760632191033,2149
1730.3819749891782,2142
1732.3873797633146,2172
1734.3922777991502,2082
1736.3966693544012,2111
1738.4005546868639,2110
1740.4039340544127,2146
1742.406807715001,2059
1744.4091759266616,2120
1746.4110389475054,2093
1748.4123970357223,2077
1750.413250449582,2110
1752.4135994474318,2183
1754.4134442876993,2138
1756.4127852288902,2136
1758.4116225295893,2103
1760.4099564484595,2093
1762.407787244244,2106
1764.405115175764,2131
1766.4019405019203,2070
1768.3982634816916,2052
1770.3940843741357,2110
1772.3894034383907,2091
1774.3842209336717,2095
1776.378537119274,2072
1778.372352254571,2061
1780.3656665990156,2092
1782.3584804121397,2084
1784.3507939535534,2054
1786.3426074829463,2094
1788.3339212600863,2110
1790.3247355448211,2126
1792.3150505970766,2143
1794.3048666768573,2106
1796.2941840442477,2059
1798.2830029594106,2136
1800.2713236825884,2092
1802.2591464741004,2080
1804.2464715943465,2078
1806.2332993038058,2194
1808.2196298630352,2104
1810.2054635326708,2062
1812.190800573428,2192
1814.175641246101,2065
1816.1599858115628,2120
1818.1438345307652,2162
1820.127187664738,2127
1822.1100454745924,2130
1824.092408221516,2115
1826.0742761667766,2139
1828.055649571721,2105
1830.0365286977735,2019
1832.0169138064398,2034
1833.9968051593014,2110
1835.9762030180214,2111
1837.9551076443408,2128
1839.9335193000788,2154
1841.9114382471344,2086
1843.888864747485,2083
1845.8657990631878,2122
1847.842241456378,2076
1849.8181921892697,2111
1851.7936515241558,2134
1853.7686197234098,2147
1855.7430970494815,2059
1857.7170837649014,2168
1859.6905801322787,2013
1861.6635864143004,2111
1863.6361028737338,2126
1865.608129773424,2087
1867.5796673762961,2087
1869.5507159453537,2156
1871.521275743678,2179
1873.4913470344313,2067
1875.4609300808534,2084
1877.4300251462632,2157
1879.3986324940588,2161
1881.366752387717,2107
1883.3343850907936,2110
1885.3015308669228,2167
1887.268189979819,2153
1889.2343626932739,2106
1891.2000492711595,2215
1893.1652499774254,2176
1895.1299650761011,2116
1897.0941948312952,2118
1899.0579395071945,2147
1901.0211993680641,2087
1902.98397467825,2116
1904.9462657021745,2100
1906.9080727043415,2143
1908.869395949332,2106
1910.8302357018065,2103
1912.790592226504,2126
1914.7504657882428,2117
1916.7098566519212,2194
1918.6687650825133,2126
1920.6271913450764,2086
1922.5851357047422,2180
1924.5425984267245,2124
1926.499579776314,2027
1928.4560800188833,2129
1930.4120994198802,2167
1932.367638244833,2170
1934.32269675935,2178
1936.2772752291175,2182
1938.231373919899,2060
1940.1849930975404,2142
1942.1381330279637,2138
1944.0907939771696,2111
1946.0429762112412,2105
1947.9946799963363,2189
1949.9459055986945,2130
1951.896653284633,2067
1953.8469233205478,2030
1955.7967159729142,2185
1957.7460315082863,2170
1959.6948701932974,2133
1961.6432322946594,2101
1963.5911180791632,2162
1965.5385278136787,2057
1967.4854617651545,2157
1969.4319202006182,2155
1971.377903387176,2114
1973.3234115920136,2192
1975.268445082395,2074
1977.2130041256642,2136
1979.1570889892423,2107
1981.1006999406304,2065
1983.04383724741,2154
1984.986501177238,2164
1986.928691997853,2112
1988.8704099770712,2180
1990.811655382789,2094
1992.7524284829801,2101
1994.692729545698,2174
1996.6325588390755,2164
1998.5719166313224,2107
2000.5108031907307,2131
2002.4492187856677,2175
2004.387163684583,2203
2006.3246381560011,2106
2008.2616424685298,2131
2010.1981768908527,2093
2012.1342416917332,2194
2014.069837140014,2165
2016.0049635046162,2108
2017.9396210545406,2161
2019.8738100588666,2112
2021.8075307867502,2094
2023.740783507431,2133
2025.6735684902228,2158
2027.6058860045214,2149
2029.5377363198004,2147
2031.4691197056118,2160
2033.4000364315875,2050
2035.3304867674374,2132
2037.260470982952,2138
2039.189989347998,2174
2041.1190421325232,2127
2043.047629606554,2171
2044.9757520401945,2079
2046.9034097036288,2222
2048.8306028671195,2162
2050.7573318010086,2110
2052.683596775716,2083
2054.609398061742,2177
2056.5347359296647,2188
2058.4596106501403,2230
2060.384022493906,2161
2062.3079717317764,2150
2064.231458634646,2084
2066.1544834734873,2217
2068.077046519352,2071
2069.99914804337,2230
2071.9207883167524,2153
2073.8419676107865,2200
2075.7626861968406,2224
2077.6829443463607,2219
2079.6027423308715,2195
2081.522080421977,2168
2083.440958891362,2105
2085.359378010786,2165
2087.2773380520907,2141
2089.194839287196,2235
2091.111881988101,2136
2093.0284664268825,2123
2094.9445928756973,2225
2096.86026160678,2144
2098.775472892446,2138
2100.690227005088,2114
2102.604524217178,2241
2104.5183648012676,2157
2106.431749029985,2168
2108.34467717604,2150
2110.2571495122206,2125
2112.169166311393,2172
2114.080727846503,2148
2115.9918343905747,2208
2117.902486216711,2163
2119.8126835980956,2165
2121.722426807987,2227
2123.6317161197285,2206
2125.5405518067364,2205
2127.448934142509,2166
2129.356863400624,2216
2131.264339854737,2174
2133.1713637785815,2153
2135.077935445972,2185
2136.9840551308002,2133
2138.889723107037,2158
2140.7949396487334,2243
2142.699705030018,2181
2144.6040195250994,2142
2146.507883408264,2202
2148.4112969538774,2151
2150.3142604363848,2143
2152.2167741303097,2235
2154.1188383102535,2214
2156.0204532508997,2214
2157.9216192270064,2263
2159.822336513414,2173
2161.7226053850413,2211
2163.622426116884,2223
2165.5217989840185,2230
2167.4207242616,2216
2169.319202224862,2166
2171.2172331491165,2199
2173.1148173097563,2231
2175.0119549822507,2193
2176.90864644215,2173
2178.8048919650823,2204
2180.7006918267534,2207
2182.596046302952,2253
2184.4909556695407,2227
2186.3854202024645,2186
2188.279440177746,2223
2190.173015871487,2226
2192.066147559868,2207
2193.958835519149,2243
2195.851080025667,2246
2197.7428813558417,2225
2199.6342397861667,2260
2201.5251555932186,2259
2203.415629053651,2203
2205.3056604441986,2287
2207.19525004167,2259
2209.084398122958,2223
2210.9731049650327,2249
2212.861370844941,2215
2214.749196039812,2209
2216.636580826851,2237
2218.523525483344,2311
2220.410030286655,2302
2222.296095514226,2266
2224.1817214435805,2278
2226.066908352319,2320
2227.951656518121,2296
2229.835966218746,2291
2231.71983773203,2325
2233.6032713358913,2339
2235.486267308324,2277
2237.3688259274036,2224
2239.2509474712824,2273
2241.132632218193,2236
2243.013880446447,2290
2244.8946924344323,2254
2246.7750684606203,2324
2248.6550088035574,2275
2250.534513741871,2283
2252.413583554265,2236
2254.292218519526,2219
2256.170418916517,2175
2258.0481850241786,2178
2259.925517121534,2271
2261.8024154876825,2181
2263.678880401803,2265
2265.5549121431536,2279
2267.430510991071,2331
2269.305677224971,2300
2271.180411124348,2260
2273.0547129687766,2251
2274.9285830379076,2263
2276.8020216114737,2299
2278.6750289692845,2300
2280.5476053912294,2279
2282.4197511572766,2209
2284.2914665474727,2280
2286.162751841943,2282
2288.0336073208937,2289
2289.904033264608,2289
2291.774029953448,2352
2293.6435976678554,2254
2295.5127366883517,2273
2297.381447295534,2289
2299.2497297700825,2183
2301.1175843927526,2136
2302.9850114443825,2143
2304.852011205885,2173
2306.7185839582553,2211
2308.5847299825664,2211
2310.4504495599676,2170
2312.3157429716925,2189
2314.1806104990483,2184
2316.0450524234247,2239
2317.9090690262888,2176
2319.772660589186,2207
2321.635827393742,2246
2323.498569721661,2227
2325.3608878547248,2111
2327.2227820747967,2213
2329.0842526638157,2170
2330.945299903803,2179
2332.805924076857,2250
2334.6661254651535,2115
2336.525904350951,2221
2338.3852610165827,2234
2340.244195744464,2241
2342.102708817088,2173
2343.9608005170253,2266
2345.8184711269287,2205
2347.675720929526,2203
2349.532550207628,2174
2351.38895924412,2203
2353.24494832197,2261
2355.100517724223,2240
2356.955667734004,2205
2358.810398634514,2217
2360.664710709037,2226
2362.5186042409337,2223
2364.3720795136437,2156
2366.225136810686,2195
2368.0777764156583,2243
2369.929998612237,2170
2371.7818036841777,2254
2373.633191915315,2252
2375.484163589562,2219
2377.3347189909114,2178
2379.184858403434,2234
2381.03458211128,2179
2382.8838903986775,2212
2384.732783549936,2257
2386.5812618494406,2225
2388.4293255816588,2177
2390.2769750311327,2185
2392.1242104824883,2279
2393.971032220427,2245
2395.8174405297295,2278
2397.6634356952563,2248
2399.509018001947,2216
2401.3541877348193,2189
2403.1989451789705,2262
2405.043290619576,2140
2406.8872243418905,2221
2408.730746631247,2156
2410.5738577730594,2188
2412.4165580528183,2170
2414.258847756095,2239
2416.100727168537,2259
2417.9421965758734,2182
2419.783256263912,2182
2421.623906518538,2244
2423.4641476257157,2182
2425.303979871491,2203
2427.143403541984,2242
2428.9824189233977,2224
2430.821026302012,2274
2432.6592259641866,2240
2434.497018196361,2273
2436.33440328505,2201
2438.171381516851,2255
2440.00795317844,2310
2441.844118556569,2248
2443.6798779380724,2281
2445.5152316098606,2230
2447.3501798589255,2237
2449.1847229723357,2187
2451.0188612372403,2276
2452.8525949408663,2208
2454.6859243705203,2220
2456.518849813587,2235
2458.3513715575314,2314
2460.183489889895,2251
2462.015205098301,2308
2463.8465174704493,2197
2465.67742729412,2318
2467.5079348571717,2235
2469.338040447542,2280
2471.1677443532476,2274
2472.9970468623833,2241
2474.825948263123,2316
2476.6544488437207,2225
2478.482548892508,2268
2480.310248697896,2224
2482.137548548374,2324
2483.9644487325118,2217
2485.790949538956,2304
2487.617051256433,2316
2489.44275417375,2303
2491.26805857979,2311
2493.0929647635157,2274
2494.917473013971,2249
2496.741583620276,2323
2498.5652968716304,2235
2500.3886130573137,2289
2502.2115324666834,2236
2504.0340553891765,2288
2505.856182114308,2298
2507.6779129316733,2281
2509.499248130945,2334
2511.3201880018764,2266
2513.140732834298,2269
2514.9608829181198,2251
2516.780638543331,2252
2518.6,2293
2520.418967578273,2374
2522.237541568376,2262
2524.0557222606144,2326
2525.8735099453706,2296
2527.6909049131086,2250
2529.507907454368,2274
2531.32451785977,2299
2533.140736420014,2340
2534.9565634258774,2253
2536.771999168218,2323
2538.5870439379714,2337
2540.4016980261526,2305
2542.2159617238544,2262
2544.02983532225,2379
2545.8433191125914,2322
2547.656413386209,2322
2549.4691184345115,2353
2551.2814345489874,2280
2553.093362021204,2397
2554.904901142808,2357
2556.716052205523,2297
2558.526815501153,2364
2560.3371913215824,2335
2562.147179958771,2342
2563.956781704761,2420
2565.7659968516705,2298
2567.5748256916986,2327
2569.3832685171224,2347
2571.1913256202984,2379
2572.9989972936614,2281
2574.806283829725,2321
2576.613185521084,2348
2578.4197026604074,2408
2580.2258355404483,2371
2582.031584454035,2408
2583.836949694077,2440
2585.6419315535613,2366
2587.4465303255533,2370
2589.2507463032002,2374
2591.0545797797245,2324
2592.8580310484303,2365
2594.6611004026995,2380
2596.463788135992,2349
2598.266094541849,2391
2600.0680199138874,2431
2601.869564545807,2344
2603.670728731383,2495
2605.4715127644704,2449
2607.2719169390048,2475
2609.071941548998,2330
2610.8715868885433,2435
2612.670853251811,2350
2614.469740933052,2413
2616.268250226594,2308
2618.0663814268455,2391
2619.864134828292,2311
2621.6615107255006,2315
2623.458509413115,2382
2625.2551311858597,2377
2627.0513763385347,2409
2628.8472451660223,2420
2630.6427379632833,2438
2632.4378550253564,2412
2634.232596647359,2434
2636.026963124488,2404
2637.8209547520187,2363
2639.6145718253065,2391
2641.407814639785,2392
2643.200683490966,2415
2644.9931786744414,2365
2646.7853004858807,2347
2648.577049221034,2359
2650.3684251757277,2308
2652.1594286458712,2403
2653.9500599274484,2395
2655.740319316525,2410
2657.5302071092437,2322
2659.3197236018286,2454
2661.10886909058,2354
2662.8976438718782,2417
2664.686048242183,2383
2666.4740824980327,2355
2668.2617469360443,2383
2670.0490418529134,2356
2671.8359675454153,2370
2673.622524310403,2337
2675.408712444811,2339
2677.1945322456495,2398
2678.979984010009,2390
2680.76506803506,2326
2682.5497846180497,2282
2684.334134056306,2344
2686.1181166472343,2347
2687.9017326883213,2291
2689.6849824771293,2269
2691.4678663113013,2260
2693.2503844885596,2373
2695.032537306705,2348
2696.8143250636167,2367
2698.5957480572542,2262
2700.3768065856534,2301
2702.1575009469316,2302
2703.937831439283,2333
2705.717798360982,2277
2707.4974020103837,2334
2709.276642685917,2369
2711.055520686095,2321
2712.834036309506,2272
2714.612189854819,2315
2716.389981620782,2329
2718.1674119062204,2338
2719.944481010041,2359
2721.721189231226,2326
2723.4975368688415,2307
2725.273524222027,2313
2727.0491515900053,2326
2728.824419272075,2374
2730.5993275676146,2261
2732.3738767760838,2313
2734.148067197016,2363
2735.921899130031,2299
2737.6953728748194,2237
2739.468488731156,2292
2741.2412469988926,2301
2743.0136479779617,2250
2744.785691968372,2209
2746.5573792702116,2234
2748.3287101836504,2275
2750.099685008934,2354
2751.870304046388,2214
2753.640567596418,2308
2755.4104759595057,2265
2757.1800294362156,2303
2758.949228327187,2330
2760.7180729331412,2333
2762.486563554877,2302
2764.254700493272,2327
2766.022484049284,2387
2767.789914523947,2291
2769.5569922183786,2269
2771.3237174337705,2270
2773.090090471394,2288
2774.8561116326036,2314
2776.6217812188274,2290
2778.3870995315756,2300
2780.1520668724356,2287
2781.9166835430747,2312
2783.6809498452394,2323
2785.444866080754,2266
2787.2084325515225,2366
2788.971649559527,2323
2790.73451740683,2314
2792.4970363955713,2350
2794.2592068279705,2244
2796.0210290063264,2348
2797.7825032330147,2358
2799.543629810493,2341
2801.304409041296,2282
2803.0648412280366,2312
2804.8249266734088,2334
2806.5846656801846,2314
2808.344058551212,2334
2810.1031055894246,2280
2811.8618070978273,2347
2813.6201633795085,2300
2815.378174737636,2326
2817.1358414754536,2348
2818.893163896285,2289
2820.6501423035334,2271
2822.4067770006814,2374
2824.1630682912883,2362
2825.9190164789957,2340
2827.6746218675207,2348
2829.429884760661,2348
2831.184805462294,2333
2832.9393842763743,2426
2834.693621506936,2441
2836.4475174580916,2415
2838.201072434034,2351
2839.954286739034,2300
2841.707160677441,2347
2843.459694553685,2359
2845.2118886722724,2356
2846.96374333779,2271
2848.7152588549034,2437
2850.4664355283567,2440
2852.217273662973,2386
2853.9677735636546,2344
2855.7179355353833,2324
2857.4677598832186,2352
2859.217246912299,2372
2860.9663969278427,2366
2862.715210235146,2406
2864.4636871395846,2361
2866.211827946614,2355
2867.9596329617652,2367
2869.7071024906536,2285
2871.4542368389684,2355
2873.20103631248,2310
2874.947501217038,2370
2876.6936318585695,2338
2878.4394285430812,2345
2880.1848915766604,2347
2881.9300212654707,2343
2883.6748179157553,2309
2885.4192818338374,2386
2887.1634133261173,2371
2888.907212699077,2299
2890.6506802592744,2420
2892.393816313348,2430
2894.1366211680142,2394
2895.8790951300693,2383
2897.621238506388,2347
2899.363051603925,2403
2901.1045347297118,2372
2902.8456881908596,2385
2904.58651229456,2408
2906.327007348081,2398
2908.067173658772,2367
2909.8070115340597,2345
2911.5465212814497,2321
2913.285703208527,2342
2915.0245576229563,2320
2916.7630848324807,2349
2918.5012851449196,2339
2920.2391588681758,2320
2921.976706310227,2324
2923.7139277791334,2284
2925.4508235830313,2299
2927.187394030137,2314
2928.923639428745,2334
2930.6595600872306,2348
2932.395156314046,2335
2934.1304284177218,2384
2935.8653767068713,2405
2937.6000014901815,2317
2939.3343030764227,2368
2941.068281774442,2376
2942.8019378931644,2343
2944.5352717415976,2430
2946.2682836288236,2390
2948.0009738640065,2414
2949.7333427563885,2340
2951.465390615289,2398
2953.1971177501086,2376
2954.9285244703265,2392
2956.6596110855,2298
2958.3903779052657,2386
2960.1208252393385,2402
2961.8509533975125,2384
2963.5807626896617,2392
2965.3102534257378,2300
2967.0394259157715,2393
2968.768280469873,2339
2970.496817398232,2348
2972.2250370111146,2331
2973.952939618869,2336
2975.6805255319196,2298
2977.4077950607707,2443
2979.134748516006,2418
2980.861386208289,2412
2982.587708448359,2386
2984.313715547037,2395
2986.039407815222,2394
2987.764785563891,2433
2989.489849104102,2410
2991.2145987469908,2379
2992.9390348037705,2384
2994.6631575857346,2407
2996.3869674042576,2413
2998.1104645707887,2328
2999.83364939686,2377
3001.5565221940783,2317
3003.2790832741334,2347
3005.0013329487924,2326
3006.7232715298996,2349
3008.4448993293804,2374
3010.166216659239,2349
3011.887223831558,2380
3013.607921158498,2403
3015.3283089522993,2478
3017.0483875252826,2346
3018.7681571898443,2462
3020.4876182584626,2377
3022.2067710436927,2342
3023.9256158581707,2400
3025.644153014609,2380
3027.362382825801,2380
3029.0803056046193,2428
3030.797921664012,2314
3032.5152313170106,2374
3034.2322348767225,2381
3035.9489326563353,2421
3037.665324969115,2406
3039.3814121284063,2424
3041.097194447633,2440
3042.812672240299,2396
3044.5278458199855,2345
3046.2427155003525,2400
3047.9572815951406,2435
3049.671544418167,2386
3051.38550428333,2433
3053.0991615046073,2386
3054.812516396051,2381
3056.5255692717974,2387
3058.2383204460575,2366
3059.9507702331257,2405
3061.662918947372,2303
3063.3747669032446,2356
3065.0863144152736,2382
3066.7975617980674,2446
3068.508509366309,2396
3070.219157434767,2389
3071.9295063182844,2392
3073.639556331785,2411
3075.3493077902704,2405
3077.058761008821,2431
3078.7679163025964,2403
3080.476773986837,2402
3082.1853343768594,2390
3083.89359778806,2356
3085.6015645359153,2339
3087.3092349359786,2408
3089.016609303884,2364
3090.7236879553434,2376
3092.4304712061476,2421
3094.136959372166,2413
3095.843152769349,2462
3097.5490517137237,2364
3099.2546565213966,2426
3100.959967508554,2429
3102.66498499146,2382
3104.3697092864577,2398
3106.0741407099695,2409
3107.778279578498,2469
3109.482126208622,2439
3111.1856809170004,2408
3112.8889440203716,2414
3114.5919158355528,2415
3116.294596679439,2532
3117.996986869006,2390
3119.6990867213062,2408
3121.4008965534726,2374
3123.102416682717,2430
3124.803647426329,2412
3126.5045891016784,2446
3128.205242026213,2456
3129.90560651746,2405
3131.605682893025,2433
3133.3054714705922,2485
3135.0049725679282,2419
3136.7041865028714,2520
3138.4031135933465,2426
3140.101754157353,2458
3141.800108512971,2460
3143.498176978357,2456
3145.1959598717494,2393
3146.8934575114636,2419
3148.5906702158954,2344
3150.2875983035183,2448
3151.9842420928853,2409
3153.680601902627,2456
3155.376678051456,2434
3157.07247085816,2379
3158.767980641609,2401
3160.463207720748,2437
3162.158152414606,2484
3163.8528150422862,2344
3165.5471959229726,2389
3167.2412953759303,2507
3168.9351137204976,2410
3170.628651276098,2516
3172.3219083622307,2455
3174.014885298474,2410
3175.707582404485,2477
3177.4000000000005,2454
3179.092138404835,2465
3180.7839979388846,2457
3182.47557892212,2496
3184.166881674594,2477
3185.8579065164386,2456
3187.5486537678626,2403
3189.2391237491547,2516
3190.9293167806827,2409
3192.6192331828934,2450
3194.3088732763117,2408
3195.998237381542,2422
3197.687325819268,2492
3199.376138910251,2425
3201.064676975334,2393
3202.7529403354347,2435
3204.4409293115523,2386
3206.1286442247647,2467
3207.816085396229,2508
3209.5032531471825,2375
3211.190147798936,2388
3212.8767696728846,2430
3214.5631190905015,2452
3216.2491963733373,2427
3217.9350018430214,2366
3219.6205358212637,2452
3221.305798629851,2416
3222.990790590651,2335
3224.6755120256103,2353
3226.359963256751,2351
3228.0441446061795,2439
3229.7280563960758,2402
3231.411698948703,2344
3233.0950725863995,2448
3234.778177631587,2465
3236.461014406761,2455
3238.1435832345005,2464
3239.8258844374595,2404
3241.507918338374,2501
3243.1896852600576,2533
3244.8711855254023,2494
3246.552419457381,2454
3248.233387379042,2483
3249.914089613516,2469
3251.59452648401,2447
3253.274698313813,2468
3254.95460542629,2435
3256.6342481448855,2402
3258.313626793125,2411
3259.9927416946084,2445
3261.6715931730196,2372
3263.3501815521176,2445
3265.0285071557437,2426
3266.706570307815,2409
3268.3843713323286,2359
3270.0619105533615,2438
3271.739188295068,2439
3273.4162048816834,2447
3275.0929606375184,2453
3276.769455886966,2458
3278.445690954498,2492
3280.1216661646613,2451
3281.797381842087,2409
3283.4728383114807,2371
3285.1480358976296,2434
3286.8229749253996,2432
3288.4976557197333,2453
3290.172078605655,2470
3291.846243908266,2373
3293.5201519527463,2426
3295.193803064357,2381
3296.8671975684374,2450
3298.5403357904024,2404
3300.21321805575,2430
3301.8858446900567,2431
3303.558216018975,2516
3305.23033236824,2416
3306.9021940636603,2519
3308.57380143113,2374
3310.2451547966184,2447
3311.916254486174,2455
3313.5871008259246,2539
3315.2576941420766,2478
3316.9280347609147,2399
3318.5981230088046,2442
3320.2679592121895,2431
3321.9375436975924,2390
3323.606876791612,2420
3325.27595882093,2357
3326.944790112305,2380
3328.6133709925753,2528
3330.2817017886573,2372
3331.949782827547,2423
3333.617614436319,2414
3335.2851969421245,2499
3336.952530672199,2467
3338.619615953853,2388
3340.286453114475,2458
3341.9530424815357,2473
3343.619384382583,2522
3345.2854791452437,2506
3346.951327097224,2576
3348.6169285663073,2491
3350.2822838803577,2467
3351.947393367319,2439
3353.61225735521,2500
3355.2768761721345,2516
3356.9412501462693,2448
3358.605379605873,2475
3360.2692648792827,2490
3361.9329062949146,2450
3363.596304181263,2450
