CollectionTime,6/26/2024 2:28:50 PM
ExposureUsed,3
CalibratedSpectrum
-962.7078968117929,1628
-959.9714848408522,1626
-957.2358232597828,1649
-954.5009119013725,1613
-951.7667505983302,1594
-949.0333391832855,1577
-946.3006774887896,1628
-943.5687653473143,1647
-940.837602591253,1628
-938.1071890529199,1642
-935.3775245645503,1612
-932.6486089583007,1641
-929.9204420662485,1677
-927.1930237203925,1685
-924.4663537526524,1639
-921.7404319948689,1585
-919.0152582788041,1673
-916.2908324361409,1640
-913.5671542984834,1707
-910.8442236973568,1629
-908.1220404642074,1748
-905.4006044304027,1654
-902.679915427231,1600
-899.959973285902,1637
-897.2407778375464,1608
-894.5223289132158,1638
-891.8046263438832,1620
-889.0876699604426,1625
-886.3714595937089,1649
-883.6559950744183,1662
-880.9412762332282,1604
-878.2273029007168,1697
-875.5140749073835,1642
-872.8015920836489,1651
-870.0898542598545,1651
-867.3788612662631,1642
-864.6686129330585,1687
-861.9591090903457,1709
-859.2503495681506,1618
-856.5423341964203,1653
-853.8350628050229,1672
-851.1285352237478,1623
-848.4227512823054,1628
-845.7177108103272,1599
-843.0134136373656,1558
-840.3098595928943,1658
-837.6070485063082,1685
-834.9049802069229,1692
-832.2036545239757,1650
-829.5030712866244,1622
-826.8032303239481,1660
-824.1041314649472,1637
-821.4057745385428,1581
-818.7081593735775,1613
-816.0112857988148,1716
-813.3151536429393,1656
-810.6197627345566,1689
-807.9251129021936,1655
-805.2312039742981,1747
-802.5380357792392,1686
-799.8456081453069,1764
-797.1539209007124,1695
-794.462973873588,1674
-791.772766891987,1679
-789.083299783884,1721
-786.3945723771743,1718
-783.7065844996748,1712
-781.0193359791231,1709
-778.3328266431781,1774
-775.6470563194197,1791
-772.9620248353489,1734
-770.2777320183878,1626
-767.5941776958798,1724
-764.9113616950891,1747
-762.2292838432011,1720
-759.5479439673222,1636
-756.8673418944801,1703
-754.1874774516235,1748
-751.5083504656222,1679
-748.8299607632671,1690
-746.15230817127,1661
-743.475392516264,1705
-740.7992136248035,1700
-738.1237713233636,1688
-735.4490654383407,1673
-732.7750957960521,1756
-730.1018622227365,1728
-727.4293645445534,1704
-724.7576025875837,1795
-722.0865761778291,1745
-719.4162851412126,1727
-716.7467293035781,1810
-714.0779084906909,1880
-711.409822528237,1824
-708.7424712418238,1817
-706.0758544569796,1797
-703.4099719991541,1798
-700.7448236937178,1805
-698.0804093659622,1766
-695.4167288411002,1779
-692.7537819442656,1741
-690.0915685005134,1771
-687.4300883348199,1798
-684.7693412720819,1773
-682.1093271371178,1859
-679.4500457546669,1761
-676.7914969493897,1815
-674.1336805458676,1799
-671.4765963686034,1815
-668.8202442420206,1818
-666.1646239904642,1759
-663.5097354382001,1816
-660.8555784094151,1809
-658.2021527282176,1818
-655.5494582186366,1899
-652.8974947046223,1910
-650.2462620100463,1875
-647.5957599587009,1875
-644.9459883742998,1909
-642.2969470804776,1878
-639.6486359007902,1931
-637.0010546587141,1958
-634.3542031776476,1964
-631.7080812809096,1938
-629.0626887917401,1899
-626.4180255333008,1902
-623.7740913286734,1853
-621.1308860008619,1940
-618.4884093727904,1897
-615.8466612673046,1943
-613.2056415071715,1933
-610.5653499150785,1823
-607.9257863136347,1975
-605.28695052537,1818
-602.6488423727357,1893
-600.0114616781036,1895
-597.3748082637674,1974
-594.7388819519412,1898
-592.1036825647604,1888
-589.4692099242818,1930
-586.8354638524829,1907
-584.2024441712624,1911
-581.5701507024403,1935
-578.9385832677575,1959
-576.3077416888759,1916
-573.6776257873787,1861
-571.0482353847704,2021
-568.4195703024757,1980
-565.7916303618415,1955
-563.164415384135,1997
-560.5379251905453,1989
-557.9121596021815,1936
-555.2871184400748,2065
-552.6628015251767,1991
-550.0392086783606,2001
-547.4163397204204,2036
-544.794194472071,2012
-542.1727727539491,1976
-539.5520743866118,1960
-536.9320991905377,2072
-534.3128469861261,2142
-531.6943175936979,2071
-529.0765108334947,2077
-526.4594265256793,2177
-523.8430644903358,2337
-521.2274245474689,2361
-518.612506517005,2628
-515.9983102187913,2641
-513.3848354725959,2776
-510.77208209810846,2884
-508.16004991493924,2841
-505.5487387426199,2965
-502.9381484006032,3126
-500.3282787082628,3293
-497.71912948489364,3314
-495.1107005497117,3365
-492.5029917218539,3304
-489.8960028203786,3153
-487.28973366426493,2992
-484.68418407241325,2798
-482.07935386364494,2581
-479.47524285670266,2459
-476.87185087025,2538
-474.2691777228715,2502
-471.66722323307334,2433
-469.0659872192821,2224
-466.4654694998459,2291
-463.86566989303384,2317
-461.26658821703614,2338
-458.66822428996414,2282
-456.07057792985,2355
-453.4736489546475,2300
-450.877437182231,2266
-448.28194243039627,2341
-445.68716451686,2201
-443.09310325926003,2154
-440.49975847515555,2293
-437.9071299820263,2217
-435.31521759727354,2183
-432.72402113821954,2189
-430.13354042210767,2295
-427.5437752661022,2217
-424.95472548728867,2249
-422.36639090267386,2322
-419.7787713291855,2260
-417.1918665836721,2289
-414.60567648290385,2244
-412.0202008435715,2306
-409.4354394822874,2277
-406.8513922155845,2309
-404.26805885991723,2335
-401.685439231661,2307
-399.103533147112,2278
-396.522340422488,2320
-393.9418608739278,2319
-391.3620943174908,2277
-388.7830405691583,2233
-386.2046994448317,2126
-383.6270707603344,2004
-381.05015433141045,1907
-378.473949973725,1680
-375.8984575028645,1538
-373.32367673433623,1371
-370.74960748356875,1222
-368.1762495659117,1091
-365.60360279663576,1005
-363.03166699093265,889
-360.4604419639154,812
-357.8899275306178,730
-355.32012350599507,657
-352.7510297049233,639
-350.1826459421999,659
-347.61497203254316,646
-345.04800779059235,617
-342.4817530309082,574
-339.91620756797226,567
-337.35137121618743,541
-334.7872437898774,547
-332.22382510328725,596
-329.66111497058273,652
-327.09911320585127,664
-324.53781962310075,615
-321.9772340362607,645
-319.4173562591816,707
-316.8581861056348,714
-314.2997233893127,681
-311.7419679238294,683
-309.1849195227194,750
-306.62857799943856,611
-304.0729431673641,568
-301.51801483979375,610
-298.963792829947,654
-296.41027695096386,630
-293.85746701590574,678
-291.3053628377552,810
-288.7539642294155,785
-286.2032710037115,818
-283.65328297338897,849
-281.1039999511146,787
-278.5554217494762,779
-276.007548180983,725
-273.4603790580651,759
-270.9139141930734,756
-268.3681533982807,871
-265.8230964858798,757
-263.27874326798565,723
-260.7350935566336,749
-258.1921471637804,848
-255.6499039013039,917
-253.10836358100266,812
-250.56752601459698,779
-248.02739101372765,782
-245.48795838995704,820
-242.94922795476816,882
-240.41119951956557,893
-237.8738728956746,1035
-235.33724789434166,1079
-232.80132432673452,913
-230.2661020039418,1118
-227.73158073697357,969
-225.19776033676033,886
-222.66464061415422,998
-220.1322213799284,869
-217.60050244477725,848
-215.06948361931552,887
-212.53916471408013,894
-210.00954553952818,876
-207.48062590603843,877
-204.9524056239104,1109
-202.4248845033651,1298
-199.8980623545441,1119
-197.37193898751036,949
-194.84651421224817,1010
-192.32178783866232,1023
-189.79775967657952,945
-187.27442953574644,989
-184.7517972258321,1011
-182.2298625564256,927
-179.7086253370378,1088
-177.18808537710026,1092
-174.66824248596583,1046
-172.14909647290835,1099
-169.6306471471229,1094
-167.11289431772548,1052
-164.59583779375328,1037
-162.07947738416453,1103
-159.5638128978386,1096
-157.04884414357605,1172
-154.53457093009854,1173
-152.02099306604828,1028
-149.50811035998936,1074
-146.99592262040665,1191
-144.48442965570587,1275
-141.97363127421409,1458
-139.46352728417958,1522
-136.95411749377126,1513
-134.44540171107985,1726
-131.93737974411636,1718
-129.43005140081357,1664
-126.92341648902493,1528
-124.41747481652521,1570
-121.91222619101006,1666
-119.40767042009657,1385
-116.90380731132257,1210
-114.40063667214702,1300
-111.8981583099503,1442
-109.3963720320337,1446
-106.89527764561933,1444
-104.39487495785067,1707
-101.89516377579241,1813
-99.39614390642998,1693
-96.89781515667039,1791
-94.40017733334128,2005
-91.90323024319173,2073
-89.40697369289148,1911
-86.91140748903172,1875
-84.41653143812482,1831
-81.92234534660395,1836
-79.42884902082358,1959
-76.93604226705907,2250
-74.4439248915071,2248
-71.95249670028534,2304
-69.46175749943245,2444
-66.97170709490854,2760
-64.48234529259423,3203
-61.99367189829195,3074
-59.50568671772464,3061
-57.01838955653636,2999
-54.53178022029283,3315
-52.045858514480074,4023
-49.560624244506016,4198
-47.07607721569923,3998
-44.59221723330904,3683
-42.10904410250669,4007
-39.62655762838392,5251
-37.14475761595372,6540
-34.66364387015028,7458
-32.18321619582866,7847
-29.70347439776515,8349
-27.224418280657005,9362
-24.74604764912317,12997
-22.26836230770266,20747
-19.7913620608565,32108
-17.315046712966478,44571
-14.83941606833514,52790
-12.36446993118659,65039
-9.89020810566592,65039
-7.416630395839093,65039
-4.94373660569363,65039
-2.471526539137585,65039
-6.821210263296962E-13,65039
2.47084320796705,65039
4.941003281093458,65039
7.410480415786196,65039
9.879274808531363,65039
12.347386655893956,65039
14.814816154518212,65039
17.28156350112681,65039
19.74762889252179,65039
22.21301252558385,65039
24.67771459727237,65039
27.141735304626195,40733
29.605074844762612,19828
32.06773341487792,14229
34.52971121224755,11601
36.99100843422559,10461
39.45162527824516,10327
41.91156194181792,12277
44.370818622535126,15023
46.82939551806646,15874
49.287292826160524,15388
51.74451074464503,12904
54.201049471426245,10916
56.65690920448981,7573
59.112090141899785,4150
61.56659248179983,3769
64.02041642241159,3619
66.4735621620365,3745
68.92602989905402,3642
71.37781983192338,3450
73.82893215918205,2667
76.27936707944684,2472
78.72912479141326,2736
81.17820549385567,3228
83.62660938562783,3344
86.07433666566146,2812
88.5213875329681,2865
90.96776218663751,2693
93.41346082583925,2645
95.85848364982041,2313
98.30283085790859,2370
100.7465026495089,2444
103.18949922410604,2453
105.63182078126385,2159
108.07346752062438,2392
110.51443964190923,2409
112.95473734491827,2172
115.39436082953114,1902
117.83331029570547,1896
120.27158594347827,1841
122.7091879729652,1755
125.1461165843615,1622
127.58237197794062,1496
130.01795435405518,1325
132.4528639131364,1541
134.88710085569494,1707
137.32066538231982,1594
139.75355769367923,1576
142.1857779905207,1697
144.61732647366978,1556
147.04820334403132,1447
149.47840880258934,1558
151.90794305040674,1752
154.33680628862487,2062
156.76499871846443,2201
159.19252054122433,2240
161.61937195828352,2320
164.04555317109896,2399
166.47106438120693,2770
168.89590579022217,3314
171.320077599839,3373
173.7435800118302,3397
176.16641322804742,3575
178.58857745042144,3710
181.01007288096173,3957
183.43089972175687,4136
185.85105817497413,4105
188.27054844285988,4121
190.6893707277394,4326
193.10752523201643,4273
195.5250121581745,4535
197.9418317087751,4572
200.3579840864594,4602
202.7734694939469,4678
205.18828813403627,4689
207.6024402096051,4672
210.01592592360964,4592
212.42874547908548,4674
214.84089907914665,4560
217.2523869269868,4536
219.66320922587727,4673
222.0733661791695,4666
224.48285799029293,4744
226.8916848627572,4828
229.29984700014882,4803
231.7073446061355,4937
234.11417788446204,4993
236.520347038953,4903
238.92585227351185,4991
241.33069379212054,5074
243.73487179884035,4990
246.1383864978112,4767
248.541238093252,4860
250.9434267894609,4929
253.34495279081432,4893
255.74581630176783,4748
258.1460175268563,4998
260.54555667069314,4923
262.9444339379703,4683
265.3426495334594,4690
267.7402036620107,4893
270.1370965285529,4717
272.53332833809407,4717
274.9288992957214,4793
277.32380960660055,4703
279.718059475976,4751
282.1116491091717,4531
284.5045787115897,4746
286.89684848871195,4730
289.2884586460981,4682
291.67940938938807,4671
294.0697009242996,4687
296.4593334566299,4591
298.84830719225477,4645
301.23662233712923,4551
303.6242790972866,4561
306.01127767884,4497
308.39761828798066,4628
310.78330113097934,4444
313.16832641418534,4501
315.5526943440269,4623
317.9364051270112,4461
320.3194589697242,4353
322.70185607883093,4346
325.0835966610754,4342
327.4646809232805,4323
329.8451090723478,4314
332.2248813152577,4347
334.6039978590701,4300
336.9824589109231,4370
339.36026467803447,4246
341.7374153677,4346
344.113911187295,4230
346.48975234427337,4276
348.8649390461686,4145
351.2394715005918,4287
353.61334991523415,4113
355.9865744978655,4248
358.35914545633375,4155
360.73106299856715,4287
363.10232733257146,4211
365.47293866643247,4258
367.84289720831396,4205
370.2122031664593,4180
372.5808567491905,4091
374.9488581649083,4077
377.31620762209275,4180
379.6829053293021,4088
382.0489514951745,4145
384.4143463284262,4233
386.7790900378528,4079
389.14318283232853,4062
391.50662492080653,4087
393.86941651231916,4044
396.23155781597745,3919
398.5930490409713,3969
400.9538903965696,3853
403.3140820921202,3979
405.6736243370498,4041
408.03251734086336,4034
410.3907613131465,4036
412.74835646356166,4106
415.10530300185144,3980
417.4616011378372,4045
419.81725108141893,3974
422.1722530425758,4027
424.5266072313656,4027
426.880313857925,3965
429.2333731324701,3943
431.58578526529516,4096
433.9375504667738,4012
436.2886689473588,4115
438.63914091758113,3876
440.9889665880513,3982
443.33814616945835,3954
445.68667987257015,3905
448.03456790823395,3885
450.3818104873759,3984
452.72840782100013,4108
455.07436012019105,4076
457.41966759611057,3960
459.7643304600007,3976
462.10834892318155,3976
464.4517231970525,4028
466.79445349309174,4166
469.1365400228566,4079
471.4779829979826,4055
473.81878263018564,4152
476.15893913125876,4092
478.4984527130747,4145
480.8373235875855,4145
483.17555196682144,4140
485.5131380628919,4176
487.8500820879857,4507
490.1863842543697,4618
492.52204477439034,4810
494.8570638604725,5082
497.1914417251204,5429
499.52517858091653,5540
501.85827464052306,5841
504.19073011668036,5685
506.5225452222086,5402
508.85372017000566,5514
511.18425517304956,5380
513.514150444396,5486
515.8434061971808,6172
518.1720226446176,6805
520.4999999999999,7122
522.8273384766991,7448
525.1540382881666,7627
527.480099647932,7482
529.8055227696037,6532
532.1303078668694,5279
534.454455153496,4604
536.777964843328,4155
539.1008371502907,4010
541.4230722883866,4059
543.744670471698,3974
546.0656319143858,3908
548.3859568306899,3785
550.7056454349294,3836
553.0246979415016,3802
555.3431145648834,3842
557.6608955196306,3878
559.978041020377,3875
562.2945512818363,3721
564.6104265188006,3934
566.9256669461412,3966
569.2402727788082,3720
571.5542442318302,3849
573.8675815203156,3902
576.1802848594508,3882
578.4923544645015,3897
580.8037905508126,3784
583.114593333807,3951
585.4247630289875,3906
587.7342998519354,3932
590.0432040183106,3910
592.3514757438526,3852
594.6591152443794,3841
596.9661227357875,3831
599.2724984340531,3835
601.578242555231,3827
603.8833553154542,3893
606.1878369309362,3900
608.4916876179676,3979
610.7949075929192,4062
613.0974970722403,3935
615.3994562724587,3961
617.7007854101818,3837
620.0014847020951,3815
622.3015543649641,3917
624.6009946156324,3827
626.8998056710224,3967
629.1979877481361,3866
631.4955410640538,3879
633.7924658359349,3933
636.0887622810175,3950
638.3844306166192,3885
640.6794710601358,3864
642.9738838290426,3898
645.2676691408932,3899
647.5608272133207,3886
649.853358264037,3941
652.1452625108324,3854
654.4365401715764,3982
656.7271914642178,3908
659.0172166067838,3933
661.3066158173809,3851
663.5953893141935,3852
665.8835373154867,4031
668.1710600396028,3855
670.4579577049639,4135
672.7442305300709,3918
675.0298787335033,4040
677.3149025339197,4014
679.599302150058,3930
681.8830778007342,3941
684.1662297048437,3974
686.4487580813608,4027
688.7306631493387,4042
691.0119451279091,3982
693.2926042362834,3982
695.5726406937516,3978
697.8520547196814,4064
700.1308465335215,4082
702.4090163547982,3966
704.6865644031171,4039
706.9634908981619,3933
709.2397960596965,4032
711.5154801075631,4000
713.7905432616823,3974
716.0649857420548,3956
718.3388077687592,4028
720.612009561953,4083
722.8845913418733,4088
725.1565533288352,4018
727.427895743234,3991
729.6986188055427,4012
731.9687227363137,4066
734.238207756178,4020
736.5070740858458,4043
738.7753219461066,4065
741.0429515578281,4004
743.3099631419569,3977
745.5763569195191,4076
747.8421331116193,4087
750.1072919394409,4082
752.3718336242467,4014
754.6357583873777,4116
756.8990664502545,3985
759.1617580343765,3990
761.423833361321,4029
763.6852926527457,4070
765.9461361303862,4179
768.206364016058,4073
770.4659765316536,4089
772.7249738991469,4204
774.9833563405886,4041
777.2411240781092,4015
779.4982773339183,4063
781.7548163303044,4129
784.010741289634,4137
786.2660524343538,4189
788.5207499869881,4044
790.7748341701416,4148
793.0283052064964,4074
795.2811633188143,4195
797.5334087299362,4141
799.7850416627813,4126
802.0360623403484,4127
804.2864709857143,4141
806.5362678220353,4052
808.7854530725468,4160
811.0340269605625,4100
813.2819897094754,4193
815.5293415427581,4045
817.77608268396,4048
820.0222133567116,4011
822.2677337847211,4143
824.5126441917765,4163
826.7569448017433,4064
829.0006358385675,4084
831.2437175262731,4180
833.4861900889629,4191
835.7280537508192,4179
837.9693087361026,4235
840.2099552691533,4088
842.4499935743896,4053
844.689423876309,4073
846.9282463994886,4192
849.1664613685833,4178
851.4040690083276,4131
853.6410695435349,4047
855.877463199097,4058
858.1132501999847,4213
860.3484307712487,4171
862.5830051380175,4048
864.8169735254988,4132
867.0503361589791,4189
869.2830932638243,4296
871.5152450654786,4264
873.7467917894654,4191
875.9777336613873,4083
878.2080709069252,4244
880.4378037518389,4143
882.666932421968,4161
884.8954571432301,4268
887.1233781416219,4208
889.3506956432192,4246
891.5774098741766,4183
893.803521060728,4178
896.0290294291852,4266
898.2539352059397,4262
900.4782386174619,4288
902.7019398903011,4282
904.925039251085,4271
907.147536926521,4182
909.3694331433943,4160
911.59072812857,4175
913.8114221089921,4292
916.0315153116827,4084
918.2510079637437,4140
920.4699002923547,4186
922.6881925247761,4200
924.905884888345,4214
927.1229776104793,4074
929.3394709186747,4131
931.555365040506,4195
933.7706602036275,4196
935.9853566357709,4187
938.1994545647489,4142
940.4129542184515,4128
942.6258558248488,4173
944.8381596119883,4111
947.0498658079974,4177
949.2609746410825,4228
951.4714863395287,4097
953.6814011316998,4206
955.8907192460387,4215
958.0994409110671,4205
960.3075663553858,4106
962.5150958076741,4122
964.7220294966913,4195
966.928367651274,4204
969.1341105003388,4170
971.3392582728806,4110
973.5438111979742,4103
975.747769504772,4088
977.9511334225061,4083
980.153903180487,4067
982.3560790081052,4026
984.5576611348289,4070
986.7586497902058,4206
988.9590452038618,4036
991.158847605503,4091
993.3580572249133,4024
995.5566742919558,3926
997.7546990365728,4062
999.952131688785,3953
1002.1489724786926,3912
1004.3452216364743,3845
1006.5408793923874,3910
1008.7359459767691,4001
1010.9304216200343,3871
1013.1243065526781,3890
1015.3176010052733,3869
1017.510305208472,3818
1019.7024193930064,3781
1021.8939437896848,3845
1024.0848786293977,3874
1026.2752241431122,3855
1028.4649805618747,3787
1030.6541481168115,3850
1032.842727039127,3805
1035.0307175601051,3801
1037.2181199111074,3852
1039.4049343235752,3834
1041.591161029029,3805
1043.7768002590683,3778
1045.9618522453698,3827
1048.1463172196918,3795
1050.3301954138697,3775
1052.513487059818,3904
1054.69619238953,3841
1056.8783116350783,3899
1059.0598450286152,3795
1061.2407928023704,3778
1063.4211551886528,3854
1065.6009324198508,3886
1067.780124728432,3832
1069.9587323469414,3877
1072.1367555080046,3894
1074.314194444325,3802
1076.4910493886855,3789
1078.667320573947,3768
1080.843008233051,3790
1083.0181125990161,3744
1085.1926339049414,3784
1087.3665723840027,3719
1089.5399282694575,3742
1091.7127017946405,3862
1093.8848931929647,3684
1096.0565026979243,3724
1098.2275305430899,3728
1100.3979769621128,3673
1102.567842188722,3676
1104.737126456726,3713
1106.9058300000124,3794
1109.0739530525475,3690
1111.2414958483764,3801
1113.4084586216231,3758
1115.5748416064907,3724
1117.7406450372605,3774
1119.9058691482942,3681
1122.0705141740304,3776
1124.2345803489884,3698
1126.3980679077658,3863
1128.5609770850388,3729
1130.7233081155623,3714
1132.8850612341707,3728
1135.0462366757774,3723
1137.2068346753745,3622
1139.3668554680326,3707
1141.526299288901,3737
1143.68516637321,3758
1145.8434569562655,3831
1148.001171273455,3726
1150.158309560244,3877
1152.3148720521767,3622
1154.470858984876,3671
1156.626270594044,3656
1158.7811071154629,3700
1160.9353687849912,3752
1163.089055838569,3729
1165.242168512213,3702
1167.3947070420209,3732
1169.5466716641677,3789
1171.6980626149075,3817
1173.8488801305748,3739
1175.9991244475814,3839
1178.1487958024186,3818
1180.2978944316555,3630
1182.4464205719428,3659
1184.5943744600072,3658
1186.7417563326567,3774
1188.8885664267755,3721
1191.0348049793297,3817
1193.1804722273619,3750
1195.325568407995,3774
1197.4700937584303,3656
1199.614048515948,3728
1201.7574329179074,3736
1203.900247201746,3737
1206.042491604982,3670
1208.1841663652099,3677
1210.3252717201053,3737
1212.465807907422,3747
1214.6057751649923,3855
1216.7451737307279,3737
1218.8840038426192,3748
1221.0222657387353,3723
1223.1599596572241,3806
1225.2970858363137,3758
1227.4336445143094,3666
1229.5696359295966,3693
1231.705060320639,3728
1233.8399179259786,3849
1235.9742089842384,3769
1238.107933734118,3766
1240.2410924143974,3786
1242.373685263935,3772
1244.5057125216676,3729
1246.6371744266116,3773
1248.7680712178621,3835
1250.898403134593,3873
1253.028170416058,3866
1255.1573733015875,3835
1257.2860120305932,3814
1259.4140868425648,3738
1261.54159797707,3753
1263.6685456737569,3853
1265.7949301723515,3833
1267.9207517126597,3782
1270.046010534565,3797
1272.1707068780306,3855
1274.2948409830983,3815
1276.4184130898889,3750
1278.541423438603,3768
1280.6638722695184,3871
1282.785759822993,3994
1284.9070863394636,3834
1287.0278520594447,3907
1289.1480572235314,3857
1291.2677020723963,3915
1293.3867868467923,3910
1295.5053117875495,3862
1297.623277135579,3848
1299.740683131868,3912
1301.8575300174857,3919
1303.973818033578,3927
1306.0895474213703,3968
1308.2047184221678,3919
1310.3193312773528,3976
1312.4333862283888,4020
1314.5468835168163,3875
1316.659823384255,3938
1318.7722060724045,3959
1320.8840318230418,3898
1322.9953008780249,3865
1325.1060134792888,3942
1327.2161698688478,3947
1329.3257702887959,3875
1331.4348149813054,3960
1333.5433041886276,3988
1335.6512381530933,3934
1337.7586171171101,3968
1339.8654413231675,4013
1341.9717110138317,3923
1344.0774264317488,3806
1346.1825878196432,3972
1348.2871954203192,3901
1350.3912494766587,3979
1352.4947502316231,3889
1354.5976979282532,3841
1356.7000928096686,3927
1358.8019351190665,3792
1360.9032250997243,3779
1363.0039629949988,3877
1365.1041490483235,3897
1367.2037835032133,3903
1369.3028666032606,3913
1371.401398592137,3960
1373.4993797135926,3910
1375.5968102114575,3842
1377.6936903296396,3875
1379.7900203121262,3921
1381.8858004029835,3981
1383.9810308463561,3893
1386.075711886469,3885
1388.1698437676241,3979
1390.2634267342032,3894
1392.356461030667,3934
1394.4489469015557,4015
1396.5408845914872,3930
1398.6322743451592,3906
1400.7231164073469,3927
1402.813411022907,4103
1404.903158436773,3999
1406.9923588939578,3935
1409.0810126395531,3916
1411.1691199187303,4005
1413.2566809767386,4074
1415.343696058907,3848
1417.4301654106425,3900
1419.5160892774315,3974
1421.6014679048399,3894
1423.6863015385125,3956
1425.7705904241707,3969
1427.8543348076178,3949
1429.9375349347342,3897
1432.0201910514802,3909
1434.102303403894,3879
1436.1838722380944,3979
1438.2648978002767,4026
1440.3453803367174,4000
1442.4253200937692,4086
1444.5047173178677,4053
1446.5835722555234,3964
1448.6618851533285,4065
1450.739656257952,4059
1452.8168858161434,4168
1454.8935740747306,4187
1456.96972128062,4120
1459.045327680797,4125
1461.120393522327,4172
1463.1949190523528,4155
1465.2689045180973,4138
1467.3423501668608,4162
1469.415256246024,4172
1471.4876230030463,4264
1473.559450685465,4269
1475.6307395408976,4262
1477.7014898170391,4190
1479.771701761665,4234
1481.8413756226287,4272
1483.9105116478618,4377
1485.9791100853772,4283
1488.0471711832643,4411
1490.1146951896926,4505
1492.1816823529098,4504
1494.2481329212433,4469
1496.3140471430984,4571
1498.3794252669609,4574
1500.4442675413939,4563
1502.5085742150404,4554
1504.572345536622,4583
1506.6355817549388,4489
1508.6982831188702,4593
1510.7604498773744,4569
1512.8220822794883,4619
1514.8831805743293,4658
1516.9437450110909,4830
1519.003775839048,4762
1521.0632733075522,4856
1523.1222376660367,4900
1525.1806691640113,5067
1527.2385680510652,4966
1529.2959345768668,5166
1531.3527689911643,5012
1533.4090715437833,5191
1535.4648424846291,5151
1537.5200820636855,5286
1539.5747905310159,5279
1541.6289681367616,5304
1543.6826151311434,5368
1545.7357317644614,5378
1547.7883182870937,5412
1549.8403749494987,5600
1551.8919020022113,5339
1553.9428996958477,5525
1555.9933682811015,5569
1558.0433080087469,5787
1560.0927191296346,5773
1562.1416018946961,5892
1564.1899565549415,5846
1566.2377833614592,6011
1568.2850825654164,5791
1570.3318544180606,5807
1572.3780991707158,5767
1574.423817074788,5341
1576.4690083817595,5415
1578.5136733431923,5362
1580.5578122107272,5205
1582.601425236085,5177
1584.6445126710646,4837
1586.6870747675434,4849
1588.7291117774776,4671
1590.7706239529034,4629
1592.8116115459347,4492
1594.8520748087658,4543
1596.8920139936686,4409
1598.9314293529933,4332
1600.9703211391711,4319
1603.008689604711,4373
1605.0465350022005,4172
1607.0838575843068,4127
1609.1206576037753,4076
1611.1569353134305,4178
1613.1926909661765,4134
1615.2279248149953,4042
1617.2626371129481,4107
1619.2968281131757,4103
1621.3304980688963,4045
1623.3636472334088,4118
1625.39627586009,4034
1627.428384202396,4062
1629.459972513861,4025
1631.4910410480993,3950
1633.5215900588028,3965
1635.551619799744,4011
1637.5811305247717,4034
1639.6101224878166,4048
1641.6385959428862,3908
1643.6665511440683,4016
1645.693988345528,3985
1647.7209078015112,3955
1649.7473097663405,3930
1651.7731944944203,3949
1653.7985622402307,3959
1655.823413258333,3963
1657.847747803366,3902
1659.8715661300494,3900
1661.8948684931793,3909
1663.9176551476316,3913
1665.9399263483624,3846
1667.9616823504057,3912
1669.982923408873,3855
1672.0036497789574,3848
1674.0238617159293,3851
1676.043559475138,3863
1678.0627433120121,3884
1680.081413482059,3861
1682.0995702408654,3817
1684.117213844096,3836
1686.134344547495,3889
1688.1509626068864,3854
1690.1670682781705,3841
1692.182661817329,3802
1694.1977434804217,3788
1696.2123135235875,3852
1698.226372203043,3894
1700.2399197750851,3781
1702.2529564960905,3923
1704.2654826225112,3864
1706.277498410882,3867
1708.2890041178139,3887
1710.2999999999988,3903
1712.3104863142066,3871
1714.3204633172854,3885
1716.329931266163,3919
1718.3388904178469,3902
1720.3473410294214,4010
1722.3552833580516,3922
1724.3627176609807,3898
1726.3696441955308,3841
1728.3760632191033,3832
1730.3819749891782,3761
1732.3873797633146,4007
1734.3922777991502,3759
1736.3966693544012,3870
1738.4005546868639,3851
1740.4039340544127,3864
1742.406807715001,3866
1744.4091759266616,3856
1746.4110389475054,3860
1748.4123970357223,3842
1750.413250449582,3815
1752.4135994474318,3847
1754.4134442876993,3929
1756.4127852288902,3813
1758.4116225295893,3799
1760.4099564484595,3912
1762.407787244244,3780
1764.405115175764,3753
1766.4019405019203,3698
1768.3982634816916,3836
1770.3940843741357,3793
1772.3894034383907,3817
1774.3842209336717,3763
1776.378537119274,3758
1778.372352254571,3783
1780.3656665990156,3739
1782.3584804121397,3849
1784.3507939535534,3855
1786.3426074829463,3722
1788.3339212600863,3789
1790.3247355448211,3796
1792.3150505970766,3772
1794.3048666768573,3826
1796.2941840442477,3762
1798.2830029594106,3795
1800.2713236825884,3813
1802.2591464741004,3828
1804.2464715943465,3829
1806.2332993038058,3852
1808.2196298630352,3808
1810.2054635326708,3682
1812.190800573428,3826
1814.175641246101,3816
1816.1599858115628,3673
1818.1438345307652,3817
1820.127187664738,3802
1822.1100454745924,3841
1824.092408221516,3742
1826.0742761667766,3801
1828.055649571721,3818
1830.0365286977735,3798
1832.0169138064398,3845
1833.9968051593014,3858
1835.9762030180214,3642
1837.9551076443408,3878
1839.9335193000788,3783
1841.9114382471344,3852
1843.888864747485,3848
1845.8657990631878,3725
1847.842241456378,3733
1849.8181921892697,3696
1851.7936515241558,3745
1853.7686197234098,3794
1855.7430970494815,3838
1857.7170837649014,3792
1859.6905801322787,3806
1861.6635864143004,3846
1863.6361028737338,3770
1865.608129773424,3719
1867.5796673762961,3808
1869.5507159453537,3849
1871.521275743678,3819
1873.4913470344313,3860
1875.4609300808534,3760
1877.4300251462632,3782
1879.3986324940588,3807
1881.366752387717,3801
1883.3343850907936,3764
1885.3015308669228,3782
1887.268189979819,3895
1889.2343626932739,3835
1891.2000492711595,3945
1893.1652499774254,3821
1895.1299650761011,3835
1897.0941948312952,3931
1899.0579395071945,3876
1901.0211993680641,3895
1902.98397467825,3843
1904.9462657021745,3891
1906.9080727043415,3873
1908.869395949332,3816
1910.8302357018065,3759
1912.790592226504,3830
1914.7504657882428,3849
1916.7098566519212,3710
1918.6687650825133,3759
1920.6271913450764,3874
1922.5851357047422,3865
1924.5425984267245,3793
1926.499579776314,3808
1928.4560800188833,3905
1930.4120994198802,3830
1932.367638244833,3784
1934.32269675935,3866
1936.2772752291175,3859
1938.231373919899,3828
1940.1849930975404,3864
1942.1381330279637,3776
1944.0907939771696,3764
1946.0429762112412,3881
1947.9946799963363,3888
1949.9459055986945,3827
1951.896653284633,3791
1953.8469233205478,3770
1955.7967159729142,3835
1957.7460315082863,3816
1959.6948701932974,3764
1961.6432322946594,3873
1963.5911180791632,3799
1965.5385278136787,3754
1967.4854617651545,3777
1969.4319202006182,3843
1971.377903387176,3900
1973.3234115920136,3938
1975.268445082395,3900
1977.2130041256642,3865
1979.1570889892423,3921
1981.1006999406304,3872
1983.04383724741,3800
1984.986501177238,3816
1986.928691997853,3903
1988.8704099770712,3811
1990.811655382789,3820
1992.7524284829801,3825
1994.692729545698,3844
1996.6325588390755,3894
1998.5719166313224,3887
2000.5108031907307,3940
2002.4492187856677,3801
2004.387163684583,3884
2006.3246381560011,3859
2008.2616424685298,3805
2010.1981768908527,3789
2012.1342416917332,3785
2014.069837140014,3856
2016.0049635046162,3784
2017.9396210545406,3921
2019.8738100588666,3856
2021.8075307867502,3812
2023.740783507431,3753
2025.6735684902228,3816
2027.6058860045214,3810
2029.5377363198004,3834
2031.4691197056118,3833
2033.4000364315875,3851
2035.3304867674374,3853
2037.260470982952,3853
2039.189989347998,3833
2041.1190421325232,3909
2043.047629606554,3862
2044.9757520401945,3822
2046.9034097036288,3755
2048.8306028671195,3892
2050.7573318010086,3839
2052.683596775716,3803
2054.609398061742,3810
2056.5347359296647,3856
2058.4596106501403,3812
2060.384022493906,3822
2062.3079717317764,3935
2064.231458634646,3885
2066.1544834734873,3913
2068.077046519352,3874
2069.99914804337,3810
2071.9207883167524,3887
2073.8419676107865,3820
2075.7626861968406,3979
2077.6829443463607,3827
2079.6027423308715,3732
2081.522080421977,3889
2083.440958891362,3872
2085.359378010786,3903
2087.2773380520907,3838
2089.194839287196,3780
2091.111881988101,3843
2093.0284664268825,3726
2094.9445928756973,3851
2096.86026160678,3867
2098.775472892446,3918
2100.690227005088,3915
2102.604524217178,3621
2104.5183648012676,3773
2106.431749029985,3881
2108.34467717604,3911
2110.2571495122206,3867
2112.169166311393,3822
2114.080727846503,3771
2115.9918343905747,3739
2117.902486216711,3771
2119.8126835980956,3896
2121.722426807987,3881
2123.6317161197285,3834
2125.5405518067364,3790
2127.448934142509,3795
2129.356863400624,3808
2131.264339854737,3863
2133.1713637785815,3791
2135.077935445972,3855
2136.9840551308002,3863
2138.889723107037,3844
2140.7949396487334,3895
2142.699705030018,3800
2144.6040195250994,3859
2146.507883408264,3830
2148.4112969538774,3858
2150.3142604363848,3911
2152.2167741303097,3724
2154.1188383102535,3836
2156.0204532508997,3869
2157.9216192270064,3713
2159.822336513414,3912
2161.7226053850413,3838
2163.622426116884,3899
2165.5217989840185,3895
2167.4207242616,3903
2169.319202224862,3842
2171.2172331491165,3729
2173.1148173097563,3716
2175.0119549822507,3881
2176.90864644215,3824
2178.8048919650823,3836
2180.7006918267534,3868
2182.596046302952,3807
2184.4909556695407,3861
2186.3854202024645,3800
2188.279440177746,3842
2190.173015871487,3875
2192.066147559868,3824
2193.958835519149,3773
2195.851080025667,3848
2197.7428813558417,3879
2199.6342397861667,3836
2201.5251555932186,3937
2203.415629053651,3886
2205.3056604441986,3847
2207.19525004167,3909
2209.084398122958,3828
2210.9731049650327,3812
2212.861370844941,3844
2214.749196039812,3812
2216.636580826851,3872
2218.523525483344,3890
2220.410030286655,3889
2222.296095514226,3795
2224.1817214435805,3868
2226.066908352319,3903
2227.951656518121,3907
2229.835966218746,3910
2231.71983773203,3873
2233.6032713358913,3924
2235.486267308324,3812
2237.3688259274036,3977
2239.2509474712824,3854
2241.132632218193,3746
2243.013880446447,3838
2244.8946924344323,3933
2246.7750684606203,3864
2248.6550088035574,3915
2250.534513741871,3812
2252.413583554265,3838
2254.292218519526,3927
2256.170418916517,3943
2258.0481850241786,3878
2259.925517121534,3822
2261.8024154876825,3988
2263.678880401803,3960
2265.5549121431536,3873
2267.430510991071,3892
2269.305677224971,3862
2271.180411124348,3846
2273.0547129687766,3801
2274.9285830379076,3784
2276.8020216114737,3826
2278.6750289692845,3879
2280.5476053912294,3787
2282.4197511572766,3969
2284.2914665474727,4000
2286.162751841943,3885
2288.0336073208937,3903
2289.904033264608,3931
2291.774029953448,3858
2293.6435976678554,3964
2295.5127366883517,3836
2297.381447295534,3930
2299.2497297700825,3786
2301.1175843927526,3916
2302.9850114443825,3839
2304.852011205885,3732
2306.7185839582553,3912
2308.5847299825664,3849
2310.4504495599676,3856
2312.3157429716925,3904
2314.1806104990483,3890
2316.0450524234247,3981
2317.9090690262888,3871
2319.772660589186,3927
2321.635827393742,3980
2323.498569721661,3971
2325.3608878547248,3927
2327.2227820747967,3863
2329.0842526638157,3904
2330.945299903803,3889
2332.805924076857,3976
2334.6661254651535,3919
2336.525904350951,4023
2338.3852610165827,3810
2340.244195744464,3867
2342.102708817088,3978
2343.9608005170253,3899
2345.8184711269287,3946
2347.675720929526,3841
2349.532550207628,3890
2351.38895924412,3869
2353.24494832197,4006
2355.100517724223,3905
2356.955667734004,3821
2358.810398634514,3918
2360.664710709037,3956
2362.5186042409337,3989
2364.3720795136437,4023
2366.225136810686,3940
2368.0777764156583,3939
2369.929998612237,3858
2371.7818036841777,3925
2373.633191915315,3966
2375.484163589562,4047
2377.3347189909114,4020
2379.184858403434,3975
2381.03458211128,4049
2382.8838903986775,4002
2384.732783549936,3954
2386.5812618494406,3921
2388.4293255816588,3985
2390.2769750311327,4017
2392.1242104824883,3891
2393.971032220427,4005
2395.8174405297295,3997
2397.6634356952563,3924
2399.509018001947,4023
2401.3541877348193,3985
2403.1989451789705,3973
2405.043290619576,3984
2406.8872243418905,4044
2408.730746631247,3974
2410.5738577730594,3949
2412.4165580528183,3954
2414.258847756095,4000
2416.100727168537,4031
2417.9421965758734,3948
2419.783256263912,3985
2421.623906518538,3934
2423.4641476257157,4055
2425.303979871491,3924
2427.143403541984,4065
2428.9824189233977,4075
2430.821026302012,3940
2432.6592259641866,3929
2434.497018196361,3930
2436.33440328505,4003
2438.171381516851,3908
2440.00795317844,3917
2441.844118556569,4084
2443.6798779380724,3942
2445.5152316098606,4042
2447.3501798589255,3876
2449.1847229723357,3852
2451.0188612372403,3895
2452.8525949408663,4048
2454.6859243705203,4051
2456.518849813587,3961
2458.3513715575314,3965
2460.183489889895,3889
2462.015205098301,3955
2463.8465174704493,3962
2465.67742729412,4002
2467.5079348571717,3964
2469.338040447542,3941
2471.1677443532476,4002
2472.9970468623833,3993
2474.825948263123,3948
2476.6544488437207,3915
2478.482548892508,4048
2480.310248697896,3981
2482.137548548374,4063
2483.9644487325118,4017
2485.790949538956,4090
2487.617051256433,4034
2489.44275417375,4027
2491.26805857979,3989
2493.0929647635157,4050
2494.917473013971,3980
2496.741583620276,4092
2498.5652968716304,4103
2500.3886130573137,4006
2502.2115324666834,3995
2504.0340553891765,3999
2505.856182114308,3982
2507.6779129316733,4009
2509.499248130945,4001
2511.3201880018764,4043
2513.140732834298,3985
2514.9608829181198,3970
2516.780638543331,3876
2518.6,4106
2520.418967578273,4093
2522.237541568376,4036
2524.0557222606144,4044
2525.8735099453706,4119
2527.6909049131086,3978
2529.507907454368,3931
2531.32451785977,3929
2533.140736420014,4020
2534.9565634258774,4102
2536.771999168218,4023
2538.5870439379714,4115
2540.4016980261526,3997
2542.2159617238544,4093
2544.02983532225,4138
2545.8433191125914,4062
2547.656413386209,4042
2549.4691184345115,4167
2551.2814345489874,4197
2553.093362021204,4008
2554.904901142808,4060
2556.716052205523,4121
2558.526815501153,4154
2560.3371913215824,4180
2562.147179958771,4100
2563.956781704761,4134
2565.7659968516705,4042
2567.5748256916986,4231
2569.3832685171224,4052
2571.1913256202984,4065
2572.9989972936614,4091
2574.806283829725,4151
2576.613185521084,4147
2578.4197026604074,4204
2580.2258355404483,4131
2582.031584454035,4179
2583.836949694077,4240
2585.6419315535613,4108
2587.4465303255533,4189
2589.2507463032002,4163
2591.0545797797245,4016
2592.8580310484303,4213
2594.6611004026995,4286
2596.463788135992,4144
2598.266094541849,4304
2600.0680199138874,4212
2601.869564545807,4350
2603.670728731383,4317
2605.4715127644704,4303
2607.2719169390048,4282
2609.071941548998,4306
2610.8715868885433,4258
2612.670853251811,4256
2614.469740933052,4195
2616.268250226594,4245
2618.0663814268455,4208
2619.864134828292,4233
2621.6615107255006,4305
2623.458509413115,4260
2625.2551311858597,4333
2627.0513763385347,4264
2628.8472451660223,4285
2630.6427379632833,4253
2632.4378550253564,4244
2634.232596647359,4152
2636.026963124488,4215
2637.8209547520187,4252
2639.6145718253065,4123
2641.407814639785,4149
2643.200683490966,4170
2644.9931786744414,4248
2646.7853004858807,4297
2648.577049221034,4193
2650.3684251757277,4191
2652.1594286458712,4179
2653.9500599274484,4180
2655.740319316525,4191
2657.5302071092437,4078
2659.3197236018286,4111
2661.10886909058,4155
2662.8976438718782,4204
2664.686048242183,4107
2666.4740824980327,4151
2668.2617469360443,4147
2670.0490418529134,4006
2671.8359675454153,4087
2673.622524310403,4131
2675.408712444811,4107
2677.1945322456495,4028
2678.979984010009,3998
2680.76506803506,4088
2682.5497846180497,4070
2684.334134056306,4074
2686.1181166472343,3977
2687.9017326883213,3998
2689.6849824771293,4038
2691.4678663113013,4014
2693.2503844885596,4123
2695.032537306705,4003
2696.8143250636167,4038
2698.5957480572542,3968
2700.3768065856534,4126
2702.1575009469316,3968
2703.937831439283,3969
2705.717798360982,4087
2707.4974020103837,3894
2709.276642685917,3933
2711.055520686095,3985
2712.834036309506,4013
2714.612189854819,4027
2716.389981620782,4118
2718.1674119062204,4028
2719.944481010041,3981
2721.721189231226,3857
2723.4975368688415,3994
2725.273524222027,3898
2727.0491515900053,3994
2728.824419272075,3995
2730.5993275676146,3965
2732.3738767760838,3937
2734.148067197016,3978
2735.921899130031,4035
2737.6953728748194,4018
2739.468488731156,3907
2741.2412469988926,3960
2743.0136479779617,3935
2744.785691968372,3921
2746.5573792702116,4080
2748.3287101836504,3983
2750.099685008934,4049
2751.870304046388,3907
2753.640567596418,3898
2755.4104759595057,4023
2757.1800294362156,3922
2758.949228327187,4062
2760.7180729331412,4012
2762.486563554877,3958
2764.254700493272,3922
2766.022484049284,3940
2767.789914523947,4033
2769.5569922183786,3984
2771.3237174337705,4040
2773.090090471394,3893
2774.8561116326036,3978
2776.6217812188274,4048
2778.3870995315756,3933
2780.1520668724356,3998
2781.9166835430747,3978
2783.6809498452394,4066
2785.444866080754,3910
2787.2084325515225,3883
2788.971649559527,4055
2790.73451740683,3994
2792.4970363955713,3965
2794.2592068279705,4037
2796.0210290063264,4005
2797.7825032330147,3965
2799.543629810493,3988
2801.304409041296,3939
2803.0648412280366,4050
2804.8249266734088,4038
2806.5846656801846,4023
2808.344058551212,4012
2810.1031055894246,4109
2811.8618070978273,4017
2813.6201633795085,4067
2815.378174737636,4033
2817.1358414754536,3959
2818.893163896285,4061
2820.6501423035334,4029
2822.4067770006814,4022
2824.1630682912883,3967
2825.9190164789957,4001
2827.6746218675207,4000
2829.429884760661,4088
2831.184805462294,3987
2832.9393842763743,3954
2834.693621506936,4067
2836.4475174580916,4037
2838.201072434034,3925
2839.954286739034,3919
2841.707160677441,3953
2843.459694553685,3926
2845.2118886722724,4003
2846.96374333779,4084
2848.7152588549034,3958
2850.4664355283567,4088
2852.217273662973,3994
2853.9677735636546,3963
2855.7179355353833,3968
2857.4677598832186,3983
2859.217246912299,3972
2860.9663969278427,3982
2862.715210235146,3911
2864.4636871395846,4006
2866.211827946614,4004
2867.9596329617652,3935
2869.7071024906536,4057
2871.4542368389684,4000
2873.20103631248,4085
2874.947501217038,3997
2876.6936318585695,3996
2878.4394285430812,4112
2880.1848915766604,3984
2881.9300212654707,4091
2883.6748179157553,4061
2885.4192818338374,4010
2887.1634133261173,4034
2888.907212699077,4108
2890.6506802592744,3941
2892.393816313348,3938
2894.1366211680142,3979
2895.8790951300693,4114
2897.621238506388,3987
2899.363051603925,4016
2901.1045347297118,4066
2902.8456881908596,3900
2904.58651229456,4092
2906.327007348081,3993
2908.067173658772,4057
2909.8070115340597,4034
2911.5465212814497,3981
2913.285703208527,4034
2915.0245576229563,3992
2916.7630848324807,3970
2918.5012851449196,3936
2920.2391588681758,3884
2921.976706310227,3895
2923.7139277791334,4002
2925.4508235830313,3943
2927.187394030137,3927
2928.923639428745,3933
2930.6595600872306,4068
2932.395156314046,4099
2934.1304284177218,4036
2935.8653767068713,4019
2937.6000014901815,4011
2939.3343030764227,4031
2941.068281774442,4070
2942.8019378931644,4037
2944.5352717415976,4100
2946.2682836288236,4019
2948.0009738640065,4024
2949.7333427563885,3995
2951.465390615289,3925
2953.1971177501086,4028
2954.9285244703265,3957
2956.6596110855,3854
2958.3903779052657,3918
2960.1208252393385,4014
2961.8509533975125,3934
2963.5807626896617,4019
2965.3102534257378,4051
2967.0394259157715,3970
2968.768280469873,4030
2970.496817398232,4092
2972.2250370111146,3991
2973.952939618869,3954
2975.6805255319196,4096
2977.4077950607707,3988
2979.134748516006,4043
2980.861386208289,4007
2982.587708448359,4062
2984.313715547037,4073
2986.039407815222,4115
2987.764785563891,4145
2989.489849104102,4092
2991.2145987469908,4022
2992.9390348037705,3971
2994.6631575857346,3910
2996.3869674042576,3999
2998.1104645707887,4070
2999.83364939686,3977
3001.5565221940783,4116
3003.2790832741334,3983
3005.0013329487924,4061
3006.7232715298996,3973
3008.4448993293804,4042
3010.166216659239,4013
3011.887223831558,3968
3013.607921158498,4048
3015.3283089522993,4057
3017.0483875252826,4010
3018.7681571898443,4057
3020.4876182584626,3944
3022.2067710436927,3957
3023.9256158581707,4009
3025.644153014609,3947
3027.362382825801,3981
3029.0803056046193,4082
3030.797921664012,3997
3032.5152313170106,3985
3034.2322348767225,4048
3035.9489326563353,4000
3037.665324969115,3974
3039.3814121284063,4056
3041.097194447633,3979
3042.812672240299,3989
3044.5278458199855,4025
3046.2427155003525,4069
3047.9572815951406,3999
3049.671544418167,4026
3051.38550428333,4150
3053.0991615046073,3962
3054.812516396051,3994
3056.5255692717974,4031
3058.2383204460575,3943
3059.9507702331257,4062
3061.662918947372,4073
3063.3747669032446,3918
3065.0863144152736,4111
3066.7975617980674,4127
3068.508509366309,4040
3070.219157434767,4135
3071.9295063182844,4043
3073.639556331785,4008
3075.3493077902704,4105
3077.058761008821,4055
3078.7679163025964,4019
3080.476773986837,4047
3082.1853343768594,4022
3083.89359778806,4017
3085.6015645359153,3991
3087.3092349359786,4069
3089.016609303884,4069
3090.7236879553434,3962
3092.4304712061476,3966
3094.136959372166,4009
3095.843152769349,4084
3097.5490517137237,3936
3099.2546565213966,3987
3100.959967508554,4022
3102.66498499146,4009
3104.3697092864577,4091
3106.0741407099695,3995
3107.778279578498,4126
3109.482126208622,4113
3111.1856809170004,4026
3112.8889440203716,4072
3114.5919158355528,4002
3116.294596679439,4070
3117.996986869006,4041
3119.6990867213062,3969
3121.4008965534726,4112
3123.102416682717,4141
3124.803647426329,4062
3126.5045891016784,4114
3128.205242026213,4083
3129.90560651746,4064
3131.605682893025,4105
3133.3054714705922,4082
3135.0049725679282,4095
3136.7041865028714,4065
3138.4031135933465,4077
3140.101754157353,4103
3141.800108512971,4115
3143.498176978357,4013
3145.1959598717494,4068
3146.8934575114636,4100
3148.5906702158954,4080
3150.2875983035183,4020
3151.9842420928853,4057
3153.680601902627,4049
3155.376678051456,4093
3157.07247085816,4086
3158.767980641609,4106
3160.463207720748,3899
3162.158152414606,4098
3163.8528150422862,3934
3165.5471959229726,3950
3167.2412953759303,4134
3168.9351137204976,4011
3170.628651276098,4104
3172.3219083622307,4090
3174.014885298474,4144
3175.707582404485,4142
3177.4000000000005,4126
3179.092138404835,4076
3180.7839979388846,4054
3182.47557892212,4154
3184.166881674594,3901
3185.8579065164386,4083
3187.5486537678626,4140
3189.2391237491547,4184
3190.9293167806827,4006
3192.6192331828934,4074
3194.3088732763117,4207
3195.998237381542,4121
3197.687325819268,4065
3199.376138910251,4136
3201.064676975334,4094
3202.7529403354347,4034
3204.4409293115523,4114
3206.1286442247647,4002
3207.816085396229,4085
3209.5032531471825,4071
3211.190147798936,4074
3212.8767696728846,3997
3214.5631190905015,3973
3216.2491963733373,4048
3217.9350018430214,4046
3219.6205358212637,4042
3221.305798629851,4048
3222.990790590651,4000
3224.6755120256103,3932
3226.359963256751,3986
3228.0441446061795,4098
3229.7280563960758,4043
3231.411698948703,4059
3233.0950725863995,4077
3234.778177631587,4119
3236.461014406761,4045
3238.1435832345005,4121
3239.8258844374595,4159
3241.507918338374,4153
3243.1896852600576,3971
3244.8711855254023,4083
3246.552419457381,4159
3248.233387379042,4091
3249.914089613516,4078
3251.59452648401,4075
3253.274698313813,4086
3254.95460542629,4127
3256.6342481448855,4005
3258.313626793125,3945
3259.9927416946084,3936
3261.6715931730196,3907
3263.3501815521176,4038
3265.0285071557437,3933
3266.706570307815,3869
3268.3843713323286,4012
3270.0619105533615,3970
3271.739188295068,4080
3273.4162048816834,4083
3275.0929606375184,4052
3276.769455886966,4044
3278.445690954498,4080
3280.1216661646613,4062
3281.797381842087,3980
3283.4728383114807,4133
3285.1480358976296,3996
3286.8229749253996,4028
3288.4976557197333,4037
3290.172078605655,4011
3291.846243908266,4049
3293.5201519527463,4001
3295.193803064357,4127
3296.8671975684374,4051
3298.5403357904024,3911
3300.21321805575,3869
3301.8858446900567,4119
3303.558216018975,4005
3305.23033236824,4062
3306.9021940636603,3983
3308.57380143113,4133
3310.2451547966184,4011
3311.916254486174,4070
3313.5871008259246,4145
3315.2576941420766,4084
3316.9280347609147,4022
3318.5981230088046,3938
3320.2679592121895,3939
3321.9375436975924,3938
3323.606876791612,3827
3325.27595882093,3979
3326.944790112305,4073
3328.6133709925753,3960
3330.2817017886573,4130
3331.949782827547,4079
3333.617614436319,4012
3335.2851969421245,4127
3336.952530672199,4068
3338.619615953853,3881
3340.286453114475,4010
3341.9530424815357,4039
3343.619384382583,4082
3345.2854791452437,4044
3346.951327097224,4009
3348.6169285663073,4006
3350.2822838803577,4010
3351.947393367319,4046
3353.61225735521,4035
3355.2768761721345,4025
3356.9412501462693,4147
3358.605379605873,4050
3360.2692648792827,4015
3361.9329062949146,4116
3363.596304181263,4085
