CollectionTime,6/26/2024 2:28:01 PM
ExposureUsed,3
CalibratedSpectrum
-962.7078968117929,1385
-959.9714848408522,1455
-957.2358232597828,1407
-954.5009119013725,1490
-951.7667505983302,1471
-949.0333391832855,1423
-946.3006774887896,1455
-943.5687653473143,1576
-940.837602591253,1583
-938.1071890529199,1491
-935.3775245645503,1511
-932.6486089583007,1556
-929.9204420662485,1508
-927.1930237203925,1590
-924.4663537526524,1565
-921.7404319948689,1501
-919.0152582788041,1538
-916.2908324361409,1539
-913.5671542984834,1538
-910.8442236973568,1561
-908.1220404642074,1624
-905.4006044304027,1576
-902.679915427231,1564
-899.959973285902,1522
-897.2407778375464,1562
-894.5223289132158,1597
-891.8046263438832,1543
-889.0876699604426,1530
-886.3714595937089,1573
-883.6559950744183,1606
-880.9412762332282,1561
-878.2273029007168,1610
-875.5140749073835,1532
-872.8015920836489,1551
-870.0898542598545,1520
-867.3788612662631,1542
-864.6686129330585,1525
-861.9591090903457,1558
-859.2503495681506,1469
-856.5423341964203,1534
-853.8350628050229,1576
-851.1285352237478,1591
-848.4227512823054,1532
-845.7177108103272,1552
-843.0134136373656,1616
-840.3098595928943,1589
-837.6070485063082,1577
-834.9049802069229,1636
-832.2036545239757,1577
-829.5030712866244,1569
-826.8032303239481,1553
-824.1041314649472,1474
-821.4057745385428,1598
-818.7081593735775,1573
-816.0112857988148,1647
-813.3151536429393,1542
-810.6197627345566,1575
-807.9251129021936,1616
-805.2312039742981,1522
-802.5380357792392,1501
-799.8456081453069,1540
-797.1539209007124,1640
-794.462973873588,1599
-791.772766891987,1596
-789.083299783884,1607
-786.3945723771743,1640
-783.7065844996748,1613
-781.0193359791231,1579
-778.3328266431781,1658
-775.6470563194197,1654
-772.9620248353489,1610
-770.2777320183878,1612
-767.5941776958798,1656
-764.9113616950891,1658
-762.2292838432011,1617
-759.5479439673222,1577
-756.8673418944801,1608
-754.1874774516235,1649
-751.5083504656222,1665
-748.8299607632671,1591
-746.15230817127,1606
-743.475392516264,1706
-740.7992136248035,1608
-738.1237713233636,1617
-735.4490654383407,1641
-732.7750957960521,1755
-730.1018622227365,1670
-727.4293645445534,1618
-724.7576025875837,1630
-722.0865761778291,1648
-719.4162851412126,1666
-716.7467293035781,1689
-714.0779084906909,1749
-711.409822528237,1753
-708.7424712418238,1701
-706.0758544569796,1662
-703.4099719991541,1705
-700.7448236937178,1732
-698.0804093659622,1691
-695.4167288411002,1699
-692.7537819442656,1677
-690.0915685005134,1671
-687.4300883348199,1792
-684.7693412720819,1694
-682.1093271371178,1719
-679.4500457546669,1679
-676.7914969493897,1724
-674.1336805458676,1719
-671.4765963686034,1707
-668.8202442420206,1738
-666.1646239904642,1684
-663.5097354382001,1802
-660.8555784094151,1787
-658.2021527282176,1816
-655.5494582186366,1831
-652.8974947046223,1791
-650.2462620100463,1842
-647.5957599587009,1809
-644.9459883742998,1861
-642.2969470804776,1818
-639.6486359007902,1810
-637.0010546587141,1870
-634.3542031776476,1847
-631.7080812809096,1823
-629.0626887917401,1830
-626.4180255333008,1792
-623.7740913286734,1745
-621.1308860008619,1782
-618.4884093727904,1734
-615.8466612673046,1710
-613.2056415071715,1722
-610.5653499150785,1762
-607.9257863136347,1841
-605.28695052537,1818
-602.6488423727357,1701
-600.0114616781036,1808
-597.3748082637674,1802
-594.7388819519412,1776
-592.1036825647604,1816
-589.4692099242818,1753
-586.8354638524829,1835
-584.2024441712624,1828
-581.5701507024403,1799
-578.9385832677575,1891
-576.3077416888759,1883
-573.6776257873787,1851
-571.0482353847704,1863
-568.4195703024757,1868
-565.7916303618415,1903
-563.164415384135,1791
-560.5379251905453,1828
-557.9121596021815,1839
-555.2871184400748,1862
-552.6628015251767,1880
-550.0392086783606,1924
-547.4163397204204,1827
-544.794194472071,1802
-542.1727727539491,1843
-539.5520743866118,1890
-536.9320991905377,1880
-534.3128469861261,2068
-531.6943175936979,1921
-529.0765108334947,1972
-526.4594265256793,2048
-523.8430644903358,2245
-521.2274245474689,2336
-518.612506517005,2462
-515.9983102187913,2561
-513.3848354725959,2572
-510.77208209810846,2741
-508.16004991493924,2648
-505.5487387426199,2883
-502.9381484006032,2942
-500.3282787082628,3154
-497.71912948489364,3247
-495.1107005497117,3244
-492.5029917218539,3267
-489.8960028203786,3078
-487.28973366426493,2848
-484.68418407241325,2694
-482.07935386364494,2467
-479.47524285670266,2454
-476.87185087025,2306
-474.2691777228715,2335
-471.66722323307334,2274
-469.0659872192821,2125
-466.4654694998459,2135
-463.86566989303384,2161
-461.26658821703614,2127
-458.66822428996414,2150
-456.07057792985,2103
-453.4736489546475,2129
-450.877437182231,2172
-448.28194243039627,2130
-445.68716451686,2156
-443.09310325926003,2095
-440.49975847515555,2028
-437.9071299820263,2053
-435.31521759727354,2051
-432.72402113821954,2004
-430.13354042210767,1981
-427.5437752661022,2084
-424.95472548728867,2101
-422.36639090267386,2173
-419.7787713291855,2056
-417.1918665836721,2153
-414.60567648290385,2118
-412.0202008435715,2168
-409.4354394822874,2256
-406.8513922155845,2081
-404.26805885991723,2195
-401.685439231661,2244
-399.103533147112,2174
-396.522340422488,2093
-393.9418608739278,2126
-391.3620943174908,2067
-388.7830405691583,2025
-386.2046994448317,1952
-383.6270707603344,1730
-381.05015433141045,1650
-378.473949973725,1542
-375.8984575028645,1419
-373.32367673433623,1258
-370.74960748356875,1131
-368.1762495659117,1064
-365.60360279663576,938
-363.03166699093265,838
-360.4604419639154,775
-357.8899275306178,705
-355.32012350599507,656
-352.7510297049233,634
-350.1826459421999,617
-347.61497203254316,602
-345.04800779059235,579
-342.4817530309082,572
-339.91620756797226,599
-337.35137121618743,551
-334.7872437898774,567
-332.22382510328725,644
-329.66111497058273,653
-327.09911320585127,678
-324.53781962310075,641
-321.9772340362607,670
-319.4173562591816,696
-316.8581861056348,682
-314.2997233893127,685
-311.7419679238294,736
-309.1849195227194,734
-306.62857799943856,594
-304.0729431673641,585
-301.51801483979375,600
-298.963792829947,603
-296.41027695096386,668
-293.85746701590574,699
-291.3053628377552,770
-288.7539642294155,730
-286.2032710037115,762
-283.65328297338897,788
-281.1039999511146,769
-278.5554217494762,798
-276.007548180983,706
-273.4603790580651,661
-270.9139141930734,738
-268.3681533982807,793
-265.8230964858798,749
-263.27874326798565,712
-260.7350935566336,803
-258.1921471637804,895
-255.6499039013039,934
-253.10836358100266,859
-250.56752601459698,812
-248.02739101372765,777
-245.48795838995704,760
-242.94922795476816,769
-240.41119951956557,836
-237.8738728956746,974
-235.33724789434166,967
-232.80132432673452,1017
-230.2661020039418,1113
-227.73158073697357,1049
-225.19776033676033,877
-222.66464061415422,1016
-220.1322213799284,883
-217.60050244477725,872
-215.06948361931552,867
-212.53916471408013,874
-210.00954553952818,861
-207.48062590603843,960
-204.9524056239104,1198
-202.4248845033651,1214
-199.8980623545441,1119
-197.37193898751036,984
-194.84651421224817,1151
-192.32178783866232,1108
-189.79775967657952,932
-187.27442953574644,1025
-184.7517972258321,1046
-182.2298625564256,996
-179.7086253370378,1124
-177.18808537710026,1142
-174.66824248596583,1135
-172.14909647290835,1226
-169.6306471471229,1153
-167.11289431772548,1091
-164.59583779375328,1072
-162.07947738416453,1057
-159.5638128978386,1038
-157.04884414357605,1218
-154.53457093009854,1266
-152.02099306604828,1190
-149.50811035998936,1166
-146.99592262040665,1258
-144.48442965570587,1274
-141.97363127421409,1435
-139.46352728417958,1480
-136.95411749377126,1465
-134.44540171107985,1549
-131.93737974411636,1697
-129.43005140081357,1704
-126.92341648902493,1503
-124.41747481652521,1523
-121.91222619101006,1556
-119.40767042009657,1366
-116.90380731132257,1310
-114.40063667214702,1478
-111.8981583099503,1613
-109.3963720320337,1617
-106.89527764561933,1519
-104.39487495785067,1893
-101.89516377579241,1872
-99.39614390642998,1771
-96.89781515667039,2001
-94.40017733334128,2292
-91.90323024319173,2233
-89.40697369289148,2077
-86.91140748903172,2105
-84.41653143812482,2098
-81.92234534660395,2158
-79.42884902082358,2203
-76.93604226705907,2233
-74.4439248915071,2295
-71.95249670028534,2126
-69.46175749943245,2538
-66.97170709490854,2552
-64.48234529259423,2991
-61.99367189829195,2836
-59.50568671772464,3208
-57.01838955653636,3596
-54.53178022029283,3468
-52.045858514480074,4036
-49.560624244506016,4395
-47.07607721569923,4265
-44.59221723330904,4059
-42.10904410250669,4285
-39.62655762838392,5612
-37.14475761595372,6459
-34.66364387015028,6793
-32.18321619582866,7553
-29.70347439776515,8792
-27.224418280657005,9543
-24.74604764912317,13277
-22.26836230770266,20237
-19.7913620608565,31462
-17.315046712966478,44478
-14.83941606833514,51535
-12.36446993118659,65038
-9.89020810566592,65038
-7.416630395839093,65038
-4.94373660569363,65038
-2.471526539137585,65038
-6.821210263296962E-13,65038
2.47084320796705,65038
4.941003281093458,65038
7.410480415786196,65038
9.879274808531363,65038
12.347386655893956,65038
14.814816154518212,65038
17.28156350112681,65038
19.74762889252179,65038
22.21301252558385,65038
24.67771459727237,65038
27.141735304626195,48663
29.605074844762612,23825
32.06773341487792,18326
34.52971121224755,13930
36.99100843422559,11160
39.45162527824516,8455
41.91156194181792,9451
44.370818622535126,12458
46.82939551806646,14311
49.287292826160524,15800
51.74451074464503,13546
54.201049471426245,11188
56.65690920448981,7503
59.112090141899785,3910
61.56659248179983,3653
64.02041642241159,3853
66.4735621620365,4185
68.92602989905402,4034
71.37781983192338,4001
73.82893215918205,3247
76.27936707944684,2960
78.72912479141326,3257
81.17820549385567,3514
83.62660938562783,3365
86.07433666566146,3051
88.5213875329681,3337
90.96776218663751,3109
93.41346082583925,2676
95.85848364982041,2343
98.30283085790859,2232
100.7465026495089,2366
103.18949922410604,2512
105.63182078126385,2226
108.07346752062438,2415
110.51443964190923,2413
112.95473734491827,2280
115.39436082953114,2037
117.83331029570547,2101
120.27158594347827,2170
122.7091879729652,1942
125.1461165843615,1690
127.58237197794062,1515
130.01795435405518,1333
132.4528639131364,1541
134.88710085569494,1828
137.32066538231982,1718
139.75355769367923,1585
142.1857779905207,1847
144.61732647366978,1676
147.04820334403132,1476
149.47840880258934,1618
151.90794305040674,1933
154.33680628862487,2140
156.76499871846443,2111
159.19252054122433,2151
161.61937195828352,2165
164.04555317109896,2249
166.47106438120693,2708
168.89590579022217,3047
171.320077599839,3072
173.7435800118302,3276
176.16641322804742,3335
178.58857745042144,3387
181.01007288096173,3632
183.43089972175687,3706
185.85105817497413,3606
188.27054844285988,3699
190.6893707277394,3649
193.10752523201643,3670
195.5250121581745,3803
197.9418317087751,3919
200.3579840864594,4011
202.7734694939469,3956
205.18828813403627,4048
207.6024402096051,4010
210.01592592360964,4083
212.42874547908548,4236
214.84089907914665,4097
217.2523869269868,3958
219.66320922587727,4083
222.0733661791695,4093
224.48285799029293,4025
226.8916848627572,4243
229.29984700014882,4235
231.7073446061355,4247
234.11417788446204,4093
236.520347038953,4179
238.92585227351185,4270
241.33069379212054,4350
243.73487179884035,4365
246.1383864978112,4177
248.541238093252,4109
250.9434267894609,4282
253.34495279081432,4208
255.74581630176783,4166
258.1460175268563,4358
260.54555667069314,4321
262.9444339379703,4138
265.3426495334594,3992
267.7402036620107,4001
270.1370965285529,4067
272.53332833809407,3912
274.9288992957214,3946
277.32380960660055,3992
279.718059475976,4040
282.1116491091717,4061
284.5045787115897,4058
286.89684848871195,4112
289.2884586460981,4086
291.67940938938807,3986
294.0697009242996,3939
296.4593334566299,3912
298.84830719225477,3812
301.23662233712923,3832
303.6242790972866,3805
306.01127767884,3871
308.39761828798066,3905
310.78330113097934,3754
313.16832641418534,3714
315.5526943440269,3736
317.9364051270112,3616
320.3194589697242,3594
322.70185607883093,3712
325.0835966610754,3644
327.4646809232805,3599
329.8451090723478,3586
332.2248813152577,3587
334.6039978590701,3519
336.9824589109231,3573
339.36026467803447,3544
341.7374153677,3493
344.113911187295,3467
346.48975234427337,3389
348.8649390461686,3445
351.2394715005918,3516
353.61334991523415,3458
355.9865744978655,3322
358.35914545633375,3497
360.73106299856715,3390
363.10232733257146,3410
365.47293866643247,3367
367.84289720831396,3252
370.2122031664593,3281
372.5808567491905,3353
374.9488581649083,3433
377.31620762209275,3374
379.6829053293021,3330
382.0489514951745,3424
384.4143463284262,3375
386.7790900378528,3309
389.14318283232853,3323
391.50662492080653,3311
393.86941651231916,3233
396.23155781597745,3209
398.5930490409713,3350
400.9538903965696,3257
403.3140820921202,3263
405.6736243370498,3143
408.03251734086336,3176
410.3907613131465,3221
412.74835646356166,3270
415.10530300185144,3241
417.4616011378372,3229
419.81725108141893,3238
422.1722530425758,3263
424.5266072313656,3106
426.880313857925,3228
429.2333731324701,3251
431.58578526529516,3178
433.9375504667738,3174
436.2886689473588,3265
438.63914091758113,3224
440.9889665880513,3255
443.33814616945835,3189
445.68667987257015,3185
448.03456790823395,3210
450.3818104873759,3063
452.72840782100013,3134
455.07436012019105,3217
457.41966759611057,3311
459.7643304600007,3190
462.10834892318155,3144
464.4517231970525,3253
466.79445349309174,3372
469.1365400228566,3240
471.4779829979826,3295
473.81878263018564,3222
476.15893913125876,3190
478.4984527130747,3370
480.8373235875855,3442
483.17555196682144,3526
485.5131380628919,3566
487.8500820879857,3724
490.1863842543697,3879
492.52204477439034,4207
494.8570638604725,4431
497.1914417251204,4668
499.52517858091653,4850
501.85827464052306,4909
504.19073011668036,4931
506.5225452222086,4912
508.85372017000566,4816
511.18425517304956,4659
513.514150444396,4834
515.8434061971808,5410
518.1720226446176,5869
520.4999999999999,6342
522.8273384766991,6802
525.1540382881666,7085
527.480099647932,6756
529.8055227696037,5841
532.1303078668694,4494
534.454455153496,3682
536.777964843328,3412
539.1008371502907,3317
541.4230722883866,3197
543.744670471698,3103
546.0656319143858,3114
548.3859568306899,3020
550.7056454349294,3032
553.0246979415016,3144
555.3431145648834,3020
557.6608955196306,3112
559.978041020377,3072
562.2945512818363,3026
564.6104265188006,3055
566.9256669461412,3005
569.2402727788082,3025
571.5542442318302,2920
573.8675815203156,2892
576.1802848594508,2984
578.4923544645015,2999
580.8037905508126,3033
583.114593333807,2979
585.4247630289875,3086
587.7342998519354,2998
590.0432040183106,2985
592.3514757438526,3061
594.6591152443794,3092
596.9661227357875,3185
599.2724984340531,2956
601.578242555231,3071
603.8833553154542,3052
606.1878369309362,3084
608.4916876179676,3093
610.7949075929192,3125
613.0974970722403,3082
615.3994562724587,3099
617.7007854101818,3105
620.0014847020951,3122
622.3015543649641,3040
624.6009946156324,3021
626.8998056710224,3006
629.1979877481361,2987
631.4955410640538,3071
633.7924658359349,3123
636.0887622810175,3119
638.3844306166192,3131
640.6794710601358,3131
642.9738838290426,3155
645.2676691408932,3149
647.5608272133207,3169
649.853358264037,3136
652.1452625108324,3137
654.4365401715764,3130
656.7271914642178,3100
659.0172166067838,3096
661.3066158173809,3034
663.5953893141935,3210
665.8835373154867,3204
668.1710600396028,3173
670.4579577049639,3178
672.7442305300709,3132
675.0298787335033,3169
677.3149025339197,3124
679.599302150058,3181
681.8830778007342,3172
684.1662297048437,3052
686.4487580813608,3142
688.7306631493387,3178
691.0119451279091,3157
693.2926042362834,3178
695.5726406937516,3273
697.8520547196814,3138
700.1308465335215,3172
702.4090163547982,3147
704.6865644031171,3184
706.9634908981619,3278
709.2397960596965,3130
711.5154801075631,3256
713.7905432616823,3177
716.0649857420548,3202
718.3388077687592,3189
720.612009561953,3241
722.8845913418733,3234
725.1565533288352,3169
727.427895743234,3071
729.6986188055427,3291
731.9687227363137,3252
734.238207756178,3254
736.5070740858458,3135
738.7753219461066,3141
741.0429515578281,3074
743.3099631419569,3141
745.5763569195191,3219
747.8421331116193,3240
750.1072919394409,3247
752.3718336242467,3238
754.6357583873777,3214
756.8990664502545,3207
759.1617580343765,3093
761.423833361321,3215
763.6852926527457,3200
765.9461361303862,3206
768.206364016058,3234
770.4659765316536,3186
772.7249738991469,3193
774.9833563405886,3315
777.2411240781092,3250
779.4982773339183,3272
781.7548163303044,3247
784.010741289634,3407
786.2660524343538,3415
788.5207499869881,3224
790.7748341701416,3311
793.0283052064964,3232
795.2811633188143,3256
797.5334087299362,3232
799.7850416627813,3294
802.0360623403484,3250
804.2864709857143,3338
806.5362678220353,3256
808.7854530725468,3398
811.0340269605625,3405
813.2819897094754,3287
815.5293415427581,3294
817.77608268396,3334
820.0222133567116,3299
822.2677337847211,3263
824.5126441917765,3227
826.7569448017433,3235
829.0006358385675,3312
831.2437175262731,3327
833.4861900889629,3235
835.7280537508192,3326
837.9693087361026,3290
840.2099552691533,3370
842.4499935743896,3253
844.689423876309,3303
846.9282463994886,3184
849.1664613685833,3274
851.4040690083276,3233
853.6410695435349,3246
855.877463199097,3325
858.1132501999847,3361
860.3484307712487,3279
862.5830051380175,3315
864.8169735254988,3379
867.0503361589791,3344
869.2830932638243,3376
871.5152450654786,3304
873.7467917894654,3435
875.9777336613873,3405
878.2080709069252,3365
880.4378037518389,3337
882.666932421968,3262
884.8954571432301,3392
887.1233781416219,3473
889.3506956432192,3423
891.5774098741766,3374
893.803521060728,3392
896.0290294291852,3370
898.2539352059397,3404
900.4782386174619,3333
902.7019398903011,3408
904.925039251085,3370
907.147536926521,3346
909.3694331433943,3317
911.59072812857,3393
913.8114221089921,3246
916.0315153116827,3428
918.2510079637437,3296
920.4699002923547,3326
922.6881925247761,3266
924.905884888345,3382
927.1229776104793,3401
929.3394709186747,3291
931.555365040506,3358
933.7706602036275,3357
935.9853566357709,3314
938.1994545647489,3298
940.4129542184515,3356
942.6258558248488,3290
944.8381596119883,3324
947.0498658079974,3299
949.2609746410825,3327
951.4714863395287,3297
953.6814011316998,3211
955.8907192460387,3303
958.0994409110671,3310
960.3075663553858,3329
962.5150958076741,3311
964.7220294966913,3277
966.928367651274,3316
969.1341105003388,3271
971.3392582728806,3282
973.5438111979742,3204
975.747769504772,3142
977.9511334225061,3183
980.153903180487,3284
982.3560790081052,3258
984.5576611348289,3206
986.7586497902058,3175
988.9590452038618,3191
991.158847605503,3183
993.3580572249133,3204
995.5566742919558,3127
997.7546990365728,3148
999.952131688785,3001
1002.1489724786926,3039
1004.3452216364743,3035
1006.5408793923874,3083
1008.7359459767691,3104
1010.9304216200343,3042
1013.1243065526781,3020
1015.3176010052733,2990
1017.510305208472,2977
1019.7024193930064,3010
1021.8939437896848,2897
1024.0848786293977,2876
1026.2752241431122,2912
1028.4649805618747,2980
1030.6541481168115,2976
1032.842727039127,2860
1035.0307175601051,2873
1037.2181199111074,2878
1039.4049343235752,2877
1041.591161029029,2950
1043.7768002590683,2898
1045.9618522453698,2851
1048.1463172196918,2898
1050.3301954138697,2898
1052.513487059818,2858
1054.69619238953,2896
1056.8783116350783,2898
1059.0598450286152,2891
1061.2407928023704,2905
1063.4211551886528,3010
1065.6009324198508,2946
1067.780124728432,2881
1069.9587323469414,2885
1072.1367555080046,2885
1074.314194444325,2843
1076.4910493886855,2818
1078.667320573947,2962
1080.843008233051,2737
1083.0181125990161,2846
1085.1926339049414,2783
1087.3665723840027,2877
1089.5399282694575,2882
1091.7127017946405,2856
1093.8848931929647,2827
1096.0565026979243,2729
1098.2275305430899,2769
1100.3979769621128,2795
1102.567842188722,2817
1104.737126456726,2796
1106.9058300000124,2841
1109.0739530525475,2825
1111.2414958483764,2740
1113.4084586216231,2787
1115.5748416064907,2722
1117.7406450372605,2798
1119.9058691482942,2834
1122.0705141740304,2759
1124.2345803489884,2762
1126.3980679077658,2763
1128.5609770850388,2857
1130.7233081155623,2803
1132.8850612341707,2768
1135.0462366757774,2748
1137.2068346753745,2725
1139.3668554680326,2780
1141.526299288901,2734
1143.68516637321,2687
1145.8434569562655,2733
1148.001171273455,2745
1150.158309560244,2693
1152.3148720521767,2767
1154.470858984876,2679
1156.626270594044,2774
1158.7811071154629,2760
1160.9353687849912,2754
1163.089055838569,2720
1165.242168512213,2786
1167.3947070420209,2742
1169.5466716641677,2773
1171.6980626149075,2809
1173.8488801305748,2716
1175.9991244475814,2721
1178.1487958024186,2747
1180.2978944316555,2688
1182.4464205719428,2736
1184.5943744600072,2720
1186.7417563326567,2746
1188.8885664267755,2737
1191.0348049793297,2750
1193.1804722273619,2753
1195.325568407995,2732
1197.4700937584303,2687
1199.614048515948,2667
1201.7574329179074,2631
1203.900247201746,2674
1206.042491604982,2665
1208.1841663652099,2825
1210.3252717201053,2751
1212.465807907422,2762
1214.6057751649923,2730
1216.7451737307279,2735
1218.8840038426192,2736
1221.0222657387353,2770
1223.1599596572241,2768
1225.2970858363137,2719
1227.4336445143094,2743
1229.5696359295966,2764
1231.705060320639,2699
1233.8399179259786,2755
1235.9742089842384,2703
1238.107933734118,2638
1240.2410924143974,2708
1242.373685263935,2675
1244.5057125216676,2768
1246.6371744266116,2779
1248.7680712178621,2694
1250.898403134593,2735
1253.028170416058,2682
1255.1573733015875,2630
1257.2860120305932,2718
1259.4140868425648,2788
1261.54159797707,2715
1263.6685456737569,2759
1265.7949301723515,2731
1267.9207517126597,2721
1270.046010534565,2783
1272.1707068780306,2749
1274.2948409830983,2735
1276.4184130898889,2793
1278.541423438603,2722
1280.6638722695184,2725
1282.785759822993,2827
1284.9070863394636,2806
1287.0278520594447,2815
1289.1480572235314,2863
1291.2677020723963,2768
1293.3867868467923,2868
1295.5053117875495,2758
1297.623277135579,2828
1299.740683131868,2788
1301.8575300174857,2830
1303.973818033578,2784
1306.0895474213703,2796
1308.2047184221678,2939
1310.3193312773528,2961
1312.4333862283888,2867
1314.5468835168163,2787
1316.659823384255,2893
1318.7722060724045,2833
1320.8840318230418,2793
1322.9953008780249,2921
1325.1060134792888,2880
1327.2161698688478,2849
1329.3257702887959,2899
1331.4348149813054,2922
1333.5433041886276,2873
1335.6512381530933,2803
1337.7586171171101,2866
1339.8654413231675,2798
1341.9717110138317,2786
1344.0774264317488,2799
1346.1825878196432,2784
1348.2871954203192,2870
1350.3912494766587,2777
1352.4947502316231,2698
1354.5976979282532,2777
1356.7000928096686,2797
1358.8019351190665,2783
1360.9032250997243,2812
1363.0039629949988,2851
1365.1041490483235,2785
1367.2037835032133,2819
1369.3028666032606,2773
1371.401398592137,2790
1373.4993797135926,2831
1375.5968102114575,2878
1377.6936903296396,2853
1379.7900203121262,2781
1381.8858004029835,2828
1383.9810308463561,2872
1386.075711886469,2731
1388.1698437676241,2868
1390.2634267342032,2837
1392.356461030667,2786
1394.4489469015557,2806
1396.5408845914872,2772
1398.6322743451592,2824
1400.7231164073469,2899
1402.813411022907,2799
1404.903158436773,2794
1406.9923588939578,2845
1409.0810126395531,2789
1411.1691199187303,2774
1413.2566809767386,2802
1415.343696058907,2801
1417.4301654106425,2873
1419.5160892774315,2847
1421.6014679048399,2839
1423.6863015385125,2807
1425.7705904241707,2842
1427.8543348076178,2817
1429.9375349347342,2789
1432.0201910514802,2819
1434.102303403894,2835
1436.1838722380944,2796
1438.2648978002767,2806
1440.3453803367174,2877
1442.4253200937692,2932
1444.5047173178677,2889
1446.5835722555234,2882
1448.6618851533285,2933
1450.739656257952,2909
1452.8168858161434,2908
1454.8935740747306,2999
1456.96972128062,2990
1459.045327680797,3055
1461.120393522327,2989
1463.1949190523528,3071
1465.2689045180973,3057
1467.3423501668608,3104
1469.415256246024,3061
1471.4876230030463,3047
1473.559450685465,3104
1475.6307395408976,3093
1477.7014898170391,3220
1479.771701761665,3174
1481.8413756226287,3245
1483.9105116478618,3252
1485.9791100853772,3326
1488.0471711832643,3320
1490.1146951896926,3266
1492.1816823529098,3272
1494.2481329212433,3367
1496.3140471430984,3398
1498.3794252669609,3390
1500.4442675413939,3487
1502.5085742150404,3424
1504.572345536622,3505
1506.6355817549388,3450
1508.6982831188702,3516
1510.7604498773744,3530
1512.8220822794883,3506
1514.8831805743293,3634
1516.9437450110909,3640
1519.003775839048,3620
1521.0632733075522,3767
1523.1222376660367,3808
1525.1806691640113,3749
1527.2385680510652,3853
1529.2959345768668,4028
1531.3527689911643,3886
1533.4090715437833,4062
1535.4648424846291,4028
1537.5200820636855,4201
1539.5747905310159,4214
1541.6289681367616,4174
1543.6826151311434,4223
1545.7357317644614,4362
1547.7883182870937,4318
1549.8403749494987,4421
1551.8919020022113,4453
1553.9428996958477,4515
1555.9933682811015,4495
1558.0433080087469,4647
1560.0927191296346,4714
1562.1416018946961,4859
1564.1899565549415,4849
1566.2377833614592,4772
1568.2850825654164,4671
1570.3318544180606,4585
1572.3780991707158,4586
1574.423817074788,4399
1576.4690083817595,4226
1578.5136733431923,4198
1580.5578122107272,3972
1582.601425236085,3930
1584.6445126710646,3770
1586.6870747675434,3704
1588.7291117774776,3630
1590.7706239529034,3475
1592.8116115459347,3414
1594.8520748087658,3280
1596.8920139936686,3222
1598.9314293529933,3183
1600.9703211391711,3127
1603.008689604711,2977
1605.0465350022005,3068
1607.0838575843068,3049
1609.1206576037753,2944
1611.1569353134305,2906
1613.1926909661765,2881
1615.2279248149953,2935
1617.2626371129481,2834
1619.2968281131757,2806
1621.3304980688963,2833
1623.3636472334088,2803
1625.39627586009,2722
1627.428384202396,2849
1629.459972513861,2845
1631.4910410480993,2716
1633.5215900588028,2758
1635.551619799744,2747
1637.5811305247717,2725
1639.6101224878166,2725
1641.6385959428862,2713
1643.6665511440683,2717
1645.693988345528,2614
1647.7209078015112,2699
1649.7473097663405,2605
1651.7731944944203,2654
1653.7985622402307,2657
1655.823413258333,2672
1657.847747803366,2661
1659.8715661300494,2655
1661.8948684931793,2683
1663.9176551476316,2694
1665.9399263483624,2697
1667.9616823504057,2624
1669.982923408873,2636
1672.0036497789574,2593
1674.0238617159293,2545
1676.043559475138,2630
1678.0627433120121,2604
1680.081413482059,2658
1682.0995702408654,2561
1684.117213844096,2497
1686.134344547495,2552
1688.1509626068864,2674
1690.1670682781705,2607
1692.182661817329,2619
1694.1977434804217,2678
1696.2123135235875,2620
1698.226372203043,2562
1700.2399197750851,2578
1702.2529564960905,2523
1704.2654826225112,2576
1706.277498410882,2546
1708.2890041178139,2585
1710.2999999999988,2698
1712.3104863142066,2679
1714.3204633172854,2603
1716.329931266163,2716
1718.3388904178469,2625
1720.3473410294214,2535
1722.3552833580516,2589
1724.3627176609807,2680
1726.3696441955308,2601
1728.3760632191033,2594
1730.3819749891782,2558
1732.3873797633146,2604
1734.3922777991502,2550
1736.3966693544012,2601
1738.4005546868639,2487
1740.4039340544127,2625
1742.406807715001,2510
1744.4091759266616,2467
1746.4110389475054,2564
1748.4123970357223,2491
1750.413250449582,2503
1752.4135994474318,2545
1754.4134442876993,2519
1756.4127852288902,2518
1758.4116225295893,2563
1760.4099564484595,2458
1762.407787244244,2545
1764.405115175764,2457
1766.4019405019203,2473
1768.3982634816916,2512
1770.3940843741357,2505
1772.3894034383907,2491
1774.3842209336717,2550
1776.378537119274,2405
1778.372352254571,2488
1780.3656665990156,2483
1782.3584804121397,2439
1784.3507939535534,2450
1786.3426074829463,2490
1788.3339212600863,2511
1790.3247355448211,2464
1792.3150505970766,2554
1794.3048666768573,2443
1796.2941840442477,2524
1798.2830029594106,2487
1800.2713236825884,2461
1802.2591464741004,2446
1804.2464715943465,2471
1806.2332993038058,2495
1808.2196298630352,2470
1810.2054635326708,2517
1812.190800573428,2430
1814.175641246101,2498
1816.1599858115628,2454
1818.1438345307652,2500
1820.127187664738,2433
1822.1100454745924,2415
1824.092408221516,2425
1826.0742761667766,2451
1828.055649571721,2451
1830.0365286977735,2492
1832.0169138064398,2498
1833.9968051593014,2432
1835.9762030180214,2389
1837.9551076443408,2478
1839.9335193000788,2471
1841.9114382471344,2484
1843.888864747485,2448
1845.8657990631878,2462
1847.842241456378,2509
1849.8181921892697,2430
1851.7936515241558,2395
1853.7686197234098,2458
1855.7430970494815,2454
1857.7170837649014,2550
1859.6905801322787,2525
1861.6635864143004,2472
1863.6361028737338,2368
1865.608129773424,2402
1867.5796673762961,2519
1869.5507159453537,2486
1871.521275743678,2501
1873.4913470344313,2484
1875.4609300808534,2419
1877.4300251462632,2480
1879.3986324940588,2410
1881.366752387717,2471
1883.3343850907936,2407
1885.3015308669228,2478
1887.268189979819,2513
1889.2343626932739,2473
1891.2000492711595,2447
1893.1652499774254,2567
1895.1299650761011,2538
1897.0941948312952,2438
1899.0579395071945,2455
1901.0211993680641,2465
1902.98397467825,2486
1904.9462657021745,2467
1906.9080727043415,2552
1908.869395949332,2378
1910.8302357018065,2516
1912.790592226504,2415
1914.7504657882428,2453
1916.7098566519212,2464
1918.6687650825133,2359
1920.6271913450764,2434
1922.5851357047422,2537
1924.5425984267245,2435
1926.499579776314,2352
1928.4560800188833,2501
1930.4120994198802,2548
1932.367638244833,2391
1934.32269675935,2493
1936.2772752291175,2346
1938.231373919899,2447
1940.1849930975404,2417
1942.1381330279637,2416
1944.0907939771696,2534
1946.0429762112412,2449
1947.9946799963363,2396
1949.9459055986945,2474
1951.896653284633,2466
1953.8469233205478,2474
1955.7967159729142,2444
1957.7460315082863,2409
1959.6948701932974,2428
1961.6432322946594,2535
1963.5911180791632,2468
1965.5385278136787,2505
1967.4854617651545,2518
1969.4319202006182,2497
1971.377903387176,2436
1973.3234115920136,2437
1975.268445082395,2496
1977.2130041256642,2415
1979.1570889892423,2405
1981.1006999406304,2486
1983.04383724741,2394
1984.986501177238,2394
1986.928691997853,2513
1988.8704099770712,2452
1990.811655382789,2518
1992.7524284829801,2471
1994.692729545698,2436
1996.6325588390755,2456
1998.5719166313224,2400
2000.5108031907307,2405
2002.4492187856677,2448
2004.387163684583,2502
2006.3246381560011,2436
2008.2616424685298,2472
2010.1981768908527,2417
2012.1342416917332,2434
2014.069837140014,2424
2016.0049635046162,2407
2017.9396210545406,2406
2019.8738100588666,2426
2021.8075307867502,2361
2023.740783507431,2446
2025.6735684902228,2447
2027.6058860045214,2421
2029.5377363198004,2429
2031.4691197056118,2485
2033.4000364315875,2446
2035.3304867674374,2419
2037.260470982952,2350
2039.189989347998,2432
2041.1190421325232,2386
2043.047629606554,2549
2044.9757520401945,2379
2046.9034097036288,2409
2048.8306028671195,2405
2050.7573318010086,2354
2052.683596775716,2445
2054.609398061742,2414
2056.5347359296647,2497
2058.4596106501403,2392
2060.384022493906,2432
2062.3079717317764,2446
2064.231458634646,2431
2066.1544834734873,2415
2068.077046519352,2470
2069.99914804337,2367
2071.9207883167524,2460
2073.8419676107865,2448
2075.7626861968406,2388
2077.6829443463607,2400
2079.6027423308715,2428
2081.522080421977,2421
2083.440958891362,2334
2085.359378010786,2429
2087.2773380520907,2446
2089.194839287196,2417
2091.111881988101,2372
2093.0284664268825,2438
2094.9445928756973,2441
2096.86026160678,2410
2098.775472892446,2469
2100.690227005088,2384
2102.604524217178,2315
2104.5183648012676,2441
2106.431749029985,2440
2108.34467717604,2463
2110.2571495122206,2410
2112.169166311393,2479
2114.080727846503,2365
2115.9918343905747,2410
2117.902486216711,2422
2119.8126835980956,2395
2121.722426807987,2433
2123.6317161197285,2467
2125.5405518067364,2385
2127.448934142509,2449
2129.356863400624,2363
2131.264339854737,2359
2133.1713637785815,2378
2135.077935445972,2468
2136.9840551308002,2366
2138.889723107037,2414
2140.7949396487334,2399
2142.699705030018,2449
2144.6040195250994,2455
2146.507883408264,2384
2148.4112969538774,2426
2150.3142604363848,2431
2152.2167741303097,2407
2154.1188383102535,2353
2156.0204532508997,2333
2157.9216192270064,2387
2159.822336513414,2367
2161.7226053850413,2389
2163.622426116884,2441
2165.5217989840185,2329
2167.4207242616,2386
2169.319202224862,2380
2171.2172331491165,2377
2173.1148173097563,2438
2175.0119549822507,2380
2176.90864644215,2446
2178.8048919650823,2505
2180.7006918267534,2402
2182.596046302952,2356
2184.4909556695407,2362
2186.3854202024645,2379
2188.279440177746,2447
2190.173015871487,2424
2192.066147559868,2366
2193.958835519149,2482
2195.851080025667,2353
2197.7428813558417,2340
2199.6342397861667,2333
2201.5251555932186,2463
2203.415629053651,2442
2205.3056604441986,2384
2207.19525004167,2384
2209.084398122958,2394
2210.9731049650327,2388
2212.861370844941,2455
2214.749196039812,2347
2216.636580826851,2393
2218.523525483344,2366
2220.410030286655,2433
2222.296095514226,2474
2224.1817214435805,2463
2226.066908352319,2446
2227.951656518121,2507
2229.835966218746,2411
2231.71983773203,2378
2233.6032713358913,2482
2235.486267308324,2422
2237.3688259274036,2434
2239.2509474712824,2479
2241.132632218193,2404
2243.013880446447,2409
2244.8946924344323,2417
2246.7750684606203,2376
2248.6550088035574,2470
2250.534513741871,2468
2252.413583554265,2463
2254.292218519526,2421
2256.170418916517,2413
2258.0481850241786,2396
2259.925517121534,2308
2261.8024154876825,2436
2263.678880401803,2467
2265.5549121431536,2461
2267.430510991071,2360
2269.305677224971,2397
2271.180411124348,2401
2273.0547129687766,2361
2274.9285830379076,2499
2276.8020216114737,2438
2278.6750289692845,2390
2280.5476053912294,2482
2282.4197511572766,2355
2284.2914665474727,2405
2286.162751841943,2479
2288.0336073208937,2366
2289.904033264608,2447
2291.774029953448,2388
2293.6435976678554,2409
2295.5127366883517,2491
2297.381447295534,2509
2299.2497297700825,2393
2301.1175843927526,2482
2302.9850114443825,2514
2304.852011205885,2469
2306.7185839582553,2481
2308.5847299825664,2519
2310.4504495599676,2421
2312.3157429716925,2475
2314.1806104990483,2428
2316.0450524234247,2418
2317.9090690262888,2482
2319.772660589186,2401
2321.635827393742,2433
2323.498569721661,2471
2325.3608878547248,2542
2327.2227820747967,2438
2329.0842526638157,2402
2330.945299903803,2490
2332.805924076857,2510
2334.6661254651535,2406
2336.525904350951,2496
2338.3852610165827,2465
2340.244195744464,2502
2342.102708817088,2533
2343.9608005170253,2454
2345.8184711269287,2401
2347.675720929526,2472
2349.532550207628,2451
2351.38895924412,2469
2353.24494832197,2434
2355.100517724223,2537
2356.955667734004,2407
2358.810398634514,2503
2360.664710709037,2442
2362.5186042409337,2446
2364.3720795136437,2406
2366.225136810686,2523
2368.0777764156583,2500
2369.929998612237,2534
2371.7818036841777,2457
2373.633191915315,2531
2375.484163589562,2529
2377.3347189909114,2522
2379.184858403434,2436
2381.03458211128,2420
2382.8838903986775,2449
2384.732783549936,2393
2386.5812618494406,2468
2388.4293255816588,2538
2390.2769750311327,2473
2392.1242104824883,2509
2393.971032220427,2512
2395.8174405297295,2487
2397.6634356952563,2476
2399.509018001947,2457
2401.3541877348193,2447
2403.1989451789705,2440
2405.043290619576,2449
2406.8872243418905,2500
2408.730746631247,2444
2410.5738577730594,2526
2412.4165580528183,2453
2414.258847756095,2491
2416.100727168537,2449
2417.9421965758734,2510
2419.783256263912,2553
2421.623906518538,2534
2423.4641476257157,2459
2425.303979871491,2421
2427.143403541984,2480
2428.9824189233977,2464
2430.821026302012,2494
2432.6592259641866,2600
2434.497018196361,2551
2436.33440328505,2460
2438.171381516851,2580
2440.00795317844,2522
2441.844118556569,2573
2443.6798779380724,2570
2445.5152316098606,2525
2447.3501798589255,2621
2449.1847229723357,2515
2451.0188612372403,2492
2452.8525949408663,2492
2454.6859243705203,2398
2456.518849813587,2506
2458.3513715575314,2571
2460.183489889895,2549
2462.015205098301,2508
2463.8465174704493,2538
2465.67742729412,2448
2467.5079348571717,2487
2469.338040447542,2489
2471.1677443532476,2520
2472.9970468623833,2551
2474.825948263123,2491
2476.6544488437207,2516
2478.482548892508,2481
2480.310248697896,2550
2482.137548548374,2476
2483.9644487325118,2507
2485.790949538956,2571
2487.617051256433,2569
2489.44275417375,2540
2491.26805857979,2492
2493.0929647635157,2517
2494.917473013971,2571
2496.741583620276,2494
2498.5652968716304,2584
2500.3886130573137,2586
2502.2115324666834,2536
2504.0340553891765,2544
2505.856182114308,2556
2507.6779129316733,2509
2509.499248130945,2559
2511.3201880018764,2563
2513.140732834298,2459
2514.9608829181198,2591
2516.780638543331,2481
2518.6,2647
2520.418967578273,2549
2522.237541568376,2464
2524.0557222606144,2583
2525.8735099453706,2591
2527.6909049131086,2594
2529.507907454368,2494
2531.32451785977,2619
2533.140736420014,2586
2534.9565634258774,2516
2536.771999168218,2529
2538.5870439379714,2589
2540.4016980261526,2586
2542.2159617238544,2537
2544.02983532225,2517
2545.8433191125914,2582
2547.656413386209,2627
2549.4691184345115,2658
2551.2814345489874,2495
2553.093362021204,2561
2554.904901142808,2628
2556.716052205523,2673
2558.526815501153,2725
2560.3371913215824,2691
2562.147179958771,2699
2563.956781704761,2612
2565.7659968516705,2565
2567.5748256916986,2678
2569.3832685171224,2690
2571.1913256202984,2654
2572.9989972936614,2582
2574.806283829725,2676
2576.613185521084,2622
2578.4197026604074,2700
2580.2258355404483,2749
2582.031584454035,2701
2583.836949694077,2676
2585.6419315535613,2776
2587.4465303255533,2672
2589.2507463032002,2740
2591.0545797797245,2747
2592.8580310484303,2742
2594.6611004026995,2742
2596.463788135992,2732
2598.266094541849,2731
2600.0680199138874,2720
2601.869564545807,2657
2603.670728731383,2735
2605.4715127644704,2767
2607.2719169390048,2691
2609.071941548998,2788
2610.8715868885433,2754
2612.670853251811,2837
2614.469740933052,2747
2616.268250226594,2848
2618.0663814268455,2746
2619.864134828292,2725
2621.6615107255006,2795
2623.458509413115,2795
2625.2551311858597,2739
2627.0513763385347,2697
2628.8472451660223,2720
2630.6427379632833,2764
2632.4378550253564,2735
2634.232596647359,2736
2636.026963124488,2762
2637.8209547520187,2639
2639.6145718253065,2724
2641.407814639785,2653
2643.200683490966,2679
2644.9931786744414,2766
2646.7853004858807,2693
2648.577049221034,2692
2650.3684251757277,2651
2652.1594286458712,2650
2653.9500599274484,2646
2655.740319316525,2614
2657.5302071092437,2648
2659.3197236018286,2685
2661.10886909058,2650
2662.8976438718782,2650
2664.686048242183,2658
2666.4740824980327,2654
2668.2617469360443,2647
2670.0490418529134,2690
2671.8359675454153,2691
2673.622524310403,2622
2675.408712444811,2535
2677.1945322456495,2609
2678.979984010009,2622
2680.76506803506,2620
2682.5497846180497,2543
2684.334134056306,2586
2686.1181166472343,2568
2687.9017326883213,2543
2689.6849824771293,2536
2691.4678663113013,2531
2693.2503844885596,2531
2695.032537306705,2560
2696.8143250636167,2512
2698.5957480572542,2546
2700.3768065856534,2487
2702.1575009469316,2435
2703.937831439283,2496
2705.717798360982,2467
2707.4974020103837,2473
2709.276642685917,2547
2711.055520686095,2526
2712.834036309506,2446
2714.612189854819,2448
2716.389981620782,2453
2718.1674119062204,2534
2719.944481010041,2399
2721.721189231226,2433
2723.4975368688415,2515
2725.273524222027,2500
2727.0491515900053,2507
2728.824419272075,2429
2730.5993275676146,2478
2732.3738767760838,2493
2734.148067197016,2496
2735.921899130031,2495
2737.6953728748194,2515
2739.468488731156,2558
2741.2412469988926,2504
2743.0136479779617,2477
2744.785691968372,2513
2746.5573792702116,2478
2748.3287101836504,2561
2750.099685008934,2532
2751.870304046388,2372
2753.640567596418,2458
2755.4104759595057,2456
2757.1800294362156,2415
2758.949228327187,2542
2760.7180729331412,2420
2762.486563554877,2522
2764.254700493272,2437
2766.022484049284,2492
2767.789914523947,2494
2769.5569922183786,2462
2771.3237174337705,2522
2773.090090471394,2494
2774.8561116326036,2440
2776.6217812188274,2509
2778.3870995315756,2496
2780.1520668724356,2425
2781.9166835430747,2435
2783.6809498452394,2587
2785.444866080754,2434
2787.2084325515225,2475
2788.971649559527,2484
2790.73451740683,2434
2792.4970363955713,2492
2794.2592068279705,2513
2796.0210290063264,2517
2797.7825032330147,2551
2799.543629810493,2396
2801.304409041296,2504
2803.0648412280366,2500
2804.8249266734088,2468
2806.5846656801846,2472
2808.344058551212,2473
2810.1031055894246,2538
2811.8618070978273,2438
2813.6201633795085,2474
2815.378174737636,2382
2817.1358414754536,2557
2818.893163896285,2492
2820.6501423035334,2528
2822.4067770006814,2464
2824.1630682912883,2506
2825.9190164789957,2434
2827.6746218675207,2467
2829.429884760661,2471
2831.184805462294,2474
2832.9393842763743,2516
2834.693621506936,2423
2836.4475174580916,2531
2838.201072434034,2491
2839.954286739034,2435
2841.707160677441,2462
2843.459694553685,2458
2845.2118886722724,2467
2846.96374333779,2429
2848.7152588549034,2488
2850.4664355283567,2496
2852.217273662973,2470
2853.9677735636546,2489
2855.7179355353833,2469
2857.4677598832186,2525
2859.217246912299,2490
2860.9663969278427,2537
2862.715210235146,2524
2864.4636871395846,2412
2866.211827946614,2444
2867.9596329617652,2414
2869.7071024906536,2533
2871.4542368389684,2434
2873.20103631248,2379
2874.947501217038,2495
2876.6936318585695,2531
2878.4394285430812,2461
2880.1848915766604,2498
2881.9300212654707,2454
2883.6748179157553,2503
2885.4192818338374,2419
2887.1634133261173,2461
2888.907212699077,2451
2890.6506802592744,2472
2892.393816313348,2387
2894.1366211680142,2511
2895.8790951300693,2474
2897.621238506388,2404
2899.363051603925,2490
2901.1045347297118,2451
2902.8456881908596,2472
2904.58651229456,2403
2906.327007348081,2409
2908.067173658772,2458
2909.8070115340597,2508
2911.5465212814497,2482
2913.285703208527,2430
2915.0245576229563,2430
2916.7630848324807,2311
2918.5012851449196,2403
2920.2391588681758,2480
2921.976706310227,2491
2923.7139277791334,2503
2925.4508235830313,2485
2927.187394030137,2404
2928.923639428745,2485
2930.6595600872306,2408
2932.395156314046,2459
2934.1304284177218,2518
2935.8653767068713,2472
2937.6000014901815,2500
2939.3343030764227,2426
2941.068281774442,2455
2942.8019378931644,2431
2944.5352717415976,2431
2946.2682836288236,2425
2948.0009738640065,2436
2949.7333427563885,2465
2951.465390615289,2475
2953.1971177501086,2427
2954.9285244703265,2466
2956.6596110855,2433
2958.3903779052657,2477
2960.1208252393385,2452
2961.8509533975125,2440
2963.5807626896617,2400
2965.3102534257378,2425
2967.0394259157715,2389
2968.768280469873,2448
2970.496817398232,2442
2972.2250370111146,2379
2973.952939618869,2394
2975.6805255319196,2451
2977.4077950607707,2367
2979.134748516006,2432
2980.861386208289,2484
2982.587708448359,2385
2984.313715547037,2483
2986.039407815222,2526
2987.764785563891,2441
2989.489849104102,2497
2991.2145987469908,2502
2992.9390348037705,2472
2994.6631575857346,2463
2996.3869674042576,2481
2998.1104645707887,2424
2999.83364939686,2383
3001.5565221940783,2411
3003.2790832741334,2388
3005.0013329487924,2484
3006.7232715298996,2386
3008.4448993293804,2420
3010.166216659239,2363
3011.887223831558,2428
3013.607921158498,2470
3015.3283089522993,2408
3017.0483875252826,2402
3018.7681571898443,2444
3020.4876182584626,2416
3022.2067710436927,2406
3023.9256158581707,2456
3025.644153014609,2400
3027.362382825801,2425
3029.0803056046193,2449
3030.797921664012,2506
3032.5152313170106,2444
3034.2322348767225,2355
3035.9489326563353,2353
3037.665324969115,2392
3039.3814121284063,2510
3041.097194447633,2385
3042.812672240299,2469
3044.5278458199855,2384
3046.2427155003525,2474
3047.9572815951406,2315
3049.671544418167,2451
3051.38550428333,2432
3053.0991615046073,2414
3054.812516396051,2461
3056.5255692717974,2505
3058.2383204460575,2474
3059.9507702331257,2445
3061.662918947372,2461
3063.3747669032446,2441
3065.0863144152736,2392
3066.7975617980674,2439
3068.508509366309,2526
3070.219157434767,2531
3071.9295063182844,2453
3073.639556331785,2479
3075.3493077902704,2513
3077.058761008821,2393
3078.7679163025964,2395
3080.476773986837,2478
3082.1853343768594,2441
3083.89359778806,2438
3085.6015645359153,2380
3087.3092349359786,2431
3089.016609303884,2406
3090.7236879553434,2433
3092.4304712061476,2398
3094.136959372166,2414
3095.843152769349,2352
3097.5490517137237,2454
3099.2546565213966,2410
3100.959967508554,2391
3102.66498499146,2394
3104.3697092864577,2448
3106.0741407099695,2515
3107.778279578498,2477
3109.482126208622,2473
3111.1856809170004,2456
3112.8889440203716,2423
3114.5919158355528,2516
3116.294596679439,2418
3117.996986869006,2435
3119.6990867213062,2411
3121.4008965534726,2467
3123.102416682717,2487
3124.803647426329,2480
3126.5045891016784,2439
3128.205242026213,2455
3129.90560651746,2429
3131.605682893025,2466
3133.3054714705922,2442
3135.0049725679282,2521
3136.7041865028714,2439
3138.4031135933465,2453
3140.101754157353,2413
3141.800108512971,2547
3143.498176978357,2464
3145.1959598717494,2466
3146.8934575114636,2404
3148.5906702158954,2441
3150.2875983035183,2437
3151.9842420928853,2408
3153.680601902627,2467
3155.376678051456,2424
3157.07247085816,2346
3158.767980641609,2357
3160.463207720748,2430
3162.158152414606,2478
3163.8528150422862,2399
3165.5471959229726,2423
3167.2412953759303,2481
3168.9351137204976,2463
3170.628651276098,2393
3172.3219083622307,2377
3174.014885298474,2410
3175.707582404485,2475
3177.4000000000005,2452
3179.092138404835,2420
3180.7839979388846,2384
3182.47557892212,2362
3184.166881674594,2430
3185.8579065164386,2366
3187.5486537678626,2332
3189.2391237491547,2480
3190.9293167806827,2526
3192.6192331828934,2296
3194.3088732763117,2443
3195.998237381542,2442
3197.687325819268,2425
3199.376138910251,2436
3201.064676975334,2368
3202.7529403354347,2366
3204.4409293115523,2461
3206.1286442247647,2479
3207.816085396229,2431
3209.5032531471825,2374
3211.190147798936,2390
3212.8767696728846,2320
3214.5631190905015,2314
3216.2491963733373,2341
3217.9350018430214,2391
3219.6205358212637,2316
3221.305798629851,2360
3222.990790590651,2339
3224.6755120256103,2381
3226.359963256751,2355
3228.0441446061795,2391
3229.7280563960758,2336
3231.411698948703,2286
3233.0950725863995,2391
3234.778177631587,2333
3236.461014406761,2391
3238.1435832345005,2337
3239.8258844374595,2402
3241.507918338374,2476
3243.1896852600576,2370
3244.8711855254023,2405
3246.552419457381,2378
3248.233387379042,2312
3249.914089613516,2275
3251.59452648401,2317
3253.274698313813,2324
3254.95460542629,2406
3256.6342481448855,2339
3258.313626793125,2355
3259.9927416946084,2354
3261.6715931730196,2356
3263.3501815521176,2304
3265.0285071557437,2319
3266.706570307815,2322
3268.3843713323286,2299
3270.0619105533615,2362
3271.739188295068,2348
3273.4162048816834,2362
3275.0929606375184,2265
3276.769455886966,2330
3278.445690954498,2401
3280.1216661646613,2344
3281.797381842087,2406
3283.4728383114807,2416
3285.1480358976296,2345
3286.8229749253996,2333
3288.4976557197333,2353
3290.172078605655,2332
3291.846243908266,2332
3293.5201519527463,2403
3295.193803064357,2306
3296.8671975684374,2338
3298.5403357904024,2294
3300.21321805575,2261
3301.8858446900567,2341
3303.558216018975,2396
3305.23033236824,2404
3306.9021940636603,2407
3308.57380143113,2356
3310.2451547966184,2387
3311.916254486174,2383
3313.5871008259246,2410
3315.2576941420766,2374
3316.9280347609147,2348
3318.5981230088046,2252
3320.2679592121895,2366
3321.9375436975924,2321
3323.606876791612,2310
3325.27595882093,2325
3326.944790112305,2291
3328.6133709925753,2314
3330.2817017886573,2292
3331.949782827547,2279
3333.617614436319,2318
3335.2851969421245,2351
3336.952530672199,2346
3338.619615953853,2339
3340.286453114475,2336
3341.9530424815357,2421
3343.619384382583,2380
3345.2854791452437,2325
3346.951327097224,2428
3348.6169285663073,2347
3350.2822838803577,2405
3351.947393367319,2479
3353.61225735521,2360
3355.2768761721345,2456
3356.9412501462693,2343
3358.605379605873,2388
3360.2692648792827,2366
3361.9329062949146,2327
3363.596304181263,2282
