CollectionTime,6/26/2024 2:28:10 PM
ExposureUsed,3
CalibratedSpectrum
-962.7078968117929,4284
-959.9714848408522,4528
-957.2358232597828,4570
-954.5009119013725,4552
-951.7667505983302,4656
-949.0333391832855,4650
-946.3006774887896,4689
-943.5687653473143,4623
-940.837602591253,4670
-938.1071890529199,4673
-935.3775245645503,4589
-932.6486089583007,4698
-929.9204420662485,4697
-927.1930237203925,4621
-924.4663537526524,4587
-921.7404319948689,4615
-919.0152582788041,4738
-916.2908324361409,4718
-913.5671542984834,4827
-910.8442236973568,4699
-908.1220404642074,4727
-905.4006044304027,4673
-902.679915427231,4700
-899.959973285902,4729
-897.2407778375464,4678
-894.5223289132158,4703
-891.8046263438832,4718
-889.0876699604426,4586
-886.3714595937089,4598
-883.6559950744183,4726
-880.9412762332282,4677
-878.2273029007168,4752
-875.5140749073835,4676
-872.8015920836489,4633
-870.0898542598545,4613
-867.3788612662631,4828
-864.6686129330585,4774
-861.9591090903457,4579
-859.2503495681506,4720
-856.5423341964203,4661
-853.8350628050229,4831
-851.1285352237478,4757
-848.4227512823054,4686
-845.7177108103272,4813
-843.0134136373656,4759
-840.3098595928943,4853
-837.6070485063082,4766
-834.9049802069229,4759
-832.2036545239757,4762
-829.5030712866244,4896
-826.8032303239481,4727
-824.1041314649472,4842
-821.4057745385428,4694
-818.7081593735775,4677
-816.0112857988148,4673
-813.3151536429393,4781
-810.6197627345566,4856
-807.9251129021936,4711
-805.2312039742981,4760
-802.5380357792392,4912
-799.8456081453069,4713
-797.1539209007124,4919
-794.462973873588,4848
-791.772766891987,4896
-789.083299783884,4789
-786.3945723771743,4901
-783.7065844996748,4846
-781.0193359791231,4861
-778.3328266431781,4867
-775.6470563194197,4732
-772.9620248353489,4808
-770.2777320183878,4800
-767.5941776958798,4791
-764.9113616950891,4811
-762.2292838432011,4766
-759.5479439673222,4865
-756.8673418944801,4815
-754.1874774516235,4803
-751.5083504656222,4816
-748.8299607632671,4860
-746.15230817127,4909
-743.475392516264,4845
-740.7992136248035,4899
-738.1237713233636,4929
-735.4490654383407,4920
-732.7750957960521,5012
-730.1018622227365,4823
-727.4293645445534,4857
-724.7576025875837,4995
-722.0865761778291,4927
-719.4162851412126,4857
-716.7467293035781,5022
-714.0779084906909,4985
-711.409822528237,5049
-708.7424712418238,5041
-706.0758544569796,4975
-703.4099719991541,5023
-700.7448236937178,5092
-698.0804093659622,5042
-695.4167288411002,5000
-692.7537819442656,5051
-690.0915685005134,5083
-687.4300883348199,5026
-684.7693412720819,5108
-682.1093271371178,5032
-679.4500457546669,5145
-676.7914969493897,4989
-674.1336805458676,4946
-671.4765963686034,4960
-668.8202442420206,4987
-666.1646239904642,5113
-663.5097354382001,5026
-660.8555784094151,5081
-658.2021527282176,5037
-655.5494582186366,5035
-652.8974947046223,5160
-650.2462620100463,5020
-647.5957599587009,5104
-644.9459883742998,5083
-642.2969470804776,5153
-639.6486359007902,5156
-637.0010546587141,5208
-634.3542031776476,5166
-631.7080812809096,5315
-629.0626887917401,5102
-626.4180255333008,5280
-623.7740913286734,5176
-621.1308860008619,5183
-618.4884093727904,5202
-615.8466612673046,5157
-613.2056415071715,5139
-610.5653499150785,5140
-607.9257863136347,5160
-605.28695052537,5273
-602.6488423727357,5181
-600.0114616781036,5265
-597.3748082637674,5148
-594.7388819519412,5200
-592.1036825647604,5224
-589.4692099242818,5310
-586.8354638524829,5343
-584.2024441712624,5111
-581.5701507024403,5221
-578.9385832677575,5234
-576.3077416888759,5243
-573.6776257873787,5325
-571.0482353847704,5196
-568.4195703024757,5200
-565.7916303618415,5252
-563.164415384135,5282
-560.5379251905453,5157
-557.9121596021815,5326
-555.2871184400748,5197
-552.6628015251767,5260
-550.0392086783606,5200
-547.4163397204204,5238
-544.794194472071,5174
-542.1727727539491,5259
-539.5520743866118,5302
-536.9320991905377,5175
-534.3128469861261,5431
-531.6943175936979,5444
-529.0765108334947,5354
-526.4594265256793,5475
-523.8430644903358,5598
-521.2274245474689,5803
-518.612506517005,5971
-515.9983102187913,6060
-513.3848354725959,6244
-510.77208209810846,6148
-508.16004991493924,6174
-505.5487387426199,6168
-502.9381484006032,6260
-500.3282787082628,6518
-497.71912948489364,6768
-495.1107005497117,6651
-492.5029917218539,6557
-489.8960028203786,6659
-487.28973366426493,6446
-484.68418407241325,6191
-482.07935386364494,5992
-479.47524285670266,5856
-476.87185087025,5874
-474.2691777228715,5844
-471.66722323307334,5778
-469.0659872192821,5782
-466.4654694998459,5715
-463.86566989303384,5645
-461.26658821703614,5703
-458.66822428996414,5656
-456.07057792985,5551
-453.4736489546475,5592
-450.877437182231,5508
-448.28194243039627,5474
-445.68716451686,5445
-443.09310325926003,5526
-440.49975847515555,5510
-437.9071299820263,5398
-435.31521759727354,5592
-432.72402113821954,5292
-430.13354042210767,5447
-427.5437752661022,5456
-424.95472548728867,5433
-422.36639090267386,5375
-419.7787713291855,5646
-417.1918665836721,5598
-414.60567648290385,5501
-412.0202008435715,5665
-409.4354394822874,5668
-406.8513922155845,5539
-404.26805885991723,5585
-401.685439231661,5497
-399.103533147112,5592
-396.522340422488,5566
-393.9418608739278,5436
-391.3620943174908,5189
-388.7830405691583,5054
-386.2046994448317,4827
-383.6270707603344,4477
-381.05015433141045,4091
-378.473949973725,3759
-375.8984575028645,3361
-373.32367673433623,2873
-370.74960748356875,2522
-368.1762495659117,2180
-365.60360279663576,1771
-363.03166699093265,1551
-360.4604419639154,1346
-357.8899275306178,1142
-355.32012350599507,941
-352.7510297049233,803
-350.1826459421999,764
-347.61497203254316,770
-345.04800779059235,651
-342.4817530309082,597
-339.91620756797226,585
-337.35137121618743,553
-334.7872437898774,529
-332.22382510328725,579
-329.66111497058273,632
-327.09911320585127,650
-324.53781962310075,626
-321.9772340362607,676
-319.4173562591816,781
-316.8581861056348,723
-314.2997233893127,738
-311.7419679238294,737
-309.1849195227194,753
-306.62857799943856,628
-304.0729431673641,517
-301.51801483979375,544
-298.963792829947,640
-296.41027695096386,655
-293.85746701590574,688
-291.3053628377552,730
-288.7539642294155,702
-286.2032710037115,723
-283.65328297338897,734
-281.1039999511146,691
-278.5554217494762,783
-276.007548180983,718
-273.4603790580651,718
-270.9139141930734,692
-268.3681533982807,748
-265.8230964858798,700
-263.27874326798565,679
-260.7350935566336,694
-258.1921471637804,741
-255.6499039013039,815
-253.10836358100266,814
-250.56752601459698,783
-248.02739101372765,785
-245.48795838995704,840
-242.94922795476816,858
-240.41119951956557,840
-237.8738728956746,1056
-235.33724789434166,1010
-232.80132432673452,947
-230.2661020039418,1053
-227.73158073697357,955
-225.19776033676033,820
-222.66464061415422,919
-220.1322213799284,865
-217.60050244477725,803
-215.06948361931552,853
-212.53916471408013,878
-210.00954553952818,784
-207.48062590603843,909
-204.9524056239104,1058
-202.4248845033651,1137
-199.8980623545441,1107
-197.37193898751036,961
-194.84651421224817,903
-192.32178783866232,966
-189.79775967657952,892
-187.27442953574644,916
-184.7517972258321,921
-182.2298625564256,897
-179.7086253370378,990
-177.18808537710026,1058
-174.66824248596583,986
-172.14909647290835,1051
-169.6306471471229,1039
-167.11289431772548,1010
-164.59583779375328,1046
-162.07947738416453,1094
-159.5638128978386,1053
-157.04884414357605,1108
-154.53457093009854,1084
-152.02099306604828,1025
-149.50811035998936,1002
-146.99592262040665,1159
-144.48442965570587,1212
-141.97363127421409,1296
-139.46352728417958,1499
-136.95411749377126,1514
-134.44540171107985,1681
-131.93737974411636,1522
-129.43005140081357,1419
-126.92341648902493,1372
-124.41747481652521,1455
-121.91222619101006,1597
-119.40767042009657,1365
-116.90380731132257,1216
-114.40063667214702,1363
-111.8981583099503,1553
-109.3963720320337,1518
-106.89527764561933,1370
-104.39487495785067,1596
-101.89516377579241,1834
-99.39614390642998,1570
-96.89781515667039,1622
-94.40017733334128,1864
-91.90323024319173,1934
-89.40697369289148,1870
-86.91140748903172,1739
-84.41653143812482,1841
-81.92234534660395,1923
-79.42884902082358,2012
-76.93604226705907,2142
-74.4439248915071,2252
-71.95249670028534,2273
-69.46175749943245,2350
-66.97170709490854,2601
-64.48234529259423,3018
-61.99367189829195,2985
-59.50568671772464,3000
-57.01838955653636,3067
-54.53178022029283,3123
-52.045858514480074,3739
-49.560624244506016,4140
-47.07607721569923,3940
-44.59221723330904,3742
-42.10904410250669,3488
-39.62655762838392,4984
-37.14475761595372,6070
-34.66364387015028,6894
-32.18321619582866,7644
-29.70347439776515,8522
-27.224418280657005,10027
-24.74604764912317,12247
-22.26836230770266,18337
-19.7913620608565,28849
-17.315046712966478,39566
-14.83941606833514,46929
-12.36446993118659,65039
-9.89020810566592,65039
-7.416630395839093,65039
-4.94373660569363,65039
-2.471526539137585,65039
-6.821210263296962E-13,65039
2.47084320796705,65039
4.941003281093458,65039
7.410480415786196,65039
9.879274808531363,65039
12.347386655893956,65039
14.814816154518212,65039
17.28156350112681,65039
19.74762889252179,65039
22.21301252558385,65039
24.67771459727237,65039
27.141735304626195,37604
29.605074844762612,16359
32.06773341487792,12657
34.52971121224755,9558
36.99100843422559,8881
39.45162527824516,9738
41.91156194181792,12511
44.370818622535126,14723
46.82939551806646,15787
49.287292826160524,15266
51.74451074464503,12924
54.201049471426245,10466
56.65690920448981,7812
59.112090141899785,4452
61.56659248179983,3875
64.02041642241159,3077
66.4735621620365,3161
68.92602989905402,3345
71.37781983192338,3162
73.82893215918205,2411
76.27936707944684,2192
78.72912479141326,2777
81.17820549385567,2953
83.62660938562783,2847
86.07433666566146,2556
88.5213875329681,2622
90.96776218663751,2789
93.41346082583925,2698
95.85848364982041,2389
98.30283085790859,2028
100.7465026495089,1994
103.18949922410604,2313
105.63182078126385,2009
108.07346752062438,2220
110.51443964190923,2148
112.95473734491827,1923
115.39436082953114,1801
117.83331029570547,1740
120.27158594347827,1834
122.7091879729652,1725
125.1461165843615,1440
127.58237197794062,1380
130.01795435405518,1310
132.4528639131364,1408
134.88710085569494,1557
137.32066538231982,1668
139.75355769367923,1441
142.1857779905207,1490
144.61732647366978,1629
147.04820334403132,1638
149.47840880258934,1693
151.90794305040674,1915
154.33680628862487,2431
156.76499871846443,2661
159.19252054122433,2903
161.61937195828352,3296
164.04555317109896,3516
166.47106438120693,3981
168.89590579022217,4708
171.320077599839,5152
173.7435800118302,5171
176.16641322804742,5696
178.58857745042144,6125
181.01007288096173,6441
183.43089972175687,6736
185.85105817497413,6899
188.27054844285988,7001
190.6893707277394,7312
193.10752523201643,7387
195.5250121581745,7709
197.9418317087751,7870
200.3579840864594,8037
202.7734694939469,7956
205.18828813403627,8160
207.6024402096051,8109
210.01592592360964,8043
212.42874547908548,8231
214.84089907914665,7994
217.2523869269868,8181
219.66320922587727,8212
222.0733661791695,8160
224.48285799029293,8405
226.8916848627572,8318
229.29984700014882,8593
231.7073446061355,8681
234.11417788446204,8635
236.520347038953,8714
238.92585227351185,8894
241.33069379212054,9012
243.73487179884035,8780
246.1383864978112,8549
248.541238093252,8562
250.9434267894609,8604
253.34495279081432,8563
255.74581630176783,8408
258.1460175268563,8584
260.54555667069314,8663
262.9444339379703,8728
265.3426495334594,8520
267.7402036620107,8266
270.1370965285529,8548
272.53332833809407,8544
274.9288992957214,8484
277.32380960660055,8393
279.718059475976,8555
282.1116491091717,8417
284.5045787115897,8539
286.89684848871195,8425
289.2884586460981,8662
291.67940938938807,8287
294.0697009242996,8126
296.4593334566299,8481
298.84830719225477,8453
301.23662233712923,8509
303.6242790972866,8378
306.01127767884,8418
308.39761828798066,8297
310.78330113097934,8439
313.16832641418534,8201
315.5526943440269,8415
317.9364051270112,8137
320.3194589697242,8315
322.70185607883093,7987
325.0835966610754,8219
327.4646809232805,8201
329.8451090723478,8188
332.2248813152577,8064
334.6039978590701,8306
336.9824589109231,8123
339.36026467803447,8079
341.7374153677,8180
344.113911187295,8152
346.48975234427337,8232
348.8649390461686,8171
351.2394715005918,7984
353.61334991523415,8017
355.9865744978655,7991
358.35914545633375,7999
360.73106299856715,7865
363.10232733257146,8112
365.47293866643247,8123
367.84289720831396,7960
370.2122031664593,7991
372.5808567491905,7936
374.9488581649083,7943
377.31620762209275,7904
379.6829053293021,8070
382.0489514951745,8067
384.4143463284262,8060
386.7790900378528,8041
389.14318283232853,8029
391.50662492080653,7989
393.86941651231916,7801
396.23155781597745,7866
398.5930490409713,7977
400.9538903965696,7843
403.3140820921202,7822
405.6736243370498,7899
408.03251734086336,7733
410.3907613131465,7679
412.74835646356166,8028
415.10530300185144,7867
417.4616011378372,8086
419.81725108141893,8112
422.1722530425758,7941
424.5266072313656,7969
426.880313857925,7764
429.2333731324701,8084
431.58578526529516,8011
433.9375504667738,7954
436.2886689473588,7799
438.63914091758113,7976
440.9889665880513,7875
443.33814616945835,7940
445.68667987257015,7903
448.03456790823395,7941
450.3818104873759,7773
452.72840782100013,7984
455.07436012019105,7884
457.41966759611057,7824
459.7643304600007,7913
462.10834892318155,7920
464.4517231970525,7991
466.79445349309174,8078
469.1365400228566,7916
471.4779829979826,7985
473.81878263018564,7907
476.15893913125876,8055
478.4984527130747,8145
480.8373235875855,8179
483.17555196682144,8177
485.5131380628919,8320
487.8500820879857,8555
490.1863842543697,8884
492.52204477439034,8899
494.8570638604725,9186
497.1914417251204,9459
499.52517858091653,9694
501.85827464052306,9569
504.19073011668036,9530
506.5225452222086,9555
508.85372017000566,9259
511.18425517304956,9083
513.514150444396,9379
515.8434061971808,9964
518.1720226446176,10828
520.4999999999999,11151
522.8273384766991,11548
525.1540382881666,11738
527.480099647932,11655
529.8055227696037,10732
532.1303078668694,9410
534.454455153496,8519
536.777964843328,8190
539.1008371502907,7975
541.4230722883866,7847
543.744670471698,7904
546.0656319143858,7820
548.3859568306899,7883
550.7056454349294,7873
553.0246979415016,7936
555.3431145648834,7710
557.6608955196306,7878
559.978041020377,7886
562.2945512818363,7843
564.6104265188006,7819
566.9256669461412,7959
569.2402727788082,7829
571.5542442318302,7782
573.8675815203156,7962
576.1802848594508,7852
578.4923544645015,7737
580.8037905508126,7915
583.114593333807,7812
585.4247630289875,7991
587.7342998519354,7691
590.0432040183106,7849
592.3514757438526,7822
594.6591152443794,7765
596.9661227357875,7756
599.2724984340531,7993
601.578242555231,7760
603.8833553154542,7856
606.1878369309362,7987
608.4916876179676,8177
610.7949075929192,7963
613.0974970722403,7907
615.3994562724587,7943
617.7007854101818,7807
620.0014847020951,7945
622.3015543649641,7936
624.6009946156324,7870
626.8998056710224,8005
629.1979877481361,7894
631.4955410640538,7923
633.7924658359349,7920
636.0887622810175,8053
638.3844306166192,7974
640.6794710601358,7809
642.9738838290426,7937
645.2676691408932,7819
647.5608272133207,8072
649.853358264037,7960
652.1452625108324,8011
654.4365401715764,7896
656.7271914642178,8058
659.0172166067838,8050
661.3066158173809,8104
663.5953893141935,7930
665.8835373154867,8105
668.1710600396028,8041
670.4579577049639,8036
672.7442305300709,8090
675.0298787335033,8071
677.3149025339197,8070
679.599302150058,8061
681.8830778007342,8103
684.1662297048437,7996
686.4487580813608,8041
688.7306631493387,8104
691.0119451279091,8144
693.2926042362834,7904
695.5726406937516,8099
697.8520547196814,8030
700.1308465335215,8026
702.4090163547982,8094
704.6865644031171,8202
706.9634908981619,8008
709.2397960596965,7977
711.5154801075631,8028
713.7905432616823,7953
716.0649857420548,8070
718.3388077687592,7960
720.612009561953,8145
722.8845913418733,8020
725.1565533288352,8236
727.427895743234,8084
729.6986188055427,7999
731.9687227363137,8115
734.238207756178,8223
736.5070740858458,8134
738.7753219461066,8009
741.0429515578281,8154
743.3099631419569,8197
745.5763569195191,8225
747.8421331116193,8176
750.1072919394409,8111
752.3718336242467,8121
754.6357583873777,8176
756.8990664502545,8194
759.1617580343765,8043
761.423833361321,8151
763.6852926527457,7996
765.9461361303862,7994
768.206364016058,8251
770.4659765316536,8006
772.7249738991469,8247
774.9833563405886,8188
777.2411240781092,8107
779.4982773339183,8068
781.7548163303044,8165
784.010741289634,8163
786.2660524343538,8244
788.5207499869881,8141
790.7748341701416,8139
793.0283052064964,8171
795.2811633188143,8103
797.5334087299362,8164
799.7850416627813,8100
802.0360623403484,8218
804.2864709857143,8130
806.5362678220353,8244
808.7854530725468,8197
811.0340269605625,8213
813.2819897094754,8227
815.5293415427581,8197
817.77608268396,8373
820.0222133567116,8152
822.2677337847211,8172
824.5126441917765,8197
826.7569448017433,8127
829.0006358385675,8253
831.2437175262731,8261
833.4861900889629,8269
835.7280537508192,8170
837.9693087361026,8235
840.2099552691533,8141
842.4499935743896,8137
844.689423876309,8281
846.9282463994886,8101
849.1664613685833,8202
851.4040690083276,8133
853.6410695435349,8258
855.877463199097,8222
858.1132501999847,8303
860.3484307712487,8220
862.5830051380175,8206
864.8169735254988,8186
867.0503361589791,8421
869.2830932638243,8196
871.5152450654786,8319
873.7467917894654,8324
875.9777336613873,8279
878.2080709069252,8284
880.4378037518389,8231
882.666932421968,8334
884.8954571432301,8413
887.1233781416219,8184
889.3506956432192,8394
891.5774098741766,8252
893.803521060728,8264
896.0290294291852,8328
898.2539352059397,8251
900.4782386174619,8267
902.7019398903011,8462
904.925039251085,8285
907.147536926521,8148
909.3694331433943,8280
911.59072812857,8261
913.8114221089921,8189
916.0315153116827,8268
918.2510079637437,8137
920.4699002923547,8204
922.6881925247761,8226
924.905884888345,8166
927.1229776104793,8122
929.3394709186747,8219
931.555365040506,8256
933.7706602036275,8096
935.9853566357709,8162
938.1994545647489,8098
940.4129542184515,8123
942.6258558248488,8269
944.8381596119883,8066
947.0498658079974,8030
949.2609746410825,7958
951.4714863395287,8398
953.6814011316998,8216
955.8907192460387,8138
958.0994409110671,8129
960.3075663553858,8197
962.5150958076741,8115
964.7220294966913,8070
966.928367651274,8025
969.1341105003388,8327
971.3392582728806,8092
973.5438111979742,8265
975.747769504772,8246
977.9511334225061,8256
980.153903180487,8213
982.3560790081052,8217
984.5576611348289,8108
986.7586497902058,8206
988.9590452038618,8211
991.158847605503,8131
993.3580572249133,8019
995.5566742919558,8076
997.7546990365728,7947
999.952131688785,8011
1002.1489724786926,7782
1004.3452216364743,7832
1006.5408793923874,7955
1008.7359459767691,7808
1010.9304216200343,7775
1013.1243065526781,7901
1015.3176010052733,7839
1017.510305208472,7783
1019.7024193930064,7780
1021.8939437896848,7968
1024.0848786293977,7836
1026.2752241431122,7737
1028.4649805618747,7933
1030.6541481168115,7795
1032.842727039127,7746
1035.0307175601051,7848
1037.2181199111074,7736
1039.4049343235752,7836
1041.591161029029,7671
1043.7768002590683,7942
1045.9618522453698,7720
1048.1463172196918,8043
1050.3301954138697,7871
1052.513487059818,7930
1054.69619238953,7902
1056.8783116350783,7820
1059.0598450286152,7776
1061.2407928023704,7619
1063.4211551886528,7880
1065.6009324198508,7910
1067.780124728432,7950
1069.9587323469414,7916
1072.1367555080046,7926
1074.314194444325,7857
1076.4910493886855,7752
1078.667320573947,7697
1080.843008233051,7739
1083.0181125990161,7806
1085.1926339049414,7757
1087.3665723840027,7753
1089.5399282694575,7657
1091.7127017946405,7838
1093.8848931929647,7759
1096.0565026979243,7747
1098.2275305430899,7587
1100.3979769621128,7647
1102.567842188722,7742
1104.737126456726,7814
1106.9058300000124,7731
1109.0739530525475,7701
1111.2414958483764,7761
1113.4084586216231,7826
1115.5748416064907,7879
1117.7406450372605,7694
1119.9058691482942,7610
1122.0705141740304,7673
1124.2345803489884,7809
1126.3980679077658,7762
1128.5609770850388,7725
1130.7233081155623,7689
1132.8850612341707,7853
1135.0462366757774,7915
1137.2068346753745,7825
1139.3668554680326,7733
1141.526299288901,7683
1143.68516637321,7768
1145.8434569562655,7841
1148.001171273455,7686
1150.158309560244,7678
1152.3148720521767,7766
1154.470858984876,7723
1156.626270594044,7844
1158.7811071154629,7678
1160.9353687849912,7700
1163.089055838569,7675
1165.242168512213,7654
1167.3947070420209,7567
1169.5466716641677,7795
1171.6980626149075,7623
1173.8488801305748,7772
1175.9991244475814,7623
1178.1487958024186,7642
1180.2978944316555,7779
1182.4464205719428,7632
1184.5943744600072,7703
1186.7417563326567,7554
1188.8885664267755,7680
1191.0348049793297,7611
1193.1804722273619,7711
1195.325568407995,7614
1197.4700937584303,7751
1199.614048515948,7627
1201.7574329179074,7708
1203.900247201746,7747
1206.042491604982,7680
1208.1841663652099,7669
1210.3252717201053,7744
1212.465807907422,7811
1214.6057751649923,7812
1216.7451737307279,7616
1218.8840038426192,7639
1221.0222657387353,7737
1223.1599596572241,7837
1225.2970858363137,7839
1227.4336445143094,7873
1229.5696359295966,7625
1231.705060320639,7843
1233.8399179259786,7709
1235.9742089842384,7569
1238.107933734118,7668
1240.2410924143974,7722
1242.373685263935,7726
1244.5057125216676,7698
1246.6371744266116,7675
1248.7680712178621,7740
1250.898403134593,7447
1253.028170416058,7606
1255.1573733015875,7639
1257.2860120305932,7701
1259.4140868425648,7612
1261.54159797707,7715
1263.6685456737569,7859
1265.7949301723515,7760
1267.9207517126597,7787
1270.046010534565,7728
1272.1707068780306,7718
1274.2948409830983,7699
1276.4184130898889,7611
1278.541423438603,7603
1280.6638722695184,7746
1282.785759822993,7652
1284.9070863394636,7804
1287.0278520594447,7757
1289.1480572235314,7848
1291.2677020723963,7580
1293.3867868467923,7897
1295.5053117875495,7959
1297.623277135579,7853
1299.740683131868,7933
1301.8575300174857,7989
1303.973818033578,7935
1306.0895474213703,7948
1308.2047184221678,8000
1310.3193312773528,7792
1312.4333862283888,7933
1314.5468835168163,7857
1316.659823384255,7955
1318.7722060724045,8035
1320.8840318230418,8043
1322.9953008780249,7894
1325.1060134792888,7721
1327.2161698688478,7860
1329.3257702887959,7817
1331.4348149813054,7862
1333.5433041886276,7777
1335.6512381530933,7936
1337.7586171171101,7875
1339.8654413231675,7758
1341.9717110138317,7857
1344.0774264317488,7704
1346.1825878196432,7756
1348.2871954203192,8018
1350.3912494766587,7859
1352.4947502316231,7748
1354.5976979282532,7859
1356.7000928096686,7755
1358.8019351190665,7787
1360.9032250997243,7788
1363.0039629949988,7687
1365.1041490483235,7764
1367.2037835032133,7747
1369.3028666032606,7688
1371.401398592137,7873
1373.4993797135926,7784
1375.5968102114575,7817
1377.6936903296396,7896
1379.7900203121262,7940
1381.8858004029835,7702
1383.9810308463561,7816
1386.075711886469,7694
1388.1698437676241,7742
1390.2634267342032,7881
1392.356461030667,7950
1394.4489469015557,7798
1396.5408845914872,7882
1398.6322743451592,7983
1400.7231164073469,7966
1402.813411022907,7801
1404.903158436773,7999
1406.9923588939578,7963
1409.0810126395531,7792
1411.1691199187303,7826
1413.2566809767386,7773
1415.343696058907,7958
1417.4301654106425,7940
1419.5160892774315,7710
1421.6014679048399,7683
1423.6863015385125,7739
1425.7705904241707,7935
1427.8543348076178,7905
1429.9375349347342,7779
1432.0201910514802,7876
1434.102303403894,7826
1436.1838722380944,7904
1438.2648978002767,7888
1440.3453803367174,7621
1442.4253200937692,7830
1444.5047173178677,7797
1446.5835722555234,7939
1448.6618851533285,7954
1450.739656257952,7765
1452.8168858161434,7832
1454.8935740747306,7939
1456.96972128062,7980
1459.045327680797,7864
1461.120393522327,7955
1463.1949190523528,7981
1465.2689045180973,8160
1467.3423501668608,8018
1469.415256246024,8163
1471.4876230030463,8060
1473.559450685465,8094
1475.6307395408976,8107
1477.7014898170391,8041
1479.771701761665,7990
1481.8413756226287,8284
1483.9105116478618,8269
1485.9791100853772,8278
1488.0471711832643,8121
1490.1146951896926,8298
1492.1816823529098,8421
1494.2481329212433,8273
1496.3140471430984,8270
1498.3794252669609,8353
1500.4442675413939,8374
1502.5085742150404,8335
1504.572345536622,8372
1506.6355817549388,8381
1508.6982831188702,8456
1510.7604498773744,8472
1512.8220822794883,8468
1514.8831805743293,8381
1516.9437450110909,8509
1519.003775839048,8597
1521.0632733075522,8606
1523.1222376660367,8829
1525.1806691640113,8799
1527.2385680510652,8949
1529.2959345768668,8854
1531.3527689911643,8848
1533.4090715437833,8993
1535.4648424846291,9149
1537.5200820636855,9142
1539.5747905310159,9140
1541.6289681367616,9232
1543.6826151311434,9194
1545.7357317644614,9253
1547.7883182870937,9275
1549.8403749494987,9356
1551.8919020022113,9516
1553.9428996958477,9469
1555.9933682811015,9677
1558.0433080087469,9645
1560.0927191296346,9642
1562.1416018946961,9781
1564.1899565549415,9665
1566.2377833614592,9593
1568.2850825654164,9550
1570.3318544180606,9414
1572.3780991707158,9525
1574.423817074788,9336
1576.4690083817595,9090
1578.5136733431923,9116
1580.5578122107272,8842
1582.601425236085,8886
1584.6445126710646,8658
1586.6870747675434,8585
1588.7291117774776,8494
1590.7706239529034,8324
1592.8116115459347,8184
1594.8520748087658,8356
1596.8920139936686,8101
1598.9314293529933,8147
1600.9703211391711,8065
1603.008689604711,7787
1605.0465350022005,7888
1607.0838575843068,7836
1609.1206576037753,7863
1611.1569353134305,7748
1613.1926909661765,7807
1615.2279248149953,7850
1617.2626371129481,7700
1619.2968281131757,7758
1621.3304980688963,7707
1623.3636472334088,7811
1625.39627586009,7674
1627.428384202396,7713
1629.459972513861,7699
1631.4910410480993,7748
1633.5215900588028,7691
1635.551619799744,7696
1637.5811305247717,7528
1639.6101224878166,7683
1641.6385959428862,7687
1643.6665511440683,7712
1645.693988345528,7653
1647.7209078015112,7775
1649.7473097663405,7676
1651.7731944944203,7629
1653.7985622402307,7687
1655.823413258333,7554
1657.847747803366,7511
1659.8715661300494,7656
1661.8948684931793,7548
1663.9176551476316,7557
1665.9399263483624,7573
1667.9616823504057,7377
1669.982923408873,7415
1672.0036497789574,7369
1674.0238617159293,7520
1676.043559475138,7476
1678.0627433120121,7586
1680.081413482059,7366
1682.0995702408654,7307
1684.117213844096,7381
1686.134344547495,7379
1688.1509626068864,7520
1690.1670682781705,7423
1692.182661817329,7527
1694.1977434804217,7388
1696.2123135235875,7420
1698.226372203043,7511
1700.2399197750851,7632
1702.2529564960905,7506
1704.2654826225112,7506
1706.277498410882,7574
1708.2890041178139,7481
1710.2999999999988,7621
1712.3104863142066,7509
1714.3204633172854,7428
1716.329931266163,7404
1718.3388904178469,7400
1720.3473410294214,7604
1722.3552833580516,7432
1724.3627176609807,7506
1726.3696441955308,7443
1728.3760632191033,7556
1730.3819749891782,7494
1732.3873797633146,7398
1734.3922777991502,7507
1736.3966693544012,7454
1738.4005546868639,7427
1740.4039340544127,7492
1742.406807715001,7546
1744.4091759266616,7477
1746.4110389475054,7449
1748.4123970357223,7472
1750.413250449582,7312
1752.4135994474318,7353
1754.4134442876993,7369
1756.4127852288902,7541
1758.4116225295893,7435
1760.4099564484595,7440
1762.407787244244,7381
1764.405115175764,7309
1766.4019405019203,7464
1768.3982634816916,7388
1770.3940843741357,7438
1772.3894034383907,7301
1774.3842209336717,7436
1776.378537119274,7279
1778.372352254571,7255
1780.3656665990156,7247
1782.3584804121397,7272
1784.3507939535534,7398
1786.3426074829463,7380
1788.3339212600863,7499
1790.3247355448211,7363
1792.3150505970766,7296
1794.3048666768573,7375
1796.2941840442477,7232
1798.2830029594106,7452
1800.2713236825884,7396
1802.2591464741004,7293
1804.2464715943465,7318
1806.2332993038058,7393
1808.2196298630352,7511
1810.2054635326708,7331
1812.190800573428,7469
1814.175641246101,7412
1816.1599858115628,7345
1818.1438345307652,7409
1820.127187664738,7479
1822.1100454745924,7383
1824.092408221516,7344
1826.0742761667766,7354
1828.055649571721,7356
1830.0365286977735,7180
1832.0169138064398,7310
1833.9968051593014,7225
1835.9762030180214,7434
1837.9551076443408,7436
1839.9335193000788,7224
1841.9114382471344,7111
1843.888864747485,7308
1845.8657990631878,7296
1847.842241456378,7286
1849.8181921892697,7312
1851.7936515241558,7291
1853.7686197234098,7349
1855.7430970494815,7300
1857.7170837649014,7471
1859.6905801322787,7333
1861.6635864143004,7433
1863.6361028737338,7475
1865.608129773424,7340
1867.5796673762961,7280
1869.5507159453537,7336
1871.521275743678,7360
1873.4913470344313,7344
1875.4609300808534,7446
1877.4300251462632,7326
1879.3986324940588,7298
1881.366752387717,7155
1883.3343850907936,7335
1885.3015308669228,7324
1887.268189979819,7426
1889.2343626932739,7349
1891.2000492711595,7485
1893.1652499774254,7428
1895.1299650761011,7403
1897.0941948312952,7436
1899.0579395071945,7353
1901.0211993680641,7415
1902.98397467825,7388
1904.9462657021745,7323
1906.9080727043415,7325
1908.869395949332,7360
1910.8302357018065,7310
1912.790592226504,7415
1914.7504657882428,7316
1916.7098566519212,7420
1918.6687650825133,7354
1920.6271913450764,7451
1922.5851357047422,7379
1924.5425984267245,7361
1926.499579776314,7310
1928.4560800188833,7280
1930.4120994198802,7073
1932.367638244833,7227
1934.32269675935,7357
1936.2772752291175,7451
1938.231373919899,7312
1940.1849930975404,7367
1942.1381330279637,7374
1944.0907939771696,7436
1946.0429762112412,7415
1947.9946799963363,7458
1949.9459055986945,7318
1951.896653284633,7350
1953.8469233205478,7264
1955.7967159729142,7291
1957.7460315082863,7310
1959.6948701932974,7372
1961.6432322946594,7365
1963.5911180791632,7430
1965.5385278136787,7403
1967.4854617651545,7396
1969.4319202006182,7510
1971.377903387176,7364
1973.3234115920136,7274
1975.268445082395,7334
1977.2130041256642,7253
1979.1570889892423,7448
1981.1006999406304,7435
1983.04383724741,7446
1984.986501177238,7277
1986.928691997853,7376
1988.8704099770712,7242
1990.811655382789,7402
1992.7524284829801,7455
1994.692729545698,7389
1996.6325588390755,7484
1998.5719166313224,7296
2000.5108031907307,7453
2002.4492187856677,7325
2004.387163684583,7328
2006.3246381560011,7320
2008.2616424685298,7249
2010.1981768908527,7312
2012.1342416917332,7307
2014.069837140014,7184
2016.0049635046162,7227
2017.9396210545406,7138
2019.8738100588666,7220
2021.8075307867502,7203
2023.740783507431,7405
2025.6735684902228,7177
2027.6058860045214,7303
2029.5377363198004,7286
2031.4691197056118,7329
2033.4000364315875,7204
2035.3304867674374,7245
2037.260470982952,7121
2039.189989347998,7274
2041.1190421325232,7321
2043.047629606554,7164
2044.9757520401945,7374
2046.9034097036288,7106
2048.8306028671195,7179
2050.7573318010086,7183
2052.683596775716,7283
2054.609398061742,7204
2056.5347359296647,7293
2058.4596106501403,7267
2060.384022493906,7228
2062.3079717317764,7268
2064.231458634646,7338
2066.1544834734873,7384
2068.077046519352,7245
2069.99914804337,7208
2071.9207883167524,7152
2073.8419676107865,7381
2075.7626861968406,7241
2077.6829443463607,7179
2079.6027423308715,7140
2081.522080421977,7064
2083.440958891362,7198
2085.359378010786,7232
2087.2773380520907,7291
2089.194839287196,7188
2091.111881988101,7237
2093.0284664268825,7293
2094.9445928756973,7370
2096.86026160678,7349
2098.775472892446,7338
2100.690227005088,7277
2102.604524217178,7220
2104.5183648012676,7266
2106.431749029985,7188
2108.34467717604,7197
2110.2571495122206,7261
2112.169166311393,7197
2114.080727846503,7097
2115.9918343905747,7043
2117.902486216711,7149
2119.8126835980956,7051
2121.722426807987,7236
2123.6317161197285,7218
2125.5405518067364,7319
2127.448934142509,7225
2129.356863400624,7300
2131.264339854737,7283
2133.1713637785815,7263
2135.077935445972,7278
2136.9840551308002,7299
2138.889723107037,7160
2140.7949396487334,7212
2142.699705030018,7298
2144.6040195250994,7287
2146.507883408264,7234
2148.4112969538774,7211
2150.3142604363848,7260
2152.2167741303097,7114
2154.1188383102535,7149
2156.0204532508997,7323
2157.9216192270064,7252
2159.822336513414,7219
2161.7226053850413,7153
2163.622426116884,7086
2165.5217989840185,7093
2167.4207242616,7184
2169.319202224862,7184
2171.2172331491165,7120
2173.1148173097563,7186
2175.0119549822507,7109
2176.90864644215,7189
2178.8048919650823,7199
2180.7006918267534,7137
2182.596046302952,7075
2184.4909556695407,7286
2186.3854202024645,7236
2188.279440177746,7256
2190.173015871487,7162
2192.066147559868,7160
2193.958835519149,7074
2195.851080025667,7192
2197.7428813558417,7175
2199.6342397861667,7140
2201.5251555932186,7074
2203.415629053651,7219
2205.3056604441986,7187
2207.19525004167,7019
2209.084398122958,7086
2210.9731049650327,7146
2212.861370844941,7340
2214.749196039812,7118
2216.636580826851,7150
2218.523525483344,7145
2220.410030286655,7168
2222.296095514226,7168
2224.1817214435805,7203
2226.066908352319,7123
2227.951656518121,7143
2229.835966218746,7095
2231.71983773203,7180
2233.6032713358913,7268
2235.486267308324,7232
2237.3688259274036,7171
2239.2509474712824,7231
2241.132632218193,7244
2243.013880446447,7214
2244.8946924344323,7167
2246.7750684606203,7093
2248.6550088035574,7346
2250.534513741871,7099
2252.413583554265,7222
2254.292218519526,7200
2256.170418916517,7200
2258.0481850241786,7202
2259.925517121534,7132
2261.8024154876825,7259
2263.678880401803,7112
2265.5549121431536,7227
2267.430510991071,7157
2269.305677224971,7125
2271.180411124348,7112
2273.0547129687766,7001
2274.9285830379076,7109
2276.8020216114737,7050
2278.6750289692845,7059
2280.5476053912294,7115
2282.4197511572766,7154
2284.2914665474727,7152
2286.162751841943,7219
2288.0336073208937,7113
2289.904033264608,7294
2291.774029953448,7234
2293.6435976678554,7064
2295.5127366883517,7235
2297.381447295534,7144
2299.2497297700825,7216
2301.1175843927526,7188
2302.9850114443825,7095
2304.852011205885,7368
2306.7185839582553,7211
2308.5847299825664,7214
2310.4504495599676,7144
2312.3157429716925,7237
2314.1806104990483,7168
2316.0450524234247,7102
2317.9090690262888,7095
2319.772660589186,7250
2321.635827393742,7353
2323.498569721661,7354
2325.3608878547248,7087
2327.2227820747967,7128
2329.0842526638157,7267
2330.945299903803,7290
2332.805924076857,7177
2334.6661254651535,7187
2336.525904350951,7251
2338.3852610165827,7176
2340.244195744464,7193
2342.102708817088,7105
2343.9608005170253,7189
2345.8184711269287,7147
2347.675720929526,7179
2349.532550207628,7186
2351.38895924412,7244
2353.24494832197,7168
2355.100517724223,7225
2356.955667734004,7229
2358.810398634514,7180
2360.664710709037,7299
2362.5186042409337,7296
2364.3720795136437,7281
2366.225136810686,7163
2368.0777764156583,7301
2369.929998612237,7171
2371.7818036841777,7149
2373.633191915315,7295
2375.484163589562,7176
2377.3347189909114,7253
2379.184858403434,7318
2381.03458211128,7198
2382.8838903986775,7248
2384.732783549936,7127
2386.5812618494406,7179
2388.4293255816588,7236
2390.2769750311327,7284
2392.1242104824883,7251
2393.971032220427,7320
2395.8174405297295,7182
2397.6634356952563,7301
2399.509018001947,7152
2401.3541877348193,7287
2403.1989451789705,7439
2405.043290619576,7183
2406.8872243418905,7257
2408.730746631247,7225
2410.5738577730594,7154
2412.4165580528183,7371
2414.258847756095,7196
2416.100727168537,7130
2417.9421965758734,7080
2419.783256263912,7086
2421.623906518538,7467
2423.4641476257157,7228
2425.303979871491,7244
2427.143403541984,7219
2428.9824189233977,7105
2430.821026302012,7227
2432.6592259641866,7281
2434.497018196361,7265
2436.33440328505,7275
2438.171381516851,7376
2440.00795317844,7161
2441.844118556569,7283
2443.6798779380724,7258
2445.5152316098606,7221
2447.3501798589255,6990
2449.1847229723357,7296
2451.0188612372403,7137
2452.8525949408663,7261
2454.6859243705203,7230
2456.518849813587,7269
2458.3513715575314,7296
2460.183489889895,7127
2462.015205098301,7198
2463.8465174704493,7180
2465.67742729412,7243
2467.5079348571717,7210
2469.338040447542,7146
2471.1677443532476,7089
2472.9970468623833,7295
2474.825948263123,7263
2476.6544488437207,7162
2478.482548892508,7159
2480.310248697896,7188
2482.137548548374,7238
2483.9644487325118,7317
2485.790949538956,7148
2487.617051256433,7181
2489.44275417375,7195
2491.26805857979,7150
2493.0929647635157,7379
2494.917473013971,7184
2496.741583620276,7126
2498.5652968716304,7208
2500.3886130573137,7210
2502.2115324666834,7269
2504.0340553891765,7123
2505.856182114308,7377
2507.6779129316733,7289
2509.499248130945,7158
2511.3201880018764,7246
2513.140732834298,7287
2514.9608829181198,7220
2516.780638543331,7334
2518.6,7123
2520.418967578273,7262
2522.237541568376,7159
2524.0557222606144,7147
2525.8735099453706,7005
2527.6909049131086,7240
2529.507907454368,7130
2531.32451785977,7314
2533.140736420014,7276
2534.9565634258774,7431
2536.771999168218,7172
2538.5870439379714,7319
2540.4016980261526,7246
2542.2159617238544,7107
2544.02983532225,7151
2545.8433191125914,7234
2547.656413386209,7416
2549.4691184345115,7379
2551.2814345489874,7319
2553.093362021204,7359
2554.904901142808,7188
2556.716052205523,7302
2558.526815501153,7244
2560.3371913215824,7317
2562.147179958771,7333
2563.956781704761,7270
2565.7659968516705,7290
2567.5748256916986,7260
2569.3832685171224,7353
2571.1913256202984,7253
2572.9989972936614,7424
2574.806283829725,7282
2576.613185521084,7328
2578.4197026604074,7330
2580.2258355404483,7209
2582.031584454035,7275
2583.836949694077,7297
2585.6419315535613,7307
2587.4465303255533,7434
2589.2507463032002,7442
2591.0545797797245,7308
2592.8580310484303,7427
2594.6611004026995,7301
2596.463788135992,7363
2598.266094541849,7322
2600.0680199138874,7372
2601.869564545807,7357
2603.670728731383,7181
2605.4715127644704,7262
2607.2719169390048,7353
2609.071941548998,7394
2610.8715868885433,7367
2612.670853251811,7288
2614.469740933052,7538
2616.268250226594,7468
2618.0663814268455,7399
2619.864134828292,7348
2621.6615107255006,7337
2623.458509413115,7453
2625.2551311858597,7226
2627.0513763385347,7448
2628.8472451660223,7355
2630.6427379632833,7326
2632.4378550253564,7224
2634.232596647359,7282
2636.026963124488,7530
2637.8209547520187,7363
2639.6145718253065,7297
2641.407814639785,7223
2643.200683490966,7374
2644.9931786744414,7284
2646.7853004858807,7183
2648.577049221034,7193
2650.3684251757277,7269
2652.1594286458712,7271
2653.9500599274484,7380
2655.740319316525,7264
2657.5302071092437,7176
2659.3197236018286,7256
2661.10886909058,7223
2662.8976438718782,7245
2664.686048242183,7234
2666.4740824980327,7196
2668.2617469360443,7209
2670.0490418529134,7175
2671.8359675454153,7188
2673.622524310403,7248
2675.408712444811,7154
2677.1945322456495,7205
2678.979984010009,7293
2680.76506803506,7240
2682.5497846180497,7147
2684.334134056306,7131
2686.1181166472343,7102
2687.9017326883213,7120
2689.6849824771293,7042
2691.4678663113013,7162
2693.2503844885596,7113
2695.032537306705,7065
2696.8143250636167,7131
2698.5957480572542,7196
2700.3768065856534,7242
2702.1575009469316,7048
2703.937831439283,7128
2705.717798360982,7180
2707.4974020103837,7072
2709.276642685917,6905
2711.055520686095,7233
2712.834036309506,7140
2714.612189854819,7276
2716.389981620782,7097
2718.1674119062204,7034
2719.944481010041,7130
2721.721189231226,7066
2723.4975368688415,7210
2725.273524222027,7140
2727.0491515900053,7133
2728.824419272075,7273
2730.5993275676146,7070
2732.3738767760838,7039
2734.148067197016,7180
2735.921899130031,7106
2737.6953728748194,7043
2739.468488731156,6978
2741.2412469988926,7162
2743.0136479779617,6983
2744.785691968372,7085
2746.5573792702116,7123
2748.3287101836504,6959
2750.099685008934,7011
2751.870304046388,7154
2753.640567596418,7112
2755.4104759595057,7102
2757.1800294362156,7002
2758.949228327187,7143
2760.7180729331412,7094
2762.486563554877,7152
2764.254700493272,7153
2766.022484049284,7037
2767.789914523947,7001
2769.5569922183786,7021
2771.3237174337705,7101
2773.090090471394,7040
2774.8561116326036,7038
2776.6217812188274,7022
2778.3870995315756,7051
2780.1520668724356,6952
2781.9166835430747,7022
2783.6809498452394,6844
2785.444866080754,7140
2787.2084325515225,7019
2788.971649559527,7040
2790.73451740683,7011
2792.4970363955713,7033
2794.2592068279705,7079
2796.0210290063264,7113
2797.7825032330147,7273
2799.543629810493,7188
2801.304409041296,7009
2803.0648412280366,7034
2804.8249266734088,7082
2806.5846656801846,7164
2808.344058551212,7064
2810.1031055894246,6971
2811.8618070978273,7241
2813.6201633795085,7210
2815.378174737636,7102
2817.1358414754536,7171
2818.893163896285,7192
2820.6501423035334,7186
2822.4067770006814,7078
2824.1630682912883,7111
2825.9190164789957,7179
2827.6746218675207,7016
2829.429884760661,7065
2831.184805462294,7130
2832.9393842763743,7100
2834.693621506936,7058
2836.4475174580916,7060
2838.201072434034,7066
2839.954286739034,7161
2841.707160677441,7181
2843.459694553685,7000
2845.2118886722724,7235
2846.96374333779,7146
2848.7152588549034,7177
2850.4664355283567,7183
2852.217273662973,7008
2853.9677735636546,7049
2855.7179355353833,6983
2857.4677598832186,7126
2859.217246912299,7007
2860.9663969278427,7079
2862.715210235146,7095
2864.4636871395846,7106
2866.211827946614,7190
2867.9596329617652,7098
2869.7071024906536,7181
2871.4542368389684,7102
2873.20103631248,7031
2874.947501217038,7042
2876.6936318585695,7062
2878.4394285430812,6925
2880.1848915766604,7175
2881.9300212654707,7083
2883.6748179157553,7084
2885.4192818338374,7076
2887.1634133261173,7079
2888.907212699077,7102
2890.6506802592744,7037
2892.393816313348,7018
2894.1366211680142,7152
2895.8790951300693,7045
2897.621238506388,7034
2899.363051603925,7093
2901.1045347297118,7183
2902.8456881908596,6904
2904.58651229456,7080
2906.327007348081,7110
2908.067173658772,7036
2909.8070115340597,6987
2911.5465212814497,6968
2913.285703208527,6905
2915.0245576229563,6909
2916.7630848324807,6938
2918.5012851449196,6938
2920.2391588681758,7028
2921.976706310227,6992
2923.7139277791334,6998
2925.4508235830313,7065
2927.187394030137,7015
2928.923639428745,7056
2930.6595600872306,7121
2932.395156314046,6989
2934.1304284177218,6973
2935.8653767068713,7109
2937.6000014901815,7152
2939.3343030764227,7105
2941.068281774442,7081
2942.8019378931644,7182
2944.5352717415976,7249
2946.2682836288236,6899
2948.0009738640065,7120
2949.7333427563885,7039
2951.465390615289,6932
2953.1971177501086,6924
2954.9285244703265,6855
2956.6596110855,7075
2958.3903779052657,6922
2960.1208252393385,6828
2961.8509533975125,6936
2963.5807626896617,6924
2965.3102534257378,6981
2967.0394259157715,7000
2968.768280469873,6996
2970.496817398232,7118
2972.2250370111146,7038
2973.952939618869,6994
2975.6805255319196,6987
2977.4077950607707,7092
2979.134748516006,7099
2980.861386208289,6961
2982.587708448359,7143
2984.313715547037,7265
2986.039407815222,7108
2987.764785563891,7261
2989.489849104102,7052
2991.2145987469908,7090
2992.9390348037705,7078
2994.6631575857346,7217
2996.3869674042576,7116
2998.1104645707887,6963
2999.83364939686,6962
3001.5565221940783,6979
3003.2790832741334,6967
3005.0013329487924,7091
3006.7232715298996,6948
3008.4448993293804,7080
3010.166216659239,6979
3011.887223831558,6974
3013.607921158498,6901
3015.3283089522993,7074
3017.0483875252826,7035
3018.7681571898443,7042
3020.4876182584626,7130
3022.2067710436927,6944
3023.9256158581707,6995
3025.644153014609,6814
3027.362382825801,7115
3029.0803056046193,7026
3030.797921664012,7003
3032.5152313170106,7107
3034.2322348767225,7088
3035.9489326563353,7003
3037.665324969115,7085
3039.3814121284063,6983
3041.097194447633,7029
3042.812672240299,6978
3044.5278458199855,6923
3046.2427155003525,7140
3047.9572815951406,7058
3049.671544418167,6982
3051.38550428333,7089
3053.0991615046073,6986
3054.812516396051,7207
3056.5255692717974,7207
3058.2383204460575,6993
3059.9507702331257,7029
3061.662918947372,7080
3063.3747669032446,7118
3065.0863144152736,7060
3066.7975617980674,7045
3068.508509366309,7100
3070.219157434767,7063
3071.9295063182844,7183
3073.639556331785,7136
3075.3493077902704,7047
3077.058761008821,6959
3078.7679163025964,6992
3080.476773986837,7156
3082.1853343768594,7066
3083.89359778806,6988
3085.6015645359153,7153
3087.3092349359786,7159
3089.016609303884,7132
3090.7236879553434,7008
3092.4304712061476,6937
3094.136959372166,6920
3095.843152769349,6788
3097.5490517137237,6928
3099.2546565213966,6991
3100.959967508554,7035
3102.66498499146,7003
3104.3697092864577,7026
3106.0741407099695,7122
3107.778279578498,7135
3109.482126208622,7023
3111.1856809170004,7035
3112.8889440203716,7045
3114.5919158355528,7093
3116.294596679439,6980
3117.996986869006,6992
3119.6990867213062,7106
3121.4008965534726,7187
3123.102416682717,7098
3124.803647426329,6999
3126.5045891016784,7109
3128.205242026213,6950
3129.90560651746,7290
3131.605682893025,7211
3133.3054714705922,7201
3135.0049725679282,7163
3136.7041865028714,7250
3138.4031135933465,7159
3140.101754157353,7062
3141.800108512971,7117
3143.498176978357,7050
3145.1959598717494,6959
3146.8934575114636,7011
3148.5906702158954,6951
3150.2875983035183,6928
3151.9842420928853,6993
3153.680601902627,6913
3155.376678051456,6869
3157.07247085816,6876
3158.767980641609,7035
3160.463207720748,6919
3162.158152414606,6975
3163.8528150422862,6960
3165.5471959229726,6917
3167.2412953759303,7077
3168.9351137204976,6915
3170.628651276098,7056
3172.3219083622307,7014
3174.014885298474,7208
3175.707582404485,7060
3177.4000000000005,7133
3179.092138404835,7079
3180.7839979388846,7269
3182.47557892212,7122
3184.166881674594,6956
3185.8579065164386,7120
3187.5486537678626,7042
3189.2391237491547,7020
3190.9293167806827,7177
3192.6192331828934,7077
3194.3088732763117,7114
3195.998237381542,7136
3197.687325819268,7134
3199.376138910251,7017
3201.064676975334,7003
3202.7529403354347,7070
3204.4409293115523,7023
3206.1286442247647,7024
3207.816085396229,6942
3209.5032531471825,7038
3211.190147798936,6981
3212.8767696728846,6940
3214.5631190905015,6924
3216.2491963733373,6900
3217.9350018430214,6989
3219.6205358212637,6788
3221.305798629851,6914
3222.990790590651,6940
3224.6755120256103,6858
3226.359963256751,6931
3228.0441446061795,6934
3229.7280563960758,6950
3231.411698948703,7019
3233.0950725863995,7027
3234.778177631587,7110
3236.461014406761,7159
3238.1435832345005,6964
3239.8258844374595,6978
3241.507918338374,6952
3243.1896852600576,7136
3244.8711855254023,7002
3246.552419457381,7184
3248.233387379042,7052
3249.914089613516,6779
3251.59452648401,6963
3253.274698313813,6917
3254.95460542629,6900
3256.6342481448855,7028
3258.313626793125,6797
3259.9927416946084,6818
3261.6715931730196,6972
3263.3501815521176,6839
3265.0285071557437,6759
3266.706570307815,6825
3268.3843713323286,6866
3270.0619105533615,6869
3271.739188295068,6987
3273.4162048816834,6986
3275.0929606375184,6954
3276.769455886966,7065
3278.445690954498,6813
3280.1216661646613,7069
3281.797381842087,7032
3283.4728383114807,7035
3285.1480358976296,6944
3286.8229749253996,6925
3288.4976557197333,6943
3290.172078605655,6936
3291.846243908266,7043
3293.5201519527463,6826
3295.193803064357,6917
3296.8671975684374,6832
3298.5403357904024,6902
3300.21321805575,6901
3301.8858446900567,6871
3303.558216018975,6938
3305.23033236824,6934
3306.9021940636603,6906
3308.57380143113,6988
3310.2451547966184,7043
3311.916254486174,7024
3313.5871008259246,7031
3315.2576941420766,6905
3316.9280347609147,6953
3318.5981230088046,6796
3320.2679592121895,6749
3321.9375436975924,6776
3323.606876791612,6875
3325.27595882093,6716
3326.944790112305,6801
3328.6133709925753,6795
3330.2817017886573,6900
3331.949782827547,6818
3333.617614436319,6824
3335.2851969421245,6813
3336.952530672199,6992
3338.619615953853,6964
3340.286453114475,6928
3341.9530424815357,6970
3343.619384382583,7023
3345.2854791452437,7056
3346.951327097224,6969
3348.6169285663073,6974
3350.2822838803577,6986
3351.947393367319,6944
3353.61225735521,6986
3355.2768761721345,7075
3356.9412501462693,7032
3358.605379605873,6925
3360.2692648792827,6968
3361.9329062949146,6987
3363.596304181263,6920
