CollectionTime,6/26/2024 2:26:38 PM
ExposureUsed,3
CalibratedSpectrum
-962.7078968117929,651
-959.9714848408522,710
-957.2358232597828,684
-954.5009119013725,718
-951.7667505983302,676
-949.0333391832855,680
-946.3006774887896,667
-943.5687653473143,724
-940.837602591253,699
-938.1071890529199,675
-935.3775245645503,707
-932.6486089583007,711
-929.9204420662485,768
-927.1930237203925,731
-924.4663537526524,733
-921.7404319948689,706
-919.0152582788041,748
-916.2908324361409,755
-913.5671542984834,740
-910.8442236973568,776
-908.1220404642074,783
-905.4006044304027,721
-902.679915427231,759
-899.959973285902,736
-897.2407778375464,712
-894.5223289132158,755
-891.8046263438832,718
-889.0876699604426,670
-886.3714595937089,703
-883.6559950744183,713
-880.9412762332282,724
-878.2273029007168,700
-875.5140749073835,748
-872.8015920836489,703
-870.0898542598545,694
-867.3788612662631,704
-864.6686129330585,702
-861.9591090903457,635
-859.2503495681506,614
-856.5423341964203,644
-853.8350628050229,697
-851.1285352237478,721
-848.4227512823054,666
-845.7177108103272,732
-843.0134136373656,713
-840.3098595928943,700
-837.6070485063082,713
-834.9049802069229,721
-832.2036545239757,695
-829.5030712866244,714
-826.8032303239481,696
-824.1041314649472,639
-821.4057745385428,638
-818.7081593735775,671
-816.0112857988148,680
-813.3151536429393,707
-810.6197627345566,688
-807.9251129021936,648
-805.2312039742981,642
-802.5380357792392,685
-799.8456081453069,671
-797.1539209007124,669
-794.462973873588,664
-791.772766891987,669
-789.083299783884,697
-786.3945723771743,680
-783.7065844996748,653
-781.0193359791231,669
-778.3328266431781,723
-775.6470563194197,739
-772.9620248353489,730
-770.2777320183878,658
-767.5941776958798,702
-764.9113616950891,699
-762.2292838432011,703
-759.5479439673222,690
-756.8673418944801,693
-754.1874774516235,688
-751.5083504656222,694
-748.8299607632671,666
-746.15230817127,699
-743.475392516264,765
-740.7992136248035,703
-738.1237713233636,740
-735.4490654383407,668
-732.7750957960521,711
-730.1018622227365,760
-727.4293645445534,698
-724.7576025875837,728
-722.0865761778291,726
-719.4162851412126,694
-716.7467293035781,722
-714.0779084906909,775
-711.409822528237,805
-708.7424712418238,741
-706.0758544569796,721
-703.4099719991541,747
-700.7448236937178,768
-698.0804093659622,758
-695.4167288411002,747
-692.7537819442656,761
-690.0915685005134,768
-687.4300883348199,719
-684.7693412720819,787
-682.1093271371178,786
-679.4500457546669,748
-676.7914969493897,752
-674.1336805458676,802
-671.4765963686034,788
-668.8202442420206,761
-666.1646239904642,793
-663.5097354382001,769
-660.8555784094151,764
-658.2021527282176,800
-655.5494582186366,836
-652.8974947046223,791
-650.2462620100463,792
-647.5957599587009,804
-644.9459883742998,829
-642.2969470804776,824
-639.6486359007902,801
-637.0010546587141,868
-634.3542031776476,830
-631.7080812809096,814
-629.0626887917401,792
-626.4180255333008,804
-623.7740913286734,781
-621.1308860008619,789
-618.4884093727904,804
-615.8466612673046,812
-613.2056415071715,794
-610.5653499150785,819
-607.9257863136347,815
-605.28695052537,853
-602.6488423727357,816
-600.0114616781036,787
-597.3748082637674,851
-594.7388819519412,878
-592.1036825647604,878
-589.4692099242818,830
-586.8354638524829,835
-584.2024441712624,890
-581.5701507024403,861
-578.9385832677575,867
-576.3077416888759,858
-573.6776257873787,819
-571.0482353847704,827
-568.4195703024757,881
-565.7916303618415,939
-563.164415384135,883
-560.5379251905453,811
-557.9121596021815,806
-555.2871184400748,848
-552.6628015251767,854
-550.0392086783606,849
-547.4163397204204,882
-544.794194472071,865
-542.1727727539491,881
-539.5520743866118,870
-536.9320991905377,940
-534.3128469861261,980
-531.6943175936979,1017
-529.0765108334947,974
-526.4594265256793,1038
-523.8430644903358,1202
-521.2274245474689,1328
-518.612506517005,1513
-515.9983102187913,1571
-513.3848354725959,1719
-510.77208209810846,1700
-508.16004991493924,1786
-505.5487387426199,1918
-502.9381484006032,1996
-500.3282787082628,2146
-497.71912948489364,2237
-495.1107005497117,2378
-492.5029917218539,2229
-489.8960028203786,2156
-487.28973366426493,1988
-484.68418407241325,1747
-482.07935386364494,1537
-479.47524285670266,1434
-476.87185087025,1396
-474.2691777228715,1343
-471.66722323307334,1312
-469.0659872192821,1163
-466.4654694998459,1210
-463.86566989303384,1146
-461.26658821703614,1130
-458.66822428996414,1133
-456.07057792985,1160
-453.4736489546475,1104
-450.877437182231,1072
-448.28194243039627,1122
-445.68716451686,1103
-443.09310325926003,1106
-440.49975847515555,1034
-437.9071299820263,1101
-435.31521759727354,1061
-432.72402113821954,1073
-430.13354042210767,1094
-427.5437752661022,1132
-424.95472548728867,1146
-422.36639090267386,1175
-419.7787713291855,1193
-417.1918665836721,1254
-414.60567648290385,1162
-412.0202008435715,1183
-409.4354394822874,1161
-406.8513922155845,1154
-404.26805885991723,1195
-401.685439231661,1235
-399.103533147112,1157
-396.522340422488,1188
-393.9418608739278,1252
-391.3620943174908,1257
-388.7830405691583,1242
-386.2046994448317,1163
-383.6270707603344,1132
-381.05015433141045,1034
-378.473949973725,963
-375.8984575028645,871
-373.32367673433623,829
-370.74960748356875,787
-368.1762495659117,744
-365.60360279663576,690
-363.03166699093265,664
-360.4604419639154,715
-357.8899275306178,641
-355.32012350599507,576
-352.7510297049233,572
-350.1826459421999,588
-347.61497203254316,575
-345.04800779059235,548
-342.4817530309082,530
-339.91620756797226,561
-337.35137121618743,493
-334.7872437898774,525
-332.22382510328725,544
-329.66111497058273,625
-327.09911320585127,607
-324.53781962310075,606
-321.9772340362607,598
-319.4173562591816,727
-316.8581861056348,707
-314.2997233893127,789
-311.7419679238294,785
-309.1849195227194,772
-306.62857799943856,638
-304.0729431673641,574
-301.51801483979375,593
-298.963792829947,603
-296.41027695096386,659
-293.85746701590574,731
-291.3053628377552,718
-288.7539642294155,669
-286.2032710037115,691
-283.65328297338897,668
-281.1039999511146,704
-278.5554217494762,800
-276.007548180983,737
-273.4603790580651,704
-270.9139141930734,642
-268.3681533982807,706
-265.8230964858798,717
-263.27874326798565,683
-260.7350935566336,711
-258.1921471637804,760
-255.6499039013039,875
-253.10836358100266,805
-250.56752601459698,790
-248.02739101372765,884
-245.48795838995704,871
-242.94922795476816,818
-240.41119951956557,747
-237.8738728956746,1103
-235.33724789434166,1107
-232.80132432673452,920
-230.2661020039418,985
-227.73158073697357,982
-225.19776033676033,897
-222.66464061415422,1007
-220.1322213799284,947
-217.60050244477725,868
-215.06948361931552,921
-212.53916471408013,876
-210.00954553952818,848
-207.48062590603843,878
-204.9524056239104,1126
-202.4248845033651,1120
-199.8980623545441,1126
-197.37193898751036,1062
-194.84651421224817,1064
-192.32178783866232,957
-189.79775967657952,927
-187.27442953574644,1003
-184.7517972258321,998
-182.2298625564256,895
-179.7086253370378,1028
-177.18808537710026,1137
-174.66824248596583,1102
-172.14909647290835,1233
-169.6306471471229,1164
-167.11289431772548,1076
-164.59583779375328,1137
-162.07947738416453,1190
-159.5638128978386,1143
-157.04884414357605,1232
-154.53457093009854,1258
-152.02099306604828,1143
-149.50811035998936,1203
-146.99592262040665,1298
-144.48442965570587,1334
-141.97363127421409,1412
-139.46352728417958,1593
-136.95411749377126,1581
-134.44540171107985,1772
-131.93737974411636,1706
-129.43005140081357,1566
-126.92341648902493,1490
-124.41747481652521,1628
-121.91222619101006,1641
-119.40767042009657,1619
-116.90380731132257,1427
-114.40063667214702,1547
-111.8981583099503,1818
-109.3963720320337,1836
-106.89527764561933,1609
-104.39487495785067,1841
-101.89516377579241,2054
-99.39614390642998,1812
-96.89781515667039,1898
-94.40017733334128,2119
-91.90323024319173,2108
-89.40697369289148,1904
-86.91140748903172,1907
-84.41653143812482,2127
-81.92234534660395,2130
-79.42884902082358,2151
-76.93604226705907,2201
-74.4439248915071,2299
-71.95249670028534,2295
-69.46175749943245,2513
-66.97170709490854,2597
-64.48234529259423,3179
-61.99367189829195,3054
-59.50568671772464,3312
-57.01838955653636,3687
-54.53178022029283,3521
-52.045858514480074,3920
-49.560624244506016,4584
-47.07607721569923,4436
-44.59221723330904,3892
-42.10904410250669,3900
-39.62655762838392,5509
-37.14475761595372,6721
-34.66364387015028,6979
-32.18321619582866,7597
-29.70347439776515,8954
-27.224418280657005,10369
-24.74604764912317,12980
-22.26836230770266,19603
-19.7913620608565,32285
-17.315046712966478,47807
-14.83941606833514,53905
-12.36446993118659,65039
-9.89020810566592,65039
-7.416630395839093,65039
-4.94373660569363,65039
-2.471526539137585,65039
-6.821210263296962E-13,65039
2.47084320796705,65039
4.941003281093458,65039
7.410480415786196,65039
9.879274808531363,65039
12.347386655893956,65039
14.814816154518212,65039
17.28156350112681,65039
19.74762889252179,65039
22.21301252558385,65039
24.67771459727237,65039
27.141735304626195,65039
29.605074844762612,38227
32.06773341487792,17868
34.52971121224755,11679
36.99100843422559,9918
39.45162527824516,8765
41.91156194181792,11076
44.370818622535126,14108
46.82939551806646,15275
49.287292826160524,16794
51.74451074464503,14140
54.201049471426245,11474
56.65690920448981,8071
59.112090141899785,4385
61.56659248179983,4293
64.02041642241159,3955
66.4735621620365,3949
68.92602989905402,3899
71.37781983192338,3845
73.82893215918205,3127
76.27936707944684,2933
78.72912479141326,3299
81.17820549385567,3401
83.62660938562783,3308
86.07433666566146,3176
88.5213875329681,3569
90.96776218663751,3555
93.41346082583925,3318
95.85848364982041,2650
98.30283085790859,2097
100.7465026495089,2259
103.18949922410604,2642
105.63182078126385,2303
108.07346752062438,2469
110.51443964190923,2259
112.95473734491827,2093
115.39436082953114,2064
117.83331029570547,1975
120.27158594347827,2291
122.7091879729652,1964
125.1461165843615,1700
127.58237197794062,1617
130.01795435405518,1426
132.4528639131364,1434
134.88710085569494,1692
137.32066538231982,1933
139.75355769367923,1737
142.1857779905207,1772
144.61732647366978,1695
147.04820334403132,1555
149.47840880258934,1468
151.90794305040674,1799
154.33680628862487,1904
156.76499871846443,1826
159.19252054122433,1991
161.61937195828352,2004
164.04555317109896,1958
166.47106438120693,2348
168.89590579022217,2807
171.320077599839,2824
173.7435800118302,2696
176.16641322804742,2918
178.58857745042144,2900
181.01007288096173,3146
183.43089972175687,3062
185.85105817497413,2945
188.27054844285988,2849
190.6893707277394,2968
193.10752523201643,2986
195.5250121581745,3185
197.9418317087751,3292
200.3579840864594,3236
202.7734694939469,3156
205.18828813403627,3115
207.6024402096051,3110
210.01592592360964,3167
212.42874547908548,3285
214.84089907914665,3097
217.2523869269868,3025
219.66320922587727,3157
222.0733661791695,3244
224.48285799029293,3151
226.8916848627572,3208
229.29984700014882,3277
231.7073446061355,3321
234.11417788446204,3243
236.520347038953,3401
238.92585227351185,3475
241.33069379212054,3803
243.73487179884035,3346
246.1383864978112,3159
248.541238093252,3190
250.9434267894609,3339
253.34495279081432,3412
255.74581630176783,3280
258.1460175268563,3335
260.54555667069314,3355
262.9444339379703,3241
265.3426495334594,3141
267.7402036620107,3208
270.1370965285529,3167
272.53332833809407,3196
274.9288992957214,3099
277.32380960660055,3189
279.718059475976,3056
282.1116491091717,3100
284.5045787115897,3104
286.89684848871195,3099
289.2884586460981,3221
291.67940938938807,3102
294.0697009242996,3081
296.4593334566299,3043
298.84830719225477,2953
301.23662233712923,3029
303.6242790972866,3010
306.01127767884,2935
308.39761828798066,2877
310.78330113097934,2865
313.16832641418534,2850
315.5526943440269,2884
317.9364051270112,2875
320.3194589697242,2724
322.70185607883093,2783
325.0835966610754,2738
327.4646809232805,2726
329.8451090723478,2732
332.2248813152577,2678
334.6039978590701,2669
336.9824589109231,2642
339.36026467803447,2633
341.7374153677,2643
344.113911187295,2552
346.48975234427337,2572
348.8649390461686,2470
351.2394715005918,2537
353.61334991523415,2442
355.9865744978655,2429
358.35914545633375,2526
360.73106299856715,2470
363.10232733257146,2468
365.47293866643247,2383
367.84289720831396,2448
370.2122031664593,2452
372.5808567491905,2359
374.9488581649083,2451
377.31620762209275,2513
379.6829053293021,2588
382.0489514951745,2458
384.4143463284262,2451
386.7790900378528,2437
389.14318283232853,2431
391.50662492080653,2376
393.86941651231916,2367
396.23155781597745,2353
398.5930490409713,2378
400.9538903965696,2377
403.3140820921202,2335
405.6736243370498,2353
408.03251734086336,2302
410.3907613131465,2289
412.74835646356166,2332
415.10530300185144,2253
417.4616011378372,2355
419.81725108141893,2326
422.1722530425758,2243
424.5266072313656,2294
426.880313857925,2321
429.2333731324701,2275
431.58578526529516,2196
433.9375504667738,2288
436.2886689473588,2189
438.63914091758113,2191
440.9889665880513,2165
443.33814616945835,2254
445.68667987257015,2152
448.03456790823395,2200
450.3818104873759,2205
452.72840782100013,2257
455.07436012019105,2262
457.41966759611057,2203
459.7643304600007,2158
462.10834892318155,2242
464.4517231970525,2194
466.79445349309174,2288
469.1365400228566,2260
471.4779829979826,2349
473.81878263018564,2298
476.15893913125876,2311
478.4984527130747,2384
480.8373235875855,2375
483.17555196682144,2483
485.5131380628919,2582
487.8500820879857,2832
490.1863842543697,3055
492.52204477439034,3232
494.8570638604725,3593
497.1914417251204,3835
499.52517858091653,3968
501.85827464052306,4065
504.19073011668036,4011
506.5225452222086,3991
508.85372017000566,3785
511.18425517304956,3587
513.514150444396,3763
515.8434061971808,4446
518.1720226446176,5101
520.4999999999999,5542
522.8273384766991,5847
525.1540382881666,6132
527.480099647932,5929
529.8055227696037,5021
532.1303078668694,3536
534.454455153496,2750
536.777964843328,2377
539.1008371502907,2247
541.4230722883866,2251
543.744670471698,2181
546.0656319143858,2098
548.3859568306899,2119
550.7056454349294,2127
553.0246979415016,2089
555.3431145648834,2022
557.6608955196306,1978
559.978041020377,1943
562.2945512818363,2011
564.6104265188006,1959
566.9256669461412,1921
569.2402727788082,1942
571.5542442318302,1902
573.8675815203156,2035
576.1802848594508,2005
578.4923544645015,1977
580.8037905508126,1995
583.114593333807,2021
585.4247630289875,1989
587.7342998519354,2004
590.0432040183106,1981
592.3514757438526,2009
594.6591152443794,1985
596.9661227357875,1979
599.2724984340531,1901
601.578242555231,2002
603.8833553154542,2123
606.1878369309362,2043
608.4916876179676,2170
610.7949075929192,2163
613.0974970722403,1995
615.3994562724587,1965
617.7007854101818,2002
620.0014847020951,1989
622.3015543649641,1973
624.6009946156324,2045
626.8998056710224,1944
629.1979877481361,1980
631.4955410640538,2033
633.7924658359349,2035
636.0887622810175,2013
638.3844306166192,2010
640.6794710601358,2015
642.9738838290426,2011
645.2676691408932,2052
647.5608272133207,1989
649.853358264037,1990
652.1452625108324,2055
654.4365401715764,1979
656.7271914642178,2017
659.0172166067838,2003
661.3066158173809,2091
663.5953893141935,2037
665.8835373154867,1912
668.1710600396028,2098
670.4579577049639,2052
672.7442305300709,2082
675.0298787335033,2042
677.3149025339197,2052
679.599302150058,2085
681.8830778007342,2115
684.1662297048437,2023
686.4487580813608,2107
688.7306631493387,2110
691.0119451279091,2098
693.2926042362834,2064
695.5726406937516,1988
697.8520547196814,2083
700.1308465335215,2149
702.4090163547982,2055
704.6865644031171,2081
706.9634908981619,2071
709.2397960596965,2035
711.5154801075631,1994
713.7905432616823,2041
716.0649857420548,2135
718.3388077687592,2122
720.612009561953,2056
722.8845913418733,2003
725.1565533288352,2004
727.427895743234,2048
729.6986188055427,2007
731.9687227363137,2054
734.238207756178,2098
736.5070740858458,2136
738.7753219461066,2104
741.0429515578281,2012
743.3099631419569,2100
745.5763569195191,2023
747.8421331116193,2056
750.1072919394409,2107
752.3718336242467,2079
754.6357583873777,2018
756.8990664502545,2021
759.1617580343765,1988
761.423833361321,2026
763.6852926527457,2045
765.9461361303862,2051
768.206364016058,1991
770.4659765316536,2051
772.7249738991469,2069
774.9833563405886,2104
777.2411240781092,2075
779.4982773339183,2031
781.7548163303044,2144
784.010741289634,2118
786.2660524343538,2174
788.5207499869881,2103
790.7748341701416,2110
793.0283052064964,2063
795.2811633188143,2089
797.5334087299362,2053
799.7850416627813,2202
802.0360623403484,2119
804.2864709857143,2177
806.5362678220353,2128
808.7854530725468,2099
811.0340269605625,2162
813.2819897094754,2136
815.5293415427581,2151
817.77608268396,2175
820.0222133567116,2158
822.2677337847211,2085
824.5126441917765,2112
826.7569448017433,2082
829.0006358385675,2084
831.2437175262731,2164
833.4861900889629,2159
835.7280537508192,2135
837.9693087361026,2084
840.2099552691533,2143
842.4499935743896,2138
844.689423876309,2133
846.9282463994886,2109
849.1664613685833,2131
851.4040690083276,1985
853.6410695435349,2099
855.877463199097,2112
858.1132501999847,2156
860.3484307712487,2052
862.5830051380175,2109
864.8169735254988,2008
867.0503361589791,2123
869.2830932638243,2027
871.5152450654786,2101
873.7467917894654,2215
875.9777336613873,2125
878.2080709069252,2135
880.4378037518389,2178
882.666932421968,2096
884.8954571432301,2194
887.1233781416219,2179
889.3506956432192,2206
891.5774098741766,2145
893.803521060728,2128
896.0290294291852,2202
898.2539352059397,2255
900.4782386174619,2181
902.7019398903011,2104
904.925039251085,2133
907.147536926521,2073
909.3694331433943,2097
911.59072812857,2086
913.8114221089921,2086
916.0315153116827,2105
918.2510079637437,2118
920.4699002923547,2078
922.6881925247761,2115
924.905884888345,2138
927.1229776104793,2169
929.3394709186747,2072
931.555365040506,2151
933.7706602036275,2140
935.9853566357709,2083
938.1994545647489,2036
940.4129542184515,2059
942.6258558248488,2063
944.8381596119883,2143
947.0498658079974,2079
949.2609746410825,2147
951.4714863395287,2132
953.6814011316998,2045
955.8907192460387,2047
958.0994409110671,2104
960.3075663553858,2014
962.5150958076741,2004
964.7220294966913,2044
966.928367651274,1994
969.1341105003388,2092
971.3392582728806,1984
973.5438111979742,2010
975.747769504772,1967
977.9511334225061,1995
980.153903180487,1926
982.3560790081052,1987
984.5576611348289,1992
986.7586497902058,1971
988.9590452038618,1924
991.158847605503,1863
993.3580572249133,1874
995.5566742919558,1889
997.7546990365728,1814
999.952131688785,1856
1002.1489724786926,1789
1004.3452216364743,1849
1006.5408793923874,1807
1008.7359459767691,1846
1010.9304216200343,1847
1013.1243065526781,1737
1015.3176010052733,1767
1017.510305208472,1663
1019.7024193930064,1747
1021.8939437896848,1706
1024.0848786293977,1632
1026.2752241431122,1684
1028.4649805618747,1643
1030.6541481168115,1711
1032.842727039127,1687
1035.0307175601051,1648
1037.2181199111074,1619
1039.4049343235752,1613
1041.591161029029,1673
1043.7768002590683,1691
1045.9618522453698,1623
1048.1463172196918,1588
1050.3301954138697,1658
1052.513487059818,1699
1054.69619238953,1644
1056.8783116350783,1637
1059.0598450286152,1613
1061.2407928023704,1614
1063.4211551886528,1682
1065.6009324198508,1656
1067.780124728432,1563
1069.9587323469414,1604
1072.1367555080046,1622
1074.314194444325,1610
1076.4910493886855,1631
1078.667320573947,1611
1080.843008233051,1663
1083.0181125990161,1582
1085.1926339049414,1612
1087.3665723840027,1590
1089.5399282694575,1564
1091.7127017946405,1538
1093.8848931929647,1571
1096.0565026979243,1543
1098.2275305430899,1516
1100.3979769621128,1576
1102.567842188722,1549
1104.737126456726,1539
1106.9058300000124,1556
1109.0739530525475,1542
1111.2414958483764,1490
1113.4084586216231,1569
1115.5748416064907,1542
1117.7406450372605,1540
1119.9058691482942,1539
1122.0705141740304,1552
1124.2345803489884,1555
1126.3980679077658,1546
1128.5609770850388,1467
1130.7233081155623,1474
1132.8850612341707,1549
1135.0462366757774,1480
1137.2068346753745,1453
1139.3668554680326,1474
1141.526299288901,1493
1143.68516637321,1507
1145.8434569562655,1476
1148.001171273455,1507
1150.158309560244,1486
1152.3148720521767,1461
1154.470858984876,1557
1156.626270594044,1491
1158.7811071154629,1504
1160.9353687849912,1504
1163.089055838569,1503
1165.242168512213,1520
1167.3947070420209,1486
1169.5466716641677,1498
1171.6980626149075,1456
1173.8488801305748,1460
1175.9991244475814,1491
1178.1487958024186,1470
1180.2978944316555,1456
1182.4464205719428,1540
1184.5943744600072,1539
1186.7417563326567,1420
1188.8885664267755,1493
1191.0348049793297,1427
1193.1804722273619,1452
1195.325568407995,1535
1197.4700937584303,1506
1199.614048515948,1425
1201.7574329179074,1414
1203.900247201746,1469
1206.042491604982,1376
1208.1841663652099,1424
1210.3252717201053,1462
1212.465807907422,1471
1214.6057751649923,1495
1216.7451737307279,1423
1218.8840038426192,1464
1221.0222657387353,1539
1223.1599596572241,1525
1225.2970858363137,1468
1227.4336445143094,1476
1229.5696359295966,1479
1231.705060320639,1438
1233.8399179259786,1502
1235.9742089842384,1493
1238.107933734118,1512
1240.2410924143974,1554
1242.373685263935,1517
1244.5057125216676,1488
1246.6371744266116,1494
1248.7680712178621,1523
1250.898403134593,1503
1253.028170416058,1442
1255.1573733015875,1529
1257.2860120305932,1520
1259.4140868425648,1480
1261.54159797707,1518
1263.6685456737569,1478
1265.7949301723515,1507
1267.9207517126597,1565
1270.046010534565,1526
1272.1707068780306,1496
1274.2948409830983,1558
1276.4184130898889,1527
1278.541423438603,1483
1280.6638722695184,1565
1282.785759822993,1566
1284.9070863394636,1533
1287.0278520594447,1550
1289.1480572235314,1543
1291.2677020723963,1644
1293.3867868467923,1617
1295.5053117875495,1592
1297.623277135579,1561
1299.740683131868,1547
1301.8575300174857,1642
1303.973818033578,1610
1306.0895474213703,1613
1308.2047184221678,1588
1310.3193312773528,1646
1312.4333862283888,1638
1314.5468835168163,1633
1316.659823384255,1569
1318.7722060724045,1611
1320.8840318230418,1638
1322.9953008780249,1631
1325.1060134792888,1635
1327.2161698688478,1658
1329.3257702887959,1671
1331.4348149813054,1659
1333.5433041886276,1633
1335.6512381530933,1579
1337.7586171171101,1587
1339.8654413231675,1626
1341.9717110138317,1615
1344.0774264317488,1623
1346.1825878196432,1549
1348.2871954203192,1591
1350.3912494766587,1595
1352.4947502316231,1583
1354.5976979282532,1590
1356.7000928096686,1632
1358.8019351190665,1616
1360.9032250997243,1591
1363.0039629949988,1555
1365.1041490483235,1648
1367.2037835032133,1614
1369.3028666032606,1590
1371.401398592137,1615
1373.4993797135926,1577
1375.5968102114575,1590
1377.6936903296396,1567
1379.7900203121262,1665
1381.8858004029835,1564
1383.9810308463561,1652
1386.075711886469,1622
1388.1698437676241,1633
1390.2634267342032,1560
1392.356461030667,1559
1394.4489469015557,1587
1396.5408845914872,1594
1398.6322743451592,1668
1400.7231164073469,1623
1402.813411022907,1602
1404.903158436773,1611
1406.9923588939578,1597
1409.0810126395531,1638
1411.1691199187303,1633
1413.2566809767386,1622
1415.343696058907,1622
1417.4301654106425,1639
1419.5160892774315,1616
1421.6014679048399,1638
1423.6863015385125,1664
1425.7705904241707,1631
1427.8543348076178,1712
1429.9375349347342,1633
1432.0201910514802,1640
1434.102303403894,1731
1436.1838722380944,1638
1438.2648978002767,1700
1440.3453803367174,1736
1442.4253200937692,1696
1444.5047173178677,1772
1446.5835722555234,1767
1448.6618851533285,1813
1450.739656257952,1774
1452.8168858161434,1782
1454.8935740747306,1867
1456.96972128062,1846
1459.045327680797,1905
1461.120393522327,1857
1463.1949190523528,1822
1465.2689045180973,1866
1467.3423501668608,1914
1469.415256246024,1971
1471.4876230030463,1949
1473.559450685465,1876
1475.6307395408976,1990
1477.7014898170391,2003
1479.771701761665,1982
1481.8413756226287,2028
1483.9105116478618,2073
1485.9791100853772,2129
1488.0471711832643,2146
1490.1146951896926,2170
1492.1816823529098,2213
1494.2481329212433,2304
1496.3140471430984,2220
1498.3794252669609,2196
1500.4442675413939,2342
1502.5085742150404,2290
1504.572345536622,2295
1506.6355817549388,2363
1508.6982831188702,2298
1510.7604498773744,2470
1512.8220822794883,2412
1514.8831805743293,2367
1516.9437450110909,2506
1519.003775839048,2521
1521.0632733075522,2622
1523.1222376660367,2589
1525.1806691640113,2669
1527.2385680510652,2715
1529.2959345768668,2778
1531.3527689911643,2860
1533.4090715437833,2965
1535.4648424846291,2979
1537.5200820636855,3018
1539.5747905310159,3127
1541.6289681367616,3098
1543.6826151311434,3161
1545.7357317644614,3251
1547.7883182870937,3221
1549.8403749494987,3364
1551.8919020022113,3325
1553.9428996958477,3440
1555.9933682811015,3495
1558.0433080087469,3530
1560.0927191296346,3497
1562.1416018946961,3657
1564.1899565549415,3668
1566.2377833614592,3667
1568.2850825654164,3562
1570.3318544180606,3516
1572.3780991707158,3445
1574.423817074788,3355
1576.4690083817595,3258
1578.5136733431923,3012
1580.5578122107272,2876
1582.601425236085,2829
1584.6445126710646,2618
1586.6870747675434,2541
1588.7291117774776,2384
1590.7706239529034,2363
1592.8116115459347,2264
1594.8520748087658,2198
1596.8920139936686,2119
1598.9314293529933,2013
1600.9703211391711,2017
1603.008689604711,1971
1605.0465350022005,1914
1607.0838575843068,1895
1609.1206576037753,1837
1611.1569353134305,1809
1613.1926909661765,1827
1615.2279248149953,1804
1617.2626371129481,1699
1619.2968281131757,1782
1621.3304980688963,1661
1623.3636472334088,1697
1625.39627586009,1692
1627.428384202396,1698
1629.459972513861,1605
1631.4910410480993,1663
1633.5215900588028,1693
1635.551619799744,1549
1637.5811305247717,1610
1639.6101224878166,1602
1641.6385959428862,1520
1643.6665511440683,1633
1645.693988345528,1572
1647.7209078015112,1591
1649.7473097663405,1619
1651.7731944944203,1514
1653.7985622402307,1538
1655.823413258333,1572
1657.847747803366,1541
1659.8715661300494,1574
1661.8948684931793,1559
1663.9176551476316,1563
1665.9399263483624,1556
1667.9616823504057,1526
1669.982923408873,1511
1672.0036497789574,1515
1674.0238617159293,1443
1676.043559475138,1521
1678.0627433120121,1504
1680.081413482059,1498
1682.0995702408654,1484
1684.117213844096,1533
1686.134344547495,1576
1688.1509626068864,1552
1690.1670682781705,1556
1692.182661817329,1555
1694.1977434804217,1485
1696.2123135235875,1551
1698.226372203043,1531
1700.2399197750851,1536
1702.2529564960905,1539
1704.2654826225112,1546
1706.277498410882,1489
1708.2890041178139,1553
1710.2999999999988,1624
1712.3104863142066,1571
1714.3204633172854,1562
1716.329931266163,1597
1718.3388904178469,1495
1720.3473410294214,1575
1722.3552833580516,1547
1724.3627176609807,1511
1726.3696441955308,1496
1728.3760632191033,1504
1730.3819749891782,1516
1732.3873797633146,1505
1734.3922777991502,1519
1736.3966693544012,1452
1738.4005546868639,1527
1740.4039340544127,1542
1742.406807715001,1563
1744.4091759266616,1454
1746.4110389475054,1455
1748.4123970357223,1517
1750.413250449582,1479
1752.4135994474318,1455
1754.4134442876993,1484
1756.4127852288902,1499
1758.4116225295893,1494
1760.4099564484595,1409
1762.407787244244,1468
1764.405115175764,1492
1766.4019405019203,1429
1768.3982634816916,1469
1770.3940843741357,1468
1772.3894034383907,1436
1774.3842209336717,1405
1776.378537119274,1403
1778.372352254571,1410
1780.3656665990156,1497
1782.3584804121397,1387
1784.3507939535534,1435
1786.3426074829463,1429
1788.3339212600863,1405
1790.3247355448211,1468
1792.3150505970766,1419
1794.3048666768573,1416
1796.2941840442477,1440
1798.2830029594106,1438
1800.2713236825884,1420
1802.2591464741004,1440
1804.2464715943465,1460
1806.2332993038058,1475
1808.2196298630352,1463
1810.2054635326708,1401
1812.190800573428,1401
1814.175641246101,1429
1816.1599858115628,1428
1818.1438345307652,1415
1820.127187664738,1428
1822.1100454745924,1466
1824.092408221516,1465
1826.0742761667766,1437
1828.055649571721,1493
1830.0365286977735,1363
1832.0169138064398,1434
1833.9968051593014,1442
1835.9762030180214,1409
1837.9551076443408,1405
1839.9335193000788,1414
1841.9114382471344,1432
1843.888864747485,1423
1845.8657990631878,1452
1847.842241456378,1442
1849.8181921892697,1378
1851.7936515241558,1384
1853.7686197234098,1439
1855.7430970494815,1371
1857.7170837649014,1373
1859.6905801322787,1466
1861.6635864143004,1424
1863.6361028737338,1393
1865.608129773424,1411
1867.5796673762961,1471
1869.5507159453537,1446
1871.521275743678,1424
1873.4913470344313,1494
1875.4609300808534,1469
1877.4300251462632,1486
1879.3986324940588,1405
1881.366752387717,1435
1883.3343850907936,1449
1885.3015308669228,1467
1887.268189979819,1479
1889.2343626932739,1431
1891.2000492711595,1425
1893.1652499774254,1394
1895.1299650761011,1467
1897.0941948312952,1430
1899.0579395071945,1381
1901.0211993680641,1467
1902.98397467825,1422
1904.9462657021745,1440
1906.9080727043415,1492
1908.869395949332,1452
1910.8302357018065,1490
1912.790592226504,1417
1914.7504657882428,1410
1916.7098566519212,1459
1918.6687650825133,1417
1920.6271913450764,1454
1922.5851357047422,1395
1924.5425984267245,1443
1926.499579776314,1401
1928.4560800188833,1419
1930.4120994198802,1472
1932.367638244833,1470
1934.32269675935,1426
1936.2772752291175,1465
1938.231373919899,1457
1940.1849930975404,1488
1942.1381330279637,1434
1944.0907939771696,1450
1946.0429762112412,1341
1947.9946799963363,1423
1949.9459055986945,1439
1951.896653284633,1441
1953.8469233205478,1448
1955.7967159729142,1374
1957.7460315082863,1425
1959.6948701932974,1469
1961.6432322946594,1429
1963.5911180791632,1475
1965.5385278136787,1474
1967.4854617651545,1395
1969.4319202006182,1438
1971.377903387176,1419
1973.3234115920136,1421
1975.268445082395,1476
1977.2130041256642,1513
1979.1570889892423,1463
1981.1006999406304,1401
1983.04383724741,1438
1984.986501177238,1419
1986.928691997853,1435
1988.8704099770712,1444
1990.811655382789,1382
1992.7524284829801,1449
1994.692729545698,1413
1996.6325588390755,1426
1998.5719166313224,1396
2000.5108031907307,1418
2002.4492187856677,1438
2004.387163684583,1386
2006.3246381560011,1386
2008.2616424685298,1425
2010.1981768908527,1387
2012.1342416917332,1451
2014.069837140014,1363
2016.0049635046162,1368
2017.9396210545406,1430
2019.8738100588666,1428
2021.8075307867502,1379
2023.740783507431,1418
2025.6735684902228,1403
2027.6058860045214,1392
2029.5377363198004,1438
2031.4691197056118,1424
2033.4000364315875,1376
2035.3304867674374,1410
2037.260470982952,1393
2039.189989347998,1428
2041.1190421325232,1428
2043.047629606554,1409
2044.9757520401945,1375
2046.9034097036288,1402
2048.8306028671195,1404
2050.7573318010086,1390
2052.683596775716,1398
2054.609398061742,1454
2056.5347359296647,1383
2058.4596106501403,1456
2060.384022493906,1425
2062.3079717317764,1455
2064.231458634646,1426
2066.1544834734873,1435
2068.077046519352,1370
2069.99914804337,1418
2071.9207883167524,1399
2073.8419676107865,1417
2075.7626861968406,1395
2077.6829443463607,1431
2079.6027423308715,1375
2081.522080421977,1379
2083.440958891362,1384
2085.359378010786,1387
2087.2773380520907,1486
2089.194839287196,1410
2091.111881988101,1438
2093.0284664268825,1409
2094.9445928756973,1407
2096.86026160678,1420
2098.775472892446,1479
2100.690227005088,1428
2102.604524217178,1424
2104.5183648012676,1415
2106.431749029985,1374
2108.34467717604,1470
2110.2571495122206,1431
2112.169166311393,1420
2114.080727846503,1405
2115.9918343905747,1368
2117.902486216711,1385
2119.8126835980956,1427
2121.722426807987,1374
2123.6317161197285,1369
2125.5405518067364,1359
2127.448934142509,1363
2129.356863400624,1426
2131.264339854737,1393
2133.1713637785815,1406
2135.077935445972,1360
2136.9840551308002,1429
2138.889723107037,1394
2140.7949396487334,1404
2142.699705030018,1419
2144.6040195250994,1385
2146.507883408264,1407
2148.4112969538774,1403
2150.3142604363848,1448
2152.2167741303097,1410
2154.1188383102535,1462
2156.0204532508997,1417
2157.9216192270064,1443
2159.822336513414,1448
2161.7226053850413,1375
2163.622426116884,1327
2165.5217989840185,1411
2167.4207242616,1394
2169.319202224862,1440
2171.2172331491165,1451
2173.1148173097563,1416
2175.0119549822507,1414
2176.90864644215,1413
2178.8048919650823,1387
2180.7006918267534,1406
2182.596046302952,1436
2184.4909556695407,1345
2186.3854202024645,1326
2188.279440177746,1403
2190.173015871487,1395
2192.066147559868,1425
2193.958835519149,1346
2195.851080025667,1431
2197.7428813558417,1433
2199.6342397861667,1382
2201.5251555932186,1460
2203.415629053651,1421
2205.3056604441986,1417
2207.19525004167,1410
2209.084398122958,1475
2210.9731049650327,1387
2212.861370844941,1405
2214.749196039812,1440
2216.636580826851,1396
2218.523525483344,1420
2220.410030286655,1343
2222.296095514226,1373
2224.1817214435805,1490
2226.066908352319,1398
2227.951656518121,1462
2229.835966218746,1451
2231.71983773203,1464
2233.6032713358913,1414
2235.486267308324,1482
2237.3688259274036,1397
2239.2509474712824,1431
2241.132632218193,1446
2243.013880446447,1465
2244.8946924344323,1447
2246.7750684606203,1439
2248.6550088035574,1408
2250.534513741871,1401
2252.413583554265,1372
2254.292218519526,1386
2256.170418916517,1451
2258.0481850241786,1481
2259.925517121534,1383
2261.8024154876825,1430
2263.678880401803,1417
2265.5549121431536,1450
2267.430510991071,1407
2269.305677224971,1401
2271.180411124348,1466
2273.0547129687766,1431
2274.9285830379076,1406
2276.8020216114737,1365
2278.6750289692845,1327
2280.5476053912294,1347
2282.4197511572766,1364
2284.2914665474727,1373
2286.162751841943,1423
2288.0336073208937,1462
2289.904033264608,1414
2291.774029953448,1435
2293.6435976678554,1463
2295.5127366883517,1451
2297.381447295534,1403
2299.2497297700825,1369
2301.1175843927526,1458
2302.9850114443825,1394
2304.852011205885,1410
2306.7185839582553,1360
2308.5847299825664,1401
2310.4504495599676,1422
2312.3157429716925,1404
2314.1806104990483,1377
2316.0450524234247,1460
2317.9090690262888,1476
2319.772660589186,1465
2321.635827393742,1441
2323.498569721661,1432
2325.3608878547248,1467
2327.2227820747967,1429
2329.0842526638157,1452
2330.945299903803,1439
2332.805924076857,1443
2334.6661254651535,1439
2336.525904350951,1416
2338.3852610165827,1448
2340.244195744464,1451
2342.102708817088,1435
2343.9608005170253,1452
2345.8184711269287,1441
2347.675720929526,1466
2349.532550207628,1461
2351.38895924412,1402
2353.24494832197,1452
2355.100517724223,1391
2356.955667734004,1456
2358.810398634514,1435
2360.664710709037,1393
2362.5186042409337,1477
2364.3720795136437,1428
2366.225136810686,1447
2368.0777764156583,1459
2369.929998612237,1413
2371.7818036841777,1446
2373.633191915315,1492
2375.484163589562,1458
2377.3347189909114,1465
2379.184858403434,1477
2381.03458211128,1487
2382.8838903986775,1469
2384.732783549936,1507
2386.5812618494406,1443
2388.4293255816588,1451
2390.2769750311327,1461
2392.1242104824883,1449
2393.971032220427,1435
2395.8174405297295,1459
2397.6634356952563,1473
2399.509018001947,1500
2401.3541877348193,1464
2403.1989451789705,1523
2405.043290619576,1441
2406.8872243418905,1416
2408.730746631247,1443
2410.5738577730594,1475
2412.4165580528183,1509
2414.258847756095,1435
2416.100727168537,1455
2417.9421965758734,1443
2419.783256263912,1477
2421.623906518538,1520
2423.4641476257157,1509
2425.303979871491,1455
2427.143403541984,1526
2428.9824189233977,1456
2430.821026302012,1496
2432.6592259641866,1492
2434.497018196361,1497
2436.33440328505,1484
2438.171381516851,1465
2440.00795317844,1518
2441.844118556569,1440
2443.6798779380724,1465
2445.5152316098606,1519
2447.3501798589255,1531
2449.1847229723357,1472
2451.0188612372403,1494
2452.8525949408663,1516
2454.6859243705203,1512
2456.518849813587,1452
2458.3513715575314,1409
2460.183489889895,1462
2462.015205098301,1529
2463.8465174704493,1462
2465.67742729412,1502
2467.5079348571717,1488
2469.338040447542,1517
2471.1677443532476,1483
2472.9970468623833,1430
2474.825948263123,1526
2476.6544488437207,1423
2478.482548892508,1429
2480.310248697896,1543
2482.137548548374,1509
2483.9644487325118,1511
2485.790949538956,1522
2487.617051256433,1460
2489.44275417375,1460
2491.26805857979,1535
2493.0929647635157,1470
2494.917473013971,1511
2496.741583620276,1508
2498.5652968716304,1523
2500.3886130573137,1464
2502.2115324666834,1571
2504.0340553891765,1473
2505.856182114308,1462
2507.6779129316733,1554
2509.499248130945,1540
2511.3201880018764,1549
2513.140732834298,1548
2514.9608829181198,1541
2516.780638543331,1529
2518.6,1524
2520.418967578273,1536
2522.237541568376,1513
2524.0557222606144,1531
2525.8735099453706,1513
2527.6909049131086,1542
2529.507907454368,1510
2531.32451785977,1521
2533.140736420014,1573
2534.9565634258774,1558
2536.771999168218,1533
2538.5870439379714,1624
2540.4016980261526,1582
2542.2159617238544,1591
2544.02983532225,1555
2545.8433191125914,1574
2547.656413386209,1569
2549.4691184345115,1620
2551.2814345489874,1578
2553.093362021204,1559
2554.904901142808,1604
2556.716052205523,1581
2558.526815501153,1586
2560.3371913215824,1597
2562.147179958771,1603
2563.956781704761,1602
2565.7659968516705,1559
2567.5748256916986,1645
2569.3832685171224,1617
2571.1913256202984,1620
2572.9989972936614,1655
2574.806283829725,1647
2576.613185521084,1640
2578.4197026604074,1622
2580.2258355404483,1611
2582.031584454035,1655
2583.836949694077,1596
2585.6419315535613,1691
2587.4465303255533,1648
2589.2507463032002,1734
2591.0545797797245,1699
2592.8580310484303,1711
2594.6611004026995,1716
2596.463788135992,1678
2598.266094541849,1720
2600.0680199138874,1701
2601.869564545807,1666
2603.670728731383,1710
2605.4715127644704,1713
2607.2719169390048,1783
2609.071941548998,1790
2610.8715868885433,1785
2612.670853251811,1733
2614.469740933052,1749
2616.268250226594,1752
2618.0663814268455,1721
2619.864134828292,1708
2621.6615107255006,1740
2623.458509413115,1672
2625.2551311858597,1753
2627.0513763385347,1727
2628.8472451660223,1685
2630.6427379632833,1743
2632.4378550253564,1752
2634.232596647359,1633
2636.026963124488,1734
2637.8209547520187,1700
2639.6145718253065,1693
2641.407814639785,1680
2643.200683490966,1651
2644.9931786744414,1597
2646.7853004858807,1651
2648.577049221034,1626
2650.3684251757277,1586
2652.1594286458712,1634
2653.9500599274484,1671
2655.740319316525,1592
2657.5302071092437,1676
2659.3197236018286,1612
2661.10886909058,1583
2662.8976438718782,1594
2664.686048242183,1542
2666.4740824980327,1558
2668.2617469360443,1645
2670.0490418529134,1607
2671.8359675454153,1566
2673.622524310403,1502
2675.408712444811,1604
2677.1945322456495,1543
2678.979984010009,1492
2680.76506803506,1451
2682.5497846180497,1525
2684.334134056306,1496
2686.1181166472343,1480
2687.9017326883213,1525
2689.6849824771293,1515
2691.4678663113013,1480
2693.2503844885596,1458
2695.032537306705,1498
2696.8143250636167,1483
2698.5957480572542,1510
2700.3768065856534,1470
2702.1575009469316,1519
2703.937831439283,1418
2705.717798360982,1456
2707.4974020103837,1472
2709.276642685917,1494
2711.055520686095,1450
2712.834036309506,1499
2714.612189854819,1404
2716.389981620782,1505
2718.1674119062204,1448
2719.944481010041,1453
2721.721189231226,1426
2723.4975368688415,1455
2725.273524222027,1491
2727.0491515900053,1440
2728.824419272075,1417
2730.5993275676146,1552
2732.3738767760838,1451
2734.148067197016,1425
2735.921899130031,1438
2737.6953728748194,1370
2739.468488731156,1393
2741.2412469988926,1412
2743.0136479779617,1462
2744.785691968372,1443
2746.5573792702116,1512
2748.3287101836504,1400
2750.099685008934,1394
2751.870304046388,1402
2753.640567596418,1488
2755.4104759595057,1435
2757.1800294362156,1351
2758.949228327187,1453
2760.7180729331412,1425
2762.486563554877,1383
2764.254700493272,1406
2766.022484049284,1441
2767.789914523947,1405
2769.5569922183786,1385
2771.3237174337705,1406
2773.090090471394,1401
2774.8561116326036,1438
2776.6217812188274,1436
2778.3870995315756,1401
2780.1520668724356,1441
2781.9166835430747,1415
2783.6809498452394,1438
2785.444866080754,1460
2787.2084325515225,1411
2788.971649559527,1339
2790.73451740683,1384
2792.4970363955713,1476
2794.2592068279705,1383
2796.0210290063264,1377
2797.7825032330147,1476
2799.543629810493,1464
2801.304409041296,1453
2803.0648412280366,1445
2804.8249266734088,1429
2806.5846656801846,1448
2808.344058551212,1454
2810.1031055894246,1376
2811.8618070978273,1417
2813.6201633795085,1438
2815.378174737636,1491
2817.1358414754536,1436
2818.893163896285,1413
2820.6501423035334,1397
2822.4067770006814,1383
2824.1630682912883,1391
2825.9190164789957,1363
2827.6746218675207,1410
2829.429884760661,1425
2831.184805462294,1434
2832.9393842763743,1428
2834.693621506936,1439
2836.4475174580916,1429
2838.201072434034,1404
2839.954286739034,1409
2841.707160677441,1350
2843.459694553685,1416
2845.2118886722724,1435
2846.96374333779,1451
2848.7152588549034,1422
2850.4664355283567,1486
2852.217273662973,1410
2853.9677735636546,1385
2855.7179355353833,1395
2857.4677598832186,1403
2859.217246912299,1441
2860.9663969278427,1362
2862.715210235146,1412
2864.4636871395846,1422
2866.211827946614,1471
2867.9596329617652,1408
2869.7071024906536,1453
2871.4542368389684,1412
2873.20103631248,1400
2874.947501217038,1383
2876.6936318585695,1413
2878.4394285430812,1388
2880.1848915766604,1386
2881.9300212654707,1382
2883.6748179157553,1461
2885.4192818338374,1396
2887.1634133261173,1442
2888.907212699077,1454
2890.6506802592744,1428
2892.393816313348,1361
2894.1366211680142,1463
2895.8790951300693,1406
2897.621238506388,1336
2899.363051603925,1458
2901.1045347297118,1454
2902.8456881908596,1413
2904.58651229456,1431
2906.327007348081,1379
2908.067173658772,1406
2909.8070115340597,1392
2911.5465212814497,1404
2913.285703208527,1415
2915.0245576229563,1436
2916.7630848324807,1416
2918.5012851449196,1433
2920.2391588681758,1482
2921.976706310227,1405
2923.7139277791334,1431
2925.4508235830313,1442
2927.187394030137,1401
2928.923639428745,1399
2930.6595600872306,1378
2932.395156314046,1420
2934.1304284177218,1400
2935.8653767068713,1423
2937.6000014901815,1448
2939.3343030764227,1367
2941.068281774442,1423
2942.8019378931644,1452
2944.5352717415976,1483
2946.2682836288236,1445
2948.0009738640065,1477
2949.7333427563885,1401
2951.465390615289,1455
2953.1971177501086,1458
2954.9285244703265,1450
2956.6596110855,1367
2958.3903779052657,1415
2960.1208252393385,1439
2961.8509533975125,1429
2963.5807626896617,1429
2965.3102534257378,1417
2967.0394259157715,1366
2968.768280469873,1406
2970.496817398232,1431
2972.2250370111146,1417
2973.952939618869,1399
2975.6805255319196,1407
2977.4077950607707,1462
2979.134748516006,1406
2980.861386208289,1443
2982.587708448359,1379
2984.313715547037,1364
2986.039407815222,1329
2987.764785563891,1419
2989.489849104102,1396
2991.2145987469908,1451
2992.9390348037705,1435
2994.6631575857346,1366
2996.3869674042576,1410
2998.1104645707887,1368
2999.83364939686,1366
3001.5565221940783,1395
3003.2790832741334,1401
3005.0013329487924,1404
3006.7232715298996,1380
3008.4448993293804,1395
3010.166216659239,1406
3011.887223831558,1387
3013.607921158498,1346
3015.3283089522993,1389
3017.0483875252826,1464
3018.7681571898443,1432
3020.4876182584626,1429
3022.2067710436927,1404
3023.9256158581707,1424
3025.644153014609,1396
3027.362382825801,1400
3029.0803056046193,1338
3030.797921664012,1382
3032.5152313170106,1352
3034.2322348767225,1403
3035.9489326563353,1372
3037.665324969115,1423
3039.3814121284063,1442
3041.097194447633,1389
3042.812672240299,1417
3044.5278458199855,1376
3046.2427155003525,1417
3047.9572815951406,1404
3049.671544418167,1424
3051.38550428333,1399
3053.0991615046073,1381
3054.812516396051,1413
3056.5255692717974,1401
3058.2383204460575,1415
3059.9507702331257,1385
3061.662918947372,1442
3063.3747669032446,1407
3065.0863144152736,1366
3066.7975617980674,1408
3068.508509366309,1449
3070.219157434767,1403
3071.9295063182844,1406
3073.639556331785,1418
3075.3493077902704,1420
3077.058761008821,1389
3078.7679163025964,1337
3080.476773986837,1396
3082.1853343768594,1419
3083.89359778806,1427
3085.6015645359153,1435
3087.3092349359786,1424
3089.016609303884,1404
3090.7236879553434,1353
3092.4304712061476,1392
3094.136959372166,1436
3095.843152769349,1334
3097.5490517137237,1442
3099.2546565213966,1389
3100.959967508554,1415
3102.66498499146,1381
3104.3697092864577,1424
3106.0741407099695,1434
3107.778279578498,1385
3109.482126208622,1393
3111.1856809170004,1422
3112.8889440203716,1421
3114.5919158355528,1460
3116.294596679439,1458
3117.996986869006,1400
3119.6990867213062,1442
3121.4008965534726,1477
3123.102416682717,1442
3124.803647426329,1445
3126.5045891016784,1454
3128.205242026213,1455
3129.90560651746,1472
3131.605682893025,1451
3133.3054714705922,1480
3135.0049725679282,1385
3136.7041865028714,1382
3138.4031135933465,1366
3140.101754157353,1453
3141.800108512971,1426
3143.498176978357,1390
3145.1959598717494,1460
3146.8934575114636,1389
3148.5906702158954,1410
3150.2875983035183,1437
3151.9842420928853,1330
3153.680601902627,1450
3155.376678051456,1381
3157.07247085816,1407
3158.767980641609,1447
3160.463207720748,1390
3162.158152414606,1409
3163.8528150422862,1431
3165.5471959229726,1449
3167.2412953759303,1420
3168.9351137204976,1404
3170.628651276098,1397
3172.3219083622307,1379
3174.014885298474,1402
3175.707582404485,1399
3177.4000000000005,1392
3179.092138404835,1366
3180.7839979388846,1427
3182.47557892212,1424
3184.166881674594,1382
3185.8579065164386,1429
3187.5486537678626,1447
3189.2391237491547,1422
3190.9293167806827,1467
3192.6192331828934,1352
3194.3088732763117,1370
3195.998237381542,1370
3197.687325819268,1442
3199.376138910251,1424
3201.064676975334,1375
3202.7529403354347,1444
3204.4409293115523,1447
3206.1286442247647,1442
3207.816085396229,1391
3209.5032531471825,1421
3211.190147798936,1359
3212.8767696728846,1365
3214.5631190905015,1426
3216.2491963733373,1386
3217.9350018430214,1343
3219.6205358212637,1348
3221.305798629851,1400
3222.990790590651,1289
3224.6755120256103,1340
3226.359963256751,1371
3228.0441446061795,1354
3229.7280563960758,1378
3231.411698948703,1378
3233.0950725863995,1376
3234.778177631587,1418
3236.461014406761,1356
3238.1435832345005,1364
3239.8258844374595,1437
3241.507918338374,1361
3243.1896852600576,1392
3244.8711855254023,1368
3246.552419457381,1348
3248.233387379042,1366
3249.914089613516,1354
3251.59452648401,1380
3253.274698313813,1445
3254.95460542629,1345
3256.6342481448855,1331
3258.313626793125,1341
3259.9927416946084,1315
3261.6715931730196,1332
3263.3501815521176,1319
3265.0285071557437,1328
3266.706570307815,1402
3268.3843713323286,1385
3270.0619105533615,1357
3271.739188295068,1364
3273.4162048816834,1346
3275.0929606375184,1416
3276.769455886966,1370
3278.445690954498,1396
3280.1216661646613,1445
3281.797381842087,1406
3283.4728383114807,1381
3285.1480358976296,1421
3286.8229749253996,1419
3288.4976557197333,1354
3290.172078605655,1404
3291.846243908266,1370
3293.5201519527463,1391
3295.193803064357,1368
3296.8671975684374,1397
3298.5403357904024,1392
3300.21321805575,1425
3301.8858446900567,1336
3303.558216018975,1405
3305.23033236824,1368
3306.9021940636603,1332
3308.57380143113,1392
3310.2451547966184,1409
3311.916254486174,1392
3313.5871008259246,1370
3315.2576941420766,1356
3316.9280347609147,1392
3318.5981230088046,1399
3320.2679592121895,1362
3321.9375436975924,1364
3323.606876791612,1329
3325.27595882093,1417
3326.944790112305,1371
3328.6133709925753,1372
3330.2817017886573,1314
3331.949782827547,1369
3333.617614436319,1427
3335.2851969421245,1407
3336.952530672199,1394
3338.619615953853,1301
3340.286453114475,1340
3341.9530424815357,1394
3343.619384382583,1399
3345.2854791452437,1413
3346.951327097224,1408
3348.6169285663073,1478
3350.2822838803577,1363
3351.947393367319,1408
3353.61225735521,1385
3355.2768761721345,1425
3356.9412501462693,1453
3358.605379605873,1345
3360.2692648792827,1340
3361.9329062949146,1382
3363.596304181263,1374
