CollectionTime,4/2/2024 11:26:08 AM
ExposureUsed,3
CalibratedSpectrum
-994.8464149364308,678
-991.9439705588344,717
-989.042830375826,731
-986.1429931109675,719
-983.2444574887519,836
-980.3472222346043,825
-977.4512860748813,745
-974.5566477368716,668
-971.6633059487953,672
-968.7712594398042,708
-965.8805069399822,698
-962.9910471803447,674
-960.1028788928387,663
-957.2160008103432,702
-954.3304116666687,758
-951.4461101965578,745
-948.5630951356844,724
-945.6813652206545,826
-942.8009191890055,921
-939.9217557792067,898
-937.0438737306594,786
-934.167271783696,771
-931.2919486795813,747
-928.4179031605115,691
-925.5451339696144,731
-922.67363985095,793
-919.8034195495097,829
-916.9344718112166,820
-914.0667953829256,789
-911.2003890124234,765
-908.3352514484286,812
-905.471381440591,751
-902.6087777394928,774
-899.7474390966474,818
-896.8873642645002,849
-894.0285519964284,782
-891.1710010467407,771
-888.3147101706776,772
-885.4596781244115,763
-882.6059036650465,687
-879.7533855506183,693
-876.9021225400943,692
-874.0521133933738,753
-871.2033568712878,775
-868.3558517355991,795
-865.509596749002,922
-862.6645906751228,907
-859.8208322785192,853
-856.9783203246812,883
-854.1370535800299,740
-851.2970308119186,791
-848.4582507886321,879
-845.620712279387,843
-842.7844140543316,730
-839.9493548845461,726
-837.1155335420422,721
-834.2829487997635,749
-831.4515994315852,864
-828.6214842123144,918
-825.7926019176898,898
-822.9649513243819,847
-820.138531209993,822
-817.3133403530569,770
-814.4893775330396,828
-811.6666415303382,842
-808.845131126282,761
-806.0248451031321,776
-803.2057822440808,709
-800.3879413332527,754
-797.5713211557038,907
-794.755920497422,950
-791.941738145327,879
-789.1287728872701,983
-786.3170235120342,1003
-783.5064888093341,853
-780.6971675698165,746
-777.8890585850597,770
-775.0821606475735,851
-772.2764725507997,849
-769.4719930891118,853
-766.6687210578151,835
-763.8666552531465,1095
-761.0657944722747,1292
-758.2661375133,1087
-755.4676831752547,899
-752.6704302581027,818
-749.8743775627395,796
-747.0795238909925,812
-744.285868045621,851
-741.4934088303156,829
-738.702145049699,797
-735.9120755093254,887
-733.123199015681,1170
-730.3355143761836,1221
-727.5490203991826,905
-724.7637158939592,869
-721.9795996707265,829
-719.1966705406293,798
-716.4149273157439,731
-713.6343688090786,740
-710.8549938345734,761
-708.0768012070998,868
-705.2997897424614,836
-702.5239582573931,849
-699.7493055695622,887
-696.9758304975669,920
-694.2035318609377,932
-691.4324084801367,921
-688.6624591765578,859
-685.8936827725265,824
-683.1260780913001,859
-680.3596439570675,888
-677.5943791949499,857
-674.8302826309991,836
-672.0673530922,810
-669.3055894064685,863
-666.5449904026519,1000
-663.78555491053,942
-661.0272817608139,897
-658.2701697851465,916
-655.5142178161026,910
-652.7594246871884,877
-650.0057892328422,819
-647.2533102884337,794
-644.5019866902646,914
-641.7518172755683,915
-639.0028008825099,863
-636.254936350186,907
-633.5082225186254,913
-630.7626582287882,905
-628.0182423225665,849
-625.2749736427841,861
-622.5328510331965,952
-619.7918733384909,921
-617.0520394042862,999
-614.3133480771331,970
-611.5757982045143,1010
-608.8393886348437,1098
-606.1041182174672,1196
-603.3699858026625,1145
-600.6369902416393,1094
-597.9051303865383,1072
-595.1744050904326,1099
-592.4448132073267,1248
-589.7163535921568,1322
-586.9890251007912,1087
-584.2628265900296,1028
-581.5377569176036,990
-578.8138149421764,1053
-576.090999523343,1111
-573.3693095216302,948
-570.6487437984965,980
-567.9293012163321,1117
-565.210980638459,1162
-562.4937809291307,1079
-559.7777009535329,991
-557.0627395777825,1106
-554.3488956689287,1055
-551.6361680949519,1123
-548.9245557247644,1135
-546.2140574282107,1247
-543.5046720760662,1259
-540.7963985400388,1205
-538.0892356927677,1252
-535.3831824078238,1185
-532.6782375597103,1341
-529.9744000238613,1479
-527.2716686766433,1709
-524.5700423953542,2026
-521.8695200582238,1819
-519.1701005444136,1542
-516.4717827340166,1594
-513.7745655080581,1787
-511.0784477484944,1814
-508.38342833821423,1914
-505.68950616103757,2067
-502.9966801017163,2226
-500.3049490459341,2501
-497.61431188030633,2449
-494.9247674923801,2077
-492.2363147706342,1866
-489.54895260447927,1695
-486.86267988425755,1619
-484.1774955012431,1648
-481.4933983476417,1749
-478.8103873165908,1614
-476.1284613021596,1421
-473.44761919934945,1413
-470.7678599040928,1296
-468.089182313254,1422
-465.4115853246294,1496
-462.735067836947,1682
-460.0596287498663,1691
-457.3852669639789,1331
-454.71198138080774,1150
-452.03977090280773,1149
-449.3686344333656,1153
-446.69857087679964,1289
-444.02957913835996,1430
-441.36165812422837,1485
-438.6948067415183,1357
-436.0290238982752,1273
-433.36430850347597,1280
-430.7006594670296,1292
-428.0380756997763,1338
-425.3765561134885,1395
-422.7160996208702,1430
-420.0567051355571,1594
-417.3983715721164,1607
-414.7410978460475,1468
-412.08488287378145,1422
-409.4297255726806,1307
-406.77562486103955,1275
-404.1225796580843,1245
-401.4705888839728,1108
-398.8196514597947,1090
-396.1697663075713,1184
-393.5209323502555,1204
-390.8731485117323,1071
-388.22641371681823,1023
-385.5807268912615,1199
-382.93608696174226,1145
-380.29249285587207,938
-377.64994350219456,910
-375.0084378301849,959
-372.36797477025016,910
-369.7285532537287,1071
-367.0901722128914,1147
-364.45283058094014,1108
-361.8165272920089,1087
-359.1812612811634,958
-356.54703148440103,718
-353.9138368386507,762
-351.28167628177346,1036
-348.6505487525617,1222
-346.02045319074,1110
-343.3913885369643,923
-340.76335373282245,866
-338.1363477208339,910
-335.5103694444499,1042
-332.8854178480535,1015
-330.26149187695944,988
-327.63859047741425,895
-325.016712596596,843
-322.3958571826148,834
-319.77602318451227,942
-317.15720955226186,950
-314.5394152367686,959
-311.9226391898695,915
-309.3068803643333,939
-306.69213771386023,1112
-304.0784101930824,1382
-301.4656967575635,1347
-298.8539963637994,1243
-296.2433079692172,1340
-293.6336305321761,1204
-291.02496301196675,1056
-288.41730436881176,1176
-285.81065356386534,1126
-283.2050095592135,1146
-280.60037131787396,1589
-277.9967378037961,1950
-275.39410798186134,1443
-272.7924808178824,1502
-270.19185527860407,1579
-267.5922303317028,1384
-264.9936049457866,1436
-262.3959780903955,1480
-259.79934873600087,1855
-257.2037158540064,1926
-254.6090784167469,1833
-252.01543539748934,1928
-249.42278577043237,1504
-246.8311285107061,1292
-244.24046259437262,1273
-241.6507869984256,1429
-239.0621007007909,1679
-236.4744026803254,1741
-233.88769191681808,1757
-231.30196739098994,1629
-228.7172280844934,1466
-226.13347297991243,1574
-223.550701060763,1743
-220.9689113114929,1677
-218.3881027174814,1562
-215.8082742650397,1837
-213.22942494141068,2437
-210.65155373476898,3109
-208.07465963422078,2788
-205.49874162980439,2282
-202.92379871248932,2426
-200.34982987417743,2433
-197.7768341077018,1925
-195.20481040682762,1587
-192.63375776625162,1461
-190.0636751816021,1549
-187.49456164943945,1772
-184.92641616725564,2190
-182.3592377334743,2227
-179.79302534745102,2028
-177.2277780094729,2129
-174.66349472075865,2071
-172.10017448345923,2265
-169.5378163006569,2184
-166.97641917636565,2005
-164.41598211553162,2176
-161.8565041240322,2802
-159.29798420867678,2732
-156.74042137720642,2457
-154.18381463829382,2444
-151.6281630015436,2291
-149.07346547749228,2209
-146.51972107760753,1915
-143.96692881428908,2097
-141.41508770086864,2448
-138.86419675160937,2488
-136.31425498170609,2453
-133.7652614072856,2464
-131.21721504540642,2363
-128.67011491405844,2585
-126.12396003216395,3595
-123.57874941957618,4508
-121.03448209708074,3978
-118.49115708639465,3342
-115.94877341016684,3455
-113.40733009197788,4073
-110.86682615633993,3884
-108.32726062869733,3775
-105.78863253542556,4656
-103.25094090383243,6068
-100.71418476215695,5659
-98.17836313957025,4781
-95.64347506617503,4086
-93.10951957300585,3987
-90.57649569202886,4131
-88.04440245614194,3953
-85.51323889917478,4650
-82.98300405588896,5691
-80.45369696197747,7069
-77.925316654065,9221
-75.39786216970867,10922
-72.87133254739649,13300
-70.34572682654857,15326
-67.82104404751692,18645
-65.29728325158499,25303
-62.774443480968216,32444
-60.252523778813384,37593
-57.73152318919938,41853
-55.21144075713676,44286
-52.69227552856796,37672
-50.17402655036665,37575
-47.65669287033859,34378
-45.14027353722133,29263
-42.624767600684095,34735
-40.11017411132775,42026
-37.59649212068507,47794
-35.08372068122037,53199
-32.57185884632963,59880
-30.06090567034107,61556
-27.550860208513996,65043
-25.04172151704006,65043
-22.533488653042014,65043
-20.02616067457484,65043
-17.51973664062507,65043
-15.014215611111126,65043
-12.509596646882983,65043
-10.005878809722162,65043
-7.503061162342419,65043
-5.001142768389059,65043
-2.5001226924387083,65043
-3.410605131648481E-13,65043
2.49922624248552,65043
4.997556967646801,65043
7.494993107179766,65043
9.99153559184856,65043
12.487185351485778,65043
14.98194331499235,65043
17.475810410337544,65043
19.96878756455851,65043
22.46087570376085,65043
24.952075753118834,65043
27.442388636874625,33800
29.93181527833849,13025
32.42035659988892,10812
34.90801352297353,14816
37.39478696810693,14187
39.880677854873056,13136
42.36568710192364,10713
44.8498156269784,11253
47.33306434682618,10442
49.815434177322686,10766
52.296926033393675,10780
54.77754082903198,9553
57.25727947729865,11407
59.736142890323435,11169
62.214131979304284,7665
64.6912476545076,6196
67.16749082526735,5151
69.64286239998614,4083
72.11736328613551,4343
74.59099439025431,4866
77.06375661794982,6289
79.53565087389825,6253
82.0066780618431,5922
84.4768390845968,4897
86.94613484403999,4587
89.41456624112152,6127
91.88213417585825,6092
94.34883954733527,4449
96.81468325370679,4834
99.2796661921941,3554
101.74378925908763,4091
104.20705334974559,4288
106.66945935859462,4201
109.1310081791296,4939
111.59170070391383,6725
114.05153782457865,5940
116.5105204318238,3855
118.96864941541708,3848
121.42592566419489,5051
123.88235006606146,4748
126.3379235079899,4111
128.79264687602085,3794
131.2465210552641,3795
133.69954692989631,3569
136.15172538316415,4389
138.60305729738116,4349
141.05354355393,3937
143.50318503326116,3589
145.95198261489327,3470
148.39993717741368,3577
150.84704959847772,4202
153.29332075480897,4670
155.73875152219944,4706
158.18334277550935,4523
160.62709538866693,4187
163.0700102346691,4200
165.51208818558075,4033
167.953330112535,3789
170.39373688573346,3380
172.8333093744459,3484
175.2720484470101,3602
177.70995497083277,3978
180.14702981238815,4668
182.58327383721917,4277
185.01868790993672,4115
187.45327289422062,3895
189.88702965281777,3594
192.31995904754444,3758
194.75206193928489,4157
197.18333918799135,4102
199.61379165268454,3931
202.04342019145315,3781
204.4722256614548,3764
206.90020891891436,4019
209.32737081912592,3753
211.7537122164515,3573
214.17923396432116,3652
216.6039369152336,3773
219.0278219207553,3837
221.45088983152186,3694
223.8731414972358,3738
226.29457776666914,3579
228.71519948766172,3537
231.1350075071216,3664
233.55400267102482,3658
235.97218582441633,3789
238.38955781140908,3482
240.806119475184,3704
243.2218716579905,3709
245.6368152011462,3722
248.05095094503736,3757
250.46427972911806,3761
252.87680239191036,3713
255.28851977100544,3913
257.69943270306203,4049
260.10954202380753,3550
262.5188485680378,3585
264.92735316961557,4088
267.33505666147425,4164
269.7419598756128,3974
272.14806364310084,3689
274.5533687940747,3657
276.95787615773975,3545
279.361586562369,3633
281.7645008353045,3430
284.1666198029559,3337
286.5679442908013,3413
288.96847512338695,3682
291.3682131243279,3601
293.7671591163071,3619
296.1653139210757,3754
298.562678359453,3697
300.9592532513268,3747
303.3550394156532,3739
305.75003767045655,3464
308.14424883282936,3380
310.53767371893196,3360
312.93031314399377,3441
315.3221679223125,3217
317.71323886725304,3176
320.1035267912496,3201
322.49303250580397,3183
324.881756821487,3127
327.2697005479374,3050
329.65686449386135,3068
332.0432494670347,3147
334.4288562743004,3184
336.81368572157066,3236
339.19773861382487,3053
341.58101575511205,2999
343.96351794854786,2869
346.3452459963173,2840
348.72620069967365,3057
351.1063828589379,3130
353.48579327349967,3288
355.8644327418169,3058
358.24230206141533,3016
360.6194020288899,2945
362.99573343990255,2866
365.3712970891845,2735
367.7460937705348,2747
370.12012427682066,2798
372.493389399978,2865
374.86588993101077,2863
377.23762665999084,2802
379.6086003760588,2767
381.9788118674235,2714
384.34826192136165,2787
386.7169513242188,2737
389.08488086140824,2685
391.4520513174118,2951
393.8184634757795,2897
396.1841181191296,2975
398.54901602914856,3111
400.9131579865916,3052
403.2765447712811,2895
405.63917716210926,2940
408.00105593703483,2864
410.36218187308646,2735
412.7225557463596,2640
415.0821783320191,2695
417.4410504042976,2652
419.79917273649585,2632
422.1565461009834,2727
424.5131712691973,2732
426.869049011643,2717
429.22418009789544,2773
431.578565296596,2612
433.9322053754556,2503
436.28510110125285,2513
438.6372532398352,2605
440.98866255611733,2555
443.33932981408293,2560
445.6892557767842,2648
448.0384412063411,2616
450.38688686394175,2750
452.7345935098431,2881
455.0815619033697,2669
457.42779280291506,2711
459.7732869659403,2810
462.1180451489754,2841
464.4620681076178,2730
466.80535659653424,2712
469.1479113694588,2746
471.48973317919445,2850
473.8308227776122,2940
476.17118091565135,3010
478.51080834331924,3030
480.8497058096914,3188
483.1878740629122,3667
485.5253138501944,3637
487.8620259178176,3633
490.1980110111317,4076
492.53326987455307,4242
494.86780325156724,4292
497.201611884728,4322
499.53469651565683,4203
501.8670578850447,4234
504.1986967326493,4084
506.52961379729754,3869
508.85980981688454,3768
511.18928552837315,3666
513.5180416677952,3365
515.8460789702503,3668
518.1733981699067,4423
520.5,5588
522.8258851928354,5895
525.1510544797857,5549
527.4755085912916,4818
529.7992482568625,4233
532.1222742050759,3524
534.4445871635783,3038
536.766187859083,2700
539.0870770173726,2615
541.4072553632982,2574
543.7267236207783,2475
546.0454825128002,2532
548.363532761419,2617
550.6808750877592,2556
552.9975102120118,2668
555.3134388534377,2602
557.6286617303654,2560
559.9431795601911,2637
562.2569930593802,2520
564.570102943466,2720
566.88250992705,2765
569.1942147238021,2560
571.5052180464602,2488
573.8155206068309,2608
576.1251231157885,2772
578.4340262832759,2598
580.7422308183045,2461
583.0497374289534,2376
585.3565468223703,2483
587.6626597047714,2462
589.9680767814409,2414
592.2727987567309,2420
594.5768263340624,2491
596.8801602159238,2437
599.1828011038731,2430
601.4847496985356,2551
603.7860066996047,2363
606.0865728058427,2360
608.3864487150802,2301
610.6856351242152,2323
612.9841327292149,2371
615.2819422251141,2412
617.5790643060163,2372
619.8754996650935,2286
622.1712489945849,2344
624.466312985799,2374
626.7606923291121,2295
629.0543877139692,2346
631.347399828883,2404
633.6397293614343,2472
635.9313769982732,2490
638.2223434251173,2500
640.5126293267522,2404
642.8022353870326,2434
645.0911622888809,2326
647.3794107142876,2410
649.666981344312,2356
651.9538748590815,2366
654.2400919377915,2384
656.525633258706,2486
658.8104994991568,2470
661.0946913355442,2560
663.3782094433375,2447
665.6610544970729,2505
667.9432271703561,2454
670.22472813586,2404
672.5055580653268,2512
674.7857176295659,2570
677.065207498456,2423
679.3440283409432,2486
681.6221808250425,2491
683.899665617837,2443
686.1764833854772,2501
688.4526347931837,2475
690.7281205052436,2510
693.0029411850135,2463
695.2770974949171,2438
697.5505900964474,2506
699.8234196501651,2519
702.0955868156989,2463
704.3670922517472,2401
706.6379366160747,2409
708.9081205655159,2424
711.1776447559728,2526
713.4465098424155,2483
715.714716478883,2458
717.9822653184822,2512
720.2491570133882,2508
722.5153922148452,2399
724.7809715731639,2448
727.0458957377248,2376
729.3101653569763,2386
731.5737810784346,2402
733.8367435486853,2511
736.0990534133803,2483
738.3607113172418,2556
740.6217179040591,2544
742.8820738166899,2540
745.1417796970607,2488
747.4008361861659,2400
749.6592439240678,2438
751.9170035498973,2513
754.1741157018539,2638
756.4305810172048,2670
758.686400132286,2526
760.9415736825013,2467
763.196102302323,2460
765.4499866252911,2544
767.7032272840152,2711
769.9558249101717,2598
772.207780134506,2577
774.4590935868323,2608
776.7097658960313,2679
778.9597976900541,2696
781.2091895959184,2607
783.457942239711,2510
785.7060562465867,2550
787.9535322407687,2706
790.2003708455488,2507
792.4465726832861,2632
794.6921383754088,2813
796.9370685424128,2701
799.1813638038632,2630
801.4250247783918,2735
803.6680520837006,2659
805.9104463365579,2542
808.1522081528019,2535
810.393338147338,2578
812.6338369341406,2515
814.8737051262517,2541
817.1129433357819,2603
819.35155217391,2528
821.5895322508834,2543
823.8268841760168,2424
826.0636085576946,2526
828.2997060033681,2564
830.535177119558,2523
832.7700225118522,2556
835.0042427849078,2455
837.2378385424493,2607
839.4708103872701,2479
841.7031589212318,2535
843.9348847452643,2496
846.1659884593648,2513
848.3964706626004,2584
850.6263319531054,2557
852.8555729280824,2532
855.0841941838025,2490
857.3121963156052,2561
859.5395799178978,2570
861.7663455841566,2526
863.9924939069251,2644
866.2180254778159,2679
868.4429408875103,2645
870.6672407257561,2626
872.890925581371,2732
875.1139960422404,2498
877.336452695318,2523
879.5582961266261,2620
881.7795269212543,2610
884.0001456633613,2823
886.2201529361741,2717
888.4395493219874,2678
890.6583354021648,2754
892.8765117571375,2647
895.094078966405,2601
897.3110376085365,2687
899.5273882611671,2609
901.7431315010019,2572
903.958267903814,2449
906.1727980444443,2566
908.3867224968019,2569
910.6000418338647,2429
912.8127566276792,2473
915.0248674493587,2571
917.2363748690857,2574
919.4472794561113,2591
921.6575817787543,2548
923.867282404402,2493
926.0763818995099,2384
928.2848808296014,2408
930.4927797592693,2462
932.700079252173,2476
934.9067798710416,2450
937.112882177672,2389
939.3183867329287,2506
941.5232940967453,2419
943.727604828124,2381
945.9313194851336,2404
948.1344386249132,2400
950.3369628036685,2452
952.5388925766747,2493
954.7402284982745,2374
956.9409711218789,2398
959.1411209999676,2388
961.3406786840883,2367
963.5396447248565,2377
965.7380196719573,2392
967.9358040741427,2459
970.1329984792335,2406
972.3296034341188,2384
974.5256194847555,2403
976.72104717617,2389
978.9158870524552,2355
981.1101396567742,2359
983.3038055313566,2327
985.4968852175009,2417
987.6893792555747,2348
989.8812881850124,2379
992.072612544318,2324
994.263352871063,2361
996.453509701887,2353
998.6430835724984,2251
1000.832075017674,2317
1003.0204845712583,2246
1005.208312766164,2175
1007.3955601343728,2152
1009.5822272069338,2114
1011.7683145139652,2209
1013.9538225846525,2129
1016.1387519472505,2181
1018.3231031290818,2101
1020.5068766565371,2146
1022.6900730550753,2175
1024.872692849224,2278
1027.054736562579,2061
1029.2362047178037,2040
1031.4170978366305,2044
1033.5974164398597,2173
1035.7771610473603,2142
1037.9563321780693,2051
1040.1349303499917,2086
1042.3129560802006,2024
1044.490409884838,1944
1046.667292279115,1998
1048.8436037773079,1984
1051.0193448927644,2070
1053.1945161378994,2092
1055.3691180241954,2026
1057.5431510622038,2022
1059.7166157615447,2060
1061.8895126309053,2024
1064.0618421780423,1985
1066.2336049097798,2063
1068.4048013320107,1960
1070.5754319496955,2009
1072.745497266863,1971
1074.9149977866118,1962
1077.0839340111065,2009
1079.2523064415818,2039
1081.4201155783398,2040
1083.587361920751,1947
1085.7540459672537,1940
1087.9201682153553,2019
1090.0857291616308,2007
1092.2507293017238,1880
1094.4151691303464,1906
1096.579049141279,1937
1098.7423698273687,1900
1100.9051316805335,1902
1103.0673351917571,1896
1105.2289808510936,1903
1107.3900691476633,1960
1109.550600569657,1957
1111.710575604332,1921
1113.8699947380146,1986
1116.028858456099,1943
1118.1871672430489,1980
1120.344921582394,1960
1122.5021219567334,1922
1124.6587688477362,2010
1126.8148627361365,1940
1128.9704041017399,2029
1131.1253934234173,1925
1133.2798311791098,1973
1135.4337178458263,1917
1137.5870538996437,1921
1139.7398398157075,1831
1141.8920760682313,1991
1144.0437631304972,1993
1146.1949014748543,2006
1148.3454915727225,1976
1150.4955338945874,1982
1152.6450289100044,1899
1154.7939770875969,1980
1156.9423788950558,1914
1159.0902347991405,1987
1161.2375452656802,1888
1163.3843107595703,1982
1165.530531744775,1916
1167.6762086843282,1947
1169.8213420403304,1810
1171.9659322739503,1895
1174.1099798454266,1876
1176.2534852140639,1854
1178.3964488382376,1924
1180.538871175389,1927
1182.680752682029,1950
1184.8220938137365,1909
1186.9628950251595,1880
1189.103156770012,1940
1191.2428795010783,1925
1193.3820636702108,1836
1195.5207097283287,1943
1197.6588181254215,1933
1199.7963893105457,1926
1201.9334237318253,1878
1204.0699218364548,1930
1206.2058840706954,1963
1208.3413108798773,1911
1210.476202708397,1915
1212.6105599997222,1896
1214.7443831963874,1928
1216.877672739995,1938
1219.0104290712165,1957
1221.1426526297905,2000
1223.2743438545253,1987
1225.4055031832972,1915
1227.5361310530493,2003
1229.6662278997946,1991
1231.7957941586142,1959
1233.9248302636565,1921
1236.053336648139,1915
1238.1813137443464,1960
1240.3087619836338,1906
1242.4356817964222,1860
1244.5620736122019,1876
1246.6879378595318,1945
1248.813274966039,1845
1250.938085358418,1902
1253.062369462432,2009
1255.186127702913,1887
1257.3093605037611,1825
1259.4320682879434,1929
1261.554251477498,1969
1263.6759104935277,1932
1265.797045756206,1900
1267.9176576847744,1916
1270.0377466975428,1895
1272.1573132118879,1958
1274.2763576442567,1917
1276.394880410162,1937
1278.5128819241877,2028
1280.6303625999835,1980
1282.7473228502695,1932
1284.8637630868325,1966
1286.9796837205272,1959
1289.0950851612783,2026
1291.209967818078,1966
1293.3243320989864,1999
1295.4381784111324,1985
1297.551507160712,2017
1299.6643187529912,2077
1301.776613592303,1983
1303.888392082049,1941
1305.9996546246998,2107
1308.1104016217923,1999
1310.220633473934,1998
1312.3303505807999,2135
1314.4395533411316,2009
1316.5482421527418,2024
1318.6564174125092,1967
1320.7640795163816,1996
1322.8712288593752,1982
1324.9778658355744,2013
1327.0839908381313,2024
1329.1896042592675,2011
1331.2947064902714,2033
1333.3992979215009,1960
1335.503378942381,2022
1337.6069499414057,2061
1339.7100113061383,1984
1341.8125634232074,1968
1343.9146066783128,2006
1346.0161414562212,1985
1348.1171681407677,1914
1350.2176871148563,2031
1352.3176987604575,2041
1354.4172034586127,2095
1356.5162015894289,2031
1358.6146935320835,1975
1360.7126796648213,2022
1362.8101603649548,2037
1364.9071360088656,1998
1367.0036069720036,2043
1369.099573628886,1973
1371.195036353099,2077
1373.2899955172975,2010
1375.3844514932039,2070
1377.4784046516088,1979
1379.5718553623715,2003
1381.6648039944193,1980
1383.7572509157485,2059
1385.8491964934224,1996
1387.9406410935735,1968
1390.0315850814022,2013
1392.122028821177,2069
1394.2119726762357,2092
1396.3014170089828,2050
1398.3903621808918,1961
1400.4788085525051,1982
1402.566756483432,2061
1404.6542063323514,2011
1406.7411584570095,2018
1408.8276132142219,2011
1410.9135709598704,1970
1412.9990320489078,2005
1415.083996835353,2028
1417.1684656722937,2041
1419.2524389118867,1908
1421.3359169053565,1978
1423.4189000029946,1927
1425.5013885541634,2003
1427.5833829072913,1908
1429.664883409876,2001
1431.7458904084833,2013
1433.8264042487467,1983
1435.9064252753697,1936
1437.9859538321216,2019
1440.0649902618416,2020
1442.1435349064373,2003
1444.2215881068837,2000
1446.2991502032237,2041
1448.37622153457,2017
1450.452802439103,2055
1452.5288932540698,2049
1454.604494315788,2067
1456.6796059596427,1990
1458.7542285200866,2056
1460.8283623306415,2020
1462.902007723897,1921
1464.9751650315106,1986
1467.0478345842089,1997
1469.1200167117868,2037
1471.1917117431062,2099
1473.2629200060992,2035
1475.333641827764,1967
1477.4038775341692,1924
1479.4736274504498,1991
1481.5428919008104,1982
1483.6116712085222,2025
1485.6799656959279,2049
1487.7477756844346,2087
1489.8151014945201,2032
1491.88194344573,2124
1493.9483018566775,2015
1496.0141770450455,1956
1498.0795693275822,1988
1500.1444790201076,1997
1502.2089064375086,2016
1504.2728518937402,2046
1506.3363157018239,1964
1508.3992981738534,2018
1510.4617996209872,2036
1512.5238203534536,2051
1514.5853606805495,2071
1516.6464209106384,1958
1518.7070013511543,2005
1520.7671023085973,2034
1522.8267240885375,2000
1524.885866995612,2012
1526.9445313335268,2012
1529.002717405056,2031
1531.0604255120425,2051
1533.1176559553965,2052
1535.1744090350971,2020
1537.2306850501914,2062
1539.2864842987956,2134
1541.3418070780922,2094
1543.396653684334,1922
1545.4510244128405,2108
1547.5049195580013,2139
1549.5583394132727,2122
1551.61128427118,2045
1553.6637544233158,2041
1555.7157501603415,2061
1557.7672717719888,2138
1559.8183195470538,2085
1561.8688937734037,2059
1563.9189947379737,2087
1565.9686227267657,2112
1568.0177780248514,2077
1570.0664609163696,2048
1572.1146716845292,2080
1574.162410611605,2210
1576.2096779789413,2060
1578.2564740669518,2106
1580.3027991551157,2061
1582.3486535219831,2110
1584.3940374451709,2074
1586.4389512013645,2082
1588.4833950663178,1949
1590.5273693148533,2003
1592.5708742208603,2014
1594.6139100572982,2042
1596.6564770961936,2089
1598.698575608642,2035
1600.7402058648063,2096
1602.7813681339185,2064
1604.8220626842776,2057
1606.8622897832533,2095
1608.9020496972812,2112
1610.9413426918663,2077
1612.9801690315808,2008
1615.018528980066,2131
1617.056422800033,2038
1619.0938507532578,2075
1621.1308131005876,2065
1623.1673101019355,2044
1625.2033420162848,2079
1627.2389091016862,2093
1629.274011615259,2101
1631.3086498131897,2124
1633.3428239507352,2162
1635.376534282219,2090
1637.4097810610324,2126
1639.4425645396364,2103
1641.4748849695593,2073
1643.5067426013989,2096
1645.53813768482,2106
1647.5690704685549,2111
1649.5995412004067,2089
1651.6295501272452,1975
1653.6590974950086,2073
1655.6881835487025,2183
1657.7168085324029,2074
1659.7449726892523,2072
1661.772676261462,2075
1663.7999194903114,1989
1665.8267026161484,2065
1667.8530258783894,2095
1669.8788895155185,2074
1671.9042937650888,2058
1673.9292388637205,2141
1675.953725047103,2021
1677.977752549994,2022
1680.0013216062184,2000
1682.0244324486712,2026
1684.0470853093134,2020
1686.0692804191767,2032
1688.0910180083588,2073
1690.1122983060268,2043
1692.1331215404175,2099
1694.1534879388319,2087
1696.173397727644,2156
1698.1928511322926,2077
1700.211848377286,2068
1702.2303896862018,2167
1704.248475281684,2218
1706.2661053854458,2081
1708.2832802182684,2129
1710.300000000002,2056
1712.3162649495644,2169
1714.3320752849409,2176
1716.3474312231865,2046
1718.362332980424,2065
1720.376780771845,2053
1722.3907748117072,2084
1724.4043153133393,2150
1726.4174024891367,2017
1728.4300365505628,2052
1730.442217708151,2135
1732.4539461715008,2102
1734.465222149282,2072
1736.4760458492306,2071
1738.4864174781524,2047
1740.496337241921,2028
1742.5058053454786,2105
1744.5148219928346,2078
1746.523387387068,2100
1748.531501730325,2069
1750.5391652238209,2107
1752.5463780678388,2130
1754.55314046173,2153
1756.5594526039135,2102
1758.565314691879,2146
1760.5707269221812,2108
1762.5756894904443,2085
1764.580202591363,2186
1766.5842664186966,2167
1768.5878811652751,2124
1770.591047022996,2100
1772.593764182825,2136
1774.5960328347965,2100
1776.5978531680116,2157
1778.5992253706427,2099
1780.6001496299273,2151
1782.6006261321731,2089
1784.6006550627553,2057
1786.6002366061175,2177
1788.5993709457725,2180
1790.5980582642992,2149
1792.5962987433468,2107
1794.5940925636314,2148
1796.5914399049389,2141
1798.5883409461221,2134
1800.584795865102,2096
1802.580804838869,2088
1804.5763680434807,2153
1806.571485654064,2154
1808.566157844813,2172
1810.5603847889902,2121
1812.5541666589274,2121
1814.5475036260236,2172
1816.5403958607467,2070
1818.5328435326323,2143
1820.5248468102845,2174
1822.5164058613755,2065
1824.5075208526468,2123
1826.4981919499064,2150
1828.488419318032,2136
1830.4782031209684,2156
1832.4675435217305,2119
1834.4564406823993,2193
1836.4448947641258,2166
1838.432905927128,2186
1840.4204743306927,2183
1842.4076001331746,2207
1844.3942834919985,2126
1846.380524563654,2112
1848.366323503702,2222
1850.351680466771,2093
1852.3365956065563,2124
1854.3210690758228,2178
1856.3051010264044,2204
1858.2886916092007,2115
1860.271840974182,2145
1862.2545492703862,2205
1864.2368166459191,2217
1866.2186432479543,2188
1868.2000292227349,2134
1870.1809747155717,2137
1872.1614798708429,2177
1874.1415448319963,2239
1876.1211697415474,2222
1878.1003547410805,2212
1880.0790999712472,2110
1882.0574055717675,2246
1884.0352716814305,2208
1886.0126984380927,2192
1887.989685978679,2192
1889.9662344391836,2171
1891.9423439546672,2147
1893.9180146592607,2192
1895.893246686161,2235
1897.868040167636,2107
1899.8423952350195,2217
1901.8163120187137,2190
1903.7897906481917,2143
1905.7628312519923,2167
1907.7354339577219,2215
1909.7075988920578,2191
1911.6793261807447,2161
1913.6506159485943,2200
1915.6214683194871,2223
1917.5918834163726,2149
1919.5618613612687,2228
1921.5314022752605,2167
1923.5005062785012,2155
1925.4691734902144,2214
1927.4374040286893,2244
1929.4051980112845,2209
1931.3725555544274,2234
1933.3394767736136,2170
1935.305961783406,2203
1937.2720106974361,2273
1939.237623628404,2268
1941.2028006880778,2247
1943.167541987295,2243
1945.1318476359588,2294
1947.0957177430432,2317
1949.0591524165898,2159
1951.0221517637078,2240
1952.984715890574,2263
1954.9468449024357,2221
1956.9085389036072,2137
1958.8697979974704,2150
1960.8306222864767,2192
1962.7910118721456,2214
1964.7509668550638,2227
1966.7104873348871,2223
1968.6695734103387,2121
1970.6282251792127,2237
1972.586442738368,2285
1974.5442261837343,2199
1976.501575610307,2163
1978.4584911121533,2263
1980.4149727824056,2246
1982.3710207132658,2181
1984.326634996004,2213
1986.2818157209585,2227
1988.2365629775359,2193
1990.1908768542116,2317
1992.144757438527,2228
1994.0982048170954,2220
1996.0512190755953,2287
1998.0038002987749,2220
1999.95594857045,2270
2001.9076639735054,2181
2003.8589465898945,2214
2005.8097965006368,2187
2007.760213785822,2203
2009.7101985246077,2187
2011.6597507952201,2188
2013.6088706749524,2239
2015.5575582401675,2200
2017.5058135662953,2241
2019.4536367278351,2259
2021.4010277983534,2253
2023.347986850486,2220
2025.2945139559365,2157
2027.2406091854768,2281
2029.1862726089462,2300
2031.1315042952538,2301
2033.0763043123766,2303
2035.0206727273585,2299
2036.964609606313,2228
2038.908115014422,2190
2040.8511890159348,2268
2042.7938316741693,2258
2044.7360430515123,2282
2046.677823209417,2185
2048.6191722084077,2254
2050.5600901080743,2263
2052.5005769670765,2173
2054.440632843142,2279
2056.380257793066,2187
2058.3194518727128,2235
2060.258215137015,2212
2062.1965476399732,2218
2064.1344494346554,2241
2066.0719205732,2314
2068.008961106812,2366
2069.945571085764,2195
2071.8817505593997,2275
2073.817499576128,2331
2075.7528181834273,2223
2077.6877064278447,2311
2079.622164354995,2183
2081.556192009562,2197
2083.4897894352966,2244
2085.4229566750187,2192
2087.355693770616,2230
2089.2880007630456,2265
2091.219877692331,2244
2093.151324597566,2168
2095.0823415169107,2283
2097.012928487595,2311
2098.9430855459173,2295
2100.872812727242,2315
2102.8021100660035,2350
2104.730977595705,2320
2106.659415348917,2286
2108.5874233572777,2267
2110.5150016514945,2260
2112.442150261343,2339
2114.3688692156675,2265
2116.2951585423793,2244
2118.2210182684585,2281
2120.146448419954,2275
2122.0714490219825,2302
2123.9960200987293,2266
2125.920161673447,2320
2127.843873768458,2231
2129.767156405151,2327
2131.690009603985,2327
2133.612433384486,2241
2135.534427765249,2231
2137.4559927639366,2300
2139.37712839728,2260
2141.2978346810783,2311
2143.2181116301995,2254
2145.1379592585795,2319
2147.057377579222,2294
2148.9763666042,2311
2150.894926344655,2262
2152.813056810794,2247
2154.730758011896,2280
2156.648029956306,2216
2158.564872651437,2284
2160.481286103772,2240
2162.397270318861,2353
2164.312825301323,2246
2166.227951054844,2200
2168.14264758218,2266
2170.056914885153,2284
2171.9707529646566,2301
2173.8841618206484,2269
2175.7971414521585,2338
2177.7096918572825,2279
2179.621813033186,2281
2181.5335049761,2248
2183.444767681327,2258
2185.355601143236,2306
2187.2660053552654,2331
2189.1759803099208,2287
2191.085525998777,2340
2192.994642412475,2267
2194.903329540727,2249
2196.811587372312,2294
2198.7194158950765,2340
2200.626815095937,2342
2202.5337849608763,2258
2204.440325474948,2391
2206.346436622271,2334
2208.2521183860345,2280
2210.157370748496,2299
2212.0621936909793,2324
2213.966587193879,2285
2215.8705512366573,2243
2217.774085797842,2282
2219.677190855033,2314
2221.579866384897,2293
2223.4821123631677,2350
2225.3839287646483,2281
2227.2853155632106,2411
2229.186272731794,2383
2231.0868002424063,2299
2232.986898066123,2324
2234.8865661730892,2336
2236.785804532517,2343
2238.6846131126877,2332
2240.5829918809495,2256
2242.4809408037213,2311
2244.3784598464877,2316
2246.275548973803,2309
2248.172208149288,2337
2250.0684373356357,2326
2251.964236494603,2383
2253.859605587017,2356
2255.7545445727733,2359
2257.6490534108357,2295
2259.5431320592356,2318
2261.436780475073,2315
2263.329998614516,2351
2265.222786432802,2356
2267.1151438842344,2355
2269.0070709221877,2333
2270.8985674991022,2239
2272.789633566488,2314
2274.6802690749237,2370
2276.570473974053,2293
2278.4602482125933,2212
2280.3495917383257,2321
2282.238504498101,2329
2284.1269864378387,2379
2286.0150375025264,2415
2287.9026576362203,2325
2289.789846782043,2261
2291.6766048821873,2371
2293.5629318779147,2360
2295.4488277095534,2346
2297.3342923164996,2308
2299.2193256372193,2397
2301.1039276092465,2335
2302.9880981691817,2357
2304.871837252696,2361
2306.755144794528,2386
2308.6380207284838,2391
2310.5204649874386,2317
2312.4024775033354,2397
2314.2840582071854,2387
2316.165207029068,2369
2318.0459238981325,2367
2319.926208742594,2324
2321.8060614897363,2379
2323.6854820659137,2452
2325.5644703965463,2358
2327.443026406124,2368
2329.321150018203,2397
2331.1988411554107,2446
2333.0760997394395,2366
2334.952925691053,2437
2336.829318930082,2374
2338.705279375424,2297
2340.5808069450477,2364
2342.4559015559867,2365
2344.3305631243456,2331
2346.204791565297,2330
2348.07858679308,2338
2349.9519487210027,2405
2351.824877261443,2376
2353.6973723258448,2363
2355.5694338247226,2310
2357.4410616676564,2443
2359.312255763297,2358
2361.1830160193617,2381
2363.053342342637,2326
2364.9232346389776,2427
2366.792692813306,2356
2368.6617167696145,2338
2370.5303064109603,2462
2372.3984616394723,2362
2374.2661823563467,2425
2376.1334684618464,2378
2378.0003198553054,2337
2379.8667364351227,2414
2381.7327180987672,2430
2383.5982647427777,2443
2385.4633762627586,2422
2387.3280525533837,2409
2389.192293508395,2398
2391.0560990206027,2418
2392.919468981885,2400
2394.782403283189,2316
2396.644901814531,2343
2398.5069644649916,2355
2400.3685911227235,2387
2402.2297816749474,2423
2404.0905360079505,2397
2405.950854007089,2430
2407.8107355567886,2377
2409.670180540541,2339
2411.529188840908,2422
2413.387760339518,2441
2415.2458949170705,2441
2417.1035924533294,2309
2418.96085282713,2293
2420.8176759163744,2262
2422.6740615980334,2349
2424.5300097481468,2299
2426.38552024182,2312
2428.24059295323,2429
2430.0952277556207,2371
2431.949424521303,2445
2433.803183121658,2414
2435.6565034271343,2431
2437.5093853072485,2513
2439.361828630585,2398
2441.213833264798,2442
2443.0653990766095,2450
2444.916525931808,2399
2446.7672136952524,2400
2448.6174622308695,2378
2450.4672714016538,2334
2452.3166410696676,2378
2454.165571096043,2391
2456.0140613409794,2455
2457.8621116637432,2380
2459.709721922672,2388
2461.556891975169,2459
2463.403621677707,2386
2465.249910885827,2369
2467.0957594541383,2360
2468.9411672363167,2359
2470.78613408511,2359
2472.630659852331,2367
2474.4747443888614,2488
2476.3183875446516,2409
2478.161589168721,2411
2480.0043491091556,2427
2481.8466672131112,2401
2483.6885433268108,2417
2485.529977295547,2420
2487.370968963678,2418
2489.2115181746335,2414
2491.0516247709097,2436
2492.891288594071,2385
2494.7305094847497,2362
2496.569287282649,2388
2498.407621826537,2405
2500.2455129542523,2363
2502.0829605027,2484
2503.919964307855,2372
2505.7565242047594,2428
2507.5926400275252,2430
2509.42831160933,2355
2511.263538782423,2364
2513.0983213781174,2398
2514.9326592267994,2425
2516.76655215792,2350
2518.5999999999995,2458
2520.4330025806275,2445
2522.2655597264607,2432
2524.0976712632237,2422
2525.9293370157097,2378
2527.760556807782,2378
2529.591330462369,2343
2531.4216578014702,2375
2533.2515386461523,2475
2535.080972816548,2502
2536.9099601318626,2534
2538.738500410366,2411
2540.5665934693993,2396
2542.3942391253695,2410
2544.221437193752,2462
2546.0481874890925,2496
2547.874489825003,2368
2549.700344014164,2391
2551.5257498683245,2414
2553.350707198304,2429
2555.175215813986,2396
2556.9992755243256,2423
2558.8228861373454,2439
2560.646047460134,2446
2562.468759298852,2470
2564.2910214587255,2417
2566.1128337440496,2463
2567.93419595819,2483
2569.7551079035757,2360
2571.5755693817077,2423
2573.395580193155,2423
2575.2151401375536,2426
2577.034249013609,2446
2578.8529066190936,2505
2580.6711127508493,2447
2582.488867204785,2452
2584.3061697758794,2431
2586.1230202581787,2404
2587.939418444797,2508
2589.7553641279183,2455
2591.570857098791,2436
2593.385897147736,2401
2595.200484064141,2396
2597.014617636461,2428
2598.8282976522214,2420
2600.6415238980126,2469
2602.454296159496,2428
2604.266614221401,2504
2606.0784778675243,2478
2607.8898868807305,2413
2609.700841042955,2533
2611.5113401351973,2415
2613.32138393753,2455
2615.13097222909,2411
2616.940104788084,2387
2618.748781391788,2396
2620.557001816543,2505
2622.364765837763,2416
2624.1720732299264,2474
2625.9789237665814,2463
2627.7853172203445,2413
2629.5912533629,2482
2631.396731965001,2493
2633.2017527964676,2526
2635.0063156261904,2409
2636.810420222126,2399
2638.614066351301,2513
2640.417253779809,2455
2642.219982272813,2465
2644.022251594542,2488
2645.8240615082973,2534
2647.625411776444,2393
2649.4263021604183,2445
2651.226732420724,2461
2653.026702316933,2429
2654.8262116076858,2439
2656.625260050691,2436
2658.423847402724,2531
2660.221973419631,2431
2662.0196378563246,2390
2663.8168404667867,2498
2665.613581004068,2467
2667.4098592202854,2446
2669.2056748666246,2485
2671.0010276933417,2470
2672.7959174497596,2516
2674.5903438842674,2515
2676.384306744327,2395
2678.177805776465,2447
2679.9708407262765,2524
2681.7634113384274,2526
2683.555517356648,2492
2685.3471585237403,2546
2687.138334581574,2442
2688.9290452710843,2476
2690.7192903322784,2519
2692.50906950423,2488
2694.2983825250794,2527
2696.087229132039,2501
2697.875609061386,2533
2699.6635220484677,2469
2701.450967827699,2559
2703.237946132564,2504
2705.0244566956126,2486
2706.8104992484664,2507
2708.596073521813,2477
2710.381179245408,2499
2712.1658161480777,2483
2713.949983957714,2473
2715.7336824012773,2478
2717.516911204798,2486
2719.299670093374,2444
2721.0819587911706,2550
2722.8637770214223,2429
2724.6451245064322,2417
2726.426000967571,2463
2728.2064061252763,2426
2729.986339699057,2421
2731.765801407488,2420
2733.5447909682134,2414
2735.323308097945,2433
2737.101352512463,2531
2738.8789239266166,2490
2740.6560220543215,2478
2742.4326466085645,2438
2744.2087973013977,2501
2745.984473843944,2498
2747.7596759463922,2470
2749.534403318001,2462
2751.308655667096,2426
2753.0824327010737,2546
2754.8557341263954,2500
2756.628559648593,2458
2758.4009089722667,2433
2760.172781801083,2461
2761.944177837779,2432
2763.715096784159,2509
2765.4855383410945,2458
2767.2555022085267,2482
2769.024988085465,2504
2770.793995669988,2520
2772.5625246592385,2459
2774.3305747494323,2491
2776.098145635852,2457
2777.865237012847,2506
2779.6318485738357,2440
2781.397980011306,2512
2783.163631016813,2501
2784.928801280979,2463
2786.6934904934974,2507
2788.457698343127,2527
2790.221424517697,2507
2791.9846687041027,2542
2793.74743058831,2488
2795.5097098553515,2483
2797.2715061893286,2529
2799.0328192734105,2528
2800.793648789836,2479
2802.553994419911,2470
2804.3138558440087,2479
2806.073232741573,2501
2807.8321247911135,2525
2809.590531670211,2496
2811.3484530555115,2519
2813.105888622732,2535
2814.8628380466557,2476
2816.6193010011348,2552
2818.3752771590903,2479
2820.13076619251,2447
2821.885767772452,2547
2823.640281569041,2590
2825.3943072514703,2538
2827.147844488002,2556
2828.9008929459665,2539
2830.6534522917614,2526
2832.405522190854,2477
2834.1571023077786,2485
2835.9081923061394,2505
2837.658791848606,2652
2839.40890059692,2536
2841.1585182118874,2550
2842.907644353386,2484
2844.6562786803593,2429
2846.4044208508203,2631
2848.15207052185,2451
2849.899227349598,2573
2851.6458909892804,2642
2853.392061095185,2526
2855.137737320664,2537
2856.882919318142,2601
2858.6276067391063,2583
2860.371799234118,2511
2862.1154964528037,2510
2863.8586980438586,2560
2865.6014036550464,2573
2867.343612933199,2607
2869.0853255242173,2621
2870.826541073068,2493
2872.567259223789,2565
2874.307479619485,2506
2876.0472019023287,2486
2877.7864257135625,2550
2879.525150693495,2542
2881.263376481505,2550
2883.0011027160385,2548
2884.73832903461,2594
2886.4750550738027,2569
2888.2112804692665,2528
2889.9470048557223,2548
2891.682227866956,2577
2893.416949135825,2563
2895.151168294252,2568
2896.88488497323,2599
2898.6180988028204,2661
2900.3508094121503,2584
2902.083016429419,2584
2903.81471948189,2549
2905.5459181958972,2585
2907.276612196844,2532
2909.0068011091994,2650
2910.736484556502,2488
2912.465662161359,2486
2914.194333545445,2552
2915.922498329504,2559
2917.650156133346,2530
2919.377306575852,2564
2921.103949274969,2521
2922.830083847715,2546
2924.555709910173,2530
2926.2808270774967,2548
2928.005434963907,2525
2929.7295331826936,2547
2931.4531213462133,2533
2933.1761990658924,2541
2934.8987659522254,2545
2936.6208216147747,2630
2938.3423656621694,2561
2940.0633977021116,2511
2941.783917341366,2614
2943.503924185768,2632
2945.223417840223,2608
2946.9423979087023,2639
2948.6608639942456,2527
2950.378815698962,2643
2952.096252624029,2606
2953.81317436969,2607
2955.529580535259,2513
2957.2454707191177,2586
2958.9608445187164,2559
2960.6757015305734,2599
2962.3900413502733,2513
2964.103863572472,2607
2965.817167790894,2605
2967.529953598327,2620
2969.2422205866337,2648
2970.953968346739,2579
2972.6651964686407,2555
2974.3759045414035,2556
2976.0860921531585,2635
2977.7957588911067,2497
2979.504904341517,2518
2981.2135280897273,2526
2982.9216297201433,2539
2984.629208816238,2645
2986.336264960554,2684
2988.0427977347017,2549
2989.7488067193594,2582
2991.454291494274,2478
2993.1592516382607,2582
2994.8636867292034,2645
2996.567596344053,2598
2998.2709800588295,2650
2999.973837448621,2610
3001.6761680875857,2577
3003.377971548946,2639
3005.0792474049954,2603
3006.7799952270957,2501
3008.480214585676,2520
3010.1799050502345,2556
3011.8790661893368,2560
3013.5776975706176,2553
3015.2757987607793,2528
3016.973369325592,2470
3018.6704088298966,2592
3020.366916837598,2581
3022.0628929116747,2622
3023.7583366141675,2612
3025.4532475061915,2585
3027.147625147925,2601
3028.841469098617,2583
3030.534778916585,2659
3032.2275541592144,2540
3033.9197943829577,2658
3035.611499143338,2645
3037.302667994943,2611
3038.9933004914333,2608
3040.683396185535,2544
3042.372954629042,2540
3044.061975372817,2576
3045.7504579667934,2575
3047.4384019599684,2570
3049.1258069004116,2565
3050.812672335258,2624
3052.4989978107124,2506
3054.184782872047,2511
3055.870027063603,2566
3057.554729928791,2565
3059.238891010086,2497
3060.9225098490347,2578
3062.6055859862518,2526
3064.2881189614177,2559
3065.970108313285,2549
3067.651553579671,2551
3069.3324542974633,2659
3071.012810002616,2579
3072.6926202301543,2648
3074.3718845141702,2565
3076.050602387822,2614
3077.728773383339,2530
3079.406397032018,2637
3081.083472864223,2702
3082.7600004093874,2616
3084.4359791960137,2613
3086.11140875167,2668
3087.7862886029952,2647
3089.4606182756943,2556
3091.134397294544,2422
3092.807625183385,2527
3094.4803014651284,2607
3096.152425661755,2465
3097.8239972943097,2572
3099.49501588291,2545
3101.165480946741,2516
3102.8353920040518,2629
3104.504748572165,2624
3106.1735501674693,2654
3107.8417963054226,2734
3109.5094865005485,2672
3111.176620266441,2594
3112.8431971157625,2610
3114.5092165602427,2607
3116.1746781106813,2606
3117.839581276943,2599
3119.503925567965,2673
3121.167710491747,2609
3122.830935555364,2591
3124.493600264954,2603
3126.1557041257247,2626
3127.817246641952,2707
3129.478227316982,2655
3131.1386456532273,2573
3132.798501152168,2649
3134.4577933143537,2593
3136.116521639402,2745
3137.7746856259982,2584
3139.4322847718977,2613
3141.0893185739224,2636
3142.745786527962,2656
3144.4016881289754,2695
3146.0570228709903,2662
3147.711790247102,2620
3149.3659897494754,2627
3151.0196208693396,2608
3152.6726830969974,2662
3154.3251759218165,2641
3155.9770988322334,2656
3157.6284513157534,2576
3159.2792328589485,2711
3160.929442947461,2647
3162.579081066002,2613
3164.2281466983477,2593
3165.8766393273454,2616
3167.5245584349086,2633
3169.1719035020224,2548
3170.818674008735,2645
3172.4648694341677,2717
3174.110489256508,2739
3175.7555329530105,2619
3177.4000000000005,2736
3179.0438898728707,2588
3180.6872020460805,2737
3182.32993599316,2675
3183.972091186706,2643
3185.613667098384,2635
3187.254663198927,2669
3188.8950789581386,2668
3190.5349138448873,2696
3192.1741673271126,2650
3193.8128388718224,2629
3195.4509279450886,2631
3197.0884340120574,2593
3198.725356536939,2666
3200.361694983014,2605
3201.997448812629,2612
3203.632617487203,2555
3205.2672004672195,2580
3206.901197212229,2578
3208.5346071808563,2607
3210.167429830789,2655
3211.799664618785,2626
3213.4313110006706,2518
3215.0623684313387,2635
3216.692836364753,2651
3218.3227142539445,2687
3219.9520015510125,2666
3221.5806977071215,2650
3223.2088021725103,2627
3224.8363143964816,2561
3226.4632338274077,2588
3228.089559912728,2583
3229.715292098951,2654
3231.3404298316545,2609
3232.9649725554846,2587
3234.5889197141523,2716
3236.2122707504395,2656
3237.8350251061984,2679
3239.457182222345,2707
3241.0787415388677,2644
3242.6997024948187,2651
3244.3200645283223,2611
3245.9398270765696,2638
3247.558989575821,2699
3249.177551461403,2636
3250.7955121677123,2636
3252.412871128213,2618
3254.029627775437,2660
3255.6457815409867,2632
3257.2613318555286,2618
3258.876278148802,2654
3260.490619849613,2689
3262.1043563858348,2614
3263.717487184408,2587
3265.3300116713453,2561
3266.941929271725,2544
3268.5532394096917,2616
3270.1639415084646,2584
3271.7740349903233,2655
3273.383519276621,2603
3274.9923937877775,2736
3276.6006579432833,2656
3278.2083111616903,2669
3279.815352860627,2759
3281.421782456786,2701
3283.027599365927,2683
3284.632803002881,2611
3286.237392781545,2739
3287.841368114885,2698
3289.4447284149373,2613
3291.047473092801,2687
3292.649601558651,2644
3294.2511132217223,2597
3295.8520074903254,2573
3297.452283771835,2643
3299.051941472695,2700
3300.650979998417,2646
3302.2493987535827,2589
3303.8471971418403,2650
3305.4443745659064,2640
3307.0409304275654,2646
3308.636864127674,2721
3310.2321750661513,2657
3311.8268626419876,2708
3313.420926253242,2707
3315.01436529704,2694
3316.6071791695776,2641
3318.1993672661183,2623
3319.7909289809913,2633
3321.3818637075983,2625
3322.972170838406,2680
3324.561849764951,2652
3326.150899877838,2723
3327.7393205667386,2622
3329.3271112203956,2634
3330.9142712266166,2695
3332.5007999722793,2674
3334.08669684333,2720
3335.6719612247834,2734
3337.2565925007193,2704
3338.840590054291,2755
3340.4239532677157,2662
3342.006681522281,2759
3343.5887741983406,2653
3345.1702306753214,2753
3346.7510503317126,2689
3348.3312325450743,2772
3349.910776692037,2767
3351.4896821482953,2768
3353.0679482886153,2722
3354.645574486829,2798
3356.2225601158398,2738
3357.798904547615,2661
