CollectionTime,4/2/2024 11:29:32 AM
ExposureUsed,3
CalibratedSpectrum
-994.8464149364308,634
-991.9439705588344,759
-989.042830375826,685
-986.1429931109675,702
-983.2444574887519,778
-980.3472222346043,786
-977.4512860748813,690
-974.5566477368716,654
-971.6633059487953,721
-968.7712594398042,775
-965.8805069399822,708
-962.9910471803447,666
-960.1028788928387,665
-957.2160008103432,719
-954.3304116666687,728
-951.4461101965578,707
-948.5630951356844,726
-945.6813652206545,832
-942.8009191890055,959
-939.9217557792067,861
-937.0438737306594,785
-934.167271783696,789
-931.2919486795813,745
-928.4179031605115,675
-925.5451339696144,726
-922.67363985095,823
-919.8034195495097,847
-916.9344718112166,800
-914.0667953829256,822
-911.2003890124234,775
-908.3352514484286,797
-905.471381440591,744
-902.6087777394928,729
-899.7474390966474,780
-896.8873642645002,877
-894.0285519964284,749
-891.1710010467407,799
-888.3147101706776,739
-885.4596781244115,730
-882.6059036650465,727
-879.7533855506183,689
-876.9021225400943,688
-874.0521133933738,768
-871.2033568712878,737
-868.3558517355991,771
-865.509596749002,886
-862.6645906751228,874
-859.8208322785192,909
-856.9783203246812,901
-854.1370535800299,733
-851.2970308119186,770
-848.4582507886321,862
-845.620712279387,796
-842.7844140543316,757
-839.9493548845461,815
-837.1155335420422,788
-834.2829487997635,741
-831.4515994315852,831
-828.6214842123144,861
-825.7926019176898,874
-822.9649513243819,780
-820.138531209993,830
-817.3133403530569,800
-814.4893775330396,786
-811.6666415303382,814
-808.845131126282,757
-806.0248451031321,767
-803.2057822440808,723
-800.3879413332527,738
-797.5713211557038,888
-794.755920497422,984
-791.941738145327,797
-789.1287728872701,877
-786.3170235120342,999
-783.5064888093341,912
-780.6971675698165,777
-777.8890585850597,741
-775.0821606475735,907
-772.2764725507997,892
-769.4719930891118,848
-766.6687210578151,902
-763.8666552531465,1099
-761.0657944722747,1254
-758.2661375133,993
-755.4676831752547,873
-752.6704302581027,811
-749.8743775627395,758
-747.0795238909925,804
-744.285868045621,814
-741.4934088303156,808
-738.702145049699,806
-735.9120755093254,942
-733.123199015681,1162
-730.3355143761836,1151
-727.5490203991826,926
-724.7637158939592,847
-721.9795996707265,894
-719.1966705406293,774
-716.4149273157439,726
-713.6343688090786,744
-710.8549938345734,760
-708.0768012070998,744
-705.2997897424614,811
-702.5239582573931,812
-699.7493055695622,832
-696.9758304975669,869
-694.2035318609377,832
-691.4324084801367,827
-688.6624591765578,882
-685.8936827725265,815
-683.1260780913001,868
-680.3596439570675,863
-677.5943791949499,812
-674.8302826309991,829
-672.0673530922,734
-669.3055894064685,832
-666.5449904026519,905
-663.78555491053,879
-661.0272817608139,828
-658.2701697851465,937
-655.5142178161026,929
-652.7594246871884,802
-650.0057892328422,777
-647.2533102884337,767
-644.5019866902646,842
-641.7518172755683,888
-639.0028008825099,893
-636.254936350186,872
-633.5082225186254,947
-630.7626582287882,867
-628.0182423225665,885
-625.2749736427841,816
-622.5328510331965,968
-619.7918733384909,1021
-617.0520394042862,1009
-614.3133480771331,921
-611.5757982045143,1003
-608.8393886348437,1110
-606.1041182174672,1086
-603.3699858026625,1025
-600.6369902416393,1015
-597.9051303865383,971
-595.1744050904326,1049
-592.4448132073267,1169
-589.7163535921568,1217
-586.9890251007912,1024
-584.2628265900296,950
-581.5377569176036,877
-578.8138149421764,972
-576.090999523343,976
-573.3693095216302,988
-570.6487437984965,993
-567.9293012163321,1070
-565.210980638459,1108
-562.4937809291307,1010
-559.7777009535329,973
-557.0627395777825,1065
-554.3488956689287,1044
-551.6361680949519,1106
-548.9245557247644,1098
-546.2140574282107,1162
-543.5046720760662,1252
-540.7963985400388,1262
-538.0892356927677,1269
-535.3831824078238,1219
-532.6782375597103,1447
-529.9744000238613,1440
-527.2716686766433,1631
-524.5700423953542,1833
-521.8695200582238,1706
-519.1701005444136,1505
-516.4717827340166,1516
-513.7745655080581,1669
-511.0784477484944,1979
-508.38342833821423,2134
-505.68950616103757,2104
-502.9966801017163,2157
-500.3049490459341,2586
-497.61431188030633,2385
-494.9247674923801,1943
-492.2363147706342,1790
-489.54895260447927,1581
-486.86267988425755,1488
-484.1774955012431,1651
-481.4933983476417,1756
-478.8103873165908,1532
-476.1284613021596,1351
-473.44761919934945,1431
-470.7678599040928,1320
-468.089182313254,1427
-465.4115853246294,1400
-462.735067836947,1657
-460.0596287498663,1726
-457.3852669639789,1292
-454.71198138080774,1107
-452.03977090280773,1124
-449.3686344333656,1173
-446.69857087679964,1259
-444.02957913835996,1393
-441.36165812422837,1317
-438.6948067415183,1346
-436.0290238982752,1232
-433.36430850347597,1212
-430.7006594670296,1326
-428.0380756997763,1338
-425.3765561134885,1355
-422.7160996208702,1256
-420.0567051355571,1386
-417.3983715721164,1375
-414.7410978460475,1319
-412.08488287378145,1282
-409.4297255726806,1364
-406.77562486103955,1270
-404.1225796580843,1236
-401.4705888839728,1136
-398.8196514597947,1070
-396.1697663075713,1214
-393.5209323502555,1215
-390.8731485117323,1038
-388.22641371681823,1010
-385.5807268912615,1196
-382.93608696174226,1195
-380.29249285587207,930
-377.64994350219456,867
-375.0084378301849,987
-372.36797477025016,985
-369.7285532537287,1098
-367.0901722128914,1133
-364.45283058094014,1021
-361.8165272920089,1058
-359.1812612811634,864
-356.54703148440103,706
-353.9138368386507,743
-351.28167628177346,1029
-348.6505487525617,1148
-346.02045319074,1036
-343.3913885369643,842
-340.76335373282245,859
-338.1363477208339,917
-335.5103694444499,1060
-332.8854178480535,1076
-330.26149187695944,1177
-327.63859047741425,1095
-325.016712596596,886
-322.3958571826148,876
-319.77602318451227,1024
-317.15720955226186,1020
-314.5394152367686,1027
-311.9226391898695,988
-309.3068803643333,914
-306.69213771386023,1002
-304.0784101930824,1281
-301.4656967575635,1384
-298.8539963637994,1402
-296.2433079692172,1449
-293.6336305321761,1286
-291.02496301196675,1039
-288.41730436881176,1183
-285.81065356386534,1103
-283.2050095592135,1004
-280.60037131787396,1438
-277.9967378037961,1935
-275.39410798186134,1734
-272.7924808178824,1740
-270.19185527860407,1612
-267.5922303317028,1448
-264.9936049457866,1553
-262.3959780903955,1553
-259.79934873600087,1817
-257.2037158540064,1791
-254.6090784167469,1686
-252.01543539748934,1928
-249.42278577043237,1458
-246.8311285107061,1316
-244.24046259437262,1380
-241.6507869984256,1367
-239.0621007007909,1642
-236.4744026803254,1611
-233.88769191681808,1709
-231.30196739098994,1704
-228.7172280844934,1366
-226.13347297991243,1435
-223.550701060763,1674
-220.9689113114929,1667
-218.3881027174814,1432
-215.8082742650397,1536
-213.22942494141068,2168
-210.65155373476898,2941
-208.07465963422078,2644
-205.49874162980439,2285
-202.92379871248932,2424
-200.34982987417743,2304
-197.7768341077018,2019
-195.20481040682762,1619
-192.63375776625162,1633
-190.0636751816021,1698
-187.49456164943945,1977
-184.92641616725564,2209
-182.3592377334743,2089
-179.79302534745102,2136
-177.2277780094729,2415
-174.66349472075865,2164
-172.10017448345923,2070
-169.5378163006569,2271
-166.97641917636565,2142
-164.41598211553162,2346
-161.8565041240322,2667
-159.29798420867678,2705
-156.74042137720642,2547
-154.18381463829382,2656
-151.6281630015436,2599
-149.07346547749228,2235
-146.51972107760753,1932
-143.96692881428908,2009
-141.41508770086864,2361
-138.86419675160937,2782
-136.31425498170609,2794
-133.7652614072856,2389
-131.21721504540642,2214
-128.67011491405844,2622
-126.12396003216395,3403
-123.57874941957618,3934
-121.03448209708074,3889
-118.49115708639465,3838
-115.94877341016684,4096
-113.40733009197788,4216
-110.86682615633993,3929
-108.32726062869733,3943
-105.78863253542556,4833
-103.25094090383243,6363
-100.71418476215695,5966
-98.17836313957025,5219
-95.64347506617503,4436
-93.10951957300585,3999
-90.57649569202886,4121
-88.04440245614194,4149
-85.51323889917478,4533
-82.98300405588896,5590
-80.45369696197747,7224
-77.925316654065,9577
-75.39786216970867,11438
-72.87133254739649,13720
-70.34572682654857,16237
-67.82104404751692,19855
-65.29728325158499,27783
-62.774443480968216,36385
-60.252523778813384,42711
-57.73152318919938,48555
-55.21144075713676,49365
-52.69227552856796,43235
-50.17402655036665,41141
-47.65669287033859,38139
-45.14027353722133,31153
-42.624767600684095,32506
-40.11017411132775,38408
-37.59649212068507,43810
-35.08372068122037,50235
-32.57185884632963,57497
-30.06090567034107,60593
-27.550860208513996,65042
-25.04172151704006,65042
-22.533488653042014,65042
-20.02616067457484,65042
-17.51973664062507,65042
-15.014215611111126,65042
-12.509596646882983,65042
-10.005878809722162,65042
-7.503061162342419,65042
-5.001142768389059,65042
-2.5001226924387083,65042
-3.410605131648481E-13,65042
2.49922624248552,65042
4.997556967646801,65042
7.494993107179766,65042
9.99153559184856,65042
12.487185351485778,65042
14.98194331499235,65042
17.475810410337544,65042
19.96878756455851,65042
22.46087570376085,65042
24.952075753118834,65042
27.442388636874625,30872
29.93181527833849,11284
32.42035659988892,11243
34.90801352297353,16735
37.39478696810693,15720
39.880677854873056,12833
42.36568710192364,10287
44.8498156269784,11727
47.33306434682618,10822
49.815434177322686,10524
52.296926033393675,9289
54.77754082903198,9098
57.25727947729865,11436
59.736142890323435,11718
62.214131979304284,7861
64.6912476545076,6843
67.16749082526735,5350
69.64286239998614,4095
72.11736328613551,4735
74.59099439025431,5449
77.06375661794982,6567
79.53565087389825,6076
82.0066780618431,5605
84.4768390845968,4344
86.94613484403999,4918
89.41456624112152,7755
91.88213417585825,6809
94.34883954733527,4523
96.81468325370679,4749
99.2796661921941,3310
101.74378925908763,3941
104.20705334974559,4522
106.66945935859462,4963
109.1310081791296,5333
111.59170070391383,5933
114.05153782457865,4843
116.5105204318238,3528
118.96864941541708,4277
121.42592566419489,5833
123.88235006606146,5555
126.3379235079899,4725
128.79264687602085,3727
131.2465210552641,3568
133.69954692989631,3506
136.15172538316415,4127
138.60305729738116,3604
141.05354355393,3477
143.50318503326116,3712
145.95198261489327,3538
148.39993717741368,3233
150.84704959847772,3831
153.29332075480897,4168
155.73875152219944,4190
158.18334277550935,4202
160.62709538866693,4062
163.0700102346691,3662
165.51208818558075,3785
167.953330112535,3520
170.39373688573346,3296
172.8333093744459,3512
175.2720484470101,3613
177.70995497083277,3731
180.14702981238815,4186
182.58327383721917,4004
185.01868790993672,4247
187.45327289422062,3866
189.88702965281777,3564
192.31995904754444,3643
194.75206193928489,4086
197.18333918799135,3896
199.61379165268454,3833
202.04342019145315,3656
204.4722256614548,3656
206.90020891891436,3692
209.32737081912592,3587
211.7537122164515,3498
214.17923396432116,3720
216.6039369152336,3766
219.0278219207553,3640
221.45088983152186,3553
223.8731414972358,3668
226.29457776666914,3726
228.71519948766172,3422
231.1350075071216,3636
233.55400267102482,3675
235.97218582441633,3730
238.38955781140908,3427
240.806119475184,3606
243.2218716579905,3725
245.6368152011462,3492
248.05095094503736,3554
250.46427972911806,3533
252.87680239191036,3666
255.28851977100544,3973
257.69943270306203,4007
260.10954202380753,3506
262.5188485680378,3628
264.92735316961557,3941
267.33505666147425,3806
269.7419598756128,3633
272.14806364310084,3783
274.5533687940747,3545
276.95787615773975,3377
279.361586562369,3464
281.7645008353045,3225
284.1666198029559,3329
286.5679442908013,3457
288.96847512338695,3608
291.3682131243279,3524
293.7671591163071,3512
296.1653139210757,3518
298.562678359453,3430
300.9592532513268,3552
303.3550394156532,3540
305.75003767045655,3347
308.14424883282936,3376
310.53767371893196,3392
312.93031314399377,3299
315.3221679223125,3005
317.71323886725304,3044
320.1035267912496,3070
322.49303250580397,3097
324.881756821487,2968
327.2697005479374,2917
329.65686449386135,2981
332.0432494670347,3028
334.4288562743004,3159
336.81368572157066,3082
339.19773861382487,2876
341.58101575511205,2885
343.96351794854786,2953
346.3452459963173,2770
348.72620069967365,2832
351.1063828589379,3093
353.48579327349967,3196
355.8644327418169,2970
358.24230206141533,2845
360.6194020288899,2673
362.99573343990255,2653
365.3712970891845,2582
367.7460937705348,2696
370.12012427682066,2731
372.493389399978,2749
374.86588993101077,2794
377.23762665999084,2664
379.6086003760588,2599
381.9788118674235,2649
384.34826192136165,2750
386.7169513242188,2547
389.08488086140824,2595
391.4520513174118,2625
393.8184634757795,2760
396.1841181191296,2980
398.54901602914856,3011
400.9131579865916,2855
403.2765447712811,2719
405.63917716210926,2936
408.00105593703483,2948
410.36218187308646,2667
412.7225557463596,2604
415.0821783320191,2481
417.4410504042976,2490
419.79917273649585,2584
422.1565461009834,2617
424.5131712691973,2506
426.869049011643,2606
429.22418009789544,2790
431.578565296596,2428
433.9322053754556,2440
436.28510110125285,2437
438.6372532398352,2489
440.98866255611733,2426
443.33932981408293,2514
445.6892557767842,2632
448.0384412063411,2451
450.38688686394175,2547
452.7345935098431,2718
455.0815619033697,2538
457.42779280291506,2713
459.7732869659403,2755
462.1180451489754,2712
464.4620681076178,2645
466.80535659653424,2543
469.1479113694588,2628
471.48973317919445,2678
473.8308227776122,2771
476.17118091565135,2893
478.51080834331924,2838
480.8497058096914,2964
483.1878740629122,3209
485.5253138501944,3390
487.8620259178176,3436
490.1980110111317,3925
492.53326987455307,4169
494.86780325156724,4182
497.201611884728,4261
499.53469651565683,4272
501.8670578850447,4133
504.1986967326493,4141
506.52961379729754,3919
508.85980981688454,3596
511.18928552837315,3422
513.5180416677952,3375
515.8460789702503,3590
518.1733981699067,4257
520.5,5134
522.8258851928354,5507
525.1510544797857,5333
527.4755085912916,4669
529.7992482568625,4048
532.1222742050759,3373
534.4445871635783,2877
536.766187859083,2571
539.0870770173726,2414
541.4072553632982,2396
543.7267236207783,2387
546.0454825128002,2382
548.363532761419,2346
550.6808750877592,2482
552.9975102120118,2486
555.3134388534377,2432
557.6286617303654,2429
559.9431795601911,2464
562.2569930593802,2391
564.570102943466,2548
566.88250992705,2450
569.1942147238021,2275
571.5052180464602,2405
573.8155206068309,2520
576.1251231157885,2612
578.4340262832759,2482
580.7422308183045,2378
583.0497374289534,2233
585.3565468223703,2326
587.6626597047714,2337
589.9680767814409,2301
592.2727987567309,2253
594.5768263340624,2287
596.8801602159238,2273
599.1828011038731,2315
601.4847496985356,2423
603.7860066996047,2326
606.0865728058427,2164
608.3864487150802,2195
610.6856351242152,2206
612.9841327292149,2271
615.2819422251141,2248
617.5790643060163,2193
619.8754996650935,2133
622.1712489945849,2249
624.466312985799,2274
626.7606923291121,2242
629.0543877139692,2364
631.347399828883,2350
633.6397293614343,2268
635.9313769982732,2315
638.2223434251173,2198
640.5126293267522,2223
642.8022353870326,2319
645.0911622888809,2145
647.3794107142876,2242
649.666981344312,2265
651.9538748590815,2196
654.2400919377915,2243
656.525633258706,2380
658.8104994991568,2391
661.0946913355442,2300
663.3782094433375,2403
665.6610544970729,2455
667.9432271703561,2324
670.22472813586,2316
672.5055580653268,2461
674.7857176295659,2364
677.065207498456,2271
679.3440283409432,2285
681.6221808250425,2300
683.899665617837,2214
686.1764833854772,2295
688.4526347931837,2330
690.7281205052436,2325
693.0029411850135,2430
695.2770974949171,2286
697.5505900964474,2395
699.8234196501651,2362
702.0955868156989,2289
704.3670922517472,2247
706.6379366160747,2288
708.9081205655159,2361
711.1776447559728,2369
713.4465098424155,2360
715.714716478883,2340
717.9822653184822,2358
720.2491570133882,2327
722.5153922148452,2268
724.7809715731639,2266
727.0458957377248,2226
729.3101653569763,2246
731.5737810784346,2251
733.8367435486853,2298
736.0990534133803,2253
738.3607113172418,2355
740.6217179040591,2328
742.8820738166899,2357
745.1417796970607,2369
747.4008361861659,2289
749.6592439240678,2424
751.9170035498973,2394
754.1741157018539,2351
756.4305810172048,2363
758.686400132286,2355
760.9415736825013,2280
763.196102302323,2304
765.4499866252911,2417
767.7032272840152,2591
769.9558249101717,2382
772.207780134506,2366
774.4590935868323,2459
776.7097658960313,2466
778.9597976900541,2486
781.2091895959184,2413
783.457942239711,2321
785.7060562465867,2442
787.9535322407687,2443
790.2003708455488,2395
792.4465726832861,2484
794.6921383754088,2566
796.9370685424128,2564
799.1813638038632,2508
801.4250247783918,2610
803.6680520837006,2430
805.9104463365579,2443
808.1522081528019,2463
810.393338147338,2467
812.6338369341406,2392
814.8737051262517,2355
817.1129433357819,2448
819.35155217391,2302
821.5895322508834,2362
823.8268841760168,2298
826.0636085576946,2423
828.2997060033681,2370
830.535177119558,2301
832.7700225118522,2349
835.0042427849078,2412
837.2378385424493,2366
839.4708103872701,2337
841.7031589212318,2334
843.9348847452643,2373
846.1659884593648,2509
848.3964706626004,2390
850.6263319531054,2426
852.8555729280824,2435
855.0841941838025,2391
857.3121963156052,2390
859.5395799178978,2387
861.7663455841566,2476
863.9924939069251,2482
866.2180254778159,2514
868.4429408875103,2450
870.6672407257561,2446
872.890925581371,2456
875.1139960422404,2437
877.336452695318,2427
879.5582961266261,2517
881.7795269212543,2467
884.0001456633613,2534
886.2201529361741,2579
888.4395493219874,2635
890.6583354021648,2612
892.8765117571375,2513
895.094078966405,2531
897.3110376085365,2534
899.5273882611671,2453
901.7431315010019,2447
903.958267903814,2387
906.1727980444443,2446
908.3867224968019,2382
910.6000418338647,2402
912.8127566276792,2446
915.0248674493587,2532
917.2363748690857,2395
919.4472794561113,2383
921.6575817787543,2404
923.867282404402,2356
926.0763818995099,2222
928.2848808296014,2204
930.4927797592693,2347
932.700079252173,2312
934.9067798710416,2274
937.112882177672,2361
939.3183867329287,2325
941.5232940967453,2257
943.727604828124,2250
945.9313194851336,2303
948.1344386249132,2267
950.3369628036685,2321
952.5388925766747,2330
954.7402284982745,2192
956.9409711218789,2235
959.1411209999676,2286
961.3406786840883,2238
963.5396447248565,2260
965.7380196719573,2321
967.9358040741427,2318
970.1329984792335,2302
972.3296034341188,2165
974.5256194847555,2193
976.72104717617,2154
978.9158870524552,2239
981.1101396567742,2227
983.3038055313566,2135
985.4968852175009,2173
987.6893792555747,2222
989.8812881850124,2144
992.072612544318,2165
994.263352871063,2168
996.453509701887,2263
998.6430835724984,2241
1000.832075017674,2237
1003.0204845712583,2136
1005.208312766164,2108
1007.3955601343728,1933
1009.5822272069338,2039
1011.7683145139652,1987
1013.9538225846525,2050
1016.1387519472505,2006
1018.3231031290818,2039
1020.5068766565371,1990
1022.6900730550753,2056
1024.872692849224,2110
1027.054736562579,2011
1029.2362047178037,1901
1031.4170978366305,1950
1033.5974164398597,1931
1035.7771610473603,1962
1037.9563321780693,1915
1040.1349303499917,1895
1042.3129560802006,1913
1044.490409884838,1876
1046.667292279115,1825
1048.8436037773079,1863
1051.0193448927644,1867
1053.1945161378994,1989
1055.3691180241954,1938
1057.5431510622038,1890
1059.7166157615447,1925
1061.8895126309053,1926
1064.0618421780423,1915
1066.2336049097798,1901
1068.4048013320107,1855
1070.5754319496955,1846
1072.745497266863,1831
1074.9149977866118,1941
1077.0839340111065,1883
1079.2523064415818,1929
1081.4201155783398,1863
1083.587361920751,1836
1085.7540459672537,1797
1087.9201682153553,1836
1090.0857291616308,1836
1092.2507293017238,1787
1094.4151691303464,1807
1096.579049141279,1848
1098.7423698273687,1834
1100.9051316805335,1866
1103.0673351917571,1839
1105.2289808510936,1844
1107.3900691476633,1888
1109.550600569657,1858
1111.710575604332,1804
1113.8699947380146,1817
1116.028858456099,1785
1118.1871672430489,1769
1120.344921582394,1842
1122.5021219567334,1908
1124.6587688477362,1913
1126.8148627361365,1797
1128.9704041017399,1807
1131.1253934234173,1797
1133.2798311791098,1815
1135.4337178458263,1735
1137.5870538996437,1759
1139.7398398157075,1729
1141.8920760682313,1767
1144.0437631304972,1786
1146.1949014748543,1767
1148.3454915727225,1762
1150.4955338945874,1780
1152.6450289100044,1833
1154.7939770875969,1870
1156.9423788950558,1799
1159.0902347991405,1833
1161.2375452656802,1768
1163.3843107595703,1845
1165.530531744775,1747
1167.6762086843282,1804
1169.8213420403304,1831
1171.9659322739503,1786
1174.1099798454266,1800
1176.2534852140639,1814
1178.3964488382376,1698
1180.538871175389,1742
1182.680752682029,1809
1184.8220938137365,1825
1186.9628950251595,1837
1189.103156770012,1756
1191.2428795010783,1736
1193.3820636702108,1761
1195.5207097283287,1731
1197.6588181254215,1771
1199.7963893105457,1767
1201.9334237318253,1755
1204.0699218364548,1723
1206.2058840706954,1788
1208.3413108798773,1784
1210.476202708397,1790
1212.6105599997222,1810
1214.7443831963874,1761
1216.877672739995,1757
1219.0104290712165,1711
1221.1426526297905,1846
1223.2743438545253,1839
1225.4055031832972,1827
1227.5361310530493,1768
1229.6662278997946,1760
1231.7957941586142,1785
1233.9248302636565,1755
1236.053336648139,1728
1238.1813137443464,1798
1240.3087619836338,1814
1242.4356817964222,1776
1244.5620736122019,1780
1246.6879378595318,1693
1248.813274966039,1733
1250.938085358418,1754
1253.062369462432,1780
1255.186127702913,1764
1257.3093605037611,1782
1259.4320682879434,1794
1261.554251477498,1735
1263.6759104935277,1724
1265.797045756206,1747
1267.9176576847744,1840
1270.0377466975428,1773
1272.1573132118879,1788
1274.2763576442567,1798
1276.394880410162,1812
1278.5128819241877,1774
1280.6303625999835,1864
1282.7473228502695,1822
1284.8637630868325,1797
1286.9796837205272,1743
1289.0950851612783,1828
1291.209967818078,1867
1293.3243320989864,1900
1295.4381784111324,1941
1297.551507160712,1875
1299.6643187529912,1841
1301.776613592303,1790
1303.888392082049,1767
1305.9996546246998,1836
1308.1104016217923,1823
1310.220633473934,1907
1312.3303505807999,1875
1314.4395533411316,1895
1316.5482421527418,1884
1318.6564174125092,1825
1320.7640795163816,1867
1322.8712288593752,1845
1324.9778658355744,1907
1327.0839908381313,1834
1329.1896042592675,1790
1331.2947064902714,1857
1333.3992979215009,1866
1335.503378942381,1889
1337.6069499414057,1903
1339.7100113061383,1843
1341.8125634232074,1781
1343.9146066783128,1806
1346.0161414562212,1839
1348.1171681407677,1780
1350.2176871148563,1863
1352.3176987604575,1838
1354.4172034586127,1858
1356.5162015894289,1863
1358.6146935320835,1791
1360.7126796648213,1850
1362.8101603649548,1872
1364.9071360088656,1833
1367.0036069720036,1899
1369.099573628886,1896
1371.195036353099,1831
1373.2899955172975,1810
1375.3844514932039,1914
1377.4784046516088,1850
1379.5718553623715,1838
1381.6648039944193,1909
1383.7572509157485,1923
1385.8491964934224,1886
1387.9406410935735,1867
1390.0315850814022,1868
1392.122028821177,1895
1394.2119726762357,1907
1396.3014170089828,1877
1398.3903621808918,1828
1400.4788085525051,1960
1402.566756483432,1827
1404.6542063323514,1847
1406.7411584570095,1792
1408.8276132142219,1883
1410.9135709598704,1843
1412.9990320489078,1849
1415.083996835353,1800
1417.1684656722937,1773
1419.2524389118867,1729
1421.3359169053565,1837
1423.4189000029946,1848
1425.5013885541634,1819
1427.5833829072913,1863
1429.664883409876,1806
1431.7458904084833,1846
1433.8264042487467,1845
1435.9064252753697,1864
1437.9859538321216,1828
1440.0649902618416,1851
1442.1435349064373,1818
1444.2215881068837,1901
1446.2991502032237,1859
1448.37622153457,1836
1450.452802439103,1843
1452.5288932540698,1864
1454.604494315788,1917
1456.6796059596427,1933
1458.7542285200866,1811
1460.8283623306415,1810
1462.902007723897,1803
1464.9751650315106,1866
1467.0478345842089,1841
1469.1200167117868,1819
1471.1917117431062,1793
1473.2629200060992,1856
1475.333641827764,1777
1477.4038775341692,1878
1479.4736274504498,1847
1481.5428919008104,1875
1483.6116712085222,1895
1485.6799656959279,1878
1487.7477756844346,1926
1489.8151014945201,1867
1491.88194344573,1881
1493.9483018566775,1886
1496.0141770450455,1793
1498.0795693275822,1876
1500.1444790201076,1868
1502.2089064375086,1861
1504.2728518937402,1838
1506.3363157018239,1847
1508.3992981738534,1882
1510.4617996209872,1863
1512.5238203534536,1769
1514.5853606805495,1890
1516.6464209106384,1935
1518.7070013511543,1884
1520.7671023085973,1811
1522.8267240885375,1854
1524.885866995612,1785
1526.9445313335268,1849
1529.002717405056,1956
1531.0604255120425,1830
1533.1176559553965,1868
1535.1744090350971,1879
1537.2306850501914,1903
1539.2864842987956,1878
1541.3418070780922,1916
1543.396653684334,1923
1545.4510244128405,1864
1547.5049195580013,1832
1549.5583394132727,1875
1551.61128427118,1870
1553.6637544233158,1882
1555.7157501603415,1868
1557.7672717719888,1859
1559.8183195470538,2003
1561.8688937734037,1928
1563.9189947379737,1904
1565.9686227267657,1901
1568.0177780248514,1933
1570.0664609163696,1885
1572.1146716845292,1913
1574.162410611605,1979
1576.2096779789413,1913
1578.2564740669518,1927
1580.3027991551157,1855
1582.3486535219831,1939
1584.3940374451709,1844
1586.4389512013645,1884
1588.4833950663178,1909
1590.5273693148533,1892
1592.5708742208603,1850
1594.6139100572982,1906
1596.6564770961936,1912
1598.698575608642,1957
1600.7402058648063,1832
1602.7813681339185,1878
1604.8220626842776,1819
1606.8622897832533,1914
1608.9020496972812,1848
1610.9413426918663,1901
1612.9801690315808,1873
1615.018528980066,1947
1617.056422800033,1909
1619.0938507532578,1968
1621.1308131005876,1846
1623.1673101019355,1852
1625.2033420162848,1913
1627.2389091016862,1991
1629.274011615259,1878
1631.3086498131897,1895
1633.3428239507352,1838
1635.376534282219,1916
1637.4097810610324,1955
1639.4425645396364,1900
1641.4748849695593,1909
1643.5067426013989,1843
1645.53813768482,1818
1647.5690704685549,1860
1649.5995412004067,1955
1651.6295501272452,1901
1653.6590974950086,1951
1655.6881835487025,1880
1657.7168085324029,1909
1659.7449726892523,1868
1661.772676261462,1918
1663.7999194903114,1879
1665.8267026161484,1965
1667.8530258783894,1903
1669.8788895155185,1925
1671.9042937650888,1865
1673.9292388637205,1942
1675.953725047103,1896
1677.977752549994,1906
1680.0013216062184,1836
1682.0244324486712,1837
1684.0470853093134,1861
1686.0692804191767,1856
1688.0910180083588,1842
1690.1122983060268,1876
1692.1331215404175,1866
1694.1534879388319,1931
1696.173397727644,1852
1698.1928511322926,1910
1700.211848377286,1980
1702.2303896862018,2043
1704.248475281684,1967
1706.2661053854458,1936
1708.2832802182684,1931
1710.300000000002,1915
1712.3162649495644,1916
1714.3320752849409,1854
1716.3474312231865,1828
1718.362332980424,1886
1720.376780771845,1878
1722.3907748117072,1894
1724.4043153133393,1865
1726.4174024891367,1880
1728.4300365505628,1803
1730.442217708151,1896
1732.4539461715008,1906
1734.465222149282,1923
1736.4760458492306,1895
1738.4864174781524,1899
1740.496337241921,1832
1742.5058053454786,1887
1744.5148219928346,1911
1746.523387387068,1888
1748.531501730325,1887
1750.5391652238209,1949
1752.5463780678388,1926
1754.55314046173,1892
1756.5594526039135,2002
1758.565314691879,1871
1760.5707269221812,1876
1762.5756894904443,1926
1764.580202591363,1980
1766.5842664186966,1950
1768.5878811652751,1897
1770.591047022996,1897
1772.593764182825,1964
1774.5960328347965,1866
1776.5978531680116,1868
1778.5992253706427,1907
1780.6001496299273,1910
1782.6006261321731,1886
1784.6006550627553,1937
1786.6002366061175,1918
1788.5993709457725,1886
1790.5980582642992,1978
1792.5962987433468,1967
1794.5940925636314,1909
1796.5914399049389,1990
1798.5883409461221,1954
1800.584795865102,1908
1802.580804838869,1876
1804.5763680434807,1979
1806.571485654064,1926
1808.566157844813,1898
1810.5603847889902,1950
1812.5541666589274,1962
1814.5475036260236,1896
1816.5403958607467,1942
1818.5328435326323,1849
1820.5248468102845,1873
1822.5164058613755,1957
1824.5075208526468,1879
1826.4981919499064,1936
1828.488419318032,1910
1830.4782031209684,1952
1832.4675435217305,1857
1834.4564406823993,1995
1836.4448947641258,1953
1838.432905927128,1931
1840.4204743306927,1958
1842.4076001331746,1969
1844.3942834919985,1971
1846.380524563654,1935
1848.366323503702,1948
1850.351680466771,1934
1852.3365956065563,1980
1854.3210690758228,1901
1856.3051010264044,1913
1858.2886916092007,1964
1860.271840974182,1917
1862.2545492703862,1979
1864.2368166459191,1943
1866.2186432479543,2068
1868.2000292227349,1960
1870.1809747155717,1900
1872.1614798708429,1938
1874.1415448319963,1897
1876.1211697415474,1949
1878.1003547410805,1973
1880.0790999712472,1910
1882.0574055717675,1984
1884.0352716814305,1913
1886.0126984380927,1924
1887.989685978679,1964
1889.9662344391836,1978
1891.9423439546672,1947
1893.9180146592607,2034
1895.893246686161,1999
1897.868040167636,1941
1899.8423952350195,1950
1901.8163120187137,1977
1903.7897906481917,2076
1905.7628312519923,1961
1907.7354339577219,1987
1909.7075988920578,1900
1911.6793261807447,1960
1913.6506159485943,2003
1915.6214683194871,2021
1917.5918834163726,1962
1919.5618613612687,1978
1921.5314022752605,2005
1923.5005062785012,2022
1925.4691734902144,1981
1927.4374040286893,2021
1929.4051980112845,2014
1931.3725555544274,1976
1933.3394767736136,2007
1935.305961783406,2019
1937.2720106974361,2006
1939.237623628404,2002
1941.2028006880778,1955
1943.167541987295,2027
1945.1318476359588,1989
1947.0957177430432,2015
1949.0591524165898,2027
1951.0221517637078,2003
1952.984715890574,1904
1954.9468449024357,2000
1956.9085389036072,1980
1958.8697979974704,1981
1960.8306222864767,1939
1962.7910118721456,2029
1964.7509668550638,1936
1966.7104873348871,1986
1968.6695734103387,1964
1970.6282251792127,1971
1972.586442738368,1965
1974.5442261837343,2037
1976.501575610307,1956
1978.4584911121533,1957
1980.4149727824056,2045
1982.3710207132658,1992
1984.326634996004,2015
1986.2818157209585,1997
1988.2365629775359,2015
1990.1908768542116,2046
1992.144757438527,2038
1994.0982048170954,2046
1996.0512190755953,2010
1998.0038002987749,2060
1999.95594857045,2008
2001.9076639735054,1992
2003.8589465898945,2031
2005.8097965006368,1973
2007.760213785822,1955
2009.7101985246077,2017
2011.6597507952201,2009
2013.6088706749524,2002
2015.5575582401675,1975
2017.5058135662953,1975
2019.4536367278351,2068
2021.4010277983534,1941
2023.347986850486,1977
2025.2945139559365,2054
2027.2406091854768,2020
2029.1862726089462,2028
2031.1315042952538,2095
2033.0763043123766,2037
2035.0206727273585,1986
2036.964609606313,2045
2038.908115014422,1958
2040.8511890159348,2022
2042.7938316741693,2073
2044.7360430515123,2109
2046.677823209417,2063
2048.6191722084077,1980
2050.5600901080743,2040
2052.5005769670765,2060
2054.440632843142,2017
2056.380257793066,2030
2058.3194518727128,2074
2060.258215137015,2056
2062.1965476399732,2060
2064.1344494346554,1996
2066.0719205732,2008
2068.008961106812,1996
2069.945571085764,2042
2071.8817505593997,2032
2073.817499576128,2041
2075.7528181834273,2047
2077.6877064278447,2049
2079.622164354995,2041
2081.556192009562,1944
2083.4897894352966,2010
2085.4229566750187,1996
2087.355693770616,1992
2089.2880007630456,1930
2091.219877692331,1977
2093.151324597566,2001
2095.0823415169107,1979
2097.012928487595,2031
2098.9430855459173,2089
2100.872812727242,1996
2102.8021100660035,1996
2104.730977595705,2003
2106.659415348917,2057
2108.5874233572777,2098
2110.5150016514945,1983
2112.442150261343,2082
2114.3688692156675,2026
2116.2951585423793,1933
2118.2210182684585,2058
2120.146448419954,2011
2122.0714490219825,2002
2123.9960200987293,2061
2125.920161673447,1961
2127.843873768458,2011
2129.767156405151,2021
2131.690009603985,2049
2133.612433384486,2061
2135.534427765249,2063
2137.4559927639366,2026
2139.37712839728,2066
2141.2978346810783,2049
2143.2181116301995,1992
2145.1379592585795,2051
2147.057377579222,2080
2148.9763666042,2014
2150.894926344655,2100
2152.813056810794,1986
2154.730758011896,2016
2156.648029956306,2021
2158.564872651437,2042
2160.481286103772,2009
2162.397270318861,2107
2164.312825301323,1979
2166.227951054844,1972
2168.14264758218,2000
2170.056914885153,2043
2171.9707529646566,2047
2173.8841618206484,2005
2175.7971414521585,2024
2177.7096918572825,2002
2179.621813033186,2047
2181.5335049761,1983
2183.444767681327,2072
2185.355601143236,2006
2187.2660053552654,1994
2189.1759803099208,2067
2191.085525998777,2064
2192.994642412475,2008
2194.903329540727,2006
2196.811587372312,2039
2198.7194158950765,2043
2200.626815095937,2009
2202.5337849608763,2061
2204.440325474948,2216
2206.346436622271,2050
2208.2521183860345,2048
2210.157370748496,2032
2212.0621936909793,2068
2213.966587193879,2008
2215.8705512366573,2087
2217.774085797842,2046
2219.677190855033,2017
2221.579866384897,2095
2223.4821123631677,2096
2225.3839287646483,2117
2227.2853155632106,2030
2229.186272731794,2083
2231.0868002424063,2029
2232.986898066123,2027
2234.8865661730892,2058
2236.785804532517,2148
2238.6846131126877,2103
2240.5829918809495,2065
2242.4809408037213,2071
2244.3784598464877,2038
2246.275548973803,2084
2248.172208149288,2096
2250.0684373356357,2091
2251.964236494603,2089
2253.859605587017,2026
2255.7545445727733,2078
2257.6490534108357,2061
2259.5431320592356,2052
2261.436780475073,2077
2263.329998614516,2085
2265.222786432802,1998
2267.1151438842344,2115
2269.0070709221877,2058
2270.8985674991022,2053
2272.789633566488,2022
2274.6802690749237,1981
2276.570473974053,1959
2278.4602482125933,2011
2280.3495917383257,2080
2282.238504498101,1985
2284.1269864378387,2053
2286.0150375025264,2105
2287.9026576362203,2124
2289.789846782043,2038
2291.6766048821873,2104
2293.5629318779147,2167
2295.4488277095534,2106
2297.3342923164996,2122
2299.2193256372193,2120
2301.1039276092465,2017
2302.9880981691817,2071
2304.871837252696,2065
2306.755144794528,2127
2308.6380207284838,2139
2310.5204649874386,2093
2312.4024775033354,2089
2314.2840582071854,2078
2316.165207029068,2080
2318.0459238981325,2036
2319.926208742594,2068
2321.8060614897363,2027
2323.6854820659137,2147
2325.5644703965463,2203
2327.443026406124,2185
2329.321150018203,2105
2331.1988411554107,2032
2333.0760997394395,2073
2334.952925691053,2056
2336.829318930082,2014
2338.705279375424,2038
2340.5808069450477,2104
2342.4559015559867,2097
2344.3305631243456,2084
2346.204791565297,2053
2348.07858679308,2089
2349.9519487210027,2116
2351.824877261443,2073
2353.6973723258448,2020
2355.5694338247226,2162
2357.4410616676564,2128
2359.312255763297,2194
2361.1830160193617,2118
2363.053342342637,2082
2364.9232346389776,2156
2366.792692813306,2111
2368.6617167696145,2132
2370.5303064109603,2110
2372.3984616394723,2122
2374.2661823563467,2108
2376.1334684618464,2135
2378.0003198553054,2147
2379.8667364351227,2122
2381.7327180987672,2156
2383.5982647427777,2133
2385.4633762627586,2103
2387.3280525533837,2018
2389.192293508395,2185
2391.0560990206027,2158
2392.919468981885,2105
2394.782403283189,2158
2396.644901814531,2157
2398.5069644649916,2154
2400.3685911227235,2117
2402.2297816749474,2164
2404.0905360079505,2071
2405.950854007089,2128
2407.8107355567886,2055
2409.670180540541,2050
2411.529188840908,2121
2413.387760339518,2161
2415.2458949170705,2122
2417.1035924533294,2058
2418.96085282713,2081
2420.8176759163744,2084
2422.6740615980334,2139
2424.5300097481468,2154
2426.38552024182,2062
2428.24059295323,2128
2430.0952277556207,2139
2431.949424521303,2075
2433.803183121658,2152
2435.6565034271343,2154
2437.5093853072485,2107
2439.361828630585,2135
2441.213833264798,2128
2443.0653990766095,2103
2444.916525931808,2115
2446.7672136952524,2049
2448.6174622308695,2107
2450.4672714016538,2177
2452.3166410696676,2176
2454.165571096043,2115
2456.0140613409794,2085
2457.8621116637432,2128
2459.709721922672,2095
2461.556891975169,2122
2463.403621677707,2128
2465.249910885827,2102
2467.0957594541383,2090
2468.9411672363167,2178
2470.78613408511,2121
2472.630659852331,2076
2474.4747443888614,2126
2476.3183875446516,2126
2478.161589168721,2107
2480.0043491091556,2101
2481.8466672131112,2108
2483.6885433268108,2115
2485.529977295547,2149
2487.370968963678,2136
2489.2115181746335,2038
2491.0516247709097,2154
2492.891288594071,2148
2494.7305094847497,2109
2496.569287282649,2118
2498.407621826537,2084
2500.2455129542523,2060
2502.0829605027,2106
2503.919964307855,2105
2505.7565242047594,2087
2507.5926400275252,2183
2509.42831160933,2172
2511.263538782423,2196
2513.0983213781174,2150
2514.9326592267994,2205
2516.76655215792,2188
2518.5999999999995,2135
2520.4330025806275,2190
2522.2655597264607,2170
2524.0976712632237,2042
2525.9293370157097,2095
2527.760556807782,2109
2529.591330462369,2072
2531.4216578014702,2243
2533.2515386461523,2125
2535.080972816548,2153
2536.9099601318626,2168
2538.738500410366,2113
2540.5665934693993,2154
2542.3942391253695,2140
2544.221437193752,2156
2546.0481874890925,2084
2547.874489825003,2126
2549.700344014164,2154
2551.5257498683245,2147
2553.350707198304,2194
2555.175215813986,2163
2556.9992755243256,2148
2558.8228861373454,2174
2560.646047460134,2209
2562.468759298852,2204
2564.2910214587255,2230
2566.1128337440496,2098
2567.93419595819,2158
2569.7551079035757,2260
2571.5755693817077,2189
2573.395580193155,2170
2575.2151401375536,2152
2577.034249013609,2228
2578.8529066190936,2167
2580.6711127508493,2158
2582.488867204785,2141
2584.3061697758794,2158
2586.1230202581787,2159
2587.939418444797,2202
2589.7553641279183,2184
2591.570857098791,2099
2593.385897147736,2151
2595.200484064141,2105
2597.014617636461,2133
2598.8282976522214,2116
2600.6415238980126,2190
2602.454296159496,2216
2604.266614221401,2138
2606.0784778675243,2197
2607.8898868807305,2144
2609.700841042955,2155
2611.5113401351973,2160
2613.32138393753,2156
2615.13097222909,2135
2616.940104788084,2161
2618.748781391788,2114
2620.557001816543,2189
2622.364765837763,2140
2624.1720732299264,2117
2625.9789237665814,2158
2627.7853172203445,2153
2629.5912533629,2164
2631.396731965001,2148
2633.2017527964676,2205
2635.0063156261904,2211
2636.810420222126,2171
2638.614066351301,2228
2640.417253779809,2193
2642.219982272813,2128
2644.022251594542,2094
2645.8240615082973,2234
2647.625411776444,2193
2649.4263021604183,2163
2651.226732420724,2137
2653.026702316933,2173
2654.8262116076858,2244
2656.625260050691,2154
2658.423847402724,2166
2660.221973419631,2225
2662.0196378563246,2160
2663.8168404667867,2248
2665.613581004068,2182
2667.4098592202854,2193
2669.2056748666246,2176
2671.0010276933417,2232
2672.7959174497596,2178
2674.5903438842674,2108
2676.384306744327,2270
2678.177805776465,2165
2679.9708407262765,2267
2681.7634113384274,2198
2683.555517356648,2114
2685.3471585237403,2198
2687.138334581574,2174
2688.9290452710843,2240
2690.7192903322784,2199
2692.50906950423,2161
2694.2983825250794,2189
2696.087229132039,2146
2697.875609061386,2153
2699.6635220484677,2210
2701.450967827699,2236
2703.237946132564,2204
2705.0244566956126,2168
2706.8104992484664,2202
2708.596073521813,2224
2710.381179245408,2269
2712.1658161480777,2286
2713.949983957714,2177
2715.7336824012773,2156
2717.516911204798,2158
2719.299670093374,2124
2721.0819587911706,2159
2722.8637770214223,2092
2724.6451245064322,2154
2726.426000967571,2158
2728.2064061252763,2136
2729.986339699057,2170
2731.765801407488,2252
2733.5447909682134,2133
2735.323308097945,2136
2737.101352512463,2110
2738.8789239266166,2150
2740.6560220543215,2155
2742.4326466085645,2178
2744.2087973013977,2148
2745.984473843944,2227
2747.7596759463922,2123
2749.534403318001,2174
2751.308655667096,2164
2753.0824327010737,2205
2754.8557341263954,2185
2756.628559648593,2258
2758.4009089722667,2157
2760.172781801083,2238
2761.944177837779,2166
2763.715096784159,2236
2765.4855383410945,2181
2767.2555022085267,2254
2769.024988085465,2170
2770.793995669988,2114
2772.5625246592385,2192
2774.3305747494323,2210
2776.098145635852,2209
2777.865237012847,2197
2779.6318485738357,2230
2781.397980011306,2163
2783.163631016813,2220
2784.928801280979,2196
2786.6934904934974,2165
2788.457698343127,2237
2790.221424517697,2205
2791.9846687041027,2250
2793.74743058831,2238
2795.5097098553515,2198
2797.2715061893286,2219
2799.0328192734105,2202
2800.793648789836,2232
2802.553994419911,2194
2804.3138558440087,2198
2806.073232741573,2180
2807.8321247911135,2198
2809.590531670211,2238
2811.3484530555115,2254
2813.105888622732,2313
2814.8628380466557,2177
2816.6193010011348,2129
2818.3752771590903,2141
2820.13076619251,2282
2821.885767772452,2260
2823.640281569041,2286
2825.3943072514703,2226
2827.147844488002,2149
2828.9008929459665,2211
2830.6534522917614,2257
2832.405522190854,2209
2834.1571023077786,2231
2835.9081923061394,2156
2837.658791848606,2162
2839.40890059692,2198
2841.1585182118874,2210
2842.907644353386,2252
2844.6562786803593,2261
2846.4044208508203,2208
2848.15207052185,2300
2849.899227349598,2224
2851.6458909892804,2188
2853.392061095185,2235
2855.137737320664,2244
2856.882919318142,2270
2858.6276067391063,2142
2860.371799234118,2191
2862.1154964528037,2268
2863.8586980438586,2225
2865.6014036550464,2205
2867.343612933199,2187
2869.0853255242173,2207
2870.826541073068,2195
2872.567259223789,2227
2874.307479619485,2219
2876.0472019023287,2163
2877.7864257135625,2197
2879.525150693495,2178
2881.263376481505,2145
2883.0011027160385,2226
2884.73832903461,2213
2886.4750550738027,2211
2888.2112804692665,2287
2889.9470048557223,2214
2891.682227866956,2222
2893.416949135825,2173
2895.151168294252,2223
2896.88488497323,2245
2898.6180988028204,2197
2900.3508094121503,2247
2902.083016429419,2248
2903.81471948189,2258
2905.5459181958972,2253
2907.276612196844,2203
2909.0068011091994,2265
2910.736484556502,2224
2912.465662161359,2263
2914.194333545445,2172
2915.922498329504,2256
2917.650156133346,2204
2919.377306575852,2239
2921.103949274969,2298
2922.830083847715,2237
2924.555709910173,2235
2926.2808270774967,2230
2928.005434963907,2233
2929.7295331826936,2212
2931.4531213462133,2256
2933.1761990658924,2239
2934.8987659522254,2262
2936.6208216147747,2282
2938.3423656621694,2266
2940.0633977021116,2277
2941.783917341366,2202
2943.503924185768,2247
2945.223417840223,2273
2946.9423979087023,2212
2948.6608639942456,2299
2950.378815698962,2302
2952.096252624029,2259
2953.81317436969,2318
2955.529580535259,2318
2957.2454707191177,2227
2958.9608445187164,2297
2960.6757015305734,2225
2962.3900413502733,2295
2964.103863572472,2256
2965.817167790894,2231
2967.529953598327,2211
2969.2422205866337,2263
2970.953968346739,2177
2972.6651964686407,2251
2974.3759045414035,2189
2976.0860921531585,2291
2977.7957588911067,2283
2979.504904341517,2285
2981.2135280897273,2280
2982.9216297201433,2323
2984.629208816238,2252
2986.336264960554,2310
2988.0427977347017,2267
2989.7488067193594,2279
2991.454291494274,2225
2993.1592516382607,2261
2994.8636867292034,2292
2996.567596344053,2247
2998.2709800588295,2264
2999.973837448621,2283
3001.6761680875857,2237
3003.377971548946,2223
3005.0792474049954,2266
3006.7799952270957,2267
3008.480214585676,2227
3010.1799050502345,2183
3011.8790661893368,2170
3013.5776975706176,2257
3015.2757987607793,2269
3016.973369325592,2217
3018.6704088298966,2253
3020.366916837598,2193
3022.0628929116747,2188
3023.7583366141675,2239
3025.4532475061915,2254
3027.147625147925,2283
3028.841469098617,2229
3030.534778916585,2303
3032.2275541592144,2325
3033.9197943829577,2223
3035.611499143338,2254
3037.302667994943,2217
3038.9933004914333,2210
3040.683396185535,2203
3042.372954629042,2238
3044.061975372817,2275
3045.7504579667934,2268
3047.4384019599684,2200
3049.1258069004116,2241
3050.812672335258,2248
3052.4989978107124,2287
3054.184782872047,2240
3055.870027063603,2270
3057.554729928791,2293
3059.238891010086,2249
3060.9225098490347,2282
3062.6055859862518,2239
3064.2881189614177,2235
3065.970108313285,2307
3067.651553579671,2294
3069.3324542974633,2295
3071.012810002616,2314
3072.6926202301543,2234
3074.3718845141702,2258
3076.050602387822,2273
3077.728773383339,2197
3079.406397032018,2189
3081.083472864223,2339
3082.7600004093874,2271
3084.4359791960137,2207
3086.11140875167,2283
3087.7862886029952,2218
3089.4606182756943,2329
3091.134397294544,2250
3092.807625183385,2191
3094.4803014651284,2254
3096.152425661755,2293
3097.8239972943097,2258
3099.49501588291,2310
3101.165480946741,2295
3102.8353920040518,2216
3104.504748572165,2299
3106.1735501674693,2320
3107.8417963054226,2267
3109.5094865005485,2260
3111.176620266441,2204
3112.8431971157625,2284
3114.5092165602427,2241
3116.1746781106813,2281
3117.839581276943,2276
3119.503925567965,2307
3121.167710491747,2302
3122.830935555364,2252
3124.493600264954,2315
3126.1557041257247,2299
3127.817246641952,2342
3129.478227316982,2296
3131.1386456532273,2223
3132.798501152168,2376
3134.4577933143537,2255
3136.116521639402,2354
3137.7746856259982,2306
3139.4322847718977,2266
3141.0893185739224,2299
3142.745786527962,2289
3144.4016881289754,2323
3146.0570228709903,2326
3147.711790247102,2262
3149.3659897494754,2295
3151.0196208693396,2298
3152.6726830969974,2341
3154.3251759218165,2277
3155.9770988322334,2292
3157.6284513157534,2272
3159.2792328589485,2291
3160.929442947461,2281
3162.579081066002,2301
3164.2281466983477,2249
3165.8766393273454,2235
3167.5245584349086,2342
3169.1719035020224,2267
3170.818674008735,2284
3172.4648694341677,2348
3174.110489256508,2241
3175.7555329530105,2312
3177.4000000000005,2339
3179.0438898728707,2283
3180.6872020460805,2343
3182.32993599316,2399
3183.972091186706,2264
3185.613667098384,2334
3187.254663198927,2401
3188.8950789581386,2339
3190.5349138448873,2307
3192.1741673271126,2284
3193.8128388718224,2313
3195.4509279450886,2237
3197.0884340120574,2324
3198.725356536939,2254
3200.361694983014,2273
3201.997448812629,2298
3203.632617487203,2282
3205.2672004672195,2318
3206.901197212229,2339
3208.5346071808563,2283
3210.167429830789,2207
3211.799664618785,2310
3213.4313110006706,2268
3215.0623684313387,2359
3216.692836364753,2270
3218.3227142539445,2321
3219.9520015510125,2344
3221.5806977071215,2275
3223.2088021725103,2296
3224.8363143964816,2310
3226.4632338274077,2312
3228.089559912728,2306
3229.715292098951,2200
3231.3404298316545,2324
3232.9649725554846,2265
3234.5889197141523,2291
3236.2122707504395,2346
3237.8350251061984,2296
3239.457182222345,2362
3241.0787415388677,2309
3242.6997024948187,2333
3244.3200645283223,2259
3245.9398270765696,2309
3247.558989575821,2307
3249.177551461403,2238
3250.7955121677123,2235
3252.412871128213,2323
3254.029627775437,2345
3255.6457815409867,2284
3257.2613318555286,2263
3258.876278148802,2236
3260.490619849613,2249
3262.1043563858348,2270
3263.717487184408,2243
3265.3300116713453,2256
3266.941929271725,2286
3268.5532394096917,2291
3270.1639415084646,2259
3271.7740349903233,2268
3273.383519276621,2280
3274.9923937877775,2342
3276.6006579432833,2354
3278.2083111616903,2286
3279.815352860627,2327
3281.421782456786,2371
3283.027599365927,2395
3284.632803002881,2265
3286.237392781545,2298
3287.841368114885,2284
3289.4447284149373,2219
3291.047473092801,2353
3292.649601558651,2266
3294.2511132217223,2226
3295.8520074903254,2258
3297.452283771835,2313
3299.051941472695,2219
3300.650979998417,2303
3302.2493987535827,2395
3303.8471971418403,2355
3305.4443745659064,2331
3307.0409304275654,2366
3308.636864127674,2311
3310.2321750661513,2392
3311.8268626419876,2379
3313.420926253242,2252
3315.01436529704,2351
3316.6071791695776,2339
3318.1993672661183,2338
3319.7909289809913,2245
3321.3818637075983,2262
3322.972170838406,2252
3324.561849764951,2353
3326.150899877838,2373
3327.7393205667386,2241
3329.3271112203956,2283
3330.9142712266166,2372
3332.5007999722793,2386
3334.08669684333,2417
3335.6719612247834,2350
3337.2565925007193,2323
3338.840590054291,2354
3340.4239532677157,2421
3342.006681522281,2313
3343.5887741983406,2411
3345.1702306753214,2358
3346.7510503317126,2305
3348.3312325450743,2377
3349.910776692037,2265
3351.4896821482953,2379
3353.0679482886153,2390
3354.645574486829,2383
3356.2225601158398,2285
3357.798904547615,2302
