CollectionTime,4/2/2024 11:28:56 AM
ExposureUsed,3
CalibratedSpectrum
-994.8464149364308,603
-991.9439705588344,677
-989.042830375826,647
-986.1429931109675,674
-983.2444574887519,795
-980.3472222346043,767
-977.4512860748813,700
-974.5566477368716,693
-971.6633059487953,668
-968.7712594398042,658
-965.8805069399822,649
-962.9910471803447,651
-960.1028788928387,666
-957.2160008103432,689
-954.3304116666687,685
-951.4461101965578,663
-948.5630951356844,671
-945.6813652206545,761
-942.8009191890055,791
-939.9217557792067,771
-937.0438737306594,740
-934.167271783696,723
-931.2919486795813,692
-928.4179031605115,696
-925.5451339696144,747
-922.67363985095,765
-919.8034195495097,811
-916.9344718112166,777
-914.0667953829256,762
-911.2003890124234,817
-908.3352514484286,777
-905.471381440591,769
-902.6087777394928,675
-899.7474390966474,742
-896.8873642645002,785
-894.0285519964284,771
-891.1710010467407,746
-888.3147101706776,758
-885.4596781244115,788
-882.6059036650465,699
-879.7533855506183,725
-876.9021225400943,715
-874.0521133933738,750
-871.2033568712878,721
-868.3558517355991,749
-865.509596749002,896
-862.6645906751228,871
-859.8208322785192,890
-856.9783203246812,869
-854.1370535800299,754
-851.2970308119186,729
-848.4582507886321,700
-845.620712279387,735
-842.7844140543316,739
-839.9493548845461,738
-837.1155335420422,753
-834.2829487997635,724
-831.4515994315852,759
-828.6214842123144,797
-825.7926019176898,820
-822.9649513243819,727
-820.138531209993,763
-817.3133403530569,795
-814.4893775330396,855
-811.6666415303382,802
-808.845131126282,736
-806.0248451031321,754
-803.2057822440808,709
-800.3879413332527,726
-797.5713211557038,757
-794.755920497422,835
-791.941738145327,747
-789.1287728872701,757
-786.3170235120342,849
-783.5064888093341,815
-780.6971675698165,720
-777.8890585850597,728
-775.0821606475735,806
-772.2764725507997,797
-769.4719930891118,792
-766.6687210578151,815
-763.8666552531465,915
-761.0657944722747,1055
-758.2661375133,970
-755.4676831752547,784
-752.6704302581027,782
-749.8743775627395,748
-747.0795238909925,761
-744.285868045621,782
-741.4934088303156,813
-738.702145049699,799
-735.9120755093254,838
-733.123199015681,955
-730.3355143761836,1017
-727.5490203991826,873
-724.7637158939592,826
-721.9795996707265,748
-719.1966705406293,734
-716.4149273157439,753
-713.6343688090786,723
-710.8549938345734,692
-708.0768012070998,730
-705.2997897424614,776
-702.5239582573931,808
-699.7493055695622,865
-696.9758304975669,886
-694.2035318609377,831
-691.4324084801367,818
-688.6624591765578,791
-685.8936827725265,815
-683.1260780913001,874
-680.3596439570675,844
-677.5943791949499,792
-674.8302826309991,746
-672.0673530922,778
-669.3055894064685,834
-666.5449904026519,870
-663.78555491053,808
-661.0272817608139,777
-658.2701697851465,891
-655.5142178161026,947
-652.7594246871884,932
-650.0057892328422,863
-647.2533102884337,860
-644.5019866902646,852
-641.7518172755683,814
-639.0028008825099,833
-636.254936350186,923
-633.5082225186254,864
-630.7626582287882,807
-628.0182423225665,792
-625.2749736427841,840
-622.5328510331965,977
-619.7918733384909,924
-617.0520394042862,988
-614.3133480771331,948
-611.5757982045143,955
-608.8393886348437,999
-606.1041182174672,971
-603.3699858026625,989
-600.6369902416393,1004
-597.9051303865383,996
-595.1744050904326,1076
-592.4448132073267,1085
-589.7163535921568,1093
-586.9890251007912,1033
-584.2628265900296,964
-581.5377569176036,936
-578.8138149421764,1012
-576.090999523343,1004
-573.3693095216302,931
-570.6487437984965,993
-567.9293012163321,1097
-565.210980638459,1005
-562.4937809291307,992
-559.7777009535329,1038
-557.0627395777825,1017
-554.3488956689287,1064
-551.6361680949519,1033
-548.9245557247644,1119
-546.2140574282107,1192
-543.5046720760662,1195
-540.7963985400388,1148
-538.0892356927677,1152
-535.3831824078238,1233
-532.6782375597103,1342
-529.9744000238613,1375
-527.2716686766433,1442
-524.5700423953542,1619
-521.8695200582238,1505
-519.1701005444136,1404
-516.4717827340166,1441
-513.7745655080581,1632
-511.0784477484944,1752
-508.38342833821423,1911
-505.68950616103757,2099
-502.9966801017163,2217
-500.3049490459341,2359
-497.61431188030633,2266
-494.9247674923801,1877
-492.2363147706342,1775
-489.54895260447927,1631
-486.86267988425755,1519
-484.1774955012431,1526
-481.4933983476417,1519
-478.8103873165908,1370
-476.1284613021596,1311
-473.44761919934945,1322
-470.7678599040928,1272
-468.089182313254,1364
-465.4115853246294,1310
-462.735067836947,1437
-460.0596287498663,1431
-457.3852669639789,1233
-454.71198138080774,1141
-452.03977090280773,1116
-449.3686344333656,1142
-446.69857087679964,1239
-444.02957913835996,1253
-441.36165812422837,1284
-438.6948067415183,1399
-436.0290238982752,1276
-433.36430850347597,1236
-430.7006594670296,1234
-428.0380756997763,1246
-425.3765561134885,1299
-422.7160996208702,1277
-420.0567051355571,1304
-417.3983715721164,1266
-414.7410978460475,1281
-412.08488287378145,1376
-409.4297255726806,1413
-406.77562486103955,1229
-404.1225796580843,1198
-401.4705888839728,1069
-398.8196514597947,1097
-396.1697663075713,1182
-393.5209323502555,1098
-390.8731485117323,865
-388.22641371681823,896
-385.5807268912615,1083
-382.93608696174226,998
-380.29249285587207,826
-377.64994350219456,784
-375.0084378301849,903
-372.36797477025016,880
-369.7285532537287,900
-367.0901722128914,885
-364.45283058094014,761
-361.8165272920089,865
-359.1812612811634,804
-356.54703148440103,637
-353.9138368386507,728
-351.28167628177346,795
-348.6505487525617,924
-346.02045319074,797
-343.3913885369643,793
-340.76335373282245,927
-338.1363477208339,831
-335.5103694444499,892
-332.8854178480535,1030
-330.26149187695944,1038
-327.63859047741425,871
-325.016712596596,739
-322.3958571826148,788
-319.77602318451227,897
-317.15720955226186,875
-314.5394152367686,837
-311.9226391898695,826
-309.3068803643333,811
-306.69213771386023,1084
-304.0784101930824,1270
-301.4656967575635,1147
-298.8539963637994,1007
-296.2433079692172,1167
-293.6336305321761,1051
-291.02496301196675,1035
-288.41730436881176,1154
-285.81065356386534,1031
-283.2050095592135,1057
-280.60037131787396,1649
-277.9967378037961,1976
-275.39410798186134,1423
-272.7924808178824,1464
-270.19185527860407,1384
-267.5922303317028,1389
-264.9936049457866,1473
-262.3959780903955,1429
-259.79934873600087,1603
-257.2037158540064,1477
-254.6090784167469,1408
-252.01543539748934,1647
-249.42278577043237,1305
-246.8311285107061,1199
-244.24046259437262,1320
-241.6507869984256,1248
-239.0621007007909,1286
-236.4744026803254,1443
-233.88769191681808,1453
-231.30196739098994,1395
-228.7172280844934,1223
-226.13347297991243,1282
-223.550701060763,1443
-220.9689113114929,1252
-218.3881027174814,1156
-215.8082742650397,1397
-213.22942494141068,1944
-210.65155373476898,2169
-208.07465963422078,1966
-205.49874162980439,1873
-202.92379871248932,1800
-200.34982987417743,1731
-197.7768341077018,1496
-195.20481040682762,1372
-192.63375776625162,1350
-190.0636751816021,1477
-187.49456164943945,1518
-184.92641616725564,1496
-182.3592377334743,1628
-179.79302534745102,1968
-177.2277780094729,2099
-174.66349472075865,2012
-172.10017448345923,2074
-169.5378163006569,2073
-166.97641917636565,1888
-164.41598211553162,1967
-161.8565041240322,2567
-159.29798420867678,2467
-156.74042137720642,2502
-154.18381463829382,2623
-151.6281630015436,2335
-149.07346547749228,2076
-146.51972107760753,2130
-143.96692881428908,2441
-141.41508770086864,2719
-138.86419675160937,2274
-136.31425498170609,1984
-133.7652614072856,2061
-131.21721504540642,2192
-128.67011491405844,2450
-126.12396003216395,3216
-123.57874941957618,3762
-121.03448209708074,2985
-118.49115708639465,2766
-115.94877341016684,3067
-113.40733009197788,3359
-110.86682615633993,3087
-108.32726062869733,3161
-105.78863253542556,4183
-103.25094090383243,5826
-100.71418476215695,5149
-98.17836313957025,4534
-95.64347506617503,3578
-93.10951957300585,3821
-90.57649569202886,4180
-88.04440245614194,3786
-85.51323889917478,4257
-82.98300405588896,5285
-80.45369696197747,6539
-77.925316654065,8900
-75.39786216970867,11008
-72.87133254739649,14052
-70.34572682654857,17169
-67.82104404751692,21058
-65.29728325158499,27214
-62.774443480968216,36058
-60.252523778813384,39792
-57.73152318919938,44176
-55.21144075713676,43380
-52.69227552856796,36442
-50.17402655036665,35905
-47.65669287033859,33383
-45.14027353722133,25576
-42.624767600684095,27728
-40.11017411132775,34161
-37.59649212068507,40902
-35.08372068122037,44549
-32.57185884632963,47662
-30.06090567034107,45630
-27.550860208513996,49933
-25.04172151704006,57660
-22.533488653042014,65043
-20.02616067457484,65043
-17.51973664062507,65043
-15.014215611111126,65043
-12.509596646882983,65043
-10.005878809722162,65043
-7.503061162342419,65043
-5.001142768389059,65043
-2.5001226924387083,65043
-3.410605131648481E-13,65043
2.49922624248552,65043
4.997556967646801,65043
7.494993107179766,65043
9.99153559184856,65043
12.487185351485778,65043
14.98194331499235,65043
17.475810410337544,65043
19.96878756455851,65043
22.46087570376085,65043
24.952075753118834,35302
27.442388636874625,11524
29.93181527833849,8428
32.42035659988892,7596
34.90801352297353,10829
37.39478696810693,10283
39.880677854873056,10612
42.36568710192364,9548
44.8498156269784,12096
47.33306434682618,10176
49.815434177322686,9273
52.296926033393675,9286
54.77754082903198,9388
57.25727947729865,10358
59.736142890323435,9308
62.214131979304284,5854
64.6912476545076,5003
67.16749082526735,4369
69.64286239998614,3897
72.11736328613551,3877
74.59099439025431,4088
77.06375661794982,4724
79.53565087389825,4382
82.0066780618431,4749
84.4768390845968,4589
86.94613484403999,4775
89.41456624112152,6532
91.88213417585825,5692
94.34883954733527,4140
96.81468325370679,4063
99.2796661921941,3254
101.74378925908763,4090
104.20705334974559,4433
106.66945935859462,4538
109.1310081791296,4055
111.59170070391383,4376
114.05153782457865,4154
116.5105204318238,3521
118.96864941541708,3898
121.42592566419489,4978
123.88235006606146,4363
126.3379235079899,3455
128.79264687602085,3635
131.2465210552641,4012
133.69954692989631,3494
136.15172538316415,3423
138.60305729738116,3262
141.05354355393,2974
143.50318503326116,2814
145.95198261489327,2647
148.39993717741368,2834
150.84704959847772,3624
153.29332075480897,4134
155.73875152219944,3822
158.18334277550935,3334
160.62709538866693,2877
163.0700102346691,2731
165.51208818558075,3096
167.953330112535,3224
170.39373688573346,3058
172.8333093744459,3177
175.2720484470101,3205
177.70995497083277,3107
180.14702981238815,3544
182.58327383721917,3398
185.01868790993672,3422
187.45327289422062,3245
189.88702965281777,3326
192.31995904754444,3403
194.75206193928489,3527
197.18333918799135,3178
199.61379165268454,3040
202.04342019145315,3151
204.4722256614548,3325
206.90020891891436,3543
209.32737081912592,3516
211.7537122164515,3426
214.17923396432116,3428
216.6039369152336,3352
219.0278219207553,3288
221.45088983152186,3459
223.8731414972358,3378
226.29457776666914,3322
228.71519948766172,3300
231.1350075071216,3634
233.55400267102482,3633
235.97218582441633,3631
238.38955781140908,3537
240.806119475184,3823
243.2218716579905,3720
245.6368152011462,3399
248.05095094503736,3517
250.46427972911806,3633
252.87680239191036,3702
255.28851977100544,3797
257.69943270306203,3762
260.10954202380753,3304
262.5188485680378,3369
264.92735316961557,3534
267.33505666147425,3510
269.7419598756128,3551
272.14806364310084,3708
274.5533687940747,3487
276.95787615773975,3315
279.361586562369,3197
281.7645008353045,3304
284.1666198029559,3442
286.5679442908013,3520
288.96847512338695,3528
291.3682131243279,3500
293.7671591163071,3309
296.1653139210757,3464
298.562678359453,3372
300.9592532513268,3351
303.3550394156532,3340
305.75003767045655,3243
308.14424883282936,3304
310.53767371893196,3258
312.93031314399377,3174
315.3221679223125,2945
317.71323886725304,3096
320.1035267912496,3093
322.49303250580397,2914
324.881756821487,3003
327.2697005479374,2873
329.65686449386135,3050
332.0432494670347,2909
334.4288562743004,2959
336.81368572157066,2846
339.19773861382487,2835
341.58101575511205,2766
343.96351794854786,2814
346.3452459963173,2758
348.72620069967365,2855
351.1063828589379,2930
353.48579327349967,2900
355.8644327418169,2866
358.24230206141533,2868
360.6194020288899,2727
362.99573343990255,2683
365.3712970891845,2728
367.7460937705348,2712
370.12012427682066,2678
372.493389399978,2705
374.86588993101077,2647
377.23762665999084,2569
379.6086003760588,2531
381.9788118674235,2627
384.34826192136165,2584
386.7169513242188,2642
389.08488086140824,2557
391.4520513174118,2664
393.8184634757795,2707
396.1841181191296,2832
398.54901602914856,2863
400.9131579865916,2703
403.2765447712811,2818
405.63917716210926,2730
408.00105593703483,2743
410.36218187308646,2584
412.7225557463596,2549
415.0821783320191,2519
417.4410504042976,2568
419.79917273649585,2485
422.1565461009834,2570
424.5131712691973,2630
426.869049011643,2703
429.22418009789544,2648
431.578565296596,2495
433.9322053754556,2414
436.28510110125285,2448
438.6372532398352,2432
440.98866255611733,2438
443.33932981408293,2594
445.6892557767842,2452
448.0384412063411,2466
450.38688686394175,2583
452.7345935098431,2640
455.0815619033697,2512
457.42779280291506,2606
459.7732869659403,2502
462.1180451489754,2704
464.4620681076178,2671
466.80535659653424,2701
469.1479113694588,2600
471.48973317919445,2749
473.8308227776122,2786
476.17118091565135,2847
478.51080834331924,2875
480.8497058096914,2874
483.1878740629122,3190
485.5253138501944,3288
487.8620259178176,3338
490.1980110111317,3892
492.53326987455307,4028
494.86780325156724,4095
497.201611884728,4262
499.53469651565683,4162
501.8670578850447,4182
504.1986967326493,4044
506.52961379729754,3876
508.85980981688454,3582
511.18928552837315,3365
513.5180416677952,3361
515.8460789702503,3675
518.1733981699067,4250
520.5,5171
522.8258851928354,5529
525.1510544797857,5131
527.4755085912916,4610
529.7992482568625,4197
532.1222742050759,3448
534.4445871635783,2794
536.766187859083,2501
539.0870770173726,2464
541.4072553632982,2329
543.7267236207783,2319
546.0454825128002,2274
548.363532761419,2425
550.6808750877592,2338
552.9975102120118,2293
555.3134388534377,2396
557.6286617303654,2335
559.9431795601911,2381
562.2569930593802,2325
564.570102943466,2427
566.88250992705,2412
569.1942147238021,2340
571.5052180464602,2263
573.8155206068309,2363
576.1251231157885,2449
578.4340262832759,2441
580.7422308183045,2450
583.0497374289534,2332
585.3565468223703,2291
587.6626597047714,2291
589.9680767814409,2224
592.2727987567309,2271
594.5768263340624,2304
596.8801602159238,2254
599.1828011038731,2288
601.4847496985356,2196
603.7860066996047,2208
606.0865728058427,2255
608.3864487150802,2146
610.6856351242152,2163
612.9841327292149,2226
615.2819422251141,2167
617.5790643060163,2187
619.8754996650935,2203
622.1712489945849,2256
624.466312985799,2234
626.7606923291121,2232
629.0543877139692,2342
631.347399828883,2252
633.6397293614343,2269
635.9313769982732,2287
638.2223434251173,2252
640.5126293267522,2333
642.8022353870326,2208
645.0911622888809,2281
647.3794107142876,2242
649.666981344312,2283
651.9538748590815,2226
654.2400919377915,2295
656.525633258706,2372
658.8104994991568,2269
661.0946913355442,2374
663.3782094433375,2271
665.6610544970729,2322
667.9432271703561,2286
670.22472813586,2315
672.5055580653268,2414
674.7857176295659,2331
677.065207498456,2302
679.3440283409432,2309
681.6221808250425,2314
683.899665617837,2262
686.1764833854772,2221
688.4526347931837,2279
690.7281205052436,2374
693.0029411850135,2360
695.2770974949171,2379
697.5505900964474,2324
699.8234196501651,2283
702.0955868156989,2289
704.3670922517472,2207
706.6379366160747,2280
708.9081205655159,2288
711.1776447559728,2337
713.4465098424155,2268
715.714716478883,2364
717.9822653184822,2338
720.2491570133882,2329
722.5153922148452,2281
724.7809715731639,2311
727.0458957377248,2300
729.3101653569763,2275
731.5737810784346,2285
733.8367435486853,2306
736.0990534133803,2351
738.3607113172418,2367
740.6217179040591,2324
742.8820738166899,2400
745.1417796970607,2351
747.4008361861659,2323
749.6592439240678,2362
751.9170035498973,2537
754.1741157018539,2518
756.4305810172048,2355
758.686400132286,2354
760.9415736825013,2470
763.196102302323,2433
765.4499866252911,2344
767.7032272840152,2404
769.9558249101717,2367
772.207780134506,2432
774.4590935868323,2539
776.7097658960313,2710
778.9597976900541,2645
781.2091895959184,2484
783.457942239711,2456
785.7060562465867,2395
787.9535322407687,2431
790.2003708455488,2400
792.4465726832861,2437
794.6921383754088,2508
796.9370685424128,2496
799.1813638038632,2465
801.4250247783918,2503
803.6680520837006,2459
805.9104463365579,2371
808.1522081528019,2406
810.393338147338,2395
812.6338369341406,2352
814.8737051262517,2413
817.1129433357819,2420
819.35155217391,2435
821.5895322508834,2464
823.8268841760168,2344
826.0636085576946,2460
828.2997060033681,2480
830.535177119558,2331
832.7700225118522,2376
835.0042427849078,2383
837.2378385424493,2452
839.4708103872701,2429
841.7031589212318,2362
843.9348847452643,2351
846.1659884593648,2459
848.3964706626004,2423
850.6263319531054,2413
852.8555729280824,2311
855.0841941838025,2307
857.3121963156052,2415
859.5395799178978,2468
861.7663455841566,2443
863.9924939069251,2490
866.2180254778159,2416
868.4429408875103,2464
870.6672407257561,2506
872.890925581371,2501
875.1139960422404,2468
877.336452695318,2472
879.5582961266261,2537
881.7795269212543,2471
884.0001456633613,2526
886.2201529361741,2594
888.4395493219874,2609
890.6583354021648,2627
892.8765117571375,2512
895.094078966405,2537
897.3110376085365,2469
899.5273882611671,2526
901.7431315010019,2481
903.958267903814,2404
906.1727980444443,2411
908.3867224968019,2445
910.6000418338647,2445
912.8127566276792,2449
915.0248674493587,2600
917.2363748690857,2482
919.4472794561113,2483
921.6575817787543,2449
923.867282404402,2282
926.0763818995099,2308
928.2848808296014,2204
930.4927797592693,2284
932.700079252173,2297
934.9067798710416,2224
937.112882177672,2275
939.3183867329287,2249
941.5232940967453,2248
943.727604828124,2341
945.9313194851336,2377
948.1344386249132,2326
950.3369628036685,2491
952.5388925766747,2347
954.7402284982745,2178
956.9409711218789,2239
959.1411209999676,2174
961.3406786840883,2319
963.5396447248565,2267
965.7380196719573,2342
967.9358040741427,2360
970.1329984792335,2287
972.3296034341188,2196
974.5256194847555,2180
976.72104717617,2181
978.9158870524552,2251
981.1101396567742,2296
983.3038055313566,2255
985.4968852175009,2253
987.6893792555747,2255
989.8812881850124,2208
992.072612544318,2303
994.263352871063,2212
996.453509701887,2307
998.6430835724984,2133
1000.832075017674,2113
1003.0204845712583,2106
1005.208312766164,2046
1007.3955601343728,2113
1009.5822272069338,2042
1011.7683145139652,2087
1013.9538225846525,2013
1016.1387519472505,1960
1018.3231031290818,1973
1020.5068766565371,2022
1022.6900730550753,2125
1024.872692849224,2083
1027.054736562579,2027
1029.2362047178037,1904
1031.4170978366305,1927
1033.5974164398597,2021
1035.7771610473603,1923
1037.9563321780693,1959
1040.1349303499917,2003
1042.3129560802006,1924
1044.490409884838,1934
1046.667292279115,1922
1048.8436037773079,1904
1051.0193448927644,1967
1053.1945161378994,1939
1055.3691180241954,1981
1057.5431510622038,1949
1059.7166157615447,1942
1061.8895126309053,1956
1064.0618421780423,1945
1066.2336049097798,1906
1068.4048013320107,1905
1070.5754319496955,1861
1072.745497266863,1892
1074.9149977866118,1830
1077.0839340111065,1942
1079.2523064415818,1878
1081.4201155783398,1831
1083.587361920751,1855
1085.7540459672537,1855
1087.9201682153553,1865
1090.0857291616308,1872
1092.2507293017238,1796
1094.4151691303464,1859
1096.579049141279,1795
1098.7423698273687,1799
1100.9051316805335,1857
1103.0673351917571,1798
1105.2289808510936,1804
1107.3900691476633,1888
1109.550600569657,1867
1111.710575604332,1860
1113.8699947380146,1863
1116.028858456099,1810
1118.1871672430489,1873
1120.344921582394,1837
1122.5021219567334,1875
1124.6587688477362,1939
1126.8148627361365,1911
1128.9704041017399,1852
1131.1253934234173,1800
1133.2798311791098,1810
1135.4337178458263,1789
1137.5870538996437,1826
1139.7398398157075,1791
1141.8920760682313,1804
1144.0437631304972,1850
1146.1949014748543,1836
1148.3454915727225,1852
1150.4955338945874,1777
1152.6450289100044,1784
1154.7939770875969,1800
1156.9423788950558,1804
1159.0902347991405,1826
1161.2375452656802,1854
1163.3843107595703,1835
1165.530531744775,1757
1167.6762086843282,1764
1169.8213420403304,1792
1171.9659322739503,1813
1174.1099798454266,1810
1176.2534852140639,1762
1178.3964488382376,1803
1180.538871175389,1868
1182.680752682029,1822
1184.8220938137365,1815
1186.9628950251595,1752
1189.103156770012,1804
1191.2428795010783,1870
1193.3820636702108,1799
1195.5207097283287,1822
1197.6588181254215,1798
1199.7963893105457,1771
1201.9334237318253,1830
1204.0699218364548,1846
1206.2058840706954,1821
1208.3413108798773,1793
1210.476202708397,1822
1212.6105599997222,1781
1214.7443831963874,1743
1216.877672739995,1767
1219.0104290712165,1771
1221.1426526297905,1842
1223.2743438545253,1899
1225.4055031832972,1810
1227.5361310530493,1752
1229.6662278997946,1785
1231.7957941586142,1850
1233.9248302636565,1697
1236.053336648139,1840
1238.1813137443464,1822
1240.3087619836338,1854
1242.4356817964222,1823
1244.5620736122019,1819
1246.6879378595318,1786
1248.813274966039,1722
1250.938085358418,1772
1253.062369462432,1762
1255.186127702913,1783
1257.3093605037611,1850
1259.4320682879434,1768
1261.554251477498,1805
1263.6759104935277,1869
1265.797045756206,1808
1267.9176576847744,1849
1270.0377466975428,1815
1272.1573132118879,1844
1274.2763576442567,1900
1276.394880410162,1849
1278.5128819241877,1857
1280.6303625999835,1900
1282.7473228502695,1802
1284.8637630868325,1865
1286.9796837205272,1865
1289.0950851612783,1831
1291.209967818078,1895
1293.3243320989864,1863
1295.4381784111324,1925
1297.551507160712,1899
1299.6643187529912,1832
1301.776613592303,1830
1303.888392082049,1878
1305.9996546246998,1885
1308.1104016217923,1875
1310.220633473934,1940
1312.3303505807999,1872
1314.4395533411316,1929
1316.5482421527418,1920
1318.6564174125092,1892
1320.7640795163816,1879
1322.8712288593752,1853
1324.9778658355744,1901
1327.0839908381313,1919
1329.1896042592675,1815
1331.2947064902714,1897
1333.3992979215009,1914
1335.503378942381,1906
1337.6069499414057,1790
1339.7100113061383,1853
1341.8125634232074,1903
1343.9146066783128,1901
1346.0161414562212,1930
1348.1171681407677,1783
1350.2176871148563,1868
1352.3176987604575,1897
1354.4172034586127,1872
1356.5162015894289,1896
1358.6146935320835,1813
1360.7126796648213,1936
1362.8101603649548,1853
1364.9071360088656,1913
1367.0036069720036,1903
1369.099573628886,1854
1371.195036353099,1874
1373.2899955172975,1846
1375.3844514932039,1970
1377.4784046516088,1886
1379.5718553623715,1856
1381.6648039944193,1891
1383.7572509157485,1904
1385.8491964934224,1890
1387.9406410935735,1882
1390.0315850814022,1973
1392.122028821177,1916
1394.2119726762357,1987
1396.3014170089828,1931
1398.3903621808918,1915
1400.4788085525051,1831
1402.566756483432,1817
1404.6542063323514,1922
1406.7411584570095,1788
1408.8276132142219,1883
1410.9135709598704,1879
1412.9990320489078,1874
1415.083996835353,1870
1417.1684656722937,1870
1419.2524389118867,1827
1421.3359169053565,1928
1423.4189000029946,1862
1425.5013885541634,1911
1427.5833829072913,1837
1429.664883409876,1877
1431.7458904084833,1916
1433.8264042487467,1810
1435.9064252753697,1852
1437.9859538321216,1808
1440.0649902618416,1853
1442.1435349064373,1923
1444.2215881068837,1895
1446.2991502032237,1922
1448.37622153457,1922
1450.452802439103,1891
1452.5288932540698,1916
1454.604494315788,1984
1456.6796059596427,1959
1458.7542285200866,1856
1460.8283623306415,1867
1462.902007723897,1877
1464.9751650315106,1866
1467.0478345842089,1885
1469.1200167117868,1884
1471.1917117431062,1901
1473.2629200060992,1851
1475.333641827764,1860
1477.4038775341692,1897
1479.4736274504498,1887
1481.5428919008104,1935
1483.6116712085222,1955
1485.6799656959279,1882
1487.7477756844346,1874
1489.8151014945201,1897
1491.88194344573,1914
1493.9483018566775,1936
1496.0141770450455,1943
1498.0795693275822,1923
1500.1444790201076,1851
1502.2089064375086,1834
1504.2728518937402,1911
1506.3363157018239,1951
1508.3992981738534,1945
1510.4617996209872,1923
1512.5238203534536,1896
1514.5853606805495,1917
1516.6464209106384,1896
1518.7070013511543,1916
1520.7671023085973,1925
1522.8267240885375,1941
1524.885866995612,1959
1526.9445313335268,1922
1529.002717405056,1946
1531.0604255120425,1843
1533.1176559553965,1960
1535.1744090350971,1982
1537.2306850501914,1988
1539.2864842987956,1999
1541.3418070780922,1966
1543.396653684334,1896
1545.4510244128405,1934
1547.5049195580013,1951
1549.5583394132727,1853
1551.61128427118,2011
1553.6637544233158,1941
1555.7157501603415,1941
1557.7672717719888,2027
1559.8183195470538,1988
1561.8688937734037,1943
1563.9189947379737,1970
1565.9686227267657,1951
1568.0177780248514,1933
1570.0664609163696,1903
1572.1146716845292,2015
1574.162410611605,2117
1576.2096779789413,1975
1578.2564740669518,2022
1580.3027991551157,1961
1582.3486535219831,1891
1584.3940374451709,1945
1586.4389512013645,1891
1588.4833950663178,1954
1590.5273693148533,1977
1592.5708742208603,1943
1594.6139100572982,1983
1596.6564770961936,1952
1598.698575608642,1997
1600.7402058648063,1951
1602.7813681339185,1922
1604.8220626842776,1947
1606.8622897832533,1969
1608.9020496972812,1908
1610.9413426918663,1948
1612.9801690315808,2026
1615.018528980066,1945
1617.056422800033,1906
1619.0938507532578,1963
1621.1308131005876,1904
1623.1673101019355,2009
1625.2033420162848,2000
1627.2389091016862,1984
1629.274011615259,1996
1631.3086498131897,1945
1633.3428239507352,1969
1635.376534282219,1935
1637.4097810610324,1958
1639.4425645396364,1961
1641.4748849695593,1922
1643.5067426013989,1998
1645.53813768482,1932
1647.5690704685549,1964
1649.5995412004067,1950
1651.6295501272452,1969
1653.6590974950086,1982
1655.6881835487025,2002
1657.7168085324029,1923
1659.7449726892523,1966
1661.772676261462,1922
1663.7999194903114,1865
1665.8267026161484,1962
1667.8530258783894,1966
1669.8788895155185,1901
1671.9042937650888,1954
1673.9292388637205,1942
1675.953725047103,1992
1677.977752549994,1827
1680.0013216062184,1926
1682.0244324486712,1903
1684.0470853093134,2007
1686.0692804191767,1896
1688.0910180083588,1899
1690.1122983060268,2047
1692.1331215404175,1879
1694.1534879388319,1934
1696.173397727644,1905
1698.1928511322926,1925
1700.211848377286,2006
1702.2303896862018,2076
1704.248475281684,2117
1706.2661053854458,2009
1708.2832802182684,2024
1710.300000000002,2094
1712.3162649495644,1947
1714.3320752849409,1954
1716.3474312231865,1921
1718.362332980424,1913
1720.376780771845,1946
1722.3907748117072,1927
1724.4043153133393,1946
1726.4174024891367,1975
1728.4300365505628,1927
1730.442217708151,1903
1732.4539461715008,1953
1734.465222149282,1953
1736.4760458492306,1927
1738.4864174781524,1993
1740.496337241921,1939
1742.5058053454786,1947
1744.5148219928346,1927
1746.523387387068,1967
1748.531501730325,1987
1750.5391652238209,1955
1752.5463780678388,1940
1754.55314046173,1982
1756.5594526039135,1995
1758.565314691879,1968
1760.5707269221812,1929
1762.5756894904443,1918
1764.580202591363,1990
1766.5842664186966,2001
1768.5878811652751,2009
1770.591047022996,1990
1772.593764182825,2042
1774.5960328347965,1980
1776.5978531680116,2007
1778.5992253706427,1955
1780.6001496299273,1971
1782.6006261321731,1928
1784.6006550627553,1988
1786.6002366061175,2040
1788.5993709457725,1968
1790.5980582642992,1973
1792.5962987433468,1956
1794.5940925636314,1923
1796.5914399049389,2016
1798.5883409461221,2020
1800.584795865102,1953
1802.580804838869,2016
1804.5763680434807,2030
1806.571485654064,2058
1808.566157844813,2013
1810.5603847889902,2063
1812.5541666589274,1993
1814.5475036260236,1944
1816.5403958607467,1958
1818.5328435326323,2015
1820.5248468102845,1969
1822.5164058613755,1975
1824.5075208526468,2001
1826.4981919499064,2078
1828.488419318032,2031
1830.4782031209684,1975
1832.4675435217305,2020
1834.4564406823993,1991
1836.4448947641258,1980
1838.432905927128,2029
1840.4204743306927,2092
1842.4076001331746,2068
1844.3942834919985,1997
1846.380524563654,1993
1848.366323503702,1990
1850.351680466771,2015
1852.3365956065563,2030
1854.3210690758228,1990
1856.3051010264044,1984
1858.2886916092007,1951
1860.271840974182,1977
1862.2545492703862,2089
1864.2368166459191,2045
1866.2186432479543,1970
1868.2000292227349,2048
1870.1809747155717,2049
1872.1614798708429,2007
1874.1415448319963,2043
1876.1211697415474,2055
1878.1003547410805,2069
1880.0790999712472,2064
1882.0574055717675,1993
1884.0352716814305,2035
1886.0126984380927,2068
1887.989685978679,1983
1889.9662344391836,1967
1891.9423439546672,2092
1893.9180146592607,2015
1895.893246686161,2025
1897.868040167636,2109
1899.8423952350195,2123
1901.8163120187137,2119
1903.7897906481917,2003
1905.7628312519923,1991
1907.7354339577219,2028
1909.7075988920578,2031
1911.6793261807447,2038
1913.6506159485943,2033
1915.6214683194871,2074
1917.5918834163726,2075
1919.5618613612687,2066
1921.5314022752605,2048
1923.5005062785012,2018
1925.4691734902144,2073
1927.4374040286893,2016
1929.4051980112845,2045
1931.3725555544274,2054
1933.3394767736136,2126
1935.305961783406,2129
1937.2720106974361,2148
1939.237623628404,2102
1941.2028006880778,2171
1943.167541987295,2121
1945.1318476359588,2134
1947.0957177430432,2075
1949.0591524165898,2101
1951.0221517637078,2130
1952.984715890574,2083
1954.9468449024357,2084
1956.9085389036072,2059
1958.8697979974704,2066
1960.8306222864767,2012
1962.7910118721456,2120
1964.7509668550638,2059
1966.7104873348871,2069
1968.6695734103387,2104
1970.6282251792127,2072
1972.586442738368,2078
1974.5442261837343,2110
1976.501575610307,2011
1978.4584911121533,2092
1980.4149727824056,2034
1982.3710207132658,2097
1984.326634996004,2100
1986.2818157209585,2097
1988.2365629775359,2136
1990.1908768542116,2113
1992.144757438527,2157
1994.0982048170954,2103
1996.0512190755953,2061
1998.0038002987749,2078
1999.95594857045,2002
2001.9076639735054,2060
2003.8589465898945,2097
2005.8097965006368,2143
2007.760213785822,2105
2009.7101985246077,2094
2011.6597507952201,2016
2013.6088706749524,2083
2015.5575582401675,2097
2017.5058135662953,2055
2019.4536367278351,2065
2021.4010277983534,2064
2023.347986850486,2083
2025.2945139559365,2075
2027.2406091854768,2114
2029.1862726089462,2146
2031.1315042952538,2196
2033.0763043123766,2130
2035.0206727273585,2127
2036.964609606313,2146
2038.908115014422,2158
2040.8511890159348,2106
2042.7938316741693,2160
2044.7360430515123,2190
2046.677823209417,2090
2048.6191722084077,2090
2050.5600901080743,2125
2052.5005769670765,2171
2054.440632843142,2069
2056.380257793066,2040
2058.3194518727128,2132
2060.258215137015,2143
2062.1965476399732,2097
2064.1344494346554,1982
2066.0719205732,2164
2068.008961106812,2071
2069.945571085764,2101
2071.8817505593997,2055
2073.817499576128,2180
2075.7528181834273,2156
2077.6877064278447,2071
2079.622164354995,2149
2081.556192009562,2130
2083.4897894352966,2063
2085.4229566750187,2138
2087.355693770616,2177
2089.2880007630456,2093
2091.219877692331,2029
2093.151324597566,2165
2095.0823415169107,2108
2097.012928487595,2110
2098.9430855459173,2112
2100.872812727242,2099
2102.8021100660035,2070
2104.730977595705,2176
2106.659415348917,2132
2108.5874233572777,2099
2110.5150016514945,2110
2112.442150261343,2084
2114.3688692156675,2063
2116.2951585423793,2091
2118.2210182684585,2183
2120.146448419954,2110
2122.0714490219825,2137
2123.9960200987293,2155
2125.920161673447,2095
2127.843873768458,2194
2129.767156405151,2059
2131.690009603985,2199
2133.612433384486,2115
2135.534427765249,2176
2137.4559927639366,2071
2139.37712839728,2096
2141.2978346810783,2136
2143.2181116301995,2120
2145.1379592585795,2191
2147.057377579222,2123
2148.9763666042,2159
2150.894926344655,2123
2152.813056810794,2087
2154.730758011896,2066
2156.648029956306,2125
2158.564872651437,2116
2160.481286103772,2129
2162.397270318861,2072
2164.312825301323,2030
2166.227951054844,2089
2168.14264758218,2015
2170.056914885153,2145
2171.9707529646566,2077
2173.8841618206484,2093
2175.7971414521585,2123
2177.7096918572825,2180
2179.621813033186,2189
2181.5335049761,2147
2183.444767681327,2116
2185.355601143236,2146
2187.2660053552654,2220
2189.1759803099208,2171
2191.085525998777,2155
2192.994642412475,2109
2194.903329540727,2159
2196.811587372312,2103
2198.7194158950765,2105
2200.626815095937,2172
2202.5337849608763,2131
2204.440325474948,2137
2206.346436622271,2162
2208.2521183860345,2166
2210.157370748496,2095
2212.0621936909793,2113
2213.966587193879,2186
2215.8705512366573,2130
2217.774085797842,2210
2219.677190855033,2097
2221.579866384897,2197
2223.4821123631677,2210
2225.3839287646483,2188
2227.2853155632106,2168
2229.186272731794,2225
2231.0868002424063,2135
2232.986898066123,2138
2234.8865661730892,2118
2236.785804532517,2111
2238.6846131126877,2163
2240.5829918809495,2161
2242.4809408037213,2200
2244.3784598464877,2166
2246.275548973803,2191
2248.172208149288,2171
2250.0684373356357,2158
2251.964236494603,2177
2253.859605587017,2186
2255.7545445727733,2200
2257.6490534108357,2136
2259.5431320592356,2066
2261.436780475073,2105
2263.329998614516,2142
2265.222786432802,2094
2267.1151438842344,2182
2269.0070709221877,2147
2270.8985674991022,2162
2272.789633566488,2075
2274.6802690749237,2091
2276.570473974053,2124
2278.4602482125933,2190
2280.3495917383257,2124
2282.238504498101,2197
2284.1269864378387,2199
2286.0150375025264,2126
2287.9026576362203,2120
2289.789846782043,2156
2291.6766048821873,2233
2293.5629318779147,2158
2295.4488277095534,2225
2297.3342923164996,2265
2299.2193256372193,2193
2301.1039276092465,2277
2302.9880981691817,2169
2304.871837252696,2198
2306.755144794528,2188
2308.6380207284838,2140
2310.5204649874386,2154
2312.4024775033354,2228
2314.2840582071854,2137
2316.165207029068,2139
2318.0459238981325,2182
2319.926208742594,2156
2321.8060614897363,2230
2323.6854820659137,2229
2325.5644703965463,2202
2327.443026406124,2122
2329.321150018203,2132
2331.1988411554107,2205
2333.0760997394395,2146
2334.952925691053,2214
2336.829318930082,2213
2338.705279375424,2154
2340.5808069450477,2169
2342.4559015559867,2213
2344.3305631243456,2074
2346.204791565297,2209
2348.07858679308,2267
2349.9519487210027,2304
2351.824877261443,2219
2353.6973723258448,2211
2355.5694338247226,2254
2357.4410616676564,2232
2359.312255763297,2127
2361.1830160193617,2239
2363.053342342637,2208
2364.9232346389776,2272
2366.792692813306,2210
2368.6617167696145,2269
2370.5303064109603,2270
2372.3984616394723,2247
2374.2661823563467,2236
2376.1334684618464,2226
2378.0003198553054,2164
2379.8667364351227,2240
2381.7327180987672,2130
2383.5982647427777,2251
2385.4633762627586,2184
2387.3280525533837,2206
2389.192293508395,2213
2391.0560990206027,2196
2392.919468981885,2150
2394.782403283189,2243
2396.644901814531,2236
2398.5069644649916,2224
2400.3685911227235,2238
2402.2297816749474,2216
2404.0905360079505,2255
2405.950854007089,2220
2407.8107355567886,2219
2409.670180540541,2233
2411.529188840908,2161
2413.387760339518,2190
2415.2458949170705,2184
2417.1035924533294,2215
2418.96085282713,2231
2420.8176759163744,2250
2422.6740615980334,2237
2424.5300097481468,2184
2426.38552024182,2226
2428.24059295323,2204
2430.0952277556207,2184
2431.949424521303,2292
2433.803183121658,2194
2435.6565034271343,2283
2437.5093853072485,2213
2439.361828630585,2207
2441.213833264798,2196
2443.0653990766095,2265
2444.916525931808,2230
2446.7672136952524,2231
2448.6174622308695,2285
2450.4672714016538,2227
2452.3166410696676,2168
2454.165571096043,2190
2456.0140613409794,2221
2457.8621116637432,2292
2459.709721922672,2261
2461.556891975169,2276
2463.403621677707,2216
2465.249910885827,2260
2467.0957594541383,2229
2468.9411672363167,2289
2470.78613408511,2213
2472.630659852331,2267
2474.4747443888614,2136
2476.3183875446516,2270
2478.161589168721,2256
2480.0043491091556,2201
2481.8466672131112,2223
2483.6885433268108,2220
2485.529977295547,2224
2487.370968963678,2279
2489.2115181746335,2221
2491.0516247709097,2258
2492.891288594071,2207
2494.7305094847497,2168
2496.569287282649,2272
2498.407621826537,2281
2500.2455129542523,2210
2502.0829605027,2148
2503.919964307855,2204
2505.7565242047594,2181
2507.5926400275252,2205
2509.42831160933,2296
2511.263538782423,2257
2513.0983213781174,2270
2514.9326592267994,2271
2516.76655215792,2270
2518.5999999999995,2294
2520.4330025806275,2205
2522.2655597264607,2207
2524.0976712632237,2156
2525.9293370157097,2251
2527.760556807782,2222
2529.591330462369,2277
2531.4216578014702,2358
2533.2515386461523,2323
2535.080972816548,2308
2536.9099601318626,2254
2538.738500410366,2158
2540.5665934693993,2274
2542.3942391253695,2276
2544.221437193752,2207
2546.0481874890925,2256
2547.874489825003,2216
2549.700344014164,2341
2551.5257498683245,2277
2553.350707198304,2256
2555.175215813986,2279
2556.9992755243256,2233
2558.8228861373454,2244
2560.646047460134,2269
2562.468759298852,2275
2564.2910214587255,2297
2566.1128337440496,2274
2567.93419595819,2235
2569.7551079035757,2231
2571.5755693817077,2193
2573.395580193155,2203
2575.2151401375536,2331
2577.034249013609,2292
2578.8529066190936,2277
2580.6711127508493,2303
2582.488867204785,2256
2584.3061697758794,2212
2586.1230202581787,2282
2587.939418444797,2271
2589.7553641279183,2295
2591.570857098791,2285
2593.385897147736,2217
2595.200484064141,2180
2597.014617636461,2339
2598.8282976522214,2219
2600.6415238980126,2191
2602.454296159496,2251
2604.266614221401,2293
2606.0784778675243,2276
2607.8898868807305,2262
2609.700841042955,2259
2611.5113401351973,2208
2613.32138393753,2302
2615.13097222909,2238
2616.940104788084,2217
2618.748781391788,2284
2620.557001816543,2292
2622.364765837763,2326
2624.1720732299264,2272
2625.9789237665814,2273
2627.7853172203445,2281
2629.5912533629,2234
2631.396731965001,2260
2633.2017527964676,2309
2635.0063156261904,2301
2636.810420222126,2267
2638.614066351301,2235
2640.417253779809,2212
2642.219982272813,2233
2644.022251594542,2282
2645.8240615082973,2242
2647.625411776444,2279
2649.4263021604183,2322
2651.226732420724,2281
2653.026702316933,2156
2654.8262116076858,2269
2656.625260050691,2326
2658.423847402724,2240
2660.221973419631,2256
2662.0196378563246,2229
2663.8168404667867,2240
2665.613581004068,2333
2667.4098592202854,2372
2669.2056748666246,2283
2671.0010276933417,2325
2672.7959174497596,2207
2674.5903438842674,2221
2676.384306744327,2259
2678.177805776465,2334
2679.9708407262765,2345
2681.7634113384274,2325
2683.555517356648,2258
2685.3471585237403,2278
2687.138334581574,2319
2688.9290452710843,2268
2690.7192903322784,2341
2692.50906950423,2280
2694.2983825250794,2318
2696.087229132039,2271
2697.875609061386,2259
2699.6635220484677,2339
2701.450967827699,2334
2703.237946132564,2282
2705.0244566956126,2335
2706.8104992484664,2304
2708.596073521813,2331
2710.381179245408,2327
2712.1658161480777,2312
2713.949983957714,2281
2715.7336824012773,2358
2717.516911204798,2320
2719.299670093374,2273
2721.0819587911706,2249
2722.8637770214223,2304
2724.6451245064322,2286
2726.426000967571,2285
2728.2064061252763,2345
2729.986339699057,2325
2731.765801407488,2388
2733.5447909682134,2281
2735.323308097945,2285
2737.101352512463,2242
2738.8789239266166,2265
2740.6560220543215,2265
2742.4326466085645,2243
2744.2087973013977,2280
2745.984473843944,2255
2747.7596759463922,2263
2749.534403318001,2247
2751.308655667096,2277
2753.0824327010737,2265
2754.8557341263954,2288
2756.628559648593,2286
2758.4009089722667,2304
2760.172781801083,2360
2761.944177837779,2295
2763.715096784159,2303
2765.4855383410945,2221
2767.2555022085267,2282
2769.024988085465,2329
2770.793995669988,2304
2772.5625246592385,2278
2774.3305747494323,2269
2776.098145635852,2272
2777.865237012847,2306
2779.6318485738357,2324
2781.397980011306,2366
2783.163631016813,2310
2784.928801280979,2281
2786.6934904934974,2338
2788.457698343127,2328
2790.221424517697,2268
2791.9846687041027,2217
2793.74743058831,2333
2795.5097098553515,2361
2797.2715061893286,2316
2799.0328192734105,2312
2800.793648789836,2259
2802.553994419911,2343
2804.3138558440087,2228
2806.073232741573,2298
2807.8321247911135,2322
2809.590531670211,2325
2811.3484530555115,2381
2813.105888622732,2289
2814.8628380466557,2277
2816.6193010011348,2296
2818.3752771590903,2339
2820.13076619251,2312
2821.885767772452,2374
2823.640281569041,2277
2825.3943072514703,2351
2827.147844488002,2346
2828.9008929459665,2357
2830.6534522917614,2329
2832.405522190854,2301
2834.1571023077786,2285
2835.9081923061394,2353
2837.658791848606,2448
2839.40890059692,2360
2841.1585182118874,2374
2842.907644353386,2374
2844.6562786803593,2356
2846.4044208508203,2346
2848.15207052185,2327
2849.899227349598,2357
2851.6458909892804,2300
2853.392061095185,2250
2855.137737320664,2383
2856.882919318142,2369
2858.6276067391063,2384
2860.371799234118,2360
2862.1154964528037,2327
2863.8586980438586,2327
2865.6014036550464,2355
2867.343612933199,2361
2869.0853255242173,2402
2870.826541073068,2383
2872.567259223789,2390
2874.307479619485,2326
2876.0472019023287,2333
2877.7864257135625,2382
2879.525150693495,2344
2881.263376481505,2354
2883.0011027160385,2394
2884.73832903461,2332
2886.4750550738027,2293
2888.2112804692665,2409
2889.9470048557223,2418
2891.682227866956,2326
2893.416949135825,2314
2895.151168294252,2305
2896.88488497323,2333
2898.6180988028204,2383
2900.3508094121503,2429
2902.083016429419,2306
2903.81471948189,2224
2905.5459181958972,2336
2907.276612196844,2345
2909.0068011091994,2416
2910.736484556502,2328
2912.465662161359,2405
2914.194333545445,2391
2915.922498329504,2401
2917.650156133346,2334
2919.377306575852,2332
2921.103949274969,2361
2922.830083847715,2348
2924.555709910173,2466
2926.2808270774967,2355
2928.005434963907,2367
2929.7295331826936,2216
2931.4531213462133,2373
2933.1761990658924,2351
2934.8987659522254,2366
2936.6208216147747,2408
2938.3423656621694,2365
2940.0633977021116,2332
2941.783917341366,2456
2943.503924185768,2356
2945.223417840223,2420
2946.9423979087023,2462
2948.6608639942456,2385
2950.378815698962,2443
2952.096252624029,2343
2953.81317436969,2399
2955.529580535259,2372
2957.2454707191177,2412
2958.9608445187164,2387
2960.6757015305734,2339
2962.3900413502733,2326
2964.103863572472,2401
2965.817167790894,2389
2967.529953598327,2310
2969.2422205866337,2498
2970.953968346739,2456
2972.6651964686407,2418
2974.3759045414035,2351
2976.0860921531585,2413
2977.7957588911067,2340
2979.504904341517,2476
2981.2135280897273,2455
2982.9216297201433,2331
2984.629208816238,2350
2986.336264960554,2387
2988.0427977347017,2417
2989.7488067193594,2410
2991.454291494274,2422
2993.1592516382607,2450
2994.8636867292034,2403
2996.567596344053,2431
2998.2709800588295,2444
2999.973837448621,2444
3001.6761680875857,2438
3003.377971548946,2374
3005.0792474049954,2342
3006.7799952270957,2418
3008.480214585676,2385
3010.1799050502345,2418
3011.8790661893368,2292
3013.5776975706176,2417
3015.2757987607793,2451
3016.973369325592,2428
3018.6704088298966,2396
3020.366916837598,2364
3022.0628929116747,2372
3023.7583366141675,2418
3025.4532475061915,2406
3027.147625147925,2343
3028.841469098617,2384
3030.534778916585,2379
3032.2275541592144,2397
3033.9197943829577,2334
3035.611499143338,2421
3037.302667994943,2371
3038.9933004914333,2430
3040.683396185535,2412
3042.372954629042,2366
3044.061975372817,2426
3045.7504579667934,2418
3047.4384019599684,2341
3049.1258069004116,2391
3050.812672335258,2377
3052.4989978107124,2378
3054.184782872047,2346
3055.870027063603,2429
3057.554729928791,2321
3059.238891010086,2429
3060.9225098490347,2404
3062.6055859862518,2341
3064.2881189614177,2437
3065.970108313285,2385
3067.651553579671,2463
3069.3324542974633,2420
3071.012810002616,2374
3072.6926202301543,2439
3074.3718845141702,2378
3076.050602387822,2388
3077.728773383339,2352
3079.406397032018,2341
3081.083472864223,2454
3082.7600004093874,2424
3084.4359791960137,2324
3086.11140875167,2450
3087.7862886029952,2461
3089.4606182756943,2424
3091.134397294544,2348
3092.807625183385,2466
3094.4803014651284,2351
3096.152425661755,2390
3097.8239972943097,2386
3099.49501588291,2268
3101.165480946741,2346
3102.8353920040518,2365
3104.504748572165,2439
3106.1735501674693,2398
3107.8417963054226,2398
3109.5094865005485,2411
3111.176620266441,2399
3112.8431971157625,2407
3114.5092165602427,2405
3116.1746781106813,2381
3117.839581276943,2420
3119.503925567965,2424
3121.167710491747,2457
3122.830935555364,2413
3124.493600264954,2408
3126.1557041257247,2342
3127.817246641952,2431
3129.478227316982,2444
3131.1386456532273,2423
3132.798501152168,2441
3134.4577933143537,2465
3136.116521639402,2548
3137.7746856259982,2489
3139.4322847718977,2455
3141.0893185739224,2419
3142.745786527962,2392
3144.4016881289754,2398
3146.0570228709903,2403
3147.711790247102,2455
3149.3659897494754,2481
3151.0196208693396,2437
3152.6726830969974,2416
3154.3251759218165,2366
3155.9770988322334,2405
3157.6284513157534,2372
3159.2792328589485,2399
3160.929442947461,2321
3162.579081066002,2476
3164.2281466983477,2462
3165.8766393273454,2401
3167.5245584349086,2380
3169.1719035020224,2449
3170.818674008735,2418
3172.4648694341677,2402
3174.110489256508,2457
3175.7555329530105,2455
3177.4000000000005,2432
3179.0438898728707,2412
3180.6872020460805,2448
3182.32993599316,2470
3183.972091186706,2536
3185.613667098384,2521
3187.254663198927,2539
3188.8950789581386,2407
3190.5349138448873,2438
3192.1741673271126,2393
3193.8128388718224,2478
3195.4509279450886,2455
3197.0884340120574,2451
3198.725356536939,2471
3200.361694983014,2415
3201.997448812629,2420
3203.632617487203,2472
3205.2672004672195,2429
3206.901197212229,2491
3208.5346071808563,2465
3210.167429830789,2395
3211.799664618785,2405
3213.4313110006706,2467
3215.0623684313387,2376
3216.692836364753,2445
3218.3227142539445,2440
3219.9520015510125,2462
3221.5806977071215,2358
3223.2088021725103,2415
3224.8363143964816,2425
3226.4632338274077,2376
3228.089559912728,2480
3229.715292098951,2409
3231.3404298316545,2432
3232.9649725554846,2452
3234.5889197141523,2477
3236.2122707504395,2413
3237.8350251061984,2446
3239.457182222345,2519
3241.0787415388677,2449
3242.6997024948187,2370
3244.3200645283223,2510
3245.9398270765696,2465
3247.558989575821,2311
3249.177551461403,2474
3250.7955121677123,2483
3252.412871128213,2465
3254.029627775437,2416
3255.6457815409867,2486
3257.2613318555286,2419
3258.876278148802,2519
3260.490619849613,2447
3262.1043563858348,2379
3263.717487184408,2441
3265.3300116713453,2309
3266.941929271725,2375
3268.5532394096917,2459
3270.1639415084646,2503
3271.7740349903233,2488
3273.383519276621,2477
3274.9923937877775,2452
3276.6006579432833,2421
3278.2083111616903,2459
3279.815352860627,2516
3281.421782456786,2461
3283.027599365927,2521
3284.632803002881,2452
3286.237392781545,2443
3287.841368114885,2420
3289.4447284149373,2387
3291.047473092801,2420
3292.649601558651,2401
3294.2511132217223,2393
3295.8520074903254,2404
3297.452283771835,2477
3299.051941472695,2426
3300.650979998417,2449
3302.2493987535827,2525
3303.8471971418403,2543
3305.4443745659064,2511
3307.0409304275654,2490
3308.636864127674,2487
3310.2321750661513,2451
3311.8268626419876,2490
3313.420926253242,2482
3315.01436529704,2377
3316.6071791695776,2459
3318.1993672661183,2434
3319.7909289809913,2400
3321.3818637075983,2446
3322.972170838406,2356
3324.561849764951,2455
3326.150899877838,2458
3327.7393205667386,2471
3329.3271112203956,2487
3330.9142712266166,2462
3332.5007999722793,2492
3334.08669684333,2528
3335.6719612247834,2444
3337.2565925007193,2478
3338.840590054291,2523
3340.4239532677157,2454
3342.006681522281,2459
3343.5887741983406,2430
3345.1702306753214,2545
3346.7510503317126,2502
3348.3312325450743,2504
3349.910776692037,2498
3351.4896821482953,2522
3353.0679482886153,2385
3354.645574486829,2467
3356.2225601158398,2386
3357.798904547615,2488
