CollectionTime,4/2/2024 11:29:48 AM
ExposureUsed,3
CalibratedSpectrum
-994.8464149364308,637
-991.9439705588344,652
-989.042830375826,643
-986.1429931109675,712
-983.2444574887519,758
-980.3472222346043,797
-977.4512860748813,701
-974.5566477368716,702
-971.6633059487953,651
-968.7712594398042,706
-965.8805069399822,679
-962.9910471803447,662
-960.1028788928387,669
-957.2160008103432,659
-954.3304116666687,694
-951.4461101965578,675
-948.5630951356844,665
-945.6813652206545,821
-942.8009191890055,791
-939.9217557792067,804
-937.0438737306594,758
-934.167271783696,750
-931.2919486795813,731
-928.4179031605115,694
-925.5451339696144,765
-922.67363985095,803
-919.8034195495097,780
-916.9344718112166,769
-914.0667953829256,782
-911.2003890124234,790
-908.3352514484286,803
-905.471381440591,764
-902.6087777394928,719
-899.7474390966474,771
-896.8873642645002,825
-894.0285519964284,748
-891.1710010467407,719
-888.3147101706776,811
-885.4596781244115,782
-882.6059036650465,727
-879.7533855506183,697
-876.9021225400943,696
-874.0521133933738,709
-871.2033568712878,710
-868.3558517355991,755
-865.509596749002,878
-862.6645906751228,887
-859.8208322785192,910
-856.9783203246812,862
-854.1370535800299,764
-851.2970308119186,730
-848.4582507886321,733
-845.620712279387,717
-842.7844140543316,733
-839.9493548845461,768
-837.1155335420422,791
-834.2829487997635,735
-831.4515994315852,792
-828.6214842123144,752
-825.7926019176898,830
-822.9649513243819,762
-820.138531209993,758
-817.3133403530569,759
-814.4893775330396,791
-811.6666415303382,778
-808.845131126282,758
-806.0248451031321,762
-803.2057822440808,691
-800.3879413332527,683
-797.5713211557038,772
-794.755920497422,814
-791.941738145327,747
-789.1287728872701,784
-786.3170235120342,828
-783.5064888093341,818
-780.6971675698165,748
-777.8890585850597,714
-775.0821606475735,830
-772.2764725507997,811
-769.4719930891118,805
-766.6687210578151,849
-763.8666552531465,966
-761.0657944722747,1104
-758.2661375133,925
-755.4676831752547,818
-752.6704302581027,763
-749.8743775627395,742
-747.0795238909925,730
-744.285868045621,777
-741.4934088303156,785
-738.702145049699,755
-735.9120755093254,849
-733.123199015681,1022
-730.3355143761836,1026
-727.5490203991826,878
-724.7637158939592,806
-721.9795996707265,794
-719.1966705406293,746
-716.4149273157439,763
-713.6343688090786,730
-710.8549938345734,720
-708.0768012070998,720
-705.2997897424614,776
-702.5239582573931,802
-699.7493055695622,859
-696.9758304975669,841
-694.2035318609377,847
-691.4324084801367,835
-688.6624591765578,792
-685.8936827725265,845
-683.1260780913001,820
-680.3596439570675,855
-677.5943791949499,802
-674.8302826309991,790
-672.0673530922,782
-669.3055894064685,833
-666.5449904026519,874
-663.78555491053,808
-661.0272817608139,819
-658.2701697851465,841
-655.5142178161026,908
-652.7594246871884,907
-650.0057892328422,865
-647.2533102884337,794
-644.5019866902646,838
-641.7518172755683,815
-639.0028008825099,780
-636.254936350186,901
-633.5082225186254,901
-630.7626582287882,844
-628.0182423225665,844
-625.2749736427841,847
-622.5328510331965,909
-619.7918733384909,1004
-617.0520394042862,935
-614.3133480771331,925
-611.5757982045143,950
-608.8393886348437,1019
-606.1041182174672,984
-603.3699858026625,950
-600.6369902416393,950
-597.9051303865383,1019
-595.1744050904326,1108
-592.4448132073267,1093
-589.7163535921568,1154
-586.9890251007912,1015
-584.2628265900296,912
-581.5377569176036,992
-578.8138149421764,1008
-576.090999523343,997
-573.3693095216302,912
-570.6487437984965,1023
-567.9293012163321,1034
-565.210980638459,1100
-562.4937809291307,1013
-559.7777009535329,1006
-557.0627395777825,1058
-554.3488956689287,1028
-551.6361680949519,1019
-548.9245557247644,1152
-546.2140574282107,1202
-543.5046720760662,1219
-540.7963985400388,1081
-538.0892356927677,1136
-535.3831824078238,1224
-532.6782375597103,1389
-529.9744000238613,1484
-527.2716686766433,1464
-524.5700423953542,1601
-521.8695200582238,1597
-519.1701005444136,1479
-516.4717827340166,1515
-513.7745655080581,1620
-511.0784477484944,1736
-508.38342833821423,1941
-505.68950616103757,2082
-502.9966801017163,2243
-500.3049490459341,2428
-497.61431188030633,2219
-494.9247674923801,1869
-492.2363147706342,1641
-489.54895260447927,1554
-486.86267988425755,1497
-484.1774955012431,1545
-481.4933983476417,1588
-478.8103873165908,1427
-476.1284613021596,1333
-473.44761919934945,1290
-470.7678599040928,1274
-468.089182313254,1393
-465.4115853246294,1355
-462.735067836947,1469
-460.0596287498663,1442
-457.3852669639789,1151
-454.71198138080774,1040
-452.03977090280773,1127
-449.3686344333656,1098
-446.69857087679964,1261
-444.02957913835996,1365
-441.36165812422837,1304
-438.6948067415183,1368
-436.0290238982752,1306
-433.36430850347597,1227
-430.7006594670296,1297
-428.0380756997763,1273
-425.3765561134885,1305
-422.7160996208702,1240
-420.0567051355571,1299
-417.3983715721164,1298
-414.7410978460475,1251
-412.08488287378145,1412
-409.4297255726806,1419
-406.77562486103955,1278
-404.1225796580843,1203
-401.4705888839728,1057
-398.8196514597947,1092
-396.1697663075713,1279
-393.5209323502555,1103
-390.8731485117323,915
-388.22641371681823,866
-385.5807268912615,1080
-382.93608696174226,1028
-380.29249285587207,865
-377.64994350219456,811
-375.0084378301849,857
-372.36797477025016,837
-369.7285532537287,967
-367.0901722128914,879
-364.45283058094014,794
-361.8165272920089,875
-359.1812612811634,799
-356.54703148440103,649
-353.9138368386507,688
-351.28167628177346,798
-348.6505487525617,927
-346.02045319074,802
-343.3913885369643,806
-340.76335373282245,836
-338.1363477208339,839
-335.5103694444499,870
-332.8854178480535,974
-330.26149187695944,1083
-327.63859047741425,890
-325.016712596596,792
-322.3958571826148,822
-319.77602318451227,927
-317.15720955226186,862
-314.5394152367686,846
-311.9226391898695,801
-309.3068803643333,859
-306.69213771386023,1082
-304.0784101930824,1235
-301.4656967575635,1142
-298.8539963637994,1049
-296.2433079692172,1149
-293.6336305321761,1136
-291.02496301196675,1103
-288.41730436881176,1190
-285.81065356386534,1052
-283.2050095592135,1033
-280.60037131787396,1599
-277.9967378037961,1923
-275.39410798186134,1504
-272.7924808178824,1420
-270.19185527860407,1317
-267.5922303317028,1326
-264.9936049457866,1532
-262.3959780903955,1468
-259.79934873600087,1543
-257.2037158540064,1499
-254.6090784167469,1475
-252.01543539748934,1719
-249.42278577043237,1246
-246.8311285107061,1228
-244.24046259437262,1353
-241.6507869984256,1310
-239.0621007007909,1276
-236.4744026803254,1339
-233.88769191681808,1435
-231.30196739098994,1407
-228.7172280844934,1259
-226.13347297991243,1322
-223.550701060763,1417
-220.9689113114929,1258
-218.3881027174814,1181
-215.8082742650397,1456
-213.22942494141068,1991
-210.65155373476898,2374
-208.07465963422078,1981
-205.49874162980439,1922
-202.92379871248932,1939
-200.34982987417743,1749
-197.7768341077018,1560
-195.20481040682762,1427
-192.63375776625162,1327
-190.0636751816021,1519
-187.49456164943945,1575
-184.92641616725564,1635
-182.3592377334743,1706
-179.79302534745102,2071
-177.2277780094729,2209
-174.66349472075865,1933
-172.10017448345923,2049
-169.5378163006569,2124
-166.97641917636565,1926
-164.41598211553162,2055
-161.8565041240322,2515
-159.29798420867678,2298
-156.74042137720642,2410
-154.18381463829382,2613
-151.6281630015436,2292
-149.07346547749228,1963
-146.51972107760753,1943
-143.96692881428908,2340
-141.41508770086864,2565
-138.86419675160937,2279
-136.31425498170609,2059
-133.7652614072856,2048
-131.21721504540642,2147
-128.67011491405844,2461
-126.12396003216395,3325
-123.57874941957618,3800
-121.03448209708074,3183
-118.49115708639465,2897
-115.94877341016684,3292
-113.40733009197788,3269
-110.86682615633993,3176
-108.32726062869733,3284
-105.78863253542556,4402
-103.25094090383243,5864
-100.71418476215695,5081
-98.17836313957025,4470
-95.64347506617503,3721
-93.10951957300585,3754
-90.57649569202886,4113
-88.04440245614194,3849
-85.51323889917478,4058
-82.98300405588896,5117
-80.45369696197747,6688
-77.925316654065,8409
-75.39786216970867,10521
-72.87133254739649,13213
-70.34572682654857,16179
-67.82104404751692,20773
-65.29728325158499,27790
-62.774443480968216,38182
-60.252523778813384,42804
-57.73152318919938,48153
-55.21144075713676,47473
-52.69227552856796,40227
-50.17402655036665,37759
-47.65669287033859,34663
-45.14027353722133,27078
-42.624767600684095,29277
-40.11017411132775,35631
-37.59649212068507,42668
-35.08372068122037,48434
-32.57185884632963,53078
-30.06090567034107,50523
-27.550860208513996,53462
-25.04172151704006,61149
-22.533488653042014,65042
-20.02616067457484,65042
-17.51973664062507,65042
-15.014215611111126,65042
-12.509596646882983,65042
-10.005878809722162,65042
-7.503061162342419,65042
-5.001142768389059,65042
-2.5001226924387083,65042
-3.410605131648481E-13,65042
2.49922624248552,65042
4.997556967646801,65042
7.494993107179766,65042
9.99153559184856,65042
12.487185351485778,65042
14.98194331499235,65042
17.475810410337544,65042
19.96878756455851,65042
22.46087570376085,65042
24.952075753118834,65042
27.442388636874625,28027
29.93181527833849,9655
32.42035659988892,8396
34.90801352297353,12556
37.39478696810693,11505
39.880677854873056,10808
42.36568710192364,9511
44.8498156269784,11937
47.33306434682618,10615
49.815434177322686,9680
52.296926033393675,9619
54.77754082903198,9431
57.25727947729865,10715
59.736142890323435,9703
62.214131979304284,6073
64.6912476545076,5131
67.16749082526735,4495
69.64286239998614,3976
72.11736328613551,3903
74.59099439025431,4246
77.06375661794982,5025
79.53565087389825,4467
82.0066780618431,4613
84.4768390845968,4590
86.94613484403999,5197
89.41456624112152,6933
91.88213417585825,5878
94.34883954733527,4250
96.81468325370679,4132
99.2796661921941,3173
101.74378925908763,3904
104.20705334974559,4447
106.66945935859462,4603
109.1310081791296,4187
111.59170070391383,4367
114.05153782457865,4069
116.5105204318238,3431
118.96864941541708,4006
121.42592566419489,5052
123.88235006606146,4380
126.3379235079899,3408
128.79264687602085,3503
131.2465210552641,4000
133.69954692989631,3486
136.15172538316415,3446
138.60305729738116,3158
141.05354355393,2952
143.50318503326116,2983
145.95198261489327,2842
148.39993717741368,2915
150.84704959847772,3587
153.29332075480897,4037
155.73875152219944,3756
158.18334277550935,3265
160.62709538866693,2946
163.0700102346691,2863
165.51208818558075,3088
167.953330112535,3237
170.39373688573346,3121
172.8333093744459,3321
175.2720484470101,3257
177.70995497083277,3221
180.14702981238815,3565
182.58327383721917,3545
185.01868790993672,3481
187.45327289422062,3295
189.88702965281777,3319
192.31995904754444,3470
194.75206193928489,3622
197.18333918799135,3266
199.61379165268454,3036
202.04342019145315,3031
204.4722256614548,3266
206.90020891891436,3627
209.32737081912592,3601
211.7537122164515,3529
214.17923396432116,3441
216.6039369152336,3406
219.0278219207553,3320
221.45088983152186,3474
223.8731414972358,3377
226.29457776666914,3375
228.71519948766172,3324
231.1350075071216,3669
233.55400267102482,3638
235.97218582441633,3634
238.38955781140908,3527
240.806119475184,3731
243.2218716579905,3645
245.6368152011462,3344
248.05095094503736,3508
250.46427972911806,3470
252.87680239191036,3578
255.28851977100544,3861
257.69943270306203,3717
260.10954202380753,3392
262.5188485680378,3394
264.92735316961557,3603
267.33505666147425,3541
269.7419598756128,3536
272.14806364310084,3740
274.5533687940747,3374
276.95787615773975,3187
279.361586562369,3157
281.7645008353045,3183
284.1666198029559,3413
286.5679442908013,3497
288.96847512338695,3481
291.3682131243279,3397
293.7671591163071,3397
296.1653139210757,3449
298.562678359453,3340
300.9592532513268,3386
303.3550394156532,3314
305.75003767045655,3145
308.14424883282936,3266
310.53767371893196,3223
312.93031314399377,3228
315.3221679223125,3104
317.71323886725304,3282
320.1035267912496,3088
322.49303250580397,2977
324.881756821487,2942
327.2697005479374,2954
329.65686449386135,3038
332.0432494670347,2895
334.4288562743004,3046
336.81368572157066,2922
339.19773861382487,2896
341.58101575511205,2771
343.96351794854786,2747
346.3452459963173,2687
348.72620069967365,2756
351.1063828589379,2902
353.48579327349967,2875
355.8644327418169,2848
358.24230206141533,2828
360.6194020288899,2700
362.99573343990255,2642
365.3712970891845,2598
367.7460937705348,2650
370.12012427682066,2677
372.493389399978,2716
374.86588993101077,2615
377.23762665999084,2604
379.6086003760588,2533
381.9788118674235,2555
384.34826192136165,2704
386.7169513242188,2543
389.08488086140824,2641
391.4520513174118,2635
393.8184634757795,2773
396.1841181191296,2830
398.54901602914856,2702
400.9131579865916,2644
403.2765447712811,2816
405.63917716210926,2847
408.00105593703483,2746
410.36218187308646,2611
412.7225557463596,2544
415.0821783320191,2484
417.4410504042976,2539
419.79917273649585,2556
422.1565461009834,2636
424.5131712691973,2518
426.869049011643,2576
429.22418009789544,2564
431.578565296596,2446
433.9322053754556,2398
436.28510110125285,2347
438.6372532398352,2367
440.98866255611733,2415
443.33932981408293,2470
445.6892557767842,2487
448.0384412063411,2446
450.38688686394175,2621
452.7345935098431,2563
455.0815619033697,2497
457.42779280291506,2530
459.7732869659403,2588
462.1180451489754,2644
464.4620681076178,2699
466.80535659653424,2550
469.1479113694588,2583
471.48973317919445,2535
473.8308227776122,2763
476.17118091565135,2821
478.51080834331924,2915
480.8497058096914,2826
483.1878740629122,3171
485.5253138501944,3198
487.8620259178176,3332
490.1980110111317,3870
492.53326987455307,3988
494.86780325156724,4155
497.201611884728,4124
499.53469651565683,4276
501.8670578850447,4079
504.1986967326493,4027
506.52961379729754,3842
508.85980981688454,3630
511.18928552837315,3398
513.5180416677952,3342
515.8460789702503,3654
518.1733981699067,4265
520.5,5099
522.8258851928354,5480
525.1510544797857,5169
527.4755085912916,4546
529.7992482568625,4080
532.1222742050759,3307
534.4445871635783,2770
536.766187859083,2540
539.0870770173726,2433
541.4072553632982,2315
543.7267236207783,2319
546.0454825128002,2341
548.363532761419,2391
550.6808750877592,2392
552.9975102120118,2366
555.3134388534377,2400
557.6286617303654,2305
559.9431795601911,2355
562.2569930593802,2334
564.570102943466,2359
566.88250992705,2397
569.1942147238021,2279
571.5052180464602,2286
573.8155206068309,2320
576.1251231157885,2444
578.4340262832759,2326
580.7422308183045,2291
583.0497374289534,2315
585.3565468223703,2271
587.6626597047714,2224
589.9680767814409,2221
592.2727987567309,2202
594.5768263340624,2326
596.8801602159238,2303
599.1828011038731,2210
601.4847496985356,2336
603.7860066996047,2172
606.0865728058427,2221
608.3864487150802,2220
610.6856351242152,2173
612.9841327292149,2194
615.2819422251141,2222
617.5790643060163,2155
619.8754996650935,2190
622.1712489945849,2220
624.466312985799,2287
626.7606923291121,2254
629.0543877139692,2378
631.347399828883,2333
633.6397293614343,2247
635.9313769982732,2253
638.2223434251173,2225
640.5126293267522,2296
642.8022353870326,2256
645.0911622888809,2198
647.3794107142876,2226
649.666981344312,2282
651.9538748590815,2241
654.2400919377915,2337
656.525633258706,2344
658.8104994991568,2405
661.0946913355442,2424
663.3782094433375,2304
665.6610544970729,2304
667.9432271703561,2338
670.22472813586,2333
672.5055580653268,2426
674.7857176295659,2326
677.065207498456,2270
679.3440283409432,2302
681.6221808250425,2233
683.899665617837,2267
686.1764833854772,2247
688.4526347931837,2359
690.7281205052436,2292
693.0029411850135,2279
695.2770974949171,2314
697.5505900964474,2308
699.8234196501651,2276
702.0955868156989,2261
704.3670922517472,2255
706.6379366160747,2189
708.9081205655159,2287
711.1776447559728,2258
713.4465098424155,2236
715.714716478883,2309
717.9822653184822,2324
720.2491570133882,2296
722.5153922148452,2279
724.7809715731639,2327
727.0458957377248,2199
729.3101653569763,2189
731.5737810784346,2300
733.8367435486853,2204
736.0990534133803,2309
738.3607113172418,2407
740.6217179040591,2255
742.8820738166899,2354
745.1417796970607,2282
747.4008361861659,2272
749.6592439240678,2413
751.9170035498973,2397
754.1741157018539,2476
756.4305810172048,2365
758.686400132286,2305
760.9415736825013,2395
763.196102302323,2424
765.4499866252911,2427
767.7032272840152,2421
769.9558249101717,2436
772.207780134506,2374
774.4590935868323,2491
776.7097658960313,2623
778.9597976900541,2542
781.2091895959184,2433
783.457942239711,2345
785.7060562465867,2328
787.9535322407687,2423
790.2003708455488,2372
792.4465726832861,2448
794.6921383754088,2441
796.9370685424128,2528
799.1813638038632,2494
801.4250247783918,2441
803.6680520837006,2447
805.9104463365579,2376
808.1522081528019,2334
810.393338147338,2422
812.6338369341406,2357
814.8737051262517,2322
817.1129433357819,2326
819.35155217391,2353
821.5895322508834,2369
823.8268841760168,2389
826.0636085576946,2362
828.2997060033681,2390
830.535177119558,2272
832.7700225118522,2300
835.0042427849078,2325
837.2378385424493,2394
839.4708103872701,2398
841.7031589212318,2350
843.9348847452643,2407
846.1659884593648,2449
848.3964706626004,2396
850.6263319531054,2324
852.8555729280824,2398
855.0841941838025,2329
857.3121963156052,2419
859.5395799178978,2339
861.7663455841566,2488
863.9924939069251,2456
866.2180254778159,2477
868.4429408875103,2559
870.6672407257561,2459
872.890925581371,2524
875.1139960422404,2465
877.336452695318,2378
879.5582961266261,2467
881.7795269212543,2522
884.0001456633613,2559
886.2201529361741,2569
888.4395493219874,2621
890.6583354021648,2659
892.8765117571375,2456
895.094078966405,2449
897.3110376085365,2399
899.5273882611671,2512
901.7431315010019,2470
903.958267903814,2408
906.1727980444443,2425
908.3867224968019,2349
910.6000418338647,2372
912.8127566276792,2376
915.0248674493587,2400
917.2363748690857,2437
919.4472794561113,2398
921.6575817787543,2382
923.867282404402,2290
926.0763818995099,2292
928.2848808296014,2280
930.4927797592693,2275
932.700079252173,2369
934.9067798710416,2272
937.112882177672,2281
939.3183867329287,2316
941.5232940967453,2215
943.727604828124,2271
945.9313194851336,2212
948.1344386249132,2290
950.3369628036685,2329
952.5388925766747,2222
954.7402284982745,2234
956.9409711218789,2210
959.1411209999676,2213
961.3406786840883,2195
963.5396447248565,2205
965.7380196719573,2236
967.9358040741427,2343
970.1329984792335,2245
972.3296034341188,2149
974.5256194847555,2198
976.72104717617,2163
978.9158870524552,2194
981.1101396567742,2145
983.3038055313566,2235
985.4968852175009,2222
987.6893792555747,2168
989.8812881850124,2210
992.072612544318,2199
994.263352871063,2153
996.453509701887,2148
998.6430835724984,2176
1000.832075017674,2038
1003.0204845712583,2055
1005.208312766164,2028
1007.3955601343728,1996
1009.5822272069338,2005
1011.7683145139652,1982
1013.9538225846525,2004
1016.1387519472505,1980
1018.3231031290818,2043
1020.5068766565371,2005
1022.6900730550753,2001
1024.872692849224,2038
1027.054736562579,1936
1029.2362047178037,1933
1031.4170978366305,1995
1033.5974164398597,1956
1035.7771610473603,1910
1037.9563321780693,1966
1040.1349303499917,1880
1042.3129560802006,1921
1044.490409884838,1880
1046.667292279115,1898
1048.8436037773079,1806
1051.0193448927644,1900
1053.1945161378994,1889
1055.3691180241954,1973
1057.5431510622038,1927
1059.7166157615447,1913
1061.8895126309053,1912
1064.0618421780423,1905
1066.2336049097798,1922
1068.4048013320107,1894
1070.5754319496955,1853
1072.745497266863,1822
1074.9149977866118,1875
1077.0839340111065,1844
1079.2523064415818,1854
1081.4201155783398,1850
1083.587361920751,1749
1085.7540459672537,1799
1087.9201682153553,1817
1090.0857291616308,1843
1092.2507293017238,1849
1094.4151691303464,1770
1096.579049141279,1781
1098.7423698273687,1819
1100.9051316805335,1790
1103.0673351917571,1779
1105.2289808510936,1800
1107.3900691476633,1855
1109.550600569657,1859
1111.710575604332,1891
1113.8699947380146,1834
1116.028858456099,1849
1118.1871672430489,1809
1120.344921582394,1809
1122.5021219567334,1881
1124.6587688477362,1792
1126.8148627361365,1817
1128.9704041017399,1860
1131.1253934234173,1856
1133.2798311791098,1774
1135.4337178458263,1850
1137.5870538996437,1808
1139.7398398157075,1777
1141.8920760682313,1796
1144.0437631304972,1836
1146.1949014748543,1787
1148.3454915727225,1778
1150.4955338945874,1809
1152.6450289100044,1809
1154.7939770875969,1862
1156.9423788950558,1811
1159.0902347991405,1767
1161.2375452656802,1828
1163.3843107595703,1827
1165.530531744775,1832
1167.6762086843282,1793
1169.8213420403304,1782
1171.9659322739503,1785
1174.1099798454266,1746
1176.2534852140639,1704
1178.3964488382376,1779
1180.538871175389,1818
1182.680752682029,1802
1184.8220938137365,1851
1186.9628950251595,1746
1189.103156770012,1726
1191.2428795010783,1769
1193.3820636702108,1766
1195.5207097283287,1786
1197.6588181254215,1676
1199.7963893105457,1772
1201.9334237318253,1762
1204.0699218364548,1786
1206.2058840706954,1792
1208.3413108798773,1769
1210.476202708397,1819
1212.6105599997222,1807
1214.7443831963874,1771
1216.877672739995,1655
1219.0104290712165,1740
1221.1426526297905,1870
1223.2743438545253,1879
1225.4055031832972,1801
1227.5361310530493,1808
1229.6662278997946,1809
1231.7957941586142,1766
1233.9248302636565,1748
1236.053336648139,1772
1238.1813137443464,1724
1240.3087619836338,1824
1242.4356817964222,1796
1244.5620736122019,1735
1246.6879378595318,1745
1248.813274966039,1704
1250.938085358418,1652
1253.062369462432,1785
1255.186127702913,1798
1257.3093605037611,1725
1259.4320682879434,1741
1261.554251477498,1779
1263.6759104935277,1696
1265.797045756206,1818
1267.9176576847744,1797
1270.0377466975428,1783
1272.1573132118879,1809
1274.2763576442567,1827
1276.394880410162,1836
1278.5128819241877,1771
1280.6303625999835,1766
1282.7473228502695,1780
1284.8637630868325,1822
1286.9796837205272,1784
1289.0950851612783,1798
1291.209967818078,1849
1293.3243320989864,1876
1295.4381784111324,1920
1297.551507160712,1898
1299.6643187529912,1921
1301.776613592303,1801
1303.888392082049,1856
1305.9996546246998,1893
1308.1104016217923,1813
1310.220633473934,1750
1312.3303505807999,1890
1314.4395533411316,1869
1316.5482421527418,1854
1318.6564174125092,1873
1320.7640795163816,1834
1322.8712288593752,1911
1324.9778658355744,1861
1327.0839908381313,1876
1329.1896042592675,1911
1331.2947064902714,1809
1333.3992979215009,1801
1335.503378942381,1876
1337.6069499414057,1909
1339.7100113061383,1806
1341.8125634232074,1875
1343.9146066783128,1811
1346.0161414562212,1832
1348.1171681407677,1804
1350.2176871148563,1870
1352.3176987604575,1897
1354.4172034586127,1841
1356.5162015894289,1825
1358.6146935320835,1881
1360.7126796648213,1856
1362.8101603649548,1813
1364.9071360088656,1802
1367.0036069720036,1804
1369.099573628886,1758
1371.195036353099,1864
1373.2899955172975,1959
1375.3844514932039,1875
1377.4784046516088,1815
1379.5718553623715,1838
1381.6648039944193,1795
1383.7572509157485,1872
1385.8491964934224,1813
1387.9406410935735,1834
1390.0315850814022,1891
1392.122028821177,1860
1394.2119726762357,1898
1396.3014170089828,1877
1398.3903621808918,1842
1400.4788085525051,1855
1402.566756483432,1831
1404.6542063323514,1811
1406.7411584570095,1892
1408.8276132142219,1870
1410.9135709598704,1786
1412.9990320489078,1837
1415.083996835353,1802
1417.1684656722937,1835
1419.2524389118867,1826
1421.3359169053565,1794
1423.4189000029946,1887
1425.5013885541634,1809
1427.5833829072913,1761
1429.664883409876,1825
1431.7458904084833,1807
1433.8264042487467,1866
1435.9064252753697,1769
1437.9859538321216,1808
1440.0649902618416,1805
1442.1435349064373,1801
1444.2215881068837,1820
1446.2991502032237,1895
1448.37622153457,1913
1450.452802439103,1842
1452.5288932540698,1784
1454.604494315788,1921
1456.6796059596427,1928
1458.7542285200866,1864
1460.8283623306415,1853
1462.902007723897,1802
1464.9751650315106,1856
1467.0478345842089,1950
1469.1200167117868,1868
1471.1917117431062,1841
1473.2629200060992,1849
1475.333641827764,1903
1477.4038775341692,1842
1479.4736274504498,1871
1481.5428919008104,1887
1483.6116712085222,1965
1485.6799656959279,1883
1487.7477756844346,1874
1489.8151014945201,1860
1491.88194344573,1921
1493.9483018566775,1880
1496.0141770450455,1895
1498.0795693275822,1823
1500.1444790201076,1848
1502.2089064375086,1801
1504.2728518937402,1831
1506.3363157018239,1948
1508.3992981738534,1858
1510.4617996209872,1825
1512.5238203534536,1898
1514.5853606805495,1914
1516.6464209106384,1867
1518.7070013511543,1907
1520.7671023085973,1863
1522.8267240885375,1861
1524.885866995612,1852
1526.9445313335268,1907
1529.002717405056,1887
1531.0604255120425,1950
1533.1176559553965,1976
1535.1744090350971,1954
1537.2306850501914,1874
1539.2864842987956,1932
1541.3418070780922,1860
1543.396653684334,1887
1545.4510244128405,1952
1547.5049195580013,1909
1549.5583394132727,1906
1551.61128427118,1886
1553.6637544233158,1898
1555.7157501603415,1901
1557.7672717719888,1906
1559.8183195470538,1971
1561.8688937734037,1934
1563.9189947379737,1938
1565.9686227267657,1923
1568.0177780248514,1955
1570.0664609163696,1951
1572.1146716845292,1999
1574.162410611605,1967
1576.2096779789413,1936
1578.2564740669518,1876
1580.3027991551157,1935
1582.3486535219831,1854
1584.3940374451709,1909
1586.4389512013645,1885
1588.4833950663178,1957
1590.5273693148533,1920
1592.5708742208603,1855
1594.6139100572982,2008
1596.6564770961936,1909
1598.698575608642,1867
1600.7402058648063,1840
1602.7813681339185,1945
1604.8220626842776,1901
1606.8622897832533,1905
1608.9020496972812,1966
1610.9413426918663,1886
1612.9801690315808,1941
1615.018528980066,1930
1617.056422800033,1933
1619.0938507532578,1896
1621.1308131005876,1883
1623.1673101019355,1970
1625.2033420162848,1889
1627.2389091016862,1930
1629.274011615259,1909
1631.3086498131897,1960
1633.3428239507352,1921
1635.376534282219,1839
1637.4097810610324,1948
1639.4425645396364,1962
1641.4748849695593,1938
1643.5067426013989,1948
1645.53813768482,1918
1647.5690704685549,1931
1649.5995412004067,1953
1651.6295501272452,1906
1653.6590974950086,1934
1655.6881835487025,1956
1657.7168085324029,1933
1659.7449726892523,1940
1661.772676261462,1878
1663.7999194903114,1955
1665.8267026161484,1872
1667.8530258783894,1962
1669.8788895155185,1955
1671.9042937650888,1869
1673.9292388637205,1858
1675.953725047103,1919
1677.977752549994,1865
1680.0013216062184,1874
1682.0244324486712,1835
1684.0470853093134,1878
1686.0692804191767,1955
1688.0910180083588,1911
1690.1122983060268,1918
1692.1331215404175,1902
1694.1534879388319,1878
1696.173397727644,1942
1698.1928511322926,1848
1700.211848377286,1953
1702.2303896862018,1967
1704.248475281684,1990
1706.2661053854458,1915
1708.2832802182684,1878
1710.300000000002,1976
1712.3162649495644,1963
1714.3320752849409,1854
1716.3474312231865,1917
1718.362332980424,1906
1720.376780771845,1875
1722.3907748117072,1864
1724.4043153133393,1907
1726.4174024891367,1934
1728.4300365505628,1935
1730.442217708151,1929
1732.4539461715008,1916
1734.465222149282,1929
1736.4760458492306,1911
1738.4864174781524,1902
1740.496337241921,1921
1742.5058053454786,1934
1744.5148219928346,1915
1746.523387387068,1983
1748.531501730325,1946
1750.5391652238209,1884
1752.5463780678388,1962
1754.55314046173,2026
1756.5594526039135,1911
1758.565314691879,1925
1760.5707269221812,1943
1762.5756894904443,1929
1764.580202591363,2000
1766.5842664186966,1980
1768.5878811652751,2026
1770.591047022996,1990
1772.593764182825,1947
1774.5960328347965,1973
1776.5978531680116,1903
1778.5992253706427,1927
1780.6001496299273,2000
1782.6006261321731,1917
1784.6006550627553,1918
1786.6002366061175,1965
1788.5993709457725,1883
1790.5980582642992,1881
1792.5962987433468,1914
1794.5940925636314,1945
1796.5914399049389,1997
1798.5883409461221,1956
1800.584795865102,1890
1802.580804838869,1941
1804.5763680434807,1872
1806.571485654064,1927
1808.566157844813,1914
1810.5603847889902,1970
1812.5541666589274,1963
1814.5475036260236,1945
1816.5403958607467,1987
1818.5328435326323,2003
1820.5248468102845,1905
1822.5164058613755,1989
1824.5075208526468,1938
1826.4981919499064,1958
1828.488419318032,1947
1830.4782031209684,1938
1832.4675435217305,1939
1834.4564406823993,1942
1836.4448947641258,1901
1838.432905927128,2017
1840.4204743306927,2013
1842.4076001331746,1970
1844.3942834919985,1975
1846.380524563654,1950
1848.366323503702,1924
1850.351680466771,1981
1852.3365956065563,1924
1854.3210690758228,1997
1856.3051010264044,2003
1858.2886916092007,1947
1860.271840974182,1943
1862.2545492703862,1962
1864.2368166459191,1960
1866.2186432479543,1995
1868.2000292227349,1953
1870.1809747155717,1978
1872.1614798708429,2000
1874.1415448319963,2010
1876.1211697415474,2008
1878.1003547410805,1950
1880.0790999712472,1970
1882.0574055717675,1960
1884.0352716814305,2048
1886.0126984380927,1999
1887.989685978679,1946
1889.9662344391836,1985
1891.9423439546672,1935
1893.9180146592607,2003
1895.893246686161,1996
1897.868040167636,1971
1899.8423952350195,2088
1901.8163120187137,2029
1903.7897906481917,1994
1905.7628312519923,2011
1907.7354339577219,1999
1909.7075988920578,2011
1911.6793261807447,2005
1913.6506159485943,2054
1915.6214683194871,2072
1917.5918834163726,2014
1919.5618613612687,1947
1921.5314022752605,1874
1923.5005062785012,1995
1925.4691734902144,2005
1927.4374040286893,1986
1929.4051980112845,2011
1931.3725555544274,2035
1933.3394767736136,2010
1935.305961783406,1982
1937.2720106974361,1970
1939.237623628404,1994
1941.2028006880778,2013
1943.167541987295,2055
1945.1318476359588,1979
1947.0957177430432,2051
1949.0591524165898,2061
1951.0221517637078,2023
1952.984715890574,1926
1954.9468449024357,1992
1956.9085389036072,1993
1958.8697979974704,2008
1960.8306222864767,1980
1962.7910118721456,1999
1964.7509668550638,1994
1966.7104873348871,1995
1968.6695734103387,2078
1970.6282251792127,1989
1972.586442738368,1998
1974.5442261837343,2008
1976.501575610307,2046
1978.4584911121533,1996
1980.4149727824056,2038
1982.3710207132658,2054
1984.326634996004,2041
1986.2818157209585,2014
1988.2365629775359,2061
1990.1908768542116,2142
1992.144757438527,2087
1994.0982048170954,1922
1996.0512190755953,2006
1998.0038002987749,2035
1999.95594857045,2054
2001.9076639735054,1986
2003.8589465898945,2039
2005.8097965006368,2105
2007.760213785822,1990
2009.7101985246077,1973
2011.6597507952201,2057
2013.6088706749524,2032
2015.5575582401675,2033
2017.5058135662953,2081
2019.4536367278351,1941
2021.4010277983534,2008
2023.347986850486,2087
2025.2945139559365,2036
2027.2406091854768,2081
2029.1862726089462,2158
2031.1315042952538,2061
2033.0763043123766,1989
2035.0206727273585,2016
2036.964609606313,2014
2038.908115014422,2039
2040.8511890159348,1993
2042.7938316741693,2130
2044.7360430515123,2069
2046.677823209417,2053
2048.6191722084077,2068
2050.5600901080743,2016
2052.5005769670765,2068
2054.440632843142,2035
2056.380257793066,2056
2058.3194518727128,2017
2060.258215137015,2045
2062.1965476399732,2062
2064.1344494346554,1966
2066.0719205732,2005
2068.008961106812,2062
2069.945571085764,2141
2071.8817505593997,2012
2073.817499576128,2063
2075.7528181834273,2003
2077.6877064278447,2021
2079.622164354995,2094
2081.556192009562,2010
2083.4897894352966,2002
2085.4229566750187,2084
2087.355693770616,2064
2089.2880007630456,2095
2091.219877692331,2095
2093.151324597566,2049
2095.0823415169107,2096
2097.012928487595,2019
2098.9430855459173,2033
2100.872812727242,2064
2102.8021100660035,2050
2104.730977595705,2094
2106.659415348917,2124
2108.5874233572777,2111
2110.5150016514945,2126
2112.442150261343,2131
2114.3688692156675,2002
2116.2951585423793,2073
2118.2210182684585,2049
2120.146448419954,2008
2122.0714490219825,2045
2123.9960200987293,1999
2125.920161673447,2138
2127.843873768458,2091
2129.767156405151,2032
2131.690009603985,2095
2133.612433384486,2057
2135.534427765249,2062
2137.4559927639366,2113
2139.37712839728,2072
2141.2978346810783,2082
2143.2181116301995,2112
2145.1379592585795,2148
2147.057377579222,2086
2148.9763666042,2048
2150.894926344655,1999
2152.813056810794,2052
2154.730758011896,2103
2156.648029956306,2109
2158.564872651437,2064
2160.481286103772,2091
2162.397270318861,2115
2164.312825301323,2023
2166.227951054844,2077
2168.14264758218,2070
2170.056914885153,2072
2171.9707529646566,2059
2173.8841618206484,2077
2175.7971414521585,2004
2177.7096918572825,2101
2179.621813033186,2051
2181.5335049761,2022
2183.444767681327,2068
2185.355601143236,2168
2187.2660053552654,2160
2189.1759803099208,2071
2191.085525998777,2099
2192.994642412475,2074
2194.903329540727,2078
2196.811587372312,2120
2198.7194158950765,2060
2200.626815095937,2145
2202.5337849608763,2010
2204.440325474948,2100
2206.346436622271,2112
2208.2521183860345,2065
2210.157370748496,2075
2212.0621936909793,2115
2213.966587193879,2156
2215.8705512366573,2077
2217.774085797842,2026
2219.677190855033,2075
2221.579866384897,2064
2223.4821123631677,2018
2225.3839287646483,2056
2227.2853155632106,2117
2229.186272731794,2097
2231.0868002424063,2172
2232.986898066123,2090
2234.8865661730892,2071
2236.785804532517,2075
2238.6846131126877,2081
2240.5829918809495,2077
2242.4809408037213,2042
2244.3784598464877,2066
2246.275548973803,2160
2248.172208149288,2044
2250.0684373356357,2091
2251.964236494603,2118
2253.859605587017,2137
2255.7545445727733,2059
2257.6490534108357,2101
2259.5431320592356,2104
2261.436780475073,2116
2263.329998614516,2070
2265.222786432802,2054
2267.1151438842344,2083
2269.0070709221877,2071
2270.8985674991022,2111
2272.789633566488,2063
2274.6802690749237,1995
2276.570473974053,2039
2278.4602482125933,2108
2280.3495917383257,2107
2282.238504498101,2096
2284.1269864378387,2121
2286.0150375025264,2094
2287.9026576362203,2176
2289.789846782043,2039
2291.6766048821873,2115
2293.5629318779147,2095
2295.4488277095534,2110
2297.3342923164996,2128
2299.2193256372193,2062
2301.1039276092465,2115
2302.9880981691817,2077
2304.871837252696,2139
2306.755144794528,2149
2308.6380207284838,2155
2310.5204649874386,2138
2312.4024775033354,2184
2314.2840582071854,2174
2316.165207029068,2120
2318.0459238981325,2035
2319.926208742594,2120
2321.8060614897363,2174
2323.6854820659137,2105
2325.5644703965463,2144
2327.443026406124,2188
2329.321150018203,2196
2331.1988411554107,2119
2333.0760997394395,2163
2334.952925691053,2099
2336.829318930082,2154
2338.705279375424,2154
2340.5808069450477,2109
2342.4559015559867,2176
2344.3305631243456,2152
2346.204791565297,2143
2348.07858679308,2104
2349.9519487210027,2116
2351.824877261443,2123
2353.6973723258448,2114
2355.5694338247226,2123
2357.4410616676564,2171
2359.312255763297,2189
2361.1830160193617,2150
2363.053342342637,2203
2364.9232346389776,2158
2366.792692813306,2130
2368.6617167696145,2162
2370.5303064109603,2131
2372.3984616394723,2161
2374.2661823563467,2151
2376.1334684618464,2249
2378.0003198553054,2118
2379.8667364351227,2188
2381.7327180987672,2084
2383.5982647427777,2133
2385.4633762627586,2118
2387.3280525533837,2106
2389.192293508395,2151
2391.0560990206027,2106
2392.919468981885,2157
2394.782403283189,2161
2396.644901814531,2122
2398.5069644649916,2131
2400.3685911227235,2169
2402.2297816749474,2098
2404.0905360079505,2233
2405.950854007089,2148
2407.8107355567886,2158
2409.670180540541,2133
2411.529188840908,2083
2413.387760339518,2147
2415.2458949170705,2192
2417.1035924533294,2174
2418.96085282713,2140
2420.8176759163744,2166
2422.6740615980334,2055
2424.5300097481468,2131
2426.38552024182,2080
2428.24059295323,2113
2430.0952277556207,2153
2431.949424521303,2157
2433.803183121658,2155
2435.6565034271343,2183
2437.5093853072485,2195
2439.361828630585,2218
2441.213833264798,2189
2443.0653990766095,2083
2444.916525931808,2202
2446.7672136952524,2184
2448.6174622308695,2138
2450.4672714016538,2104
2452.3166410696676,2135
2454.165571096043,2169
2456.0140613409794,2174
2457.8621116637432,2139
2459.709721922672,2130
2461.556891975169,2211
2463.403621677707,2194
2465.249910885827,2192
2467.0957594541383,2118
2468.9411672363167,2216
2470.78613408511,2188
2472.630659852331,2135
2474.4747443888614,2152
2476.3183875446516,2075
2478.161589168721,2223
2480.0043491091556,2229
2481.8466672131112,2171
2483.6885433268108,2172
2485.529977295547,2169
2487.370968963678,2116
2489.2115181746335,2167
2491.0516247709097,2179
2492.891288594071,2208
2494.7305094847497,2110
2496.569287282649,2163
2498.407621826537,2164
2500.2455129542523,2119
2502.0829605027,2113
2503.919964307855,2106
2505.7565242047594,2194
2507.5926400275252,2179
2509.42831160933,2159
2511.263538782423,2216
2513.0983213781174,2241
2514.9326592267994,2203
2516.76655215792,2132
2518.5999999999995,2174
2520.4330025806275,2205
2522.2655597264607,2154
2524.0976712632237,2221
2525.9293370157097,2217
2527.760556807782,2100
2529.591330462369,2115
2531.4216578014702,2129
2533.2515386461523,2194
2535.080972816548,2282
2536.9099601318626,2300
2538.738500410366,2224
2540.5665934693993,2195
2542.3942391253695,2122
2544.221437193752,2159
2546.0481874890925,2145
2547.874489825003,2147
2549.700344014164,2204
2551.5257498683245,2177
2553.350707198304,2116
2555.175215813986,2152
2556.9992755243256,2119
2558.8228861373454,2207
2560.646047460134,2252
2562.468759298852,2174
2564.2910214587255,2283
2566.1128337440496,2194
2567.93419595819,2221
2569.7551079035757,2177
2571.5755693817077,2154
2573.395580193155,2163
2575.2151401375536,2172
2577.034249013609,2168
2578.8529066190936,2138
2580.6711127508493,2213
2582.488867204785,2138
2584.3061697758794,2112
2586.1230202581787,2238
2587.939418444797,2211
2589.7553641279183,2205
2591.570857098791,2144
2593.385897147736,2225
2595.200484064141,2238
2597.014617636461,2154
2598.8282976522214,2165
2600.6415238980126,2177
2602.454296159496,2169
2604.266614221401,2189
2606.0784778675243,2200
2607.8898868807305,2146
2609.700841042955,2215
2611.5113401351973,2187
2613.32138393753,2189
2615.13097222909,2190
2616.940104788084,2171
2618.748781391788,2216
2620.557001816543,2176
2622.364765837763,2220
2624.1720732299264,2194
2625.9789237665814,2206
2627.7853172203445,2187
2629.5912533629,2233
2631.396731965001,2147
2633.2017527964676,2223
2635.0063156261904,2141
2636.810420222126,2163
2638.614066351301,2223
2640.417253779809,2163
2642.219982272813,2226
2644.022251594542,2217
2645.8240615082973,2192
2647.625411776444,2230
2649.4263021604183,2195
2651.226732420724,2117
2653.026702316933,2279
2654.8262116076858,2233
2656.625260050691,2180
2658.423847402724,2169
2660.221973419631,2167
2662.0196378563246,2220
2663.8168404667867,2171
2665.613581004068,2238
2667.4098592202854,2301
2669.2056748666246,2198
2671.0010276933417,2292
2672.7959174497596,2215
2674.5903438842674,2197
2676.384306744327,2168
2678.177805776465,2217
2679.9708407262765,2194
2681.7634113384274,2262
2683.555517356648,2179
2685.3471585237403,2194
2687.138334581574,2186
2688.9290452710843,2196
2690.7192903322784,2155
2692.50906950423,2171
2694.2983825250794,2185
2696.087229132039,2200
2697.875609061386,2214
2699.6635220484677,2148
2701.450967827699,2241
2703.237946132564,2170
2705.0244566956126,2307
2706.8104992484664,2262
2708.596073521813,2192
2710.381179245408,2219
2712.1658161480777,2224
2713.949983957714,2170
2715.7336824012773,2245
2717.516911204798,2275
2719.299670093374,2235
2721.0819587911706,2258
2722.8637770214223,2221
2724.6451245064322,2223
2726.426000967571,2237
2728.2064061252763,2177
2729.986339699057,2195
2731.765801407488,2208
2733.5447909682134,2231
2735.323308097945,2170
2737.101352512463,2243
2738.8789239266166,2199
2740.6560220543215,2222
2742.4326466085645,2143
2744.2087973013977,2190
2745.984473843944,2214
2747.7596759463922,2123
2749.534403318001,2174
2751.308655667096,2171
2753.0824327010737,2210
2754.8557341263954,2240
2756.628559648593,2213
2758.4009089722667,2278
2760.172781801083,2198
2761.944177837779,2201
2763.715096784159,2142
2765.4855383410945,2188
2767.2555022085267,2231
2769.024988085465,2210
2770.793995669988,2203
2772.5625246592385,2222
2774.3305747494323,2236
2776.098145635852,2169
2777.865237012847,2206
2779.6318485738357,2147
2781.397980011306,2206
2783.163631016813,2194
2784.928801280979,2175
2786.6934904934974,2172
2788.457698343127,2192
2790.221424517697,2222
2791.9846687041027,2198
2793.74743058831,2199
2795.5097098553515,2228
2797.2715061893286,2218
2799.0328192734105,2170
2800.793648789836,2228
2802.553994419911,2222
2804.3138558440087,2179
2806.073232741573,2246
2807.8321247911135,2293
2809.590531670211,2292
2811.3484530555115,2278
2813.105888622732,2245
2814.8628380466557,2217
2816.6193010011348,2211
2818.3752771590903,2184
2820.13076619251,2238
2821.885767772452,2239
2823.640281569041,2331
2825.3943072514703,2265
2827.147844488002,2173
2828.9008929459665,2250
2830.6534522917614,2222
2832.405522190854,2288
2834.1571023077786,2293
2835.9081923061394,2196
2837.658791848606,2240
2839.40890059692,2319
2841.1585182118874,2263
2842.907644353386,2294
2844.6562786803593,2343
2846.4044208508203,2278
2848.15207052185,2210
2849.899227349598,2264
2851.6458909892804,2323
2853.392061095185,2213
2855.137737320664,2235
2856.882919318142,2262
2858.6276067391063,2250
2860.371799234118,2221
2862.1154964528037,2237
2863.8586980438586,2249
2865.6014036550464,2247
2867.343612933199,2234
2869.0853255242173,2263
2870.826541073068,2245
2872.567259223789,2253
2874.307479619485,2246
2876.0472019023287,2225
2877.7864257135625,2258
2879.525150693495,2227
2881.263376481505,2262
2883.0011027160385,2331
2884.73832903461,2334
2886.4750550738027,2278
2888.2112804692665,2175
2889.9470048557223,2240
2891.682227866956,2320
2893.416949135825,2319
2895.151168294252,2325
2896.88488497323,2221
2898.6180988028204,2267
2900.3508094121503,2318
2902.083016429419,2279
2903.81471948189,2246
2905.5459181958972,2272
2907.276612196844,2297
2909.0068011091994,2271
2910.736484556502,2283
2912.465662161359,2368
2914.194333545445,2318
2915.922498329504,2265
2917.650156133346,2278
2919.377306575852,2243
2921.103949274969,2274
2922.830083847715,2257
2924.555709910173,2279
2926.2808270774967,2290
2928.005434963907,2283
2929.7295331826936,2267
2931.4531213462133,2225
2933.1761990658924,2175
2934.8987659522254,2315
2936.6208216147747,2215
2938.3423656621694,2347
2940.0633977021116,2207
2941.783917341366,2277
2943.503924185768,2343
2945.223417840223,2339
2946.9423979087023,2374
2948.6608639942456,2266
2950.378815698962,2347
2952.096252624029,2332
2953.81317436969,2356
2955.529580535259,2297
2957.2454707191177,2245
2958.9608445187164,2265
2960.6757015305734,2302
2962.3900413502733,2300
2964.103863572472,2280
2965.817167790894,2305
2967.529953598327,2328
2969.2422205866337,2394
2970.953968346739,2329
2972.6651964686407,2350
2974.3759045414035,2241
2976.0860921531585,2307
2977.7957588911067,2277
2979.504904341517,2332
2981.2135280897273,2324
2982.9216297201433,2286
2984.629208816238,2275
2986.336264960554,2320
2988.0427977347017,2286
2989.7488067193594,2341
2991.454291494274,2327
2993.1592516382607,2257
2994.8636867292034,2335
2996.567596344053,2386
2998.2709800588295,2310
2999.973837448621,2328
3001.6761680875857,2304
3003.377971548946,2254
3005.0792474049954,2321
3006.7799952270957,2242
3008.480214585676,2297
3010.1799050502345,2269
3011.8790661893368,2210
3013.5776975706176,2239
3015.2757987607793,2318
3016.973369325592,2284
3018.6704088298966,2260
3020.366916837598,2289
3022.0628929116747,2325
3023.7583366141675,2276
3025.4532475061915,2298
3027.147625147925,2285
3028.841469098617,2306
3030.534778916585,2270
3032.2275541592144,2299
3033.9197943829577,2296
3035.611499143338,2242
3037.302667994943,2329
3038.9933004914333,2312
3040.683396185535,2353
3042.372954629042,2336
3044.061975372817,2293
3045.7504579667934,2335
3047.4384019599684,2312
3049.1258069004116,2277
3050.812672335258,2263
3052.4989978107124,2247
3054.184782872047,2279
3055.870027063603,2311
3057.554729928791,2324
3059.238891010086,2395
3060.9225098490347,2301
3062.6055859862518,2257
3064.2881189614177,2325
3065.970108313285,2271
3067.651553579671,2308
3069.3324542974633,2295
3071.012810002616,2255
3072.6926202301543,2301
3074.3718845141702,2348
3076.050602387822,2307
3077.728773383339,2406
3079.406397032018,2346
3081.083472864223,2321
3082.7600004093874,2367
3084.4359791960137,2322
3086.11140875167,2326
3087.7862886029952,2265
3089.4606182756943,2254
3091.134397294544,2244
3092.807625183385,2314
3094.4803014651284,2368
3096.152425661755,2317
3097.8239972943097,2283
3099.49501588291,2321
3101.165480946741,2351
3102.8353920040518,2362
3104.504748572165,2280
3106.1735501674693,2378
3107.8417963054226,2284
3109.5094865005485,2326
3111.176620266441,2396
3112.8431971157625,2334
3114.5092165602427,2339
3116.1746781106813,2360
3117.839581276943,2321
3119.503925567965,2368
3121.167710491747,2304
3122.830935555364,2422
3124.493600264954,2402
3126.1557041257247,2369
3127.817246641952,2295
3129.478227316982,2345
3131.1386456532273,2277
3132.798501152168,2326
3134.4577933143537,2358
3136.116521639402,2324
3137.7746856259982,2356
3139.4322847718977,2340
3141.0893185739224,2311
3142.745786527962,2251
3144.4016881289754,2335
3146.0570228709903,2388
3147.711790247102,2356
3149.3659897494754,2421
3151.0196208693396,2376
3152.6726830969974,2319
3154.3251759218165,2339
3155.9770988322334,2366
3157.6284513157534,2331
3159.2792328589485,2341
3160.929442947461,2387
3162.579081066002,2241
3164.2281466983477,2284
3165.8766393273454,2284
3167.5245584349086,2343
3169.1719035020224,2261
3170.818674008735,2453
3172.4648694341677,2328
3174.110489256508,2366
3175.7555329530105,2345
3177.4000000000005,2319
3179.0438898728707,2358
3180.6872020460805,2388
3182.32993599316,2403
3183.972091186706,2311
3185.613667098384,2346
3187.254663198927,2382
3188.8950789581386,2359
3190.5349138448873,2334
3192.1741673271126,2361
3193.8128388718224,2276
3195.4509279450886,2431
3197.0884340120574,2416
3198.725356536939,2358
3200.361694983014,2254
3201.997448812629,2335
3203.632617487203,2357
3205.2672004672195,2384
3206.901197212229,2307
3208.5346071808563,2351
3210.167429830789,2334
3211.799664618785,2358
3213.4313110006706,2327
3215.0623684313387,2380
3216.692836364753,2354
3218.3227142539445,2250
3219.9520015510125,2273
3221.5806977071215,2329
3223.2088021725103,2262
3224.8363143964816,2268
3226.4632338274077,2296
3228.089559912728,2256
3229.715292098951,2328
3231.3404298316545,2361
3232.9649725554846,2315
3234.5889197141523,2419
3236.2122707504395,2380
3237.8350251061984,2425
3239.457182222345,2302
3241.0787415388677,2386
3242.6997024948187,2319
3244.3200645283223,2261
3245.9398270765696,2350
3247.558989575821,2389
3249.177551461403,2253
3250.7955121677123,2284
3252.412871128213,2346
3254.029627775437,2342
3255.6457815409867,2379
3257.2613318555286,2381
3258.876278148802,2313
3260.490619849613,2336
3262.1043563858348,2307
3263.717487184408,2330
3265.3300116713453,2290
3266.941929271725,2347
3268.5532394096917,2328
3270.1639415084646,2280
3271.7740349903233,2328
3273.383519276621,2345
3274.9923937877775,2280
3276.6006579432833,2318
3278.2083111616903,2407
3279.815352860627,2396
3281.421782456786,2308
3283.027599365927,2370
3284.632803002881,2372
3286.237392781545,2372
3287.841368114885,2358
3289.4447284149373,2366
3291.047473092801,2329
3292.649601558651,2403
3294.2511132217223,2308
3295.8520074903254,2278
3297.452283771835,2394
3299.051941472695,2399
3300.650979998417,2435
3302.2493987535827,2376
3303.8471971418403,2325
3305.4443745659064,2346
3307.0409304275654,2405
3308.636864127674,2438
3310.2321750661513,2420
3311.8268626419876,2426
3313.420926253242,2312
3315.01436529704,2369
3316.6071791695776,2425
3318.1993672661183,2312
3319.7909289809913,2333
3321.3818637075983,2346
3322.972170838406,2339
3324.561849764951,2262
3326.150899877838,2314
3327.7393205667386,2272
3329.3271112203956,2378
3330.9142712266166,2308
3332.5007999722793,2270
3334.08669684333,2434
3335.6719612247834,2443
3337.2565925007193,2475
3338.840590054291,2415
3340.4239532677157,2452
3342.006681522281,2411
3343.5887741983406,2370
3345.1702306753214,2431
3346.7510503317126,2434
3348.3312325450743,2391
3349.910776692037,2426
3351.4896821482953,2344
3353.0679482886153,2478
3354.645574486829,2409
3356.2225601158398,2518
3357.798904547615,2330
