CollectionTime,4/2/2024 11:28:00 AM
ExposureUsed,3
CalibratedSpectrum
-994.8464149364308,648
-991.9439705588344,766
-989.042830375826,674
-986.1429931109675,704
-983.2444574887519,776
-980.3472222346043,792
-977.4512860748813,715
-974.5566477368716,682
-971.6633059487953,699
-968.7712594398042,710
-965.8805069399822,718
-962.9910471803447,667
-960.1028788928387,663
-957.2160008103432,737
-954.3304116666687,695
-951.4461101965578,689
-948.5630951356844,733
-945.6813652206545,827
-942.8009191890055,923
-939.9217557792067,885
-937.0438737306594,789
-934.167271783696,775
-931.2919486795813,770
-928.4179031605115,672
-925.5451339696144,728
-922.67363985095,837
-919.8034195495097,865
-916.9344718112166,824
-914.0667953829256,775
-911.2003890124234,792
-908.3352514484286,803
-905.471381440591,761
-902.6087777394928,753
-899.7474390966474,827
-896.8873642645002,844
-894.0285519964284,824
-891.1710010467407,789
-888.3147101706776,782
-885.4596781244115,753
-882.6059036650465,712
-879.7533855506183,693
-876.9021225400943,711
-874.0521133933738,733
-871.2033568712878,741
-868.3558517355991,754
-865.509596749002,893
-862.6645906751228,884
-859.8208322785192,909
-856.9783203246812,827
-854.1370535800299,774
-851.2970308119186,753
-848.4582507886321,886
-845.620712279387,835
-842.7844140543316,752
-839.9493548845461,766
-837.1155335420422,797
-834.2829487997635,800
-831.4515994315852,756
-828.6214842123144,827
-825.7926019176898,822
-822.9649513243819,777
-820.138531209993,825
-817.3133403530569,793
-814.4893775330396,829
-811.6666415303382,780
-808.845131126282,755
-806.0248451031321,811
-803.2057822440808,721
-800.3879413332527,765
-797.5713211557038,864
-794.755920497422,984
-791.941738145327,844
-789.1287728872701,880
-786.3170235120342,1041
-783.5064888093341,930
-780.6971675698165,775
-777.8890585850597,757
-775.0821606475735,880
-772.2764725507997,875
-769.4719930891118,822
-766.6687210578151,919
-763.8666552531465,1139
-761.0657944722747,1277
-758.2661375133,1063
-755.4676831752547,871
-752.6704302581027,868
-749.8743775627395,818
-747.0795238909925,814
-744.285868045621,822
-741.4934088303156,789
-738.702145049699,827
-735.9120755093254,925
-733.123199015681,1177
-730.3355143761836,1127
-727.5490203991826,899
-724.7637158939592,872
-721.9795996707265,908
-719.1966705406293,797
-716.4149273157439,779
-713.6343688090786,787
-710.8549938345734,783
-708.0768012070998,765
-705.2997897424614,818
-702.5239582573931,852
-699.7493055695622,844
-696.9758304975669,870
-694.2035318609377,823
-691.4324084801367,897
-688.6624591765578,848
-685.8936827725265,861
-683.1260780913001,831
-680.3596439570675,834
-677.5943791949499,890
-674.8302826309991,783
-672.0673530922,741
-669.3055894064685,828
-666.5449904026519,910
-663.78555491053,876
-661.0272817608139,830
-658.2701697851465,926
-655.5142178161026,950
-652.7594246871884,834
-650.0057892328422,783
-647.2533102884337,825
-644.5019866902646,863
-641.7518172755683,888
-639.0028008825099,888
-636.254936350186,923
-633.5082225186254,928
-630.7626582287882,864
-628.0182423225665,882
-625.2749736427841,783
-622.5328510331965,910
-619.7918733384909,1013
-617.0520394042862,959
-614.3133480771331,885
-611.5757982045143,972
-608.8393886348437,1153
-606.1041182174672,1136
-603.3699858026625,1047
-600.6369902416393,1035
-597.9051303865383,960
-595.1744050904326,1032
-592.4448132073267,1154
-589.7163535921568,1175
-586.9890251007912,1024
-584.2628265900296,922
-581.5377569176036,957
-578.8138149421764,979
-576.090999523343,954
-573.3693095216302,991
-570.6487437984965,995
-567.9293012163321,1111
-565.210980638459,1155
-562.4937809291307,1037
-559.7777009535329,1015
-557.0627395777825,1076
-554.3488956689287,1079
-551.6361680949519,1151
-548.9245557247644,1100
-546.2140574282107,1141
-543.5046720760662,1183
-540.7963985400388,1232
-538.0892356927677,1208
-535.3831824078238,1218
-532.6782375597103,1407
-529.9744000238613,1512
-527.2716686766433,1685
-524.5700423953542,1926
-521.8695200582238,1747
-519.1701005444136,1543
-516.4717827340166,1508
-513.7745655080581,1753
-511.0784477484944,1943
-508.38342833821423,1945
-505.68950616103757,2087
-502.9966801017163,2153
-500.3049490459341,2451
-497.61431188030633,2379
-494.9247674923801,1990
-492.2363147706342,1779
-489.54895260447927,1595
-486.86267988425755,1540
-484.1774955012431,1647
-481.4933983476417,1781
-478.8103873165908,1582
-476.1284613021596,1324
-473.44761919934945,1388
-470.7678599040928,1275
-468.089182313254,1422
-465.4115853246294,1475
-462.735067836947,1662
-460.0596287498663,1677
-457.3852669639789,1285
-454.71198138080774,1155
-452.03977090280773,1089
-449.3686344333656,1144
-446.69857087679964,1251
-444.02957913835996,1428
-441.36165812422837,1350
-438.6948067415183,1276
-436.0290238982752,1254
-433.36430850347597,1187
-430.7006594670296,1242
-428.0380756997763,1308
-425.3765561134885,1396
-422.7160996208702,1308
-420.0567051355571,1409
-417.3983715721164,1428
-414.7410978460475,1406
-412.08488287378145,1359
-409.4297255726806,1359
-406.77562486103955,1257
-404.1225796580843,1224
-401.4705888839728,1093
-398.8196514597947,1077
-396.1697663075713,1179
-393.5209323502555,1226
-390.8731485117323,1035
-388.22641371681823,1089
-385.5807268912615,1223
-382.93608696174226,1188
-380.29249285587207,985
-377.64994350219456,924
-375.0084378301849,951
-372.36797477025016,969
-369.7285532537287,1105
-367.0901722128914,1106
-364.45283058094014,1034
-361.8165272920089,1041
-359.1812612811634,863
-356.54703148440103,690
-353.9138368386507,794
-351.28167628177346,1018
-348.6505487525617,1232
-346.02045319074,1072
-343.3913885369643,854
-340.76335373282245,885
-338.1363477208339,927
-335.5103694444499,1056
-332.8854178480535,1086
-330.26149187695944,1082
-327.63859047741425,1088
-325.016712596596,891
-322.3958571826148,830
-319.77602318451227,1016
-317.15720955226186,1026
-314.5394152367686,1019
-311.9226391898695,944
-309.3068803643333,912
-306.69213771386023,1026
-304.0784101930824,1276
-301.4656967575635,1334
-298.8539963637994,1355
-296.2433079692172,1495
-293.6336305321761,1301
-291.02496301196675,1036
-288.41730436881176,1112
-285.81065356386534,1047
-283.2050095592135,1058
-280.60037131787396,1427
-277.9967378037961,1933
-275.39410798186134,1673
-272.7924808178824,1663
-270.19185527860407,1593
-267.5922303317028,1403
-264.9936049457866,1541
-262.3959780903955,1648
-259.79934873600087,1860
-257.2037158540064,1839
-254.6090784167469,1649
-252.01543539748934,1910
-249.42278577043237,1474
-246.8311285107061,1291
-244.24046259437262,1417
-241.6507869984256,1432
-239.0621007007909,1627
-236.4744026803254,1661
-233.88769191681808,1727
-231.30196739098994,1637
-228.7172280844934,1360
-226.13347297991243,1500
-223.550701060763,1672
-220.9689113114929,1668
-218.3881027174814,1448
-215.8082742650397,1640
-213.22942494141068,2359
-210.65155373476898,3068
-208.07465963422078,2693
-205.49874162980439,2400
-202.92379871248932,2506
-200.34982987417743,2479
-197.7768341077018,2034
-195.20481040682762,1661
-192.63375776625162,1536
-190.0636751816021,1660
-187.49456164943945,1899
-184.92641616725564,2313
-182.3592377334743,2169
-179.79302534745102,2103
-177.2277780094729,2338
-174.66349472075865,2109
-172.10017448345923,2094
-169.5378163006569,2239
-166.97641917636565,2144
-164.41598211553162,2326
-161.8565041240322,2733
-159.29798420867678,2759
-156.74042137720642,2519
-154.18381463829382,2767
-151.6281630015436,2649
-149.07346547749228,2197
-146.51972107760753,1873
-143.96692881428908,1998
-141.41508770086864,2274
-138.86419675160937,2698
-136.31425498170609,2720
-133.7652614072856,2389
-131.21721504540642,2117
-128.67011491405844,2561
-126.12396003216395,3379
-123.57874941957618,3950
-121.03448209708074,3808
-118.49115708639465,3785
-115.94877341016684,3971
-113.40733009197788,4299
-110.86682615633993,4019
-108.32726062869733,3680
-105.78863253542556,4638
-103.25094090383243,6129
-100.71418476215695,5838
-98.17836313957025,5102
-95.64347506617503,4130
-93.10951957300585,3937
-90.57649569202886,4084
-88.04440245614194,4026
-85.51323889917478,4467
-82.98300405588896,5625
-80.45369696197747,7524
-77.925316654065,9493
-75.39786216970867,11426
-72.87133254739649,13661
-70.34572682654857,16330
-67.82104404751692,19549
-65.29728325158499,27074
-62.774443480968216,34790
-60.252523778813384,40025
-57.73152318919938,44997
-55.21144075713676,46936
-52.69227552856796,40583
-50.17402655036665,39004
-47.65669287033859,36229
-45.14027353722133,30667
-42.624767600684095,33402
-40.11017411132775,39485
-37.59649212068507,43805
-35.08372068122037,49768
-32.57185884632963,57069
-30.06090567034107,60445
-27.550860208513996,65043
-25.04172151704006,65043
-22.533488653042014,65043
-20.02616067457484,65043
-17.51973664062507,65043
-15.014215611111126,65043
-12.509596646882983,65043
-10.005878809722162,65043
-7.503061162342419,65043
-5.001142768389059,65043
-2.5001226924387083,65043
-3.410605131648481E-13,65043
2.49922624248552,65043
4.997556967646801,65043
7.494993107179766,65043
9.99153559184856,65043
12.487185351485778,65043
14.98194331499235,65043
17.475810410337544,65043
19.96878756455851,65043
22.46087570376085,65043
24.952075753118834,65043
27.442388636874625,32145
29.93181527833849,11815
32.42035659988892,11169
34.90801352297353,16414
37.39478696810693,15673
39.880677854873056,13421
42.36568710192364,10469
44.8498156269784,11372
47.33306434682618,10453
49.815434177322686,10211
52.296926033393675,9357
54.77754082903198,9015
57.25727947729865,11129
59.736142890323435,11440
62.214131979304284,7871
64.6912476545076,6655
67.16749082526735,5431
69.64286239998614,3976
72.11736328613551,4536
74.59099439025431,5217
77.06375661794982,6668
79.53565087389825,6517
82.0066780618431,5963
84.4768390845968,4584
86.94613484403999,4804
89.41456624112152,7352
91.88213417585825,6689
94.34883954733527,4431
96.81468325370679,4728
99.2796661921941,3382
101.74378925908763,3813
104.20705334974559,4485
106.66945935859462,4825
109.1310081791296,5441
111.59170070391383,6175
114.05153782457865,4814
116.5105204318238,3510
118.96864941541708,3982
121.42592566419489,5660
123.88235006606146,5486
126.3379235079899,4770
128.79264687602085,3771
131.2465210552641,3429
133.69954692989631,3464
136.15172538316415,4225
138.60305729738116,3833
141.05354355393,3655
143.50318503326116,3778
145.95198261489327,3594
148.39993717741368,3454
150.84704959847772,3932
153.29332075480897,4200
155.73875152219944,4199
158.18334277550935,4301
160.62709538866693,4194
163.0700102346691,3881
165.51208818558075,3916
167.953330112535,3579
170.39373688573346,3202
172.8333093744459,3631
175.2720484470101,3595
177.70995497083277,3754
180.14702981238815,4177
182.58327383721917,4199
185.01868790993672,4189
187.45327289422062,3955
189.88702965281777,3553
192.31995904754444,3604
194.75206193928489,3987
197.18333918799135,3974
199.61379165268454,3979
202.04342019145315,3623
204.4722256614548,3700
206.90020891891436,3881
209.32737081912592,3647
211.7537122164515,3525
214.17923396432116,3556
216.6039369152336,3758
219.0278219207553,3690
221.45088983152186,3561
223.8731414972358,3714
226.29457776666914,3658
228.71519948766172,3541
231.1350075071216,3543
233.55400267102482,3698
235.97218582441633,3798
238.38955781140908,3460
240.806119475184,3613
243.2218716579905,3762
245.6368152011462,3610
248.05095094503736,3539
250.46427972911806,3587
252.87680239191036,3627
255.28851977100544,3944
257.69943270306203,4216
260.10954202380753,3533
262.5188485680378,3501
264.92735316961557,3958
267.33505666147425,3950
269.7419598756128,3782
272.14806364310084,3825
274.5533687940747,3509
276.95787615773975,3567
279.361586562369,3567
281.7645008353045,3275
284.1666198029559,3450
286.5679442908013,3415
288.96847512338695,3743
291.3682131243279,3653
293.7671591163071,3556
296.1653139210757,3527
298.562678359453,3404
300.9592532513268,3504
303.3550394156532,3608
305.75003767045655,3447
308.14424883282936,3325
310.53767371893196,3385
312.93031314399377,3422
315.3221679223125,3082
317.71323886725304,3175
320.1035267912496,3044
322.49303250580397,2947
324.881756821487,2937
327.2697005479374,2927
329.65686449386135,2939
332.0432494670347,3054
334.4288562743004,3145
336.81368572157066,3098
339.19773861382487,2995
341.58101575511205,2953
343.96351794854786,2895
346.3452459963173,2745
348.72620069967365,2916
351.1063828589379,3090
353.48579327349967,3188
355.8644327418169,3032
358.24230206141533,2732
360.6194020288899,2777
362.99573343990255,2620
365.3712970891845,2670
367.7460937705348,2704
370.12012427682066,2712
372.493389399978,2866
374.86588993101077,2762
377.23762665999084,2704
379.6086003760588,2652
381.9788118674235,2690
384.34826192136165,2801
386.7169513242188,2553
389.08488086140824,2580
391.4520513174118,2706
393.8184634757795,2746
396.1841181191296,3039
398.54901602914856,3019
400.9131579865916,2849
403.2765447712811,2703
405.63917716210926,2909
408.00105593703483,2809
410.36218187308646,2695
412.7225557463596,2616
415.0821783320191,2492
417.4410504042976,2584
419.79917273649585,2500
422.1565461009834,2638
424.5131712691973,2555
426.869049011643,2584
429.22418009789544,2747
431.578565296596,2548
433.9322053754556,2493
436.28510110125285,2395
438.6372532398352,2475
440.98866255611733,2510
443.33932981408293,2422
445.6892557767842,2639
448.0384412063411,2512
450.38688686394175,2629
452.7345935098431,2716
455.0815619033697,2552
457.42779280291506,2682
459.7732869659403,2853
462.1180451489754,2807
464.4620681076178,2716
466.80535659653424,2563
469.1479113694588,2585
471.48973317919445,2720
473.8308227776122,2814
476.17118091565135,2872
478.51080834331924,2949
480.8497058096914,3082
483.1878740629122,3375
485.5253138501944,3472
487.8620259178176,3485
490.1980110111317,4053
492.53326987455307,3984
494.86780325156724,4219
497.201611884728,4382
499.53469651565683,4208
501.8670578850447,4163
504.1986967326493,3993
506.52961379729754,3917
508.85980981688454,3573
511.18928552837315,3503
513.5180416677952,3347
515.8460789702503,3575
518.1733981699067,4269
520.5,5264
522.8258851928354,5587
525.1510544797857,5263
527.4755085912916,4635
529.7992482568625,4181
532.1222742050759,3532
534.4445871635783,2909
536.766187859083,2531
539.0870770173726,2519
541.4072553632982,2455
543.7267236207783,2414
546.0454825128002,2440
548.363532761419,2313
550.6808750877592,2479
552.9975102120118,2588
555.3134388534377,2599
557.6286617303654,2372
559.9431795601911,2442
562.2569930593802,2438
564.570102943466,2600
566.88250992705,2506
569.1942147238021,2401
571.5052180464602,2416
573.8155206068309,2581
576.1251231157885,2626
578.4340262832759,2441
580.7422308183045,2366
583.0497374289534,2344
585.3565468223703,2433
587.6626597047714,2386
589.9680767814409,2342
592.2727987567309,2298
594.5768263340624,2312
596.8801602159238,2294
599.1828011038731,2384
601.4847496985356,2414
603.7860066996047,2328
606.0865728058427,2169
608.3864487150802,2247
610.6856351242152,2187
612.9841327292149,2342
615.2819422251141,2339
617.5790643060163,2300
619.8754996650935,2160
622.1712489945849,2219
624.466312985799,2275
626.7606923291121,2238
629.0543877139692,2342
631.347399828883,2360
633.6397293614343,2412
635.9313769982732,2335
638.2223434251173,2301
640.5126293267522,2236
642.8022353870326,2299
645.0911622888809,2232
647.3794107142876,2359
649.666981344312,2256
651.9538748590815,2165
654.2400919377915,2354
656.525633258706,2438
658.8104994991568,2331
661.0946913355442,2363
663.3782094433375,2406
665.6610544970729,2438
667.9432271703561,2343
670.22472813586,2284
672.5055580653268,2457
674.7857176295659,2464
677.065207498456,2290
679.3440283409432,2336
681.6221808250425,2388
683.899665617837,2319
686.1764833854772,2315
688.4526347931837,2365
690.7281205052436,2318
693.0029411850135,2399
695.2770974949171,2335
697.5505900964474,2487
699.8234196501651,2348
702.0955868156989,2271
704.3670922517472,2328
706.6379366160747,2352
708.9081205655159,2348
711.1776447559728,2444
713.4465098424155,2357
715.714716478883,2427
717.9822653184822,2321
720.2491570133882,2407
722.5153922148452,2310
724.7809715731639,2253
727.0458957377248,2255
729.3101653569763,2264
731.5737810784346,2281
733.8367435486853,2332
736.0990534133803,2330
738.3607113172418,2387
740.6217179040591,2431
742.8820738166899,2483
745.1417796970607,2293
747.4008361861659,2411
749.6592439240678,2361
751.9170035498973,2406
754.1741157018539,2522
756.4305810172048,2519
758.686400132286,2428
760.9415736825013,2423
763.196102302323,2249
765.4499866252911,2369
767.7032272840152,2479
769.9558249101717,2423
772.207780134506,2412
774.4590935868323,2512
776.7097658960313,2472
778.9597976900541,2611
781.2091895959184,2395
783.457942239711,2409
785.7060562465867,2396
787.9535322407687,2532
790.2003708455488,2415
792.4465726832861,2569
794.6921383754088,2599
796.9370685424128,2628
799.1813638038632,2506
801.4250247783918,2624
803.6680520837006,2551
805.9104463365579,2520
808.1522081528019,2460
810.393338147338,2504
812.6338369341406,2378
814.8737051262517,2426
817.1129433357819,2460
819.35155217391,2467
821.5895322508834,2408
823.8268841760168,2330
826.0636085576946,2414
828.2997060033681,2484
830.535177119558,2425
832.7700225118522,2319
835.0042427849078,2384
837.2378385424493,2438
839.4708103872701,2414
841.7031589212318,2346
843.9348847452643,2428
846.1659884593648,2470
848.3964706626004,2499
850.6263319531054,2408
852.8555729280824,2344
855.0841941838025,2410
857.3121963156052,2451
859.5395799178978,2573
861.7663455841566,2510
863.9924939069251,2547
866.2180254778159,2542
868.4429408875103,2549
870.6672407257561,2472
872.890925581371,2544
875.1139960422404,2522
877.336452695318,2570
879.5582961266261,2608
881.7795269212543,2442
884.0001456633613,2546
886.2201529361741,2536
888.4395493219874,2643
890.6583354021648,2716
892.8765117571375,2536
895.094078966405,2490
897.3110376085365,2537
899.5273882611671,2568
901.7431315010019,2413
903.958267903814,2357
906.1727980444443,2384
908.3867224968019,2431
910.6000418338647,2469
912.8127566276792,2434
915.0248674493587,2571
917.2363748690857,2527
919.4472794561113,2378
921.6575817787543,2364
923.867282404402,2343
926.0763818995099,2311
928.2848808296014,2344
930.4927797592693,2285
932.700079252173,2344
934.9067798710416,2303
937.112882177672,2364
939.3183867329287,2285
941.5232940967453,2300
943.727604828124,2285
945.9313194851336,2343
948.1344386249132,2294
950.3369628036685,2410
952.5388925766747,2370
954.7402284982745,2338
956.9409711218789,2312
959.1411209999676,2260
961.3406786840883,2246
963.5396447248565,2253
965.7380196719573,2320
967.9358040741427,2421
970.1329984792335,2220
972.3296034341188,2272
974.5256194847555,2244
976.72104717617,2162
978.9158870524552,2241
981.1101396567742,2276
983.3038055313566,2231
985.4968852175009,2172
987.6893792555747,2291
989.8812881850124,2220
992.072612544318,2235
994.263352871063,2229
996.453509701887,2292
998.6430835724984,2262
1000.832075017674,2146
1003.0204845712583,2102
1005.208312766164,2105
1007.3955601343728,2069
1009.5822272069338,1936
1011.7683145139652,2028
1013.9538225846525,2058
1016.1387519472505,2042
1018.3231031290818,2025
1020.5068766565371,2038
1022.6900730550753,2163
1024.872692849224,2210
1027.054736562579,2078
1029.2362047178037,2029
1031.4170978366305,1940
1033.5974164398597,2048
1035.7771610473603,1980
1037.9563321780693,1973
1040.1349303499917,1975
1042.3129560802006,1859
1044.490409884838,1992
1046.667292279115,1899
1048.8436037773079,1923
1051.0193448927644,2009
1053.1945161378994,1957
1055.3691180241954,1938
1057.5431510622038,1857
1059.7166157615447,1932
1061.8895126309053,2013
1064.0618421780423,1953
1066.2336049097798,1958
1068.4048013320107,1897
1070.5754319496955,1925
1072.745497266863,1881
1074.9149977866118,1893
1077.0839340111065,1876
1079.2523064415818,1901
1081.4201155783398,1962
1083.587361920751,1798
1085.7540459672537,1860
1087.9201682153553,1848
1090.0857291616308,1815
1092.2507293017238,1874
1094.4151691303464,1783
1096.579049141279,1809
1098.7423698273687,1828
1100.9051316805335,1813
1103.0673351917571,1863
1105.2289808510936,1913
1107.3900691476633,1823
1109.550600569657,1932
1111.710575604332,1878
1113.8699947380146,1803
1116.028858456099,1806
1118.1871672430489,1832
1120.344921582394,1839
1122.5021219567334,1885
1124.6587688477362,1896
1126.8148627361365,1850
1128.9704041017399,1813
1131.1253934234173,1987
1133.2798311791098,1895
1135.4337178458263,1843
1137.5870538996437,1803
1139.7398398157075,1785
1141.8920760682313,1797
1144.0437631304972,1896
1146.1949014748543,1802
1148.3454915727225,1850
1150.4955338945874,1831
1152.6450289100044,1853
1154.7939770875969,1928
1156.9423788950558,1790
1159.0902347991405,1807
1161.2375452656802,1849
1163.3843107595703,1800
1165.530531744775,1839
1167.6762086843282,1823
1169.8213420403304,1836
1171.9659322739503,1910
1174.1099798454266,1820
1176.2534852140639,1813
1178.3964488382376,1770
1180.538871175389,1810
1182.680752682029,1883
1184.8220938137365,1784
1186.9628950251595,1763
1189.103156770012,1796
1191.2428795010783,1770
1193.3820636702108,1779
1195.5207097283287,1784
1197.6588181254215,1788
1199.7963893105457,1807
1201.9334237318253,1790
1204.0699218364548,1872
1206.2058840706954,1834
1208.3413108798773,1821
1210.476202708397,1803
1212.6105599997222,1841
1214.7443831963874,1843
1216.877672739995,1783
1219.0104290712165,1815
1221.1426526297905,1915
1223.2743438545253,1841
1225.4055031832972,1742
1227.5361310530493,1822
1229.6662278997946,1890
1231.7957941586142,1797
1233.9248302636565,1784
1236.053336648139,1789
1238.1813137443464,1777
1240.3087619836338,1822
1242.4356817964222,1842
1244.5620736122019,1893
1246.6879378595318,1847
1248.813274966039,1736
1250.938085358418,1753
1253.062369462432,1849
1255.186127702913,1856
1257.3093605037611,1783
1259.4320682879434,1794
1261.554251477498,1809
1263.6759104935277,1787
1265.797045756206,1846
1267.9176576847744,1928
1270.0377466975428,1875
1272.1573132118879,1789
1274.2763576442567,1812
1276.394880410162,1851
1278.5128819241877,1832
1280.6303625999835,1821
1282.7473228502695,1820
1284.8637630868325,1867
1286.9796837205272,1815
1289.0950851612783,1846
1291.209967818078,1933
1293.3243320989864,1945
1295.4381784111324,1875
1297.551507160712,1916
1299.6643187529912,1897
1301.776613592303,1883
1303.888392082049,1978
1305.9996546246998,1849
1308.1104016217923,1892
1310.220633473934,1912
1312.3303505807999,1968
1314.4395533411316,1937
1316.5482421527418,1917
1318.6564174125092,1882
1320.7640795163816,1903
1322.8712288593752,1823
1324.9778658355744,1889
1327.0839908381313,1895
1329.1896042592675,1828
1331.2947064902714,1819
1333.3992979215009,1854
1335.503378942381,1935
1337.6069499414057,1880
1339.7100113061383,1889
1341.8125634232074,1820
1343.9146066783128,1919
1346.0161414562212,1891
1348.1171681407677,1824
1350.2176871148563,1836
1352.3176987604575,1972
1354.4172034586127,1959
1356.5162015894289,1918
1358.6146935320835,1929
1360.7126796648213,1921
1362.8101603649548,1873
1364.9071360088656,1862
1367.0036069720036,1877
1369.099573628886,1825
1371.195036353099,1856
1373.2899955172975,1865
1375.3844514932039,1895
1377.4784046516088,1865
1379.5718553623715,1861
1381.6648039944193,1851
1383.7572509157485,1872
1385.8491964934224,1940
1387.9406410935735,1871
1390.0315850814022,1895
1392.122028821177,1902
1394.2119726762357,1919
1396.3014170089828,1893
1398.3903621808918,1838
1400.4788085525051,1943
1402.566756483432,1868
1404.6542063323514,1791
1406.7411584570095,1862
1408.8276132142219,1963
1410.9135709598704,1858
1412.9990320489078,1831
1415.083996835353,1876
1417.1684656722937,1895
1419.2524389118867,1826
1421.3359169053565,1844
1423.4189000029946,1879
1425.5013885541634,1889
1427.5833829072913,1894
1429.664883409876,1902
1431.7458904084833,1835
1433.8264042487467,1888
1435.9064252753697,1903
1437.9859538321216,1887
1440.0649902618416,1877
1442.1435349064373,1852
1444.2215881068837,1912
1446.2991502032237,1854
1448.37622153457,1876
1450.452802439103,1864
1452.5288932540698,1977
1454.604494315788,1929
1456.6796059596427,1928
1458.7542285200866,1869
1460.8283623306415,1933
1462.902007723897,1849
1464.9751650315106,1873
1467.0478345842089,1922
1469.1200167117868,1898
1471.1917117431062,1846
1473.2629200060992,1850
1475.333641827764,1941
1477.4038775341692,1918
1479.4736274504498,1921
1481.5428919008104,2003
1483.6116712085222,1913
1485.6799656959279,2001
1487.7477756844346,1883
1489.8151014945201,1903
1491.88194344573,1917
1493.9483018566775,1857
1496.0141770450455,1901
1498.0795693275822,1840
1500.1444790201076,1824
1502.2089064375086,1857
1504.2728518937402,1811
1506.3363157018239,1810
1508.3992981738534,1861
1510.4617996209872,1818
1512.5238203534536,1892
1514.5853606805495,1920
1516.6464209106384,1873
1518.7070013511543,1849
1520.7671023085973,1889
1522.8267240885375,1860
1524.885866995612,1850
1526.9445313335268,1936
1529.002717405056,1895
1531.0604255120425,1866
1533.1176559553965,1929
1535.1744090350971,1934
1537.2306850501914,2009
1539.2864842987956,1982
1541.3418070780922,1947
1543.396653684334,1959
1545.4510244128405,1995
1547.5049195580013,1913
1549.5583394132727,1947
1551.61128427118,1872
1553.6637544233158,1911
1555.7157501603415,1926
1557.7672717719888,2045
1559.8183195470538,2006
1561.8688937734037,1987
1563.9189947379737,2033
1565.9686227267657,1997
1568.0177780248514,1970
1570.0664609163696,2051
1572.1146716845292,1977
1574.162410611605,2048
1576.2096779789413,1937
1578.2564740669518,1914
1580.3027991551157,1952
1582.3486535219831,1942
1584.3940374451709,1867
1586.4389512013645,1897
1588.4833950663178,1982
1590.5273693148533,1907
1592.5708742208603,1892
1594.6139100572982,1855
1596.6564770961936,1956
1598.698575608642,1930
1600.7402058648063,1951
1602.7813681339185,1998
1604.8220626842776,2000
1606.8622897832533,2073
1608.9020496972812,1981
1610.9413426918663,1986
1612.9801690315808,1944
1615.018528980066,1919
1617.056422800033,1907
1619.0938507532578,1979
1621.1308131005876,1945
1623.1673101019355,1887
1625.2033420162848,1953
1627.2389091016862,1876
1629.274011615259,1979
1631.3086498131897,2019
1633.3428239507352,1928
1635.376534282219,1924
1637.4097810610324,1958
1639.4425645396364,1962
1641.4748849695593,1905
1643.5067426013989,1955
1645.53813768482,1899
1647.5690704685549,1903
1649.5995412004067,1883
1651.6295501272452,1906
1653.6590974950086,1982
1655.6881835487025,2015
1657.7168085324029,1926
1659.7449726892523,1866
1661.772676261462,1976
1663.7999194903114,1975
1665.8267026161484,1947
1667.8530258783894,1996
1669.8788895155185,1863
1671.9042937650888,1943
1673.9292388637205,1968
1675.953725047103,1975
1677.977752549994,1899
1680.0013216062184,1903
1682.0244324486712,1891
1684.0470853093134,1934
1686.0692804191767,2011
1688.0910180083588,1841
1690.1122983060268,1952
1692.1331215404175,1960
1694.1534879388319,1897
1696.173397727644,1934
1698.1928511322926,1932
1700.211848377286,1958
1702.2303896862018,1998
1704.248475281684,2011
1706.2661053854458,2000
1708.2832802182684,1965
1710.300000000002,1990
1712.3162649495644,1962
1714.3320752849409,1908
1716.3474312231865,1888
1718.362332980424,1920
1720.376780771845,1969
1722.3907748117072,1924
1724.4043153133393,1927
1726.4174024891367,1895
1728.4300365505628,1941
1730.442217708151,1977
1732.4539461715008,1986
1734.465222149282,1969
1736.4760458492306,2029
1738.4864174781524,1981
1740.496337241921,1919
1742.5058053454786,1951
1744.5148219928346,1942
1746.523387387068,1930
1748.531501730325,1898
1750.5391652238209,1974
1752.5463780678388,1925
1754.55314046173,1903
1756.5594526039135,1932
1758.565314691879,1918
1760.5707269221812,1984
1762.5756894904443,1973
1764.580202591363,2033
1766.5842664186966,1925
1768.5878811652751,1942
1770.591047022996,1878
1772.593764182825,1958
1774.5960328347965,2045
1776.5978531680116,1990
1778.5992253706427,2018
1780.6001496299273,1951
1782.6006261321731,2011
1784.6006550627553,2005
1786.6002366061175,2000
1788.5993709457725,2009
1790.5980582642992,1960
1792.5962987433468,1913
1794.5940925636314,1998
1796.5914399049389,1975
1798.5883409461221,1931
1800.584795865102,1958
1802.580804838869,1964
1804.5763680434807,2028
1806.571485654064,1978
1808.566157844813,1945
1810.5603847889902,1967
1812.5541666589274,1942
1814.5475036260236,1988
1816.5403958607467,1909
1818.5328435326323,1988
1820.5248468102845,1949
1822.5164058613755,1928
1824.5075208526468,1938
1826.4981919499064,1980
1828.488419318032,1996
1830.4782031209684,1988
1832.4675435217305,2054
1834.4564406823993,2001
1836.4448947641258,2005
1838.432905927128,2073
1840.4204743306927,1952
1842.4076001331746,1982
1844.3942834919985,2027
1846.380524563654,1904
1848.366323503702,2062
1850.351680466771,1990
1852.3365956065563,2023
1854.3210690758228,2069
1856.3051010264044,1992
1858.2886916092007,1992
1860.271840974182,2017
1862.2545492703862,2060
1864.2368166459191,2049
1866.2186432479543,1976
1868.2000292227349,1973
1870.1809747155717,2081
1872.1614798708429,2017
1874.1415448319963,1954
1876.1211697415474,2027
1878.1003547410805,2015
1880.0790999712472,1995
1882.0574055717675,2016
1884.0352716814305,1963
1886.0126984380927,1974
1887.989685978679,2054
1889.9662344391836,2040
1891.9423439546672,2064
1893.9180146592607,2047
1895.893246686161,1955
1897.868040167636,2057
1899.8423952350195,2016
1901.8163120187137,2025
1903.7897906481917,1982
1905.7628312519923,2082
1907.7354339577219,2070
1909.7075988920578,2055
1911.6793261807447,2095
1913.6506159485943,2002
1915.6214683194871,2024
1917.5918834163726,2072
1919.5618613612687,1998
1921.5314022752605,2000
1923.5005062785012,2011
1925.4691734902144,2101
1927.4374040286893,2085
1929.4051980112845,2075
1931.3725555544274,2023
1933.3394767736136,2050
1935.305961783406,2094
1937.2720106974361,2100
1939.237623628404,2115
1941.2028006880778,2122
1943.167541987295,2114
1945.1318476359588,2109
1947.0957177430432,2113
1949.0591524165898,2018
1951.0221517637078,2063
1952.984715890574,2003
1954.9468449024357,2089
1956.9085389036072,1946
1958.8697979974704,2023
1960.8306222864767,2039
1962.7910118721456,2046
1964.7509668550638,2134
1966.7104873348871,2134
1968.6695734103387,2080
1970.6282251792127,2127
1972.586442738368,2049
1974.5442261837343,2057
1976.501575610307,2009
1978.4584911121533,2077
1980.4149727824056,2106
1982.3710207132658,2095
1984.326634996004,1993
1986.2818157209585,2063
1988.2365629775359,2103
1990.1908768542116,2094
1992.144757438527,2079
1994.0982048170954,2136
1996.0512190755953,2065
1998.0038002987749,2090
1999.95594857045,2109
2001.9076639735054,2041
2003.8589465898945,2071
2005.8097965006368,2055
2007.760213785822,2047
2009.7101985246077,1997
2011.6597507952201,2078
2013.6088706749524,2058
2015.5575582401675,2049
2017.5058135662953,1997
2019.4536367278351,2017
2021.4010277983534,2073
2023.347986850486,2082
2025.2945139559365,2083
2027.2406091854768,2055
2029.1862726089462,2064
2031.1315042952538,2133
2033.0763043123766,2041
2035.0206727273585,2092
2036.964609606313,2064
2038.908115014422,2056
2040.8511890159348,2062
2042.7938316741693,2086
2044.7360430515123,2024
2046.677823209417,2102
2048.6191722084077,1994
2050.5600901080743,2140
2052.5005769670765,2091
2054.440632843142,2042
2056.380257793066,2044
2058.3194518727128,1970
2060.258215137015,2120
2062.1965476399732,2162
2064.1344494346554,2109
2066.0719205732,2082
2068.008961106812,2035
2069.945571085764,2177
2071.8817505593997,2065
2073.817499576128,2123
2075.7528181834273,2074
2077.6877064278447,2043
2079.622164354995,2086
2081.556192009562,2121
2083.4897894352966,2022
2085.4229566750187,2135
2087.355693770616,2107
2089.2880007630456,2059
2091.219877692331,2113
2093.151324597566,2117
2095.0823415169107,2085
2097.012928487595,2099
2098.9430855459173,2130
2100.872812727242,2132
2102.8021100660035,2087
2104.730977595705,2159
2106.659415348917,2100
2108.5874233572777,2035
2110.5150016514945,2041
2112.442150261343,2167
2114.3688692156675,2123
2116.2951585423793,2059
2118.2210182684585,2083
2120.146448419954,2066
2122.0714490219825,2076
2123.9960200987293,2031
2125.920161673447,2019
2127.843873768458,2107
2129.767156405151,2149
2131.690009603985,2129
2133.612433384486,2091
2135.534427765249,2111
2137.4559927639366,2071
2139.37712839728,2116
2141.2978346810783,2081
2143.2181116301995,2124
2145.1379592585795,2135
2147.057377579222,2048
2148.9763666042,2039
2150.894926344655,2147
2152.813056810794,2126
2154.730758011896,2109
2156.648029956306,2113
2158.564872651437,2159
2160.481286103772,2104
2162.397270318861,2102
2164.312825301323,2132
2166.227951054844,2075
2168.14264758218,2074
2170.056914885153,2094
2171.9707529646566,2117
2173.8841618206484,2128
2175.7971414521585,2051
2177.7096918572825,2077
2179.621813033186,2075
2181.5335049761,2034
2183.444767681327,2061
2185.355601143236,2106
2187.2660053552654,2025
2189.1759803099208,2082
2191.085525998777,2172
2192.994642412475,2118
2194.903329540727,2184
2196.811587372312,2114
2198.7194158950765,2065
2200.626815095937,2142
2202.5337849608763,2081
2204.440325474948,2156
2206.346436622271,2135
2208.2521183860345,2054
2210.157370748496,2049
2212.0621936909793,2103
2213.966587193879,2088
2215.8705512366573,2073
2217.774085797842,2173
2219.677190855033,2118
2221.579866384897,2156
2223.4821123631677,2122
2225.3839287646483,2184
2227.2853155632106,2138
2229.186272731794,2159
2231.0868002424063,2163
2232.986898066123,2110
2234.8865661730892,2058
2236.785804532517,2112
2238.6846131126877,2178
2240.5829918809495,2063
2242.4809408037213,2131
2244.3784598464877,2102
2246.275548973803,2150
2248.172208149288,2135
2250.0684373356357,2176
2251.964236494603,2227
2253.859605587017,2138
2255.7545445727733,2094
2257.6490534108357,2131
2259.5431320592356,2215
2261.436780475073,2077
2263.329998614516,2158
2265.222786432802,2089
2267.1151438842344,2137
2269.0070709221877,2093
2270.8985674991022,2121
2272.789633566488,2088
2274.6802690749237,2062
2276.570473974053,2113
2278.4602482125933,2202
2280.3495917383257,2112
2282.238504498101,2138
2284.1269864378387,2104
2286.0150375025264,2048
2287.9026576362203,2183
2289.789846782043,2113
2291.6766048821873,2151
2293.5629318779147,2176
2295.4488277095534,2145
2297.3342923164996,2152
2299.2193256372193,2165
2301.1039276092465,2143
2302.9880981691817,2117
2304.871837252696,2071
2306.755144794528,2185
2308.6380207284838,2166
2310.5204649874386,2253
2312.4024775033354,2149
2314.2840582071854,2174
2316.165207029068,2166
2318.0459238981325,2200
2319.926208742594,2181
2321.8060614897363,2174
2323.6854820659137,2221
2325.5644703965463,2159
2327.443026406124,2125
2329.321150018203,2188
2331.1988411554107,2162
2333.0760997394395,2154
2334.952925691053,2196
2336.829318930082,2174
2338.705279375424,2169
2340.5808069450477,2150
2342.4559015559867,2168
2344.3305631243456,2151
2346.204791565297,2167
2348.07858679308,2206
2349.9519487210027,2190
2351.824877261443,2176
2353.6973723258448,2127
2355.5694338247226,2154
2357.4410616676564,2057
2359.312255763297,2154
2361.1830160193617,2266
2363.053342342637,2198
2364.9232346389776,2218
2366.792692813306,2179
2368.6617167696145,2220
2370.5303064109603,2201
2372.3984616394723,2213
2374.2661823563467,2239
2376.1334684618464,2185
2378.0003198553054,2121
2379.8667364351227,2154
2381.7327180987672,2170
2383.5982647427777,2207
2385.4633762627586,2089
2387.3280525533837,2201
2389.192293508395,2195
2391.0560990206027,2203
2392.919468981885,2220
2394.782403283189,2151
2396.644901814531,2208
2398.5069644649916,2246
2400.3685911227235,2237
2402.2297816749474,2212
2404.0905360079505,2226
2405.950854007089,2238
2407.8107355567886,2219
2409.670180540541,2127
2411.529188840908,2124
2413.387760339518,2146
2415.2458949170705,2129
2417.1035924533294,2167
2418.96085282713,2228
2420.8176759163744,2217
2422.6740615980334,2191
2424.5300097481468,2178
2426.38552024182,2192
2428.24059295323,2275
2430.0952277556207,2180
2431.949424521303,2212
2433.803183121658,2246
2435.6565034271343,2219
2437.5093853072485,2195
2439.361828630585,2233
2441.213833264798,2137
2443.0653990766095,2197
2444.916525931808,2223
2446.7672136952524,2174
2448.6174622308695,2226
2450.4672714016538,2197
2452.3166410696676,2199
2454.165571096043,2213
2456.0140613409794,2155
2457.8621116637432,2190
2459.709721922672,2220
2461.556891975169,2204
2463.403621677707,2273
2465.249910885827,2244
2467.0957594541383,2199
2468.9411672363167,2210
2470.78613408511,2170
2472.630659852331,2211
2474.4747443888614,2193
2476.3183875446516,2217
2478.161589168721,2223
2480.0043491091556,2242
2481.8466672131112,2224
2483.6885433268108,2269
2485.529977295547,2175
2487.370968963678,2258
2489.2115181746335,2224
2491.0516247709097,2232
2492.891288594071,2253
2494.7305094847497,2245
2496.569287282649,2199
2498.407621826537,2128
2500.2455129542523,2262
2502.0829605027,2215
2503.919964307855,2160
2505.7565242047594,2224
2507.5926400275252,2167
2509.42831160933,2210
2511.263538782423,2222
2513.0983213781174,2224
2514.9326592267994,2215
2516.76655215792,2223
2518.5999999999995,2208
2520.4330025806275,2207
2522.2655597264607,2158
2524.0976712632237,2176
2525.9293370157097,2215
2527.760556807782,2215
2529.591330462369,2280
2531.4216578014702,2224
2533.2515386461523,2200
2535.080972816548,2327
2536.9099601318626,2275
2538.738500410366,2286
2540.5665934693993,2223
2542.3942391253695,2193
2544.221437193752,2285
2546.0481874890925,2195
2547.874489825003,2217
2549.700344014164,2193
2551.5257498683245,2273
2553.350707198304,2230
2555.175215813986,2191
2556.9992755243256,2282
2558.8228861373454,2330
2560.646047460134,2212
2562.468759298852,2140
2564.2910214587255,2210
2566.1128337440496,2311
2567.93419595819,2225
2569.7551079035757,2282
2571.5755693817077,2234
2573.395580193155,2205
2575.2151401375536,2212
2577.034249013609,2177
2578.8529066190936,2247
2580.6711127508493,2140
2582.488867204785,2330
2584.3061697758794,2247
2586.1230202581787,2252
2587.939418444797,2338
2589.7553641279183,2239
2591.570857098791,2239
2593.385897147736,2274
2595.200484064141,2296
2597.014617636461,2226
2598.8282976522214,2255
2600.6415238980126,2266
2602.454296159496,2249
2604.266614221401,2244
2606.0784778675243,2237
2607.8898868807305,2181
2609.700841042955,2274
2611.5113401351973,2243
2613.32138393753,2188
2615.13097222909,2252
2616.940104788084,2264
2618.748781391788,2308
2620.557001816543,2241
2622.364765837763,2214
2624.1720732299264,2324
2625.9789237665814,2258
2627.7853172203445,2272
2629.5912533629,2277
2631.396731965001,2193
2633.2017527964676,2264
2635.0063156261904,2182
2636.810420222126,2270
2638.614066351301,2281
2640.417253779809,2260
2642.219982272813,2327
2644.022251594542,2305
2645.8240615082973,2246
2647.625411776444,2193
2649.4263021604183,2290
2651.226732420724,2248
2653.026702316933,2267
2654.8262116076858,2266
2656.625260050691,2239
2658.423847402724,2275
2660.221973419631,2191
2662.0196378563246,2245
2663.8168404667867,2283
2665.613581004068,2342
2667.4098592202854,2199
2669.2056748666246,2267
2671.0010276933417,2347
2672.7959174497596,2231
2674.5903438842674,2242
2676.384306744327,2220
2678.177805776465,2240
2679.9708407262765,2257
2681.7634113384274,2203
2683.555517356648,2202
2685.3471585237403,2202
2687.138334581574,2368
2688.9290452710843,2258
2690.7192903322784,2239
2692.50906950423,2273
2694.2983825250794,2244
2696.087229132039,2166
2697.875609061386,2323
2699.6635220484677,2324
2701.450967827699,2320
2703.237946132564,2254
2705.0244566956126,2255
2706.8104992484664,2202
2708.596073521813,2277
2710.381179245408,2318
2712.1658161480777,2285
2713.949983957714,2282
2715.7336824012773,2242
2717.516911204798,2177
2719.299670093374,2283
2721.0819587911706,2210
2722.8637770214223,2326
2724.6451245064322,2254
2726.426000967571,2287
2728.2064061252763,2240
2729.986339699057,2243
2731.765801407488,2243
2733.5447909682134,2311
2735.323308097945,2381
2737.101352512463,2220
2738.8789239266166,2345
2740.6560220543215,2232
2742.4326466085645,2247
2744.2087973013977,2327
2745.984473843944,2242
2747.7596759463922,2239
2749.534403318001,2314
2751.308655667096,2265
2753.0824327010737,2331
2754.8557341263954,2302
2756.628559648593,2338
2758.4009089722667,2222
2760.172781801083,2265
2761.944177837779,2303
2763.715096784159,2372
2765.4855383410945,2251
2767.2555022085267,2231
2769.024988085465,2315
2770.793995669988,2207
2772.5625246592385,2278
2774.3305747494323,2210
2776.098145635852,2161
2777.865237012847,2312
2779.6318485738357,2257
2781.397980011306,2295
2783.163631016813,2300
2784.928801280979,2274
2786.6934904934974,2262
2788.457698343127,2335
2790.221424517697,2229
2791.9846687041027,2335
2793.74743058831,2282
2795.5097098553515,2287
2797.2715061893286,2304
2799.0328192734105,2339
2800.793648789836,2277
2802.553994419911,2194
2804.3138558440087,2281
2806.073232741573,2254
2807.8321247911135,2300
2809.590531670211,2303
2811.3484530555115,2263
2813.105888622732,2315
2814.8628380466557,2293
2816.6193010011348,2322
2818.3752771590903,2257
2820.13076619251,2303
2821.885767772452,2292
2823.640281569041,2330
2825.3943072514703,2288
2827.147844488002,2287
2828.9008929459665,2343
2830.6534522917614,2288
2832.405522190854,2315
2834.1571023077786,2301
2835.9081923061394,2333
2837.658791848606,2213
2839.40890059692,2327
2841.1585182118874,2311
2842.907644353386,2258
2844.6562786803593,2299
2846.4044208508203,2295
2848.15207052185,2292
2849.899227349598,2277
2851.6458909892804,2309
2853.392061095185,2310
2855.137737320664,2327
2856.882919318142,2295
2858.6276067391063,2322
2860.371799234118,2388
2862.1154964528037,2316
2863.8586980438586,2306
2865.6014036550464,2242
2867.343612933199,2346
2869.0853255242173,2259
2870.826541073068,2311
2872.567259223789,2287
2874.307479619485,2264
2876.0472019023287,2283
2877.7864257135625,2354
2879.525150693495,2311
2881.263376481505,2354
2883.0011027160385,2312
2884.73832903461,2373
2886.4750550738027,2345
2888.2112804692665,2264
2889.9470048557223,2351
2891.682227866956,2338
2893.416949135825,2384
2895.151168294252,2315
2896.88488497323,2354
2898.6180988028204,2360
2900.3508094121503,2287
2902.083016429419,2310
2903.81471948189,2325
2905.5459181958972,2323
2907.276612196844,2356
2909.0068011091994,2324
2910.736484556502,2375
2912.465662161359,2363
2914.194333545445,2351
2915.922498329504,2396
2917.650156133346,2367
2919.377306575852,2281
2921.103949274969,2317
2922.830083847715,2358
2924.555709910173,2281
2926.2808270774967,2230
2928.005434963907,2252
2929.7295331826936,2372
2931.4531213462133,2304
2933.1761990658924,2345
2934.8987659522254,2372
2936.6208216147747,2338
2938.3423656621694,2379
2940.0633977021116,2334
2941.783917341366,2374
2943.503924185768,2474
2945.223417840223,2374
2946.9423979087023,2404
2948.6608639942456,2354
2950.378815698962,2415
2952.096252624029,2280
2953.81317436969,2382
2955.529580535259,2301
2957.2454707191177,2335
2958.9608445187164,2345
2960.6757015305734,2341
2962.3900413502733,2362
2964.103863572472,2368
2965.817167790894,2424
2967.529953598327,2336
2969.2422205866337,2360
2970.953968346739,2308
2972.6651964686407,2293
2974.3759045414035,2354
2976.0860921531585,2277
2977.7957588911067,2360
2979.504904341517,2457
2981.2135280897273,2335
2982.9216297201433,2350
2984.629208816238,2480
2986.336264960554,2333
2988.0427977347017,2475
2989.7488067193594,2350
2991.454291494274,2412
2993.1592516382607,2369
2994.8636867292034,2379
2996.567596344053,2376
2998.2709800588295,2387
2999.973837448621,2369
3001.6761680875857,2429
3003.377971548946,2349
3005.0792474049954,2368
3006.7799952270957,2355
3008.480214585676,2374
3010.1799050502345,2404
3011.8790661893368,2304
3013.5776975706176,2295
3015.2757987607793,2360
3016.973369325592,2267
3018.6704088298966,2337
3020.366916837598,2288
3022.0628929116747,2337
3023.7583366141675,2345
3025.4532475061915,2347
3027.147625147925,2318
3028.841469098617,2352
3030.534778916585,2358
3032.2275541592144,2413
3033.9197943829577,2375
3035.611499143338,2363
3037.302667994943,2340
3038.9933004914333,2367
3040.683396185535,2322
3042.372954629042,2405
3044.061975372817,2390
3045.7504579667934,2372
3047.4384019599684,2323
3049.1258069004116,2343
3050.812672335258,2396
3052.4989978107124,2382
3054.184782872047,2301
3055.870027063603,2360
3057.554729928791,2469
3059.238891010086,2448
3060.9225098490347,2319
3062.6055859862518,2350
3064.2881189614177,2331
3065.970108313285,2452
3067.651553579671,2361
3069.3324542974633,2372
3071.012810002616,2376
3072.6926202301543,2295
3074.3718845141702,2357
3076.050602387822,2315
3077.728773383339,2321
3079.406397032018,2323
3081.083472864223,2346
3082.7600004093874,2301
3084.4359791960137,2340
3086.11140875167,2307
3087.7862886029952,2329
3089.4606182756943,2316
3091.134397294544,2384
3092.807625183385,2328
3094.4803014651284,2312
3096.152425661755,2404
3097.8239972943097,2252
3099.49501588291,2390
3101.165480946741,2342
3102.8353920040518,2408
3104.504748572165,2318
3106.1735501674693,2404
3107.8417963054226,2426
3109.5094865005485,2374
3111.176620266441,2358
3112.8431971157625,2345
3114.5092165602427,2379
3116.1746781106813,2299
3117.839581276943,2318
3119.503925567965,2451
3121.167710491747,2369
3122.830935555364,2390
3124.493600264954,2354
3126.1557041257247,2393
3127.817246641952,2378
3129.478227316982,2352
3131.1386456532273,2375
3132.798501152168,2446
3134.4577933143537,2326
3136.116521639402,2426
3137.7746856259982,2331
3139.4322847718977,2383
3141.0893185739224,2392
3142.745786527962,2415
3144.4016881289754,2498
3146.0570228709903,2481
3147.711790247102,2381
3149.3659897494754,2425
3151.0196208693396,2451
3152.6726830969974,2389
3154.3251759218165,2384
3155.9770988322334,2356
3157.6284513157534,2367
3159.2792328589485,2379
3160.929442947461,2429
3162.579081066002,2336
3164.2281466983477,2413
3165.8766393273454,2434
3167.5245584349086,2394
3169.1719035020224,2477
3170.818674008735,2399
3172.4648694341677,2442
3174.110489256508,2398
3175.7555329530105,2357
3177.4000000000005,2450
3179.0438898728707,2364
3180.6872020460805,2443
3182.32993599316,2480
3183.972091186706,2395
3185.613667098384,2413
3187.254663198927,2394
3188.8950789581386,2416
3190.5349138448873,2400
3192.1741673271126,2362
3193.8128388718224,2340
3195.4509279450886,2380
3197.0884340120574,2395
3198.725356536939,2419
3200.361694983014,2399
3201.997448812629,2415
3203.632617487203,2338
3205.2672004672195,2305
3206.901197212229,2345
3208.5346071808563,2382
3210.167429830789,2352
3211.799664618785,2397
3213.4313110006706,2314
3215.0623684313387,2400
3216.692836364753,2347
3218.3227142539445,2405
3219.9520015510125,2380
3221.5806977071215,2342
3223.2088021725103,2421
3224.8363143964816,2405
3226.4632338274077,2309
3228.089559912728,2322
3229.715292098951,2411
3231.3404298316545,2417
3232.9649725554846,2433
3234.5889197141523,2412
3236.2122707504395,2434
3237.8350251061984,2390
3239.457182222345,2402
3241.0787415388677,2380
3242.6997024948187,2467
3244.3200645283223,2316
3245.9398270765696,2313
3247.558989575821,2469
3249.177551461403,2439
3250.7955121677123,2386
3252.412871128213,2414
3254.029627775437,2398
3255.6457815409867,2380
3257.2613318555286,2337
3258.876278148802,2383
3260.490619849613,2391
3262.1043563858348,2395
3263.717487184408,2331
3265.3300116713453,2354
3266.941929271725,2406
3268.5532394096917,2409
3270.1639415084646,2529
3271.7740349903233,2414
3273.383519276621,2418
3274.9923937877775,2444
3276.6006579432833,2401
3278.2083111616903,2374
3279.815352860627,2365
3281.421782456786,2490
3283.027599365927,2418
3284.632803002881,2415
3286.237392781545,2477
3287.841368114885,2428
3289.4447284149373,2394
3291.047473092801,2427
3292.649601558651,2413
3294.2511132217223,2390
3295.8520074903254,2390
3297.452283771835,2380
3299.051941472695,2451
3300.650979998417,2344
3302.2493987535827,2451
3303.8471971418403,2430
3305.4443745659064,2445
3307.0409304275654,2390
3308.636864127674,2456
3310.2321750661513,2416
3311.8268626419876,2432
3313.420926253242,2459
3315.01436529704,2347
3316.6071791695776,2356
3318.1993672661183,2390
3319.7909289809913,2334
3321.3818637075983,2340
3322.972170838406,2380
3324.561849764951,2396
3326.150899877838,2388
3327.7393205667386,2424
3329.3271112203956,2433
3330.9142712266166,2409
3332.5007999722793,2406
3334.08669684333,2437
3335.6719612247834,2452
3337.2565925007193,2479
3338.840590054291,2489
3340.4239532677157,2459
3342.006681522281,2479
3343.5887741983406,2457
3345.1702306753214,2362
3346.7510503317126,2460
3348.3312325450743,2512
3349.910776692037,2451
3351.4896821482953,2435
3353.0679482886153,2443
3354.645574486829,2470
3356.2225601158398,2493
3357.798904547615,2399
