CollectionTime,4/2/2024 11:29:52 AM
ExposureUsed,3
CalibratedSpectrum
-994.8464149364308,560
-991.9439705588344,638
-989.042830375826,645
-986.1429931109675,715
-983.2444574887519,813
-980.3472222346043,762
-977.4512860748813,709
-974.5566477368716,667
-971.6633059487953,675
-968.7712594398042,676
-965.8805069399822,635
-962.9910471803447,633
-960.1028788928387,672
-957.2160008103432,696
-954.3304116666687,682
-951.4461101965578,699
-948.5630951356844,727
-945.6813652206545,809
-942.8009191890055,786
-939.9217557792067,819
-937.0438737306594,774
-934.167271783696,745
-931.2919486795813,740
-928.4179031605115,711
-925.5451339696144,742
-922.67363985095,772
-919.8034195495097,771
-916.9344718112166,725
-914.0667953829256,782
-911.2003890124234,778
-908.3352514484286,795
-905.471381440591,764
-902.6087777394928,686
-899.7474390966474,716
-896.8873642645002,783
-894.0285519964284,717
-891.1710010467407,723
-888.3147101706776,769
-885.4596781244115,782
-882.6059036650465,713
-879.7533855506183,696
-876.9021225400943,698
-874.0521133933738,707
-871.2033568712878,699
-868.3558517355991,766
-865.509596749002,854
-862.6645906751228,853
-859.8208322785192,918
-856.9783203246812,916
-854.1370535800299,756
-851.2970308119186,725
-848.4582507886321,753
-845.620712279387,747
-842.7844140543316,713
-839.9493548845461,794
-837.1155335420422,778
-834.2829487997635,765
-831.4515994315852,742
-828.6214842123144,806
-825.7926019176898,786
-822.9649513243819,776
-820.138531209993,796
-817.3133403530569,798
-814.4893775330396,813
-811.6666415303382,790
-808.845131126282,749
-806.0248451031321,816
-803.2057822440808,696
-800.3879413332527,750
-797.5713211557038,761
-794.755920497422,821
-791.941738145327,777
-789.1287728872701,779
-786.3170235120342,876
-783.5064888093341,796
-780.6971675698165,729
-777.8890585850597,721
-775.0821606475735,846
-772.2764725507997,854
-769.4719930891118,752
-766.6687210578151,799
-763.8666552531465,970
-761.0657944722747,1108
-758.2661375133,931
-755.4676831752547,805
-752.6704302581027,741
-749.8743775627395,765
-747.0795238909925,763
-744.285868045621,767
-741.4934088303156,781
-738.702145049699,781
-735.9120755093254,828
-733.123199015681,973
-730.3355143761836,1034
-727.5490203991826,822
-724.7637158939592,818
-721.9795996707265,775
-719.1966705406293,722
-716.4149273157439,766
-713.6343688090786,729
-710.8549938345734,762
-708.0768012070998,776
-705.2997897424614,768
-702.5239582573931,843
-699.7493055695622,888
-696.9758304975669,831
-694.2035318609377,824
-691.4324084801367,806
-688.6624591765578,825
-685.8936827725265,822
-683.1260780913001,819
-680.3596439570675,823
-677.5943791949499,812
-674.8302826309991,793
-672.0673530922,798
-669.3055894064685,807
-666.5449904026519,904
-663.78555491053,787
-661.0272817608139,776
-658.2701697851465,887
-655.5142178161026,889
-652.7594246871884,944
-650.0057892328422,877
-647.2533102884337,839
-644.5019866902646,865
-641.7518172755683,833
-639.0028008825099,790
-636.254936350186,932
-633.5082225186254,890
-630.7626582287882,843
-628.0182423225665,824
-625.2749736427841,822
-622.5328510331965,944
-619.7918733384909,966
-617.0520394042862,959
-614.3133480771331,955
-611.5757982045143,940
-608.8393886348437,1026
-606.1041182174672,1040
-603.3699858026625,1019
-600.6369902416393,1027
-597.9051303865383,1051
-595.1744050904326,1076
-592.4448132073267,1156
-589.7163535921568,1141
-586.9890251007912,973
-584.2628265900296,936
-581.5377569176036,965
-578.8138149421764,1021
-576.090999523343,995
-573.3693095216302,946
-570.6487437984965,1030
-567.9293012163321,1049
-565.210980638459,1129
-562.4937809291307,1030
-559.7777009535329,979
-557.0627395777825,1034
-554.3488956689287,1033
-551.6361680949519,1059
-548.9245557247644,1180
-546.2140574282107,1263
-543.5046720760662,1219
-540.7963985400388,1079
-538.0892356927677,1157
-535.3831824078238,1229
-532.6782375597103,1416
-529.9744000238613,1409
-527.2716686766433,1500
-524.5700423953542,1661
-521.8695200582238,1570
-519.1701005444136,1413
-516.4717827340166,1525
-513.7745655080581,1593
-511.0784477484944,1747
-508.38342833821423,1903
-505.68950616103757,2073
-502.9966801017163,2253
-500.3049490459341,2481
-497.61431188030633,2288
-494.9247674923801,1940
-492.2363147706342,1756
-489.54895260447927,1640
-486.86267988425755,1559
-484.1774955012431,1575
-481.4933983476417,1471
-478.8103873165908,1420
-476.1284613021596,1283
-473.44761919934945,1288
-470.7678599040928,1278
-468.089182313254,1381
-465.4115853246294,1380
-462.735067836947,1516
-460.0596287498663,1446
-457.3852669639789,1225
-454.71198138080774,1143
-452.03977090280773,1146
-449.3686344333656,1106
-446.69857087679964,1227
-444.02957913835996,1294
-441.36165812422837,1341
-438.6948067415183,1366
-436.0290238982752,1330
-433.36430850347597,1276
-430.7006594670296,1310
-428.0380756997763,1299
-425.3765561134885,1281
-422.7160996208702,1249
-420.0567051355571,1377
-417.3983715721164,1299
-414.7410978460475,1301
-412.08488287378145,1389
-409.4297255726806,1434
-406.77562486103955,1290
-404.1225796580843,1241
-401.4705888839728,1069
-398.8196514597947,1118
-396.1697663075713,1274
-393.5209323502555,1085
-390.8731485117323,834
-388.22641371681823,918
-385.5807268912615,1102
-382.93608696174226,1021
-380.29249285587207,830
-377.64994350219456,781
-375.0084378301849,882
-372.36797477025016,905
-369.7285532537287,969
-367.0901722128914,910
-364.45283058094014,777
-361.8165272920089,891
-359.1812612811634,808
-356.54703148440103,644
-353.9138368386507,694
-351.28167628177346,839
-348.6505487525617,897
-346.02045319074,802
-343.3913885369643,821
-340.76335373282245,902
-338.1363477208339,807
-335.5103694444499,906
-332.8854178480535,991
-330.26149187695944,1067
-327.63859047741425,939
-325.016712596596,745
-322.3958571826148,793
-319.77602318451227,887
-317.15720955226186,934
-314.5394152367686,845
-311.9226391898695,819
-309.3068803643333,809
-306.69213771386023,1102
-304.0784101930824,1313
-301.4656967575635,1074
-298.8539963637994,1046
-296.2433079692172,1080
-293.6336305321761,1074
-291.02496301196675,1086
-288.41730436881176,1147
-285.81065356386534,1062
-283.2050095592135,1127
-280.60037131787396,1725
-277.9967378037961,1892
-275.39410798186134,1486
-272.7924808178824,1351
-270.19185527860407,1358
-267.5922303317028,1315
-264.9936049457866,1489
-262.3959780903955,1495
-259.79934873600087,1622
-257.2037158540064,1475
-254.6090784167469,1470
-252.01543539748934,1657
-249.42278577043237,1187
-246.8311285107061,1178
-244.24046259437262,1359
-241.6507869984256,1269
-239.0621007007909,1255
-236.4744026803254,1367
-233.88769191681808,1391
-231.30196739098994,1392
-228.7172280844934,1239
-226.13347297991243,1321
-223.550701060763,1389
-220.9689113114929,1255
-218.3881027174814,1186
-215.8082742650397,1500
-213.22942494141068,2060
-210.65155373476898,2361
-208.07465963422078,1926
-205.49874162980439,1912
-202.92379871248932,1818
-200.34982987417743,1715
-197.7768341077018,1522
-195.20481040682762,1353
-192.63375776625162,1339
-190.0636751816021,1557
-187.49456164943945,1515
-184.92641616725564,1534
-182.3592377334743,1711
-179.79302534745102,2089
-177.2277780094729,2176
-174.66349472075865,1983
-172.10017448345923,2162
-169.5378163006569,2106
-166.97641917636565,1940
-164.41598211553162,2037
-161.8565041240322,2572
-159.29798420867678,2470
-156.74042137720642,2367
-154.18381463829382,2580
-151.6281630015436,2338
-149.07346547749228,2059
-146.51972107760753,1957
-143.96692881428908,2425
-141.41508770086864,2726
-138.86419675160937,2198
-136.31425498170609,1929
-133.7652614072856,2198
-131.21721504540642,2185
-128.67011491405844,2507
-126.12396003216395,3474
-123.57874941957618,3905
-121.03448209708074,3115
-118.49115708639465,2944
-115.94877341016684,3054
-113.40733009197788,3272
-110.86682615633993,3080
-108.32726062869733,3331
-105.78863253542556,4518
-103.25094090383243,6131
-100.71418476215695,4915
-98.17836313957025,4391
-95.64347506617503,3716
-93.10951957300585,3691
-90.57649569202886,4019
-88.04440245614194,3803
-85.51323889917478,4147
-82.98300405588896,5211
-80.45369696197747,6585
-77.925316654065,8602
-75.39786216970867,10342
-72.87133254739649,13539
-70.34572682654857,16015
-67.82104404751692,20990
-65.29728325158499,28055
-62.774443480968216,38772
-60.252523778813384,43028
-57.73152318919938,48461
-55.21144075713676,47227
-52.69227552856796,38826
-50.17402655036665,37178
-47.65669287033859,33002
-45.14027353722133,26037
-42.624767600684095,29637
-40.11017411132775,36409
-37.59649212068507,43060
-35.08372068122037,49001
-32.57185884632963,53725
-30.06090567034107,51374
-27.550860208513996,55553
-25.04172151704006,62889
-22.533488653042014,65042
-20.02616067457484,65042
-17.51973664062507,65042
-15.014215611111126,65042
-12.509596646882983,65042
-10.005878809722162,65042
-7.503061162342419,65042
-5.001142768389059,65042
-2.5001226924387083,65042
-3.410605131648481E-13,65042
2.49922624248552,65042
4.997556967646801,65042
7.494993107179766,65042
9.99153559184856,65042
12.487185351485778,65042
14.98194331499235,65042
17.475810410337544,65042
19.96878756455851,65042
22.46087570376085,65042
24.952075753118834,65042
27.442388636874625,27737
29.93181527833849,9902
32.42035659988892,8261
34.90801352297353,11800
37.39478696810693,10815
39.880677854873056,10388
42.36568710192364,9452
44.8498156269784,12166
47.33306434682618,10441
49.815434177322686,9888
52.296926033393675,10002
54.77754082903198,9619
57.25727947729865,10833
59.736142890323435,9603
62.214131979304284,6075
64.6912476545076,5143
67.16749082526735,4513
69.64286239998614,4040
72.11736328613551,3883
74.59099439025431,4176
77.06375661794982,4843
79.53565087389825,4285
82.0066780618431,4939
84.4768390845968,4731
86.94613484403999,5157
89.41456624112152,6635
91.88213417585825,5662
94.34883954733527,4244
96.81468325370679,4116
99.2796661921941,3128
101.74378925908763,3933
104.20705334974559,4345
106.66945935859462,4410
109.1310081791296,3992
111.59170070391383,4464
114.05153782457865,4304
116.5105204318238,3468
118.96864941541708,3951
121.42592566419489,4882
123.88235006606146,4193
126.3379235079899,3286
128.79264687602085,3640
131.2465210552641,4180
133.69954692989631,3385
136.15172538316415,3479
138.60305729738116,3232
141.05354355393,3090
143.50318503326116,2906
145.95198261489327,2828
148.39993717741368,2783
150.84704959847772,3588
153.29332075480897,4327
155.73875152219944,3791
158.18334277550935,3248
160.62709538866693,2787
163.0700102346691,2812
165.51208818558075,3219
167.953330112535,3287
170.39373688573346,3092
172.8333093744459,3330
175.2720484470101,3233
177.70995497083277,3296
180.14702981238815,3679
182.58327383721917,3589
185.01868790993672,3559
187.45327289422062,3317
189.88702965281777,3449
192.31995904754444,3348
194.75206193928489,3571
197.18333918799135,3252
199.61379165268454,3086
202.04342019145315,3066
204.4722256614548,3297
206.90020891891436,3533
209.32737081912592,3618
211.7537122164515,3418
214.17923396432116,3353
216.6039369152336,3476
219.0278219207553,3361
221.45088983152186,3485
223.8731414972358,3429
226.29457776666914,3412
228.71519948766172,3380
231.1350075071216,3610
233.55400267102482,3629
235.97218582441633,3693
238.38955781140908,3451
240.806119475184,3670
243.2218716579905,3741
245.6368152011462,3507
248.05095094503736,3497
250.46427972911806,3567
252.87680239191036,3684
255.28851977100544,3773
257.69943270306203,3792
260.10954202380753,3309
262.5188485680378,3288
264.92735316961557,3619
267.33505666147425,3563
269.7419598756128,3625
272.14806364310084,3772
274.5533687940747,3420
276.95787615773975,3250
279.361586562369,3284
281.7645008353045,3180
284.1666198029559,3419
286.5679442908013,3483
288.96847512338695,3434
291.3682131243279,3454
293.7671591163071,3456
296.1653139210757,3412
298.562678359453,3474
300.9592532513268,3371
303.3550394156532,3474
305.75003767045655,3311
308.14424883282936,3254
310.53767371893196,3324
312.93031314399377,3242
315.3221679223125,3071
317.71323886725304,3193
320.1035267912496,3027
322.49303250580397,2995
324.881756821487,3017
327.2697005479374,2974
329.65686449386135,3011
332.0432494670347,3154
334.4288562743004,2985
336.81368572157066,2894
339.19773861382487,2781
341.58101575511205,2864
343.96351794854786,2902
346.3452459963173,2737
348.72620069967365,2815
351.1063828589379,2939
353.48579327349967,2969
355.8644327418169,2894
358.24230206141533,2814
360.6194020288899,2853
362.99573343990255,2638
365.3712970891845,2647
367.7460937705348,2720
370.12012427682066,2695
372.493389399978,2686
374.86588993101077,2596
377.23762665999084,2538
379.6086003760588,2568
381.9788118674235,2615
384.34826192136165,2693
386.7169513242188,2637
389.08488086140824,2621
391.4520513174118,2645
393.8184634757795,2765
396.1841181191296,2895
398.54901602914856,2832
400.9131579865916,2702
403.2765447712811,2819
405.63917716210926,2842
408.00105593703483,2779
410.36218187308646,2593
412.7225557463596,2588
415.0821783320191,2622
417.4410504042976,2586
419.79917273649585,2554
422.1565461009834,2568
424.5131712691973,2588
426.869049011643,2680
429.22418009789544,2573
431.578565296596,2494
433.9322053754556,2364
436.28510110125285,2409
438.6372532398352,2462
440.98866255611733,2478
443.33932981408293,2506
445.6892557767842,2413
448.0384412063411,2426
450.38688686394175,2741
452.7345935098431,2672
455.0815619033697,2487
457.42779280291506,2499
459.7732869659403,2600
462.1180451489754,2674
464.4620681076178,2710
466.80535659653424,2632
469.1479113694588,2667
471.48973317919445,2687
473.8308227776122,2759
476.17118091565135,2876
478.51080834331924,2926
480.8497058096914,3002
483.1878740629122,3175
485.5253138501944,3237
487.8620259178176,3525
490.1980110111317,3721
492.53326987455307,4051
494.86780325156724,3988
497.201611884728,4205
499.53469651565683,4202
501.8670578850447,4064
504.1986967326493,3905
506.52961379729754,3854
508.85980981688454,3583
511.18928552837315,3506
513.5180416677952,3393
515.8460789702503,3596
518.1733981699067,4249
520.5,5120
522.8258851928354,5570
525.1510544797857,5165
527.4755085912916,4619
529.7992482568625,4129
532.1222742050759,3418
534.4445871635783,2859
536.766187859083,2586
539.0870770173726,2458
541.4072553632982,2446
543.7267236207783,2344
546.0454825128002,2335
548.363532761419,2370
550.6808750877592,2436
552.9975102120118,2393
555.3134388534377,2400
557.6286617303654,2268
559.9431795601911,2380
562.2569930593802,2375
564.570102943466,2434
566.88250992705,2463
569.1942147238021,2368
571.5052180464602,2312
573.8155206068309,2245
576.1251231157885,2424
578.4340262832759,2426
580.7422308183045,2363
583.0497374289534,2287
585.3565468223703,2207
587.6626597047714,2251
589.9680767814409,2221
592.2727987567309,2294
594.5768263340624,2339
596.8801602159238,2314
599.1828011038731,2241
601.4847496985356,2331
603.7860066996047,2280
606.0865728058427,2232
608.3864487150802,2183
610.6856351242152,2264
612.9841327292149,2252
615.2819422251141,2206
617.5790643060163,2234
619.8754996650935,2221
622.1712489945849,2309
624.466312985799,2220
626.7606923291121,2212
629.0543877139692,2319
631.347399828883,2215
633.6397293614343,2215
635.9313769982732,2287
638.2223434251173,2260
640.5126293267522,2342
642.8022353870326,2304
645.0911622888809,2222
647.3794107142876,2291
649.666981344312,2334
651.9538748590815,2379
654.2400919377915,2325
656.525633258706,2371
658.8104994991568,2322
661.0946913355442,2416
663.3782094433375,2350
665.6610544970729,2305
667.9432271703561,2368
670.22472813586,2392
672.5055580653268,2501
674.7857176295659,2357
677.065207498456,2206
679.3440283409432,2320
681.6221808250425,2283
683.899665617837,2285
686.1764833854772,2175
688.4526347931837,2345
690.7281205052436,2317
693.0029411850135,2446
695.2770974949171,2265
697.5505900964474,2419
699.8234196501651,2336
702.0955868156989,2158
704.3670922517472,2266
706.6379366160747,2342
708.9081205655159,2277
711.1776447559728,2295
713.4465098424155,2266
715.714716478883,2394
717.9822653184822,2382
720.2491570133882,2360
722.5153922148452,2296
724.7809715731639,2341
727.0458957377248,2296
729.3101653569763,2215
731.5737810784346,2321
733.8367435486853,2338
736.0990534133803,2326
738.3607113172418,2410
740.6217179040591,2409
742.8820738166899,2344
745.1417796970607,2320
747.4008361861659,2316
749.6592439240678,2407
751.9170035498973,2461
754.1741157018539,2528
756.4305810172048,2426
758.686400132286,2365
760.9415736825013,2454
763.196102302323,2393
765.4499866252911,2367
767.7032272840152,2462
769.9558249101717,2387
772.207780134506,2524
774.4590935868323,2534
776.7097658960313,2661
778.9597976900541,2503
781.2091895959184,2419
783.457942239711,2444
785.7060562465867,2384
787.9535322407687,2515
790.2003708455488,2467
792.4465726832861,2529
794.6921383754088,2503
796.9370685424128,2525
799.1813638038632,2603
801.4250247783918,2544
803.6680520837006,2395
805.9104463365579,2400
808.1522081528019,2385
810.393338147338,2342
812.6338369341406,2390
814.8737051262517,2435
817.1129433357819,2439
819.35155217391,2490
821.5895322508834,2373
823.8268841760168,2410
826.0636085576946,2453
828.2997060033681,2352
830.535177119558,2445
832.7700225118522,2342
835.0042427849078,2439
837.2378385424493,2421
839.4708103872701,2456
841.7031589212318,2402
843.9348847452643,2413
846.1659884593648,2451
848.3964706626004,2418
850.6263319531054,2394
852.8555729280824,2348
855.0841941838025,2408
857.3121963156052,2426
859.5395799178978,2415
861.7663455841566,2445
863.9924939069251,2590
866.2180254778159,2490
868.4429408875103,2480
870.6672407257561,2529
872.890925581371,2550
875.1139960422404,2479
877.336452695318,2423
879.5582961266261,2448
881.7795269212543,2516
884.0001456633613,2517
886.2201529361741,2575
888.4395493219874,2659
890.6583354021648,2654
892.8765117571375,2582
895.094078966405,2555
897.3110376085365,2553
899.5273882611671,2500
901.7431315010019,2475
903.958267903814,2399
906.1727980444443,2490
908.3867224968019,2493
910.6000418338647,2465
912.8127566276792,2433
915.0248674493587,2524
917.2363748690857,2527
919.4472794561113,2456
921.6575817787543,2493
923.867282404402,2269
926.0763818995099,2262
928.2848808296014,2321
930.4927797592693,2397
932.700079252173,2374
934.9067798710416,2341
937.112882177672,2392
939.3183867329287,2243
941.5232940967453,2308
943.727604828124,2264
945.9313194851336,2278
948.1344386249132,2380
950.3369628036685,2390
952.5388925766747,2354
954.7402284982745,2262
956.9409711218789,2266
959.1411209999676,2278
961.3406786840883,2267
963.5396447248565,2270
965.7380196719573,2408
967.9358040741427,2236
970.1329984792335,2243
972.3296034341188,2218
974.5256194847555,2223
976.72104717617,2207
978.9158870524552,2175
981.1101396567742,2175
983.3038055313566,2175
985.4968852175009,2260
987.6893792555747,2166
989.8812881850124,2258
992.072612544318,2268
994.263352871063,2199
996.453509701887,2130
998.6430835724984,2115
1000.832075017674,2058
1003.0204845712583,2021
1005.208312766164,2073
1007.3955601343728,2029
1009.5822272069338,2051
1011.7683145139652,2077
1013.9538225846525,2063
1016.1387519472505,2024
1018.3231031290818,1980
1020.5068766565371,2038
1022.6900730550753,1981
1024.872692849224,2058
1027.054736562579,1958
1029.2362047178037,2019
1031.4170978366305,2019
1033.5974164398597,1939
1035.7771610473603,1985
1037.9563321780693,1937
1040.1349303499917,1965
1042.3129560802006,1939
1044.490409884838,1893
1046.667292279115,1895
1048.8436037773079,1893
1051.0193448927644,1963
1053.1945161378994,1956
1055.3691180241954,1975
1057.5431510622038,1939
1059.7166157615447,1938
1061.8895126309053,1998
1064.0618421780423,1941
1066.2336049097798,1939
1068.4048013320107,1947
1070.5754319496955,1877
1072.745497266863,1880
1074.9149977866118,1918
1077.0839340111065,1897
1079.2523064415818,1902
1081.4201155783398,1808
1083.587361920751,1837
1085.7540459672537,1833
1087.9201682153553,1896
1090.0857291616308,1850
1092.2507293017238,1906
1094.4151691303464,1797
1096.579049141279,1834
1098.7423698273687,1857
1100.9051316805335,1835
1103.0673351917571,1860
1105.2289808510936,1754
1107.3900691476633,1827
1109.550600569657,1832
1111.710575604332,1814
1113.8699947380146,1797
1116.028858456099,1818
1118.1871672430489,1943
1120.344921582394,1853
1122.5021219567334,1897
1124.6587688477362,1787
1126.8148627361365,1927
1128.9704041017399,1893
1131.1253934234173,1844
1133.2798311791098,1786
1135.4337178458263,1813
1137.5870538996437,1828
1139.7398398157075,1826
1141.8920760682313,1853
1144.0437631304972,1806
1146.1949014748543,1865
1148.3454915727225,1851
1150.4955338945874,1853
1152.6450289100044,1838
1154.7939770875969,1921
1156.9423788950558,1828
1159.0902347991405,1859
1161.2375452656802,1774
1163.3843107595703,1835
1165.530531744775,1796
1167.6762086843282,1828
1169.8213420403304,1750
1171.9659322739503,1771
1174.1099798454266,1811
1176.2534852140639,1818
1178.3964488382376,1791
1180.538871175389,1805
1182.680752682029,1953
1184.8220938137365,1883
1186.9628950251595,1784
1189.103156770012,1841
1191.2428795010783,1811
1193.3820636702108,1793
1195.5207097283287,1803
1197.6588181254215,1763
1199.7963893105457,1867
1201.9334237318253,1822
1204.0699218364548,1791
1206.2058840706954,1838
1208.3413108798773,1767
1210.476202708397,1817
1212.6105599997222,1741
1214.7443831963874,1824
1216.877672739995,1823
1219.0104290712165,1820
1221.1426526297905,1941
1223.2743438545253,1836
1225.4055031832972,1851
1227.5361310530493,1781
1229.6662278997946,1765
1231.7957941586142,1757
1233.9248302636565,1843
1236.053336648139,1853
1238.1813137443464,1861
1240.3087619836338,1905
1242.4356817964222,1813
1244.5620736122019,1804
1246.6879378595318,1778
1248.813274966039,1814
1250.938085358418,1804
1253.062369462432,1817
1255.186127702913,1823
1257.3093605037611,1763
1259.4320682879434,1822
1261.554251477498,1799
1263.6759104935277,1817
1265.797045756206,1809
1267.9176576847744,1906
1270.0377466975428,1869
1272.1573132118879,1853
1274.2763576442567,1908
1276.394880410162,1848
1278.5128819241877,1896
1280.6303625999835,1879
1282.7473228502695,1839
1284.8637630868325,1871
1286.9796837205272,1832
1289.0950851612783,1880
1291.209967818078,1925
1293.3243320989864,1947
1295.4381784111324,1941
1297.551507160712,1903
1299.6643187529912,1854
1301.776613592303,1895
1303.888392082049,1862
1305.9996546246998,1849
1308.1104016217923,1896
1310.220633473934,1933
1312.3303505807999,1868
1314.4395533411316,1867
1316.5482421527418,1901
1318.6564174125092,1899
1320.7640795163816,1849
1322.8712288593752,1928
1324.9778658355744,1880
1327.0839908381313,1871
1329.1896042592675,1871
1331.2947064902714,1908
1333.3992979215009,1978
1335.503378942381,1930
1337.6069499414057,1891
1339.7100113061383,1849
1341.8125634232074,1911
1343.9146066783128,1908
1346.0161414562212,1902
1348.1171681407677,1838
1350.2176871148563,1851
1352.3176987604575,1952
1354.4172034586127,1866
1356.5162015894289,1930
1358.6146935320835,1889
1360.7126796648213,1926
1362.8101603649548,1829
1364.9071360088656,1864
1367.0036069720036,1920
1369.099573628886,1855
1371.195036353099,1893
1373.2899955172975,1926
1375.3844514932039,1847
1377.4784046516088,1846
1379.5718553623715,1863
1381.6648039944193,1886
1383.7572509157485,1889
1385.8491964934224,1901
1387.9406410935735,1906
1390.0315850814022,1878
1392.122028821177,1934
1394.2119726762357,1889
1396.3014170089828,1908
1398.3903621808918,1910
1400.4788085525051,1894
1402.566756483432,1901
1404.6542063323514,1805
1406.7411584570095,1893
1408.8276132142219,1896
1410.9135709598704,1842
1412.9990320489078,1869
1415.083996835353,1845
1417.1684656722937,1880
1419.2524389118867,1899
1421.3359169053565,1862
1423.4189000029946,1973
1425.5013885541634,1951
1427.5833829072913,1828
1429.664883409876,1888
1431.7458904084833,1844
1433.8264042487467,1839
1435.9064252753697,1830
1437.9859538321216,1889
1440.0649902618416,1871
1442.1435349064373,1903
1444.2215881068837,1901
1446.2991502032237,1904
1448.37622153457,1951
1450.452802439103,1961
1452.5288932540698,1933
1454.604494315788,1932
1456.6796059596427,1905
1458.7542285200866,1858
1460.8283623306415,1921
1462.902007723897,1824
1464.9751650315106,1939
1467.0478345842089,1922
1469.1200167117868,1937
1471.1917117431062,1877
1473.2629200060992,1920
1475.333641827764,1860
1477.4038775341692,1917
1479.4736274504498,1903
1481.5428919008104,1937
1483.6116712085222,1865
1485.6799656959279,1891
1487.7477756844346,1895
1489.8151014945201,1910
1491.88194344573,1975
1493.9483018566775,1890
1496.0141770450455,1946
1498.0795693275822,1827
1500.1444790201076,1867
1502.2089064375086,1845
1504.2728518937402,1861
1506.3363157018239,1924
1508.3992981738534,1912
1510.4617996209872,1922
1512.5238203534536,1871
1514.5853606805495,1893
1516.6464209106384,1912
1518.7070013511543,1904
1520.7671023085973,1914
1522.8267240885375,1947
1524.885866995612,1914
1526.9445313335268,1937
1529.002717405056,1937
1531.0604255120425,1942
1533.1176559553965,1958
1535.1744090350971,1935
1537.2306850501914,1948
1539.2864842987956,1958
1541.3418070780922,2007
1543.396653684334,1929
1545.4510244128405,2033
1547.5049195580013,2015
1549.5583394132727,1977
1551.61128427118,1986
1553.6637544233158,1987
1555.7157501603415,1951
1557.7672717719888,1970
1559.8183195470538,2028
1561.8688937734037,2030
1563.9189947379737,2015
1565.9686227267657,2021
1568.0177780248514,1963
1570.0664609163696,2011
1572.1146716845292,1995
1574.162410611605,2012
1576.2096779789413,2017
1578.2564740669518,1984
1580.3027991551157,1917
1582.3486535219831,1922
1584.3940374451709,1905
1586.4389512013645,1962
1588.4833950663178,1927
1590.5273693148533,1938
1592.5708742208603,1969
1594.6139100572982,2015
1596.6564770961936,1954
1598.698575608642,1940
1600.7402058648063,2019
1602.7813681339185,2039
1604.8220626842776,1978
1606.8622897832533,1986
1608.9020496972812,1968
1610.9413426918663,1932
1612.9801690315808,2012
1615.018528980066,1956
1617.056422800033,1983
1619.0938507532578,1958
1621.1308131005876,1939
1623.1673101019355,1910
1625.2033420162848,1952
1627.2389091016862,1919
1629.274011615259,1931
1631.3086498131897,1975
1633.3428239507352,1983
1635.376534282219,2005
1637.4097810610324,1947
1639.4425645396364,2047
1641.4748849695593,1956
1643.5067426013989,1953
1645.53813768482,1938
1647.5690704685549,1976
1649.5995412004067,1931
1651.6295501272452,1906
1653.6590974950086,2037
1655.6881835487025,1973
1657.7168085324029,1969
1659.7449726892523,1945
1661.772676261462,1965
1663.7999194903114,1935
1665.8267026161484,1964
1667.8530258783894,1930
1669.8788895155185,1947
1671.9042937650888,1976
1673.9292388637205,2090
1675.953725047103,1987
1677.977752549994,1902
1680.0013216062184,1931
1682.0244324486712,1959
1684.0470853093134,1906
1686.0692804191767,1935
1688.0910180083588,2036
1690.1122983060268,1908
1692.1331215404175,1977
1694.1534879388319,1908
1696.173397727644,2013
1698.1928511322926,1979
1700.211848377286,1994
1702.2303896862018,2077
1704.248475281684,2012
1706.2661053854458,1957
1708.2832802182684,2008
1710.300000000002,1975
1712.3162649495644,1984
1714.3320752849409,1963
1716.3474312231865,1881
1718.362332980424,2007
1720.376780771845,1917
1722.3907748117072,1973
1724.4043153133393,1945
1726.4174024891367,2037
1728.4300365505628,2027
1730.442217708151,1973
1732.4539461715008,1958
1734.465222149282,1916
1736.4760458492306,1951
1738.4864174781524,1938
1740.496337241921,1954
1742.5058053454786,1950
1744.5148219928346,2027
1746.523387387068,2016
1748.531501730325,1973
1750.5391652238209,1902
1752.5463780678388,2025
1754.55314046173,1972
1756.5594526039135,1951
1758.565314691879,1971
1760.5707269221812,2046
1762.5756894904443,2005
1764.580202591363,2042
1766.5842664186966,1930
1768.5878811652751,1991
1770.591047022996,2059
1772.593764182825,2013
1774.5960328347965,1999
1776.5978531680116,2024
1778.5992253706427,1934
1780.6001496299273,2050
1782.6006261321731,1947
1784.6006550627553,1976
1786.6002366061175,2053
1788.5993709457725,2037
1790.5980582642992,2032
1792.5962987433468,1942
1794.5940925636314,2007
1796.5914399049389,2004
1798.5883409461221,1926
1800.584795865102,1971
1802.580804838869,1977
1804.5763680434807,2028
1806.571485654064,1977
1808.566157844813,1959
1810.5603847889902,1964
1812.5541666589274,2027
1814.5475036260236,1972
1816.5403958607467,2030
1818.5328435326323,2029
1820.5248468102845,1936
1822.5164058613755,1965
1824.5075208526468,2009
1826.4981919499064,2012
1828.488419318032,1996
1830.4782031209684,1980
1832.4675435217305,2002
1834.4564406823993,1990
1836.4448947641258,1982
1838.432905927128,1973
1840.4204743306927,2093
1842.4076001331746,2019
1844.3942834919985,2023
1846.380524563654,1944
1848.366323503702,2034
1850.351680466771,1995
1852.3365956065563,2056
1854.3210690758228,2038
1856.3051010264044,2035
1858.2886916092007,2014
1860.271840974182,2001
1862.2545492703862,2138
1864.2368166459191,2032
1866.2186432479543,1987
1868.2000292227349,2008
1870.1809747155717,2033
1872.1614798708429,2039
1874.1415448319963,2005
1876.1211697415474,1998
1878.1003547410805,2020
1880.0790999712472,1989
1882.0574055717675,2026
1884.0352716814305,2033
1886.0126984380927,2000
1887.989685978679,2006
1889.9662344391836,2070
1891.9423439546672,1996
1893.9180146592607,2066
1895.893246686161,2046
1897.868040167636,2023
1899.8423952350195,2086
1901.8163120187137,2141
1903.7897906481917,2101
1905.7628312519923,2062
1907.7354339577219,2044
1909.7075988920578,2085
1911.6793261807447,1989
1913.6506159485943,2028
1915.6214683194871,2027
1917.5918834163726,2099
1919.5618613612687,1985
1921.5314022752605,1994
1923.5005062785012,2039
1925.4691734902144,2055
1927.4374040286893,2027
1929.4051980112845,2101
1931.3725555544274,2118
1933.3394767736136,2037
1935.305961783406,2099
1937.2720106974361,2091
1939.237623628404,2150
1941.2028006880778,2120
1943.167541987295,2137
1945.1318476359588,2079
1947.0957177430432,2172
1949.0591524165898,2034
1951.0221517637078,2032
1952.984715890574,2062
1954.9468449024357,2078
1956.9085389036072,1992
1958.8697979974704,2054
1960.8306222864767,2045
1962.7910118721456,2032
1964.7509668550638,2126
1966.7104873348871,2071
1968.6695734103387,2103
1970.6282251792127,2008
1972.586442738368,2062
1974.5442261837343,2047
1976.501575610307,2010
1978.4584911121533,2110
1980.4149727824056,2061
1982.3710207132658,2041
1984.326634996004,2036
1986.2818157209585,2135
1988.2365629775359,2034
1990.1908768542116,2154
1992.144757438527,2115
1994.0982048170954,2119
1996.0512190755953,2058
1998.0038002987749,2057
1999.95594857045,2091
2001.9076639735054,1995
2003.8589465898945,2121
2005.8097965006368,2130
2007.760213785822,2080
2009.7101985246077,2045
2011.6597507952201,2055
2013.6088706749524,2118
2015.5575582401675,2146
2017.5058135662953,2041
2019.4536367278351,2104
2021.4010277983534,2083
2023.347986850486,2115
2025.2945139559365,2154
2027.2406091854768,2086
2029.1862726089462,2168
2031.1315042952538,2223
2033.0763043123766,2072
2035.0206727273585,2110
2036.964609606313,2143
2038.908115014422,2020
2040.8511890159348,2111
2042.7938316741693,2093
2044.7360430515123,2069
2046.677823209417,2070
2048.6191722084077,2137
2050.5600901080743,2032
2052.5005769670765,2048
2054.440632843142,2092
2056.380257793066,2067
2058.3194518727128,2131
2060.258215137015,2088
2062.1965476399732,2150
2064.1344494346554,2094
2066.0719205732,2098
2068.008961106812,2112
2069.945571085764,2110
2071.8817505593997,2092
2073.817499576128,2162
2075.7528181834273,2132
2077.6877064278447,2144
2079.622164354995,2093
2081.556192009562,2098
2083.4897894352966,2101
2085.4229566750187,2144
2087.355693770616,2154
2089.2880007630456,2194
2091.219877692331,2141
2093.151324597566,2094
2095.0823415169107,2137
2097.012928487595,2164
2098.9430855459173,2114
2100.872812727242,2112
2102.8021100660035,2063
2104.730977595705,2132
2106.659415348917,2118
2108.5874233572777,2184
2110.5150016514945,2130
2112.442150261343,2110
2114.3688692156675,2174
2116.2951585423793,2154
2118.2210182684585,2103
2120.146448419954,2035
2122.0714490219825,2110
2123.9960200987293,2086
2125.920161673447,2113
2127.843873768458,2072
2129.767156405151,2152
2131.690009603985,2104
2133.612433384486,2134
2135.534427765249,2164
2137.4559927639366,2169
2139.37712839728,2119
2141.2978346810783,2073
2143.2181116301995,2190
2145.1379592585795,2150
2147.057377579222,2123
2148.9763666042,2106
2150.894926344655,2097
2152.813056810794,2136
2154.730758011896,2168
2156.648029956306,2096
2158.564872651437,2123
2160.481286103772,2134
2162.397270318861,2117
2164.312825301323,2092
2166.227951054844,2203
2168.14264758218,2101
2170.056914885153,2184
2171.9707529646566,2124
2173.8841618206484,2124
2175.7971414521585,2111
2177.7096918572825,2153
2179.621813033186,2168
2181.5335049761,2162
2183.444767681327,2134
2185.355601143236,2151
2187.2660053552654,2209
2189.1759803099208,2149
2191.085525998777,2222
2192.994642412475,2144
2194.903329540727,2139
2196.811587372312,2130
2198.7194158950765,2121
2200.626815095937,2123
2202.5337849608763,2180
2204.440325474948,2142
2206.346436622271,2274
2208.2521183860345,2168
2210.157370748496,2143
2212.0621936909793,2231
2213.966587193879,2149
2215.8705512366573,2093
2217.774085797842,2140
2219.677190855033,2144
2221.579866384897,2193
2223.4821123631677,2134
2225.3839287646483,2187
2227.2853155632106,2190
2229.186272731794,2093
2231.0868002424063,2160
2232.986898066123,2152
2234.8865661730892,2175
2236.785804532517,2210
2238.6846131126877,2155
2240.5829918809495,2138
2242.4809408037213,2125
2244.3784598464877,2183
2246.275548973803,2188
2248.172208149288,2240
2250.0684373356357,2187
2251.964236494603,2225
2253.859605587017,2149
2255.7545445727733,2150
2257.6490534108357,2149
2259.5431320592356,2182
2261.436780475073,2137
2263.329998614516,2126
2265.222786432802,2125
2267.1151438842344,2173
2269.0070709221877,2180
2270.8985674991022,2154
2272.789633566488,2187
2274.6802690749237,2093
2276.570473974053,2163
2278.4602482125933,2183
2280.3495917383257,2127
2282.238504498101,2195
2284.1269864378387,2151
2286.0150375025264,2138
2287.9026576362203,2112
2289.789846782043,2115
2291.6766048821873,2171
2293.5629318779147,2253
2295.4488277095534,2225
2297.3342923164996,2163
2299.2193256372193,2171
2301.1039276092465,2139
2302.9880981691817,2233
2304.871837252696,2188
2306.755144794528,2198
2308.6380207284838,2205
2310.5204649874386,2232
2312.4024775033354,2262
2314.2840582071854,2149
2316.165207029068,2181
2318.0459238981325,2177
2319.926208742594,2181
2321.8060614897363,2186
2323.6854820659137,2146
2325.5644703965463,2201
2327.443026406124,2225
2329.321150018203,2176
2331.1988411554107,2158
2333.0760997394395,2273
2334.952925691053,2233
2336.829318930082,2222
2338.705279375424,2182
2340.5808069450477,2191
2342.4559015559867,2265
2344.3305631243456,2256
2346.204791565297,2192
2348.07858679308,2143
2349.9519487210027,2174
2351.824877261443,2209
2353.6973723258448,2188
2355.5694338247226,2135
2357.4410616676564,2229
2359.312255763297,2242
2361.1830160193617,2291
2363.053342342637,2271
2364.9232346389776,2204
2366.792692813306,2246
2368.6617167696145,2191
2370.5303064109603,2237
2372.3984616394723,2214
2374.2661823563467,2163
2376.1334684618464,2288
2378.0003198553054,2206
2379.8667364351227,2203
2381.7327180987672,2152
2383.5982647427777,2284
2385.4633762627586,2199
2387.3280525533837,2287
2389.192293508395,2243
2391.0560990206027,2249
2392.919468981885,2270
2394.782403283189,2243
2396.644901814531,2287
2398.5069644649916,2288
2400.3685911227235,2219
2402.2297816749474,2205
2404.0905360079505,2188
2405.950854007089,2208
2407.8107355567886,2188
2409.670180540541,2209
2411.529188840908,2325
2413.387760339518,2222
2415.2458949170705,2276
2417.1035924533294,2175
2418.96085282713,2222
2420.8176759163744,2243
2422.6740615980334,2253
2424.5300097481468,2224
2426.38552024182,2187
2428.24059295323,2273
2430.0952277556207,2264
2431.949424521303,2271
2433.803183121658,2326
2435.6565034271343,2241
2437.5093853072485,2247
2439.361828630585,2182
2441.213833264798,2291
2443.0653990766095,2192
2444.916525931808,2244
2446.7672136952524,2286
2448.6174622308695,2202
2450.4672714016538,2205
2452.3166410696676,2249
2454.165571096043,2244
2456.0140613409794,2247
2457.8621116637432,2175
2459.709721922672,2222
2461.556891975169,2266
2463.403621677707,2246
2465.249910885827,2218
2467.0957594541383,2164
2468.9411672363167,2207
2470.78613408511,2206
2472.630659852331,2269
2474.4747443888614,2255
2476.3183875446516,2221
2478.161589168721,2296
2480.0043491091556,2245
2481.8466672131112,2216
2483.6885433268108,2246
2485.529977295547,2263
2487.370968963678,2264
2489.2115181746335,2218
2491.0516247709097,2253
2492.891288594071,2200
2494.7305094847497,2206
2496.569287282649,2224
2498.407621826537,2267
2500.2455129542523,2275
2502.0829605027,2297
2503.919964307855,2178
2505.7565242047594,2209
2507.5926400275252,2226
2509.42831160933,2199
2511.263538782423,2293
2513.0983213781174,2167
2514.9326592267994,2290
2516.76655215792,2219
2518.5999999999995,2238
2520.4330025806275,2286
2522.2655597264607,2275
2524.0976712632237,2223
2525.9293370157097,2262
2527.760556807782,2285
2529.591330462369,2257
2531.4216578014702,2253
2533.2515386461523,2275
2535.080972816548,2257
2536.9099601318626,2395
2538.738500410366,2277
2540.5665934693993,2264
2542.3942391253695,2206
2544.221437193752,2310
2546.0481874890925,2283
2547.874489825003,2315
2549.700344014164,2292
2551.5257498683245,2247
2553.350707198304,2286
2555.175215813986,2164
2556.9992755243256,2347
2558.8228861373454,2348
2560.646047460134,2368
2562.468759298852,2232
2564.2910214587255,2254
2566.1128337440496,2289
2567.93419595819,2286
2569.7551079035757,2167
2571.5755693817077,2224
2573.395580193155,2192
2575.2151401375536,2257
2577.034249013609,2290
2578.8529066190936,2300
2580.6711127508493,2293
2582.488867204785,2223
2584.3061697758794,2236
2586.1230202581787,2271
2587.939418444797,2301
2589.7553641279183,2275
2591.570857098791,2218
2593.385897147736,2295
2595.200484064141,2278
2597.014617636461,2311
2598.8282976522214,2240
2600.6415238980126,2218
2602.454296159496,2218
2604.266614221401,2258
2606.0784778675243,2239
2607.8898868807305,2291
2609.700841042955,2236
2611.5113401351973,2211
2613.32138393753,2174
2615.13097222909,2272
2616.940104788084,2277
2618.748781391788,2305
2620.557001816543,2204
2622.364765837763,2187
2624.1720732299264,2312
2625.9789237665814,2328
2627.7853172203445,2282
2629.5912533629,2259
2631.396731965001,2214
2633.2017527964676,2208
2635.0063156261904,2292
2636.810420222126,2284
2638.614066351301,2239
2640.417253779809,2347
2642.219982272813,2282
2644.022251594542,2302
2645.8240615082973,2375
2647.625411776444,2259
2649.4263021604183,2332
2651.226732420724,2349
2653.026702316933,2301
2654.8262116076858,2267
2656.625260050691,2259
2658.423847402724,2290
2660.221973419631,2277
2662.0196378563246,2262
2663.8168404667867,2282
2665.613581004068,2256
2667.4098592202854,2309
2669.2056748666246,2284
2671.0010276933417,2309
2672.7959174497596,2249
2674.5903438842674,2182
2676.384306744327,2261
2678.177805776465,2301
2679.9708407262765,2257
2681.7634113384274,2318
2683.555517356648,2388
2685.3471585237403,2262
2687.138334581574,2297
2688.9290452710843,2260
2690.7192903322784,2268
2692.50906950423,2307
2694.2983825250794,2250
2696.087229132039,2324
2697.875609061386,2255
2699.6635220484677,2341
2701.450967827699,2382
2703.237946132564,2324
2705.0244566956126,2298
2706.8104992484664,2366
2708.596073521813,2364
2710.381179245408,2286
2712.1658161480777,2363
2713.949983957714,2296
2715.7336824012773,2304
2717.516911204798,2245
2719.299670093374,2301
2721.0819587911706,2342
2722.8637770214223,2322
2724.6451245064322,2315
2726.426000967571,2223
2728.2064061252763,2285
2729.986339699057,2242
2731.765801407488,2283
2733.5447909682134,2260
2735.323308097945,2313
2737.101352512463,2278
2738.8789239266166,2294
2740.6560220543215,2357
2742.4326466085645,2291
2744.2087973013977,2283
2745.984473843944,2311
2747.7596759463922,2282
2749.534403318001,2277
2751.308655667096,2343
2753.0824327010737,2330
2754.8557341263954,2354
2756.628559648593,2282
2758.4009089722667,2319
2760.172781801083,2332
2761.944177837779,2296
2763.715096784159,2316
2765.4855383410945,2270
2767.2555022085267,2301
2769.024988085465,2283
2770.793995669988,2338
2772.5625246592385,2271
2774.3305747494323,2332
2776.098145635852,2278
2777.865237012847,2325
2779.6318485738357,2339
2781.397980011306,2323
2783.163631016813,2224
2784.928801280979,2301
2786.6934904934974,2367
2788.457698343127,2285
2790.221424517697,2335
2791.9846687041027,2314
2793.74743058831,2359
2795.5097098553515,2367
2797.2715061893286,2263
2799.0328192734105,2267
2800.793648789836,2222
2802.553994419911,2312
2804.3138558440087,2409
2806.073232741573,2390
2807.8321247911135,2417
2809.590531670211,2338
2811.3484530555115,2237
2813.105888622732,2316
2814.8628380466557,2372
2816.6193010011348,2310
2818.3752771590903,2316
2820.13076619251,2349
2821.885767772452,2401
2823.640281569041,2330
2825.3943072514703,2350
2827.147844488002,2339
2828.9008929459665,2306
2830.6534522917614,2338
2832.405522190854,2322
2834.1571023077786,2276
2835.9081923061394,2278
2837.658791848606,2331
2839.40890059692,2372
2841.1585182118874,2382
2842.907644353386,2328
2844.6562786803593,2318
2846.4044208508203,2324
2848.15207052185,2332
2849.899227349598,2300
2851.6458909892804,2336
2853.392061095185,2389
2855.137737320664,2367
2856.882919318142,2325
2858.6276067391063,2365
2860.371799234118,2323
2862.1154964528037,2341
2863.8586980438586,2328
2865.6014036550464,2347
2867.343612933199,2362
2869.0853255242173,2358
2870.826541073068,2369
2872.567259223789,2367
2874.307479619485,2391
2876.0472019023287,2331
2877.7864257135625,2336
2879.525150693495,2316
2881.263376481505,2316
2883.0011027160385,2315
2884.73832903461,2327
2886.4750550738027,2361
2888.2112804692665,2421
2889.9470048557223,2378
2891.682227866956,2308
2893.416949135825,2402
2895.151168294252,2389
2896.88488497323,2390
2898.6180988028204,2373
2900.3508094121503,2341
2902.083016429419,2499
2903.81471948189,2390
2905.5459181958972,2395
2907.276612196844,2427
2909.0068011091994,2380
2910.736484556502,2330
2912.465662161359,2317
2914.194333545445,2315
2915.922498329504,2398
2917.650156133346,2375
2919.377306575852,2375
2921.103949274969,2349
2922.830083847715,2344
2924.555709910173,2401
2926.2808270774967,2298
2928.005434963907,2290
2929.7295331826936,2277
2931.4531213462133,2315
2933.1761990658924,2357
2934.8987659522254,2372
2936.6208216147747,2353
2938.3423656621694,2429
2940.0633977021116,2465
2941.783917341366,2376
2943.503924185768,2425
2945.223417840223,2413
2946.9423979087023,2412
2948.6608639942456,2475
2950.378815698962,2443
2952.096252624029,2472
2953.81317436969,2405
2955.529580535259,2393
2957.2454707191177,2372
2958.9608445187164,2350
2960.6757015305734,2402
2962.3900413502733,2427
2964.103863572472,2384
2965.817167790894,2394
2967.529953598327,2367
2969.2422205866337,2334
2970.953968346739,2350
2972.6651964686407,2327
2974.3759045414035,2346
2976.0860921531585,2458
2977.7957588911067,2484
2979.504904341517,2389
2981.2135280897273,2383
2982.9216297201433,2334
2984.629208816238,2346
2986.336264960554,2386
2988.0427977347017,2389
2989.7488067193594,2366
2991.454291494274,2399
2993.1592516382607,2342
2994.8636867292034,2399
2996.567596344053,2385
2998.2709800588295,2492
2999.973837448621,2414
3001.6761680875857,2439
3003.377971548946,2430
3005.0792474049954,2409
3006.7799952270957,2369
3008.480214585676,2417
3010.1799050502345,2347
3011.8790661893368,2450
3013.5776975706176,2326
3015.2757987607793,2411
3016.973369325592,2393
3018.6704088298966,2366
3020.366916837598,2367
3022.0628929116747,2399
3023.7583366141675,2396
3025.4532475061915,2428
3027.147625147925,2437
3028.841469098617,2439
3030.534778916585,2497
3032.2275541592144,2440
3033.9197943829577,2432
3035.611499143338,2396
3037.302667994943,2340
3038.9933004914333,2379
3040.683396185535,2384
3042.372954629042,2367
3044.061975372817,2364
3045.7504579667934,2313
3047.4384019599684,2319
3049.1258069004116,2404
3050.812672335258,2398
3052.4989978107124,2349
3054.184782872047,2439
3055.870027063603,2423
3057.554729928791,2447
3059.238891010086,2303
3060.9225098490347,2387
3062.6055859862518,2415
3064.2881189614177,2359
3065.970108313285,2408
3067.651553579671,2361
3069.3324542974633,2446
3071.012810002616,2337
3072.6926202301543,2305
3074.3718845141702,2396
3076.050602387822,2343
3077.728773383339,2307
3079.406397032018,2410
3081.083472864223,2393
3082.7600004093874,2405
3084.4359791960137,2422
3086.11140875167,2388
3087.7862886029952,2372
3089.4606182756943,2412
3091.134397294544,2372
3092.807625183385,2291
3094.4803014651284,2432
3096.152425661755,2337
3097.8239972943097,2435
3099.49501588291,2418
3101.165480946741,2383
3102.8353920040518,2393
3104.504748572165,2428
3106.1735501674693,2400
3107.8417963054226,2398
3109.5094865005485,2403
3111.176620266441,2402
3112.8431971157625,2377
3114.5092165602427,2444
3116.1746781106813,2454
3117.839581276943,2470
3119.503925567965,2507
3121.167710491747,2423
3122.830935555364,2410
3124.493600264954,2420
3126.1557041257247,2433
3127.817246641952,2414
3129.478227316982,2401
3131.1386456532273,2417
3132.798501152168,2404
3134.4577933143537,2402
3136.116521639402,2451
3137.7746856259982,2456
3139.4322847718977,2473
3141.0893185739224,2498
3142.745786527962,2504
3144.4016881289754,2409
3146.0570228709903,2434
3147.711790247102,2471
3149.3659897494754,2427
3151.0196208693396,2482
3152.6726830969974,2368
3154.3251759218165,2480
3155.9770988322334,2398
3157.6284513157534,2409
3159.2792328589485,2393
3160.929442947461,2394
3162.579081066002,2468
3164.2281466983477,2382
3165.8766393273454,2442
3167.5245584349086,2423
3169.1719035020224,2380
3170.818674008735,2437
3172.4648694341677,2443
3174.110489256508,2388
3175.7555329530105,2468
3177.4000000000005,2436
3179.0438898728707,2461
3180.6872020460805,2495
3182.32993599316,2410
3183.972091186706,2483
3185.613667098384,2547
3187.254663198927,2493
3188.8950789581386,2371
3190.5349138448873,2420
3192.1741673271126,2412
3193.8128388718224,2374
3195.4509279450886,2423
3197.0884340120574,2498
3198.725356536939,2491
3200.361694983014,2460
3201.997448812629,2461
3203.632617487203,2450
3205.2672004672195,2464
3206.901197212229,2414
3208.5346071808563,2444
3210.167429830789,2377
3211.799664618785,2472
3213.4313110006706,2462
3215.0623684313387,2483
3216.692836364753,2454
3218.3227142539445,2403
3219.9520015510125,2453
3221.5806977071215,2424
3223.2088021725103,2481
3224.8363143964816,2463
3226.4632338274077,2412
3228.089559912728,2442
3229.715292098951,2423
3231.3404298316545,2469
3232.9649725554846,2444
3234.5889197141523,2396
3236.2122707504395,2455
3237.8350251061984,2540
3239.457182222345,2430
3241.0787415388677,2452
3242.6997024948187,2422
3244.3200645283223,2466
3245.9398270765696,2489
3247.558989575821,2407
3249.177551461403,2457
3250.7955121677123,2401
3252.412871128213,2506
3254.029627775437,2464
3255.6457815409867,2386
3257.2613318555286,2412
3258.876278148802,2391
3260.490619849613,2407
3262.1043563858348,2422
3263.717487184408,2430
3265.3300116713453,2445
3266.941929271725,2386
3268.5532394096917,2395
3270.1639415084646,2358
3271.7740349903233,2391
3273.383519276621,2474
3274.9923937877775,2472
3276.6006579432833,2496
3278.2083111616903,2500
3279.815352860627,2528
3281.421782456786,2599
3283.027599365927,2550
3284.632803002881,2463
3286.237392781545,2566
3287.841368114885,2482
3289.4447284149373,2484
3291.047473092801,2449
3292.649601558651,2452
3294.2511132217223,2426
3295.8520074903254,2399
3297.452283771835,2496
3299.051941472695,2488
3300.650979998417,2413
3302.2493987535827,2529
3303.8471971418403,2440
3305.4443745659064,2399
3307.0409304275654,2493
3308.636864127674,2497
3310.2321750661513,2429
3311.8268626419876,2481
3313.420926253242,2469
3315.01436529704,2463
3316.6071791695776,2441
3318.1993672661183,2367
3319.7909289809913,2406
3321.3818637075983,2437
3322.972170838406,2390
3324.561849764951,2458
3326.150899877838,2502
3327.7393205667386,2436
3329.3271112203956,2396
3330.9142712266166,2458
3332.5007999722793,2458
3334.08669684333,2461
3335.6719612247834,2437
3337.2565925007193,2453
3338.840590054291,2390
3340.4239532677157,2435
3342.006681522281,2536
3343.5887741983406,2502
3345.1702306753214,2500
3346.7510503317126,2505
3348.3312325450743,2536
3349.910776692037,2477
3351.4896821482953,2462
3353.0679482886153,2468
3354.645574486829,2536
3356.2225601158398,2442
3357.798904547615,2487
