CollectionTime,4/2/2024 11:28:19 AM
ExposureUsed,3
CalibratedSpectrum
-994.8464149364308,628
-991.9439705588344,672
-989.042830375826,667
-986.1429931109675,717
-983.2444574887519,805
-980.3472222346043,824
-977.4512860748813,718
-974.5566477368716,692
-971.6633059487953,651
-968.7712594398042,644
-965.8805069399822,709
-962.9910471803447,685
-960.1028788928387,651
-957.2160008103432,692
-954.3304116666687,720
-951.4461101965578,746
-948.5630951356844,711
-945.6813652206545,803
-942.8009191890055,802
-939.9217557792067,799
-937.0438737306594,709
-934.167271783696,742
-931.2919486795813,749
-928.4179031605115,666
-925.5451339696144,764
-922.67363985095,788
-919.8034195495097,796
-916.9344718112166,805
-914.0667953829256,782
-911.2003890124234,764
-908.3352514484286,762
-905.471381440591,765
-902.6087777394928,724
-899.7474390966474,753
-896.8873642645002,764
-894.0285519964284,755
-891.1710010467407,781
-888.3147101706776,807
-885.4596781244115,786
-882.6059036650465,729
-879.7533855506183,693
-876.9021225400943,685
-874.0521133933738,715
-871.2033568712878,674
-868.3558517355991,756
-865.509596749002,898
-862.6645906751228,916
-859.8208322785192,878
-856.9783203246812,825
-854.1370535800299,744
-851.2970308119186,718
-848.4582507886321,799
-845.620712279387,780
-842.7844140543316,696
-839.9493548845461,711
-837.1155335420422,753
-834.2829487997635,686
-831.4515994315852,757
-828.6214842123144,783
-825.7926019176898,779
-822.9649513243819,755
-820.138531209993,806
-817.3133403530569,807
-814.4893775330396,825
-811.6666415303382,792
-808.845131126282,741
-806.0248451031321,820
-803.2057822440808,692
-800.3879413332527,720
-797.5713211557038,813
-794.755920497422,835
-791.941738145327,783
-789.1287728872701,838
-786.3170235120342,885
-783.5064888093341,750
-780.6971675698165,675
-777.8890585850597,706
-775.0821606475735,832
-772.2764725507997,856
-769.4719930891118,815
-766.6687210578151,801
-763.8666552531465,944
-761.0657944722747,1162
-758.2661375133,940
-755.4676831752547,869
-752.6704302581027,773
-749.8743775627395,726
-747.0795238909925,732
-744.285868045621,775
-741.4934088303156,778
-738.702145049699,758
-735.9120755093254,839
-733.123199015681,1028
-730.3355143761836,1146
-727.5490203991826,937
-724.7637158939592,807
-721.9795996707265,776
-719.1966705406293,697
-716.4149273157439,758
-713.6343688090786,722
-710.8549938345734,724
-708.0768012070998,772
-705.2997897424614,802
-702.5239582573931,850
-699.7493055695622,860
-696.9758304975669,886
-694.2035318609377,875
-691.4324084801367,812
-688.6624591765578,786
-685.8936827725265,828
-683.1260780913001,871
-680.3596439570675,903
-677.5943791949499,855
-674.8302826309991,789
-672.0673530922,772
-669.3055894064685,780
-666.5449904026519,890
-663.78555491053,896
-661.0272817608139,828
-658.2701697851465,895
-655.5142178161026,840
-652.7594246871884,923
-650.0057892328422,848
-647.2533102884337,832
-644.5019866902646,834
-641.7518172755683,855
-639.0028008825099,862
-636.254936350186,902
-633.5082225186254,868
-630.7626582287882,872
-628.0182423225665,803
-625.2749736427841,848
-622.5328510331965,956
-619.7918733384909,927
-617.0520394042862,974
-614.3133480771331,958
-611.5757982045143,987
-608.8393886348437,1015
-606.1041182174672,1053
-603.3699858026625,1080
-600.6369902416393,1115
-597.9051303865383,1097
-595.1744050904326,1084
-592.4448132073267,1271
-589.7163535921568,1302
-586.9890251007912,1073
-584.2628265900296,1042
-581.5377569176036,1011
-578.8138149421764,1048
-576.090999523343,1024
-573.3693095216302,930
-570.6487437984965,1060
-567.9293012163321,1107
-565.210980638459,1110
-562.4937809291307,1064
-559.7777009535329,960
-557.0627395777825,1019
-554.3488956689287,995
-551.6361680949519,1094
-548.9245557247644,1171
-546.2140574282107,1246
-543.5046720760662,1227
-540.7963985400388,1186
-538.0892356927677,1135
-535.3831824078238,1170
-532.6782375597103,1327
-529.9744000238613,1472
-527.2716686766433,1514
-524.5700423953542,1665
-521.8695200582238,1633
-519.1701005444136,1486
-516.4717827340166,1558
-513.7745655080581,1779
-511.0784477484944,1806
-508.38342833821423,1860
-505.68950616103757,2099
-502.9966801017163,2273
-500.3049490459341,2473
-497.61431188030633,2267
-494.9247674923801,1880
-492.2363147706342,1689
-489.54895260447927,1660
-486.86267988425755,1523
-484.1774955012431,1570
-481.4933983476417,1557
-478.8103873165908,1443
-476.1284613021596,1347
-473.44761919934945,1361
-470.7678599040928,1267
-468.089182313254,1414
-465.4115853246294,1388
-462.735067836947,1492
-460.0596287498663,1440
-457.3852669639789,1274
-454.71198138080774,1151
-452.03977090280773,1182
-449.3686344333656,1129
-446.69857087679964,1294
-444.02957913835996,1387
-441.36165812422837,1396
-438.6948067415183,1301
-436.0290238982752,1220
-433.36430850347597,1160
-430.7006594670296,1330
-428.0380756997763,1312
-425.3765561134885,1340
-422.7160996208702,1343
-420.0567051355571,1482
-417.3983715721164,1453
-414.7410978460475,1402
-412.08488287378145,1412
-409.4297255726806,1345
-406.77562486103955,1255
-404.1225796580843,1252
-401.4705888839728,1080
-398.8196514597947,1134
-396.1697663075713,1196
-393.5209323502555,1074
-390.8731485117323,842
-388.22641371681823,893
-385.5807268912615,1100
-382.93608696174226,1056
-380.29249285587207,890
-377.64994350219456,843
-375.0084378301849,918
-372.36797477025016,901
-369.7285532537287,938
-367.0901722128914,970
-364.45283058094014,885
-361.8165272920089,937
-359.1812612811634,850
-356.54703148440103,674
-353.9138368386507,722
-351.28167628177346,873
-348.6505487525617,972
-346.02045319074,923
-343.3913885369643,897
-340.76335373282245,985
-338.1363477208339,931
-335.5103694444499,1009
-332.8854178480535,1062
-330.26149187695944,990
-327.63859047741425,786
-325.016712596596,697
-322.3958571826148,786
-319.77602318451227,856
-317.15720955226186,857
-314.5394152367686,894
-311.9226391898695,808
-309.3068803643333,844
-306.69213771386023,1198
-304.0784101930824,1346
-301.4656967575635,1204
-298.8539963637994,1084
-296.2433079692172,1044
-293.6336305321761,1060
-291.02496301196675,1100
-288.41730436881176,1124
-285.81065356386534,1091
-283.2050095592135,1221
-280.60037131787396,1761
-277.9967378037961,1852
-275.39410798186134,1344
-272.7924808178824,1301
-270.19185527860407,1461
-267.5922303317028,1379
-264.9936049457866,1413
-262.3959780903955,1435
-259.79934873600087,1688
-257.2037158540064,1644
-254.6090784167469,1673
-252.01543539748934,1766
-249.42278577043237,1296
-246.8311285107061,1230
-244.24046259437262,1225
-241.6507869984256,1298
-239.0621007007909,1458
-236.4744026803254,1528
-233.88769191681808,1560
-231.30196739098994,1454
-228.7172280844934,1342
-226.13347297991243,1330
-223.550701060763,1455
-220.9689113114929,1393
-218.3881027174814,1420
-215.8082742650397,1789
-213.22942494141068,2168
-210.65155373476898,2458
-208.07465963422078,2096
-205.49874162980439,1891
-202.92379871248932,1909
-200.34982987417743,1798
-197.7768341077018,1590
-195.20481040682762,1384
-192.63375776625162,1402
-190.0636751816021,1506
-187.49456164943945,1494
-184.92641616725564,1626
-182.3592377334743,1924
-179.79302534745102,2022
-177.2277780094729,1985
-174.66349472075865,2101
-172.10017448345923,2378
-169.5378163006569,2137
-166.97641917636565,1786
-164.41598211553162,2046
-161.8565041240322,2705
-159.29798420867678,2713
-156.74042137720642,2408
-154.18381463829382,2454
-151.6281630015436,2282
-149.07346547749228,2246
-146.51972107760753,2209
-143.96692881428908,2581
-141.41508770086864,2719
-138.86419675160937,2189
-136.31425498170609,1914
-133.7652614072856,2401
-131.21721504540642,2472
-128.67011491405844,2525
-126.12396003216395,3563
-123.57874941957618,4489
-121.03448209708074,3569
-118.49115708639465,2841
-115.94877341016684,3078
-113.40733009197788,3474
-110.86682615633993,3523
-108.32726062869733,3675
-105.78863253542556,4514
-103.25094090383243,6035
-100.71418476215695,4926
-98.17836313957025,4340
-95.64347506617503,3762
-93.10951957300585,3711
-90.57649569202886,3977
-88.04440245614194,3922
-85.51323889917478,4690
-82.98300405588896,5458
-80.45369696197747,6566
-77.925316654065,8845
-75.39786216970867,10848
-72.87133254739649,13560
-70.34572682654857,16254
-67.82104404751692,19871
-65.29728325158499,26468
-62.774443480968216,35350
-60.252523778813384,40057
-57.73152318919938,44435
-55.21144075713676,43515
-52.69227552856796,36316
-50.17402655036665,36984
-47.65669287033859,32742
-45.14027353722133,25386
-42.624767600684095,30149
-40.11017411132775,39046
-37.59649212068507,45401
-35.08372068122037,52520
-32.57185884632963,61263
-30.06090567034107,61355
-27.550860208513996,65041
-25.04172151704006,65041
-22.533488653042014,65041
-20.02616067457484,65041
-17.51973664062507,65041
-15.014215611111126,65041
-12.509596646882983,65041
-10.005878809722162,65041
-7.503061162342419,65041
-5.001142768389059,65041
-2.5001226924387083,65041
-3.410605131648481E-13,65041
2.49922624248552,65041
4.997556967646801,65041
7.494993107179766,65041
9.99153559184856,65041
12.487185351485778,65041
14.98194331499235,65041
17.475810410337544,65041
19.96878756455851,65041
22.46087570376085,65041
24.952075753118834,36288
27.442388636874625,14635
29.93181527833849,10952
32.42035659988892,8995
34.90801352297353,11188
37.39478696810693,10170
39.880677854873056,10164
42.36568710192364,9258
44.8498156269784,11243
47.33306434682618,9727
49.815434177322686,9311
52.296926033393675,10214
54.77754082903198,9650
57.25727947729865,10930
59.736142890323435,9386
62.214131979304284,6434
64.6912476545076,5271
67.16749082526735,4624
69.64286239998614,4189
72.11736328613551,4379
74.59099439025431,4465
77.06375661794982,4782
79.53565087389825,4373
82.0066780618431,5350
84.4768390845968,5147
86.94613484403999,4466
89.41456624112152,5390
91.88213417585825,5194
94.34883954733527,4141
96.81468325370679,3983
99.2796661921941,3197
101.74378925908763,3842
104.20705334974559,4172
106.66945935859462,3999
109.1310081791296,3847
111.59170070391383,5610
114.05153782457865,5441
116.5105204318238,3802
118.96864941541708,3703
121.42592566419489,4184
123.88235006606146,3663
126.3379235079899,3256
128.79264687602085,3919
131.2465210552641,4400
133.69954692989631,3586
136.15172538316415,3788
138.60305729738116,3820
141.05354355393,3447
143.50318503326116,3061
145.95198261489327,2879
148.39993717741368,3016
150.84704959847772,3726
153.29332075480897,4443
155.73875152219944,4159
158.18334277550935,3651
160.62709538866693,3159
163.0700102346691,3240
165.51208818558075,3267
167.953330112535,3475
170.39373688573346,3187
172.8333093744459,3250
175.2720484470101,3271
177.70995497083277,3563
180.14702981238815,4003
182.58327383721917,3577
185.01868790993672,3459
187.45327289422062,3320
189.88702965281777,3261
192.31995904754444,3339
194.75206193928489,3618
197.18333918799135,3522
199.61379165268454,3296
202.04342019145315,3236
204.4722256614548,3411
206.90020891891436,3713
209.32737081912592,3624
211.7537122164515,3328
214.17923396432116,3355
216.6039369152336,3481
219.0278219207553,3606
221.45088983152186,3665
223.8731414972358,3393
226.29457776666914,3243
228.71519948766172,3337
231.1350075071216,3650
233.55400267102482,3611
235.97218582441633,3680
238.38955781140908,3602
240.806119475184,3882
243.2218716579905,3795
245.6368152011462,3464
248.05095094503736,3615
250.46427972911806,3717
252.87680239191036,3631
255.28851977100544,3794
257.69943270306203,3868
260.10954202380753,3313
262.5188485680378,3381
264.92735316961557,3746
267.33505666147425,3695
269.7419598756128,3750
272.14806364310084,3756
274.5533687940747,3470
276.95787615773975,3380
279.361586562369,3328
281.7645008353045,3204
284.1666198029559,3429
286.5679442908013,3452
288.96847512338695,3309
291.3682131243279,3400
293.7671591163071,3491
296.1653139210757,3572
298.562678359453,3431
300.9592532513268,3421
303.3550394156532,3518
305.75003767045655,3372
308.14424883282936,3357
310.53767371893196,3234
312.93031314399377,3213
315.3221679223125,3065
317.71323886725304,3118
320.1035267912496,3149
322.49303250580397,3053
324.881756821487,3034
327.2697005479374,2952
329.65686449386135,2906
332.0432494670347,2993
334.4288562743004,3065
336.81368572157066,2998
339.19773861382487,2864
341.58101575511205,2724
343.96351794854786,2741
346.3452459963173,2727
348.72620069967365,2921
351.1063828589379,3004
353.48579327349967,3034
355.8644327418169,2903
358.24230206141533,2757
360.6194020288899,2744
362.99573343990255,2650
365.3712970891845,2733
367.7460937705348,2739
370.12012427682066,2669
372.493389399978,2782
374.86588993101077,2778
377.23762665999084,2695
379.6086003760588,2584
381.9788118674235,2544
384.34826192136165,2709
386.7169513242188,2705
389.08488086140824,2690
391.4520513174118,2653
393.8184634757795,2861
396.1841181191296,2868
398.54901602914856,2894
400.9131579865916,2788
403.2765447712811,2746
405.63917716210926,2744
408.00105593703483,2724
410.36218187308646,2554
412.7225557463596,2551
415.0821783320191,2589
417.4410504042976,2520
419.79917273649585,2557
422.1565461009834,2587
424.5131712691973,2615
426.869049011643,2610
429.22418009789544,2596
431.578565296596,2492
433.9322053754556,2413
436.28510110125285,2435
438.6372532398352,2520
440.98866255611733,2484
443.33932981408293,2533
445.6892557767842,2506
448.0384412063411,2382
450.38688686394175,2634
452.7345935098431,2745
455.0815619033697,2512
457.42779280291506,2560
459.7732869659403,2680
462.1180451489754,2615
464.4620681076178,2674
466.80535659653424,2661
469.1479113694588,2727
471.48973317919445,2738
473.8308227776122,2800
476.17118091565135,2812
478.51080834331924,2991
480.8497058096914,2999
483.1878740629122,3283
485.5253138501944,3364
487.8620259178176,3362
490.1980110111317,3783
492.53326987455307,3910
494.86780325156724,4085
497.201611884728,4128
499.53469651565683,4240
501.8670578850447,4096
504.1986967326493,4016
506.52961379729754,3821
508.85980981688454,3709
511.18928552837315,3558
513.5180416677952,3381
515.8460789702503,3497
518.1733981699067,4282
520.5,5302
522.8258851928354,5588
525.1510544797857,5274
527.4755085912916,4671
529.7992482568625,4190
532.1222742050759,3407
534.4445871635783,2931
536.766187859083,2572
539.0870770173726,2501
541.4072553632982,2401
543.7267236207783,2425
546.0454825128002,2460
548.363532761419,2474
550.6808750877592,2442
552.9975102120118,2338
555.3134388534377,2232
557.6286617303654,2376
559.9431795601911,2441
562.2569930593802,2383
564.570102943466,2487
566.88250992705,2489
569.1942147238021,2419
571.5052180464602,2246
573.8155206068309,2373
576.1251231157885,2514
578.4340262832759,2505
580.7422308183045,2364
583.0497374289534,2287
585.3565468223703,2395
587.6626597047714,2347
589.9680767814409,2280
592.2727987567309,2307
594.5768263340624,2322
596.8801602159238,2296
599.1828011038731,2279
601.4847496985356,2279
603.7860066996047,2208
606.0865728058427,2254
608.3864487150802,2230
610.6856351242152,2273
612.9841327292149,2313
615.2819422251141,2147
617.5790643060163,2228
619.8754996650935,2174
622.1712489945849,2261
624.466312985799,2185
626.7606923291121,2235
629.0543877139692,2325
631.347399828883,2322
633.6397293614343,2303
635.9313769982732,2291
638.2223434251173,2357
640.5126293267522,2273
642.8022353870326,2203
645.0911622888809,2272
647.3794107142876,2310
649.666981344312,2359
651.9538748590815,2278
654.2400919377915,2318
656.525633258706,2382
658.8104994991568,2324
661.0946913355442,2433
663.3782094433375,2424
665.6610544970729,2346
667.9432271703561,2311
670.22472813586,2236
672.5055580653268,2294
674.7857176295659,2443
677.065207498456,2357
679.3440283409432,2337
681.6221808250425,2256
683.899665617837,2243
686.1764833854772,2334
688.4526347931837,2341
690.7281205052436,2376
693.0029411850135,2399
695.2770974949171,2296
697.5505900964474,2294
699.8234196501651,2380
702.0955868156989,2317
704.3670922517472,2276
706.6379366160747,2182
708.9081205655159,2266
711.1776447559728,2336
713.4465098424155,2352
715.714716478883,2341
717.9822653184822,2382
720.2491570133882,2375
722.5153922148452,2359
724.7809715731639,2195
727.0458957377248,2328
729.3101653569763,2270
731.5737810784346,2249
733.8367435486853,2305
736.0990534133803,2295
738.3607113172418,2385
740.6217179040591,2433
742.8820738166899,2378
745.1417796970607,2449
747.4008361861659,2309
749.6592439240678,2329
751.9170035498973,2405
754.1741157018539,2552
756.4305810172048,2406
758.686400132286,2408
760.9415736825013,2540
763.196102302323,2386
765.4499866252911,2385
767.7032272840152,2453
769.9558249101717,2457
772.207780134506,2474
774.4590935868323,2611
776.7097658960313,2753
778.9597976900541,2623
781.2091895959184,2466
783.457942239711,2418
785.7060562465867,2359
787.9535322407687,2538
790.2003708455488,2424
792.4465726832861,2500
794.6921383754088,2499
796.9370685424128,2629
799.1813638038632,2512
801.4250247783918,2592
803.6680520837006,2453
805.9104463365579,2473
808.1522081528019,2533
810.393338147338,2431
812.6338369341406,2362
814.8737051262517,2340
817.1129433357819,2458
819.35155217391,2397
821.5895322508834,2428
823.8268841760168,2341
826.0636085576946,2433
828.2997060033681,2490
830.535177119558,2331
832.7700225118522,2338
835.0042427849078,2319
837.2378385424493,2443
839.4708103872701,2411
841.7031589212318,2476
843.9348847452643,2383
846.1659884593648,2377
848.3964706626004,2401
850.6263319531054,2420
852.8555729280824,2321
855.0841941838025,2358
857.3121963156052,2478
859.5395799178978,2415
861.7663455841566,2451
863.9924939069251,2536
866.2180254778159,2547
868.4429408875103,2528
870.6672407257561,2517
872.890925581371,2492
875.1139960422404,2488
877.336452695318,2567
879.5582961266261,2574
881.7795269212543,2559
884.0001456633613,2658
886.2201529361741,2594
888.4395493219874,2675
890.6583354021648,2620
892.8765117571375,2496
895.094078966405,2507
897.3110376085365,2547
899.5273882611671,2484
901.7431315010019,2392
903.958267903814,2457
906.1727980444443,2430
908.3867224968019,2490
910.6000418338647,2393
912.8127566276792,2466
915.0248674493587,2581
917.2363748690857,2463
919.4472794561113,2385
921.6575817787543,2420
923.867282404402,2329
926.0763818995099,2307
928.2848808296014,2365
930.4927797592693,2361
932.700079252173,2341
934.9067798710416,2325
937.112882177672,2347
939.3183867329287,2265
941.5232940967453,2254
943.727604828124,2232
945.9313194851336,2274
948.1344386249132,2327
950.3369628036685,2452
952.5388925766747,2413
954.7402284982745,2281
956.9409711218789,2224
959.1411209999676,2234
961.3406786840883,2211
963.5396447248565,2348
965.7380196719573,2306
967.9358040741427,2364
970.1329984792335,2280
972.3296034341188,2244
974.5256194847555,2366
976.72104717617,2165
978.9158870524552,2156
981.1101396567742,2273
983.3038055313566,2222
985.4968852175009,2224
987.6893792555747,2229
989.8812881850124,2279
992.072612544318,2242
994.263352871063,2176
996.453509701887,2148
998.6430835724984,2135
1000.832075017674,2142
1003.0204845712583,2052
1005.208312766164,2039
1007.3955601343728,2044
1009.5822272069338,2083
1011.7683145139652,2015
1013.9538225846525,2081
1016.1387519472505,1986
1018.3231031290818,2051
1020.5068766565371,2024
1022.6900730550753,2004
1024.872692849224,2058
1027.054736562579,2103
1029.2362047178037,1996
1031.4170978366305,1990
1033.5974164398597,1997
1035.7771610473603,1960
1037.9563321780693,1997
1040.1349303499917,1970
1042.3129560802006,1906
1044.490409884838,1944
1046.667292279115,1980
1048.8436037773079,1945
1051.0193448927644,1927
1053.1945161378994,1947
1055.3691180241954,1978
1057.5431510622038,1947
1059.7166157615447,1980
1061.8895126309053,1888
1064.0618421780423,2007
1066.2336049097798,1919
1068.4048013320107,1917
1070.5754319496955,1924
1072.745497266863,1877
1074.9149977866118,1858
1077.0839340111065,1883
1079.2523064415818,1943
1081.4201155783398,1980
1083.587361920751,1883
1085.7540459672537,1884
1087.9201682153553,1862
1090.0857291616308,1860
1092.2507293017238,1869
1094.4151691303464,1886
1096.579049141279,1856
1098.7423698273687,1842
1100.9051316805335,1818
1103.0673351917571,1848
1105.2289808510936,1799
1107.3900691476633,1829
1109.550600569657,1892
1111.710575604332,1879
1113.8699947380146,1871
1116.028858456099,1821
1118.1871672430489,1813
1120.344921582394,1839
1122.5021219567334,1876
1124.6587688477362,1868
1126.8148627361365,1875
1128.9704041017399,1870
1131.1253934234173,1826
1133.2798311791098,1857
1135.4337178458263,1905
1137.5870538996437,1799
1139.7398398157075,1768
1141.8920760682313,1832
1144.0437631304972,1838
1146.1949014748543,1849
1148.3454915727225,1868
1150.4955338945874,1768
1152.6450289100044,1833
1154.7939770875969,1855
1156.9423788950558,1862
1159.0902347991405,1861
1161.2375452656802,1859
1163.3843107595703,1805
1165.530531744775,1832
1167.6762086843282,1811
1169.8213420403304,1814
1171.9659322739503,1800
1174.1099798454266,1764
1176.2534852140639,1789
1178.3964488382376,1793
1180.538871175389,1852
1182.680752682029,1920
1184.8220938137365,1839
1186.9628950251595,1779
1189.103156770012,1825
1191.2428795010783,1898
1193.3820636702108,1789
1195.5207097283287,1829
1197.6588181254215,1791
1199.7963893105457,1787
1201.9334237318253,1720
1204.0699218364548,1818
1206.2058840706954,1890
1208.3413108798773,1773
1210.476202708397,1823
1212.6105599997222,1850
1214.7443831963874,1775
1216.877672739995,1775
1219.0104290712165,1747
1221.1426526297905,1846
1223.2743438545253,1933
1225.4055031832972,1785
1227.5361310530493,1797
1229.6662278997946,1851
1231.7957941586142,1778
1233.9248302636565,1818
1236.053336648139,1800
1238.1813137443464,1894
1240.3087619836338,1819
1242.4356817964222,1812
1244.5620736122019,1840
1246.6879378595318,1787
1248.813274966039,1781
1250.938085358418,1765
1253.062369462432,1833
1255.186127702913,1862
1257.3093605037611,1849
1259.4320682879434,1792
1261.554251477498,1809
1263.6759104935277,1875
1265.797045756206,1833
1267.9176576847744,1834
1270.0377466975428,1868
1272.1573132118879,1940
1274.2763576442567,1840
1276.394880410162,1898
1278.5128819241877,1848
1280.6303625999835,1891
1282.7473228502695,1837
1284.8637630868325,1893
1286.9796837205272,1857
1289.0950851612783,1934
1291.209967818078,1911
1293.3243320989864,1872
1295.4381784111324,1958
1297.551507160712,1975
1299.6643187529912,1898
1301.776613592303,1883
1303.888392082049,1973
1305.9996546246998,1865
1308.1104016217923,1906
1310.220633473934,1934
1312.3303505807999,1919
1314.4395533411316,1955
1316.5482421527418,1836
1318.6564174125092,1888
1320.7640795163816,1946
1322.8712288593752,1840
1324.9778658355744,1886
1327.0839908381313,1920
1329.1896042592675,1900
1331.2947064902714,1912
1333.3992979215009,1898
1335.503378942381,1871
1337.6069499414057,1907
1339.7100113061383,1882
1341.8125634232074,1912
1343.9146066783128,1865
1346.0161414562212,1826
1348.1171681407677,1882
1350.2176871148563,1945
1352.3176987604575,2003
1354.4172034586127,1867
1356.5162015894289,1898
1358.6146935320835,1894
1360.7126796648213,1931
1362.8101603649548,1876
1364.9071360088656,1871
1367.0036069720036,1888
1369.099573628886,1856
1371.195036353099,1990
1373.2899955172975,1909
1375.3844514932039,1904
1377.4784046516088,1858
1379.5718553623715,1852
1381.6648039944193,1842
1383.7572509157485,1922
1385.8491964934224,1895
1387.9406410935735,1898
1390.0315850814022,1869
1392.122028821177,1920
1394.2119726762357,1920
1396.3014170089828,1971
1398.3903621808918,1912
1400.4788085525051,1889
1402.566756483432,1867
1404.6542063323514,1832
1406.7411584570095,1873
1408.8276132142219,1946
1410.9135709598704,1869
1412.9990320489078,1893
1415.083996835353,1889
1417.1684656722937,1901
1419.2524389118867,1882
1421.3359169053565,1892
1423.4189000029946,1845
1425.5013885541634,1914
1427.5833829072913,1844
1429.664883409876,1899
1431.7458904084833,1916
1433.8264042487467,1870
1435.9064252753697,1834
1437.9859538321216,1859
1440.0649902618416,1937
1442.1435349064373,1945
1444.2215881068837,1903
1446.2991502032237,1940
1448.37622153457,2009
1450.452802439103,1920
1452.5288932540698,1980
1454.604494315788,1999
1456.6796059596427,1907
1458.7542285200866,1919
1460.8283623306415,1948
1462.902007723897,1908
1464.9751650315106,1792
1467.0478345842089,1925
1469.1200167117868,1903
1471.1917117431062,1943
1473.2629200060992,1853
1475.333641827764,1905
1477.4038775341692,1979
1479.4736274504498,1893
1481.5428919008104,1873
1483.6116712085222,1923
1485.6799656959279,1889
1487.7477756844346,1942
1489.8151014945201,1915
1491.88194344573,1930
1493.9483018566775,1918
1496.0141770450455,1983
1498.0795693275822,1920
1500.1444790201076,1946
1502.2089064375086,1947
1504.2728518937402,1928
1506.3363157018239,1965
1508.3992981738534,1893
1510.4617996209872,1902
1512.5238203534536,1944
1514.5853606805495,1849
1516.6464209106384,1905
1518.7070013511543,1906
1520.7671023085973,1943
1522.8267240885375,1884
1524.885866995612,1934
1526.9445313335268,1941
1529.002717405056,1893
1531.0604255120425,2016
1533.1176559553965,2013
1535.1744090350971,2002
1537.2306850501914,2031
1539.2864842987956,1982
1541.3418070780922,1943
1543.396653684334,1953
1545.4510244128405,2021
1547.5049195580013,2049
1549.5583394132727,1930
1551.61128427118,2023
1553.6637544233158,1929
1555.7157501603415,1944
1557.7672717719888,2025
1559.8183195470538,2054
1561.8688937734037,1965
1563.9189947379737,1979
1565.9686227267657,2053
1568.0177780248514,1925
1570.0664609163696,1905
1572.1146716845292,2097
1574.162410611605,2049
1576.2096779789413,2103
1578.2564740669518,2078
1580.3027991551157,1964
1582.3486535219831,1932
1584.3940374451709,1979
1586.4389512013645,1874
1588.4833950663178,1868
1590.5273693148533,1998
1592.5708742208603,1922
1594.6139100572982,1919
1596.6564770961936,1930
1598.698575608642,1905
1600.7402058648063,1950
1602.7813681339185,1936
1604.8220626842776,1880
1606.8622897832533,1929
1608.9020496972812,1981
1610.9413426918663,1996
1612.9801690315808,2039
1615.018528980066,1938
1617.056422800033,1881
1619.0938507532578,1967
1621.1308131005876,2057
1623.1673101019355,1950
1625.2033420162848,1911
1627.2389091016862,1951
1629.274011615259,1973
1631.3086498131897,1956
1633.3428239507352,1955
1635.376534282219,1919
1637.4097810610324,1935
1639.4425645396364,2024
1641.4748849695593,1964
1643.5067426013989,1979
1645.53813768482,1955
1647.5690704685549,2005
1649.5995412004067,2031
1651.6295501272452,1962
1653.6590974950086,2011
1655.6881835487025,1982
1657.7168085324029,2053
1659.7449726892523,2031
1661.772676261462,1964
1663.7999194903114,1916
1665.8267026161484,1967
1667.8530258783894,1963
1669.8788895155185,1951
1671.9042937650888,1937
1673.9292388637205,1971
1675.953725047103,2006
1677.977752549994,1916
1680.0013216062184,1912
1682.0244324486712,1943
1684.0470853093134,1946
1686.0692804191767,1904
1688.0910180083588,1938
1690.1122983060268,1940
1692.1331215404175,1950
1694.1534879388319,1895
1696.173397727644,1949
1698.1928511322926,1992
1700.211848377286,1955
1702.2303896862018,2094
1704.248475281684,2045
1706.2661053854458,2048
1708.2832802182684,2025
1710.300000000002,1976
1712.3162649495644,1968
1714.3320752849409,1996
1716.3474312231865,1947
1718.362332980424,1972
1720.376780771845,1849
1722.3907748117072,1961
1724.4043153133393,2026
1726.4174024891367,1909
1728.4300365505628,1978
1730.442217708151,2035
1732.4539461715008,2038
1734.465222149282,1991
1736.4760458492306,1944
1738.4864174781524,2019
1740.496337241921,1965
1742.5058053454786,1975
1744.5148219928346,1961
1746.523387387068,1932
1748.531501730325,1986
1750.5391652238209,1961
1752.5463780678388,1957
1754.55314046173,1962
1756.5594526039135,1970
1758.565314691879,1949
1760.5707269221812,2018
1762.5756894904443,2053
1764.580202591363,2026
1766.5842664186966,1995
1768.5878811652751,1979
1770.591047022996,2053
1772.593764182825,1988
1774.5960328347965,2007
1776.5978531680116,2013
1778.5992253706427,1998
1780.6001496299273,2089
1782.6006261321731,1992
1784.6006550627553,2091
1786.6002366061175,2019
1788.5993709457725,2014
1790.5980582642992,2080
1792.5962987433468,2030
1794.5940925636314,2022
1796.5914399049389,1994
1798.5883409461221,1982
1800.584795865102,1972
1802.580804838869,1997
1804.5763680434807,2002
1806.571485654064,2078
1808.566157844813,2036
1810.5603847889902,1980
1812.5541666589274,2011
1814.5475036260236,2058
1816.5403958607467,1981
1818.5328435326323,2063
1820.5248468102845,1996
1822.5164058613755,2038
1824.5075208526468,2033
1826.4981919499064,1953
1828.488419318032,1971
1830.4782031209684,2019
1832.4675435217305,2000
1834.4564406823993,2014
1836.4448947641258,2023
1838.432905927128,2114
1840.4204743306927,2043
1842.4076001331746,1940
1844.3942834919985,2056
1846.380524563654,1986
1848.366323503702,2036
1850.351680466771,1983
1852.3365956065563,2071
1854.3210690758228,2057
1856.3051010264044,2020
1858.2886916092007,1987
1860.271840974182,2000
1862.2545492703862,2011
1864.2368166459191,2013
1866.2186432479543,2131
1868.2000292227349,2073
1870.1809747155717,2049
1872.1614798708429,2059
1874.1415448319963,2094
1876.1211697415474,2037
1878.1003547410805,2025
1880.0790999712472,2046
1882.0574055717675,2063
1884.0352716814305,2041
1886.0126984380927,2085
1887.989685978679,2039
1889.9662344391836,2020
1891.9423439546672,2037
1893.9180146592607,2074
1895.893246686161,2028
1897.868040167636,2074
1899.8423952350195,2045
1901.8163120187137,2074
1903.7897906481917,1980
1905.7628312519923,2065
1907.7354339577219,2057
1909.7075988920578,2080
1911.6793261807447,2110
1913.6506159485943,2051
1915.6214683194871,2034
1917.5918834163726,2124
1919.5618613612687,2034
1921.5314022752605,2067
1923.5005062785012,2039
1925.4691734902144,2077
1927.4374040286893,2083
1929.4051980112845,2144
1931.3725555544274,2106
1933.3394767736136,2091
1935.305961783406,2073
1937.2720106974361,2012
1939.237623628404,2063
1941.2028006880778,2127
1943.167541987295,2108
1945.1318476359588,2120
1947.0957177430432,2097
1949.0591524165898,2126
1951.0221517637078,2077
1952.984715890574,2105
1954.9468449024357,2083
1956.9085389036072,2077
1958.8697979974704,2080
1960.8306222864767,2049
1962.7910118721456,2080
1964.7509668550638,2063
1966.7104873348871,2080
1968.6695734103387,2134
1970.6282251792127,2054
1972.586442738368,2123
1974.5442261837343,2102
1976.501575610307,2175
1978.4584911121533,2117
1980.4149727824056,2132
1982.3710207132658,2119
1984.326634996004,2097
1986.2818157209585,2129
1988.2365629775359,2095
1990.1908768542116,2140
1992.144757438527,2112
1994.0982048170954,2125
1996.0512190755953,2081
1998.0038002987749,2102
1999.95594857045,2121
2001.9076639735054,2117
2003.8589465898945,2113
2005.8097965006368,2101
2007.760213785822,2097
2009.7101985246077,2030
2011.6597507952201,2022
2013.6088706749524,2041
2015.5575582401675,2055
2017.5058135662953,2021
2019.4536367278351,2060
2021.4010277983534,2093
2023.347986850486,2101
2025.2945139559365,2047
2027.2406091854768,2048
2029.1862726089462,2112
2031.1315042952538,2117
2033.0763043123766,2111
2035.0206727273585,2134
2036.964609606313,2126
2038.908115014422,2071
2040.8511890159348,2117
2042.7938316741693,2167
2044.7360430515123,2237
2046.677823209417,2077
2048.6191722084077,2081
2050.5600901080743,2167
2052.5005769670765,2004
2054.440632843142,2046
2056.380257793066,2133
2058.3194518727128,2152
2060.258215137015,2121
2062.1965476399732,2159
2064.1344494346554,2185
2066.0719205732,2069
2068.008961106812,2071
2069.945571085764,2050
2071.8817505593997,2146
2073.817499576128,2147
2075.7528181834273,2061
2077.6877064278447,2063
2079.622164354995,2141
2081.556192009562,2138
2083.4897894352966,2090
2085.4229566750187,2104
2087.355693770616,2142
2089.2880007630456,2068
2091.219877692331,2134
2093.151324597566,2144
2095.0823415169107,2127
2097.012928487595,2122
2098.9430855459173,2119
2100.872812727242,2116
2102.8021100660035,2101
2104.730977595705,2169
2106.659415348917,2143
2108.5874233572777,2062
2110.5150016514945,2132
2112.442150261343,2037
2114.3688692156675,2188
2116.2951585423793,2045
2118.2210182684585,2085
2120.146448419954,2074
2122.0714490219825,2121
2123.9960200987293,2122
2125.920161673447,2147
2127.843873768458,2103
2129.767156405151,2156
2131.690009603985,2156
2133.612433384486,2115
2135.534427765249,2082
2137.4559927639366,2107
2139.37712839728,2132
2141.2978346810783,2146
2143.2181116301995,2153
2145.1379592585795,2167
2147.057377579222,2180
2148.9763666042,2099
2150.894926344655,2170
2152.813056810794,2122
2154.730758011896,2171
2156.648029956306,2143
2158.564872651437,2145
2160.481286103772,2183
2162.397270318861,2167
2164.312825301323,2120
2166.227951054844,2166
2168.14264758218,2113
2170.056914885153,2084
2171.9707529646566,2178
2173.8841618206484,2185
2175.7971414521585,2126
2177.7096918572825,2118
2179.621813033186,2127
2181.5335049761,2062
2183.444767681327,2086
2185.355601143236,2146
2187.2660053552654,2238
2189.1759803099208,2090
2191.085525998777,2173
2192.994642412475,2094
2194.903329540727,2226
2196.811587372312,2146
2198.7194158950765,2096
2200.626815095937,2107
2202.5337849608763,2160
2204.440325474948,2201
2206.346436622271,2105
2208.2521183860345,2123
2210.157370748496,2179
2212.0621936909793,2200
2213.966587193879,2168
2215.8705512366573,2138
2217.774085797842,2154
2219.677190855033,2181
2221.579866384897,2235
2223.4821123631677,2108
2225.3839287646483,2091
2227.2853155632106,2224
2229.186272731794,2226
2231.0868002424063,2173
2232.986898066123,2204
2234.8865661730892,2205
2236.785804532517,2150
2238.6846131126877,2147
2240.5829918809495,2147
2242.4809408037213,2094
2244.3784598464877,2182
2246.275548973803,2091
2248.172208149288,2208
2250.0684373356357,2221
2251.964236494603,2227
2253.859605587017,2150
2255.7545445727733,2144
2257.6490534108357,2174
2259.5431320592356,2147
2261.436780475073,2184
2263.329998614516,2101
2265.222786432802,2156
2267.1151438842344,2116
2269.0070709221877,2220
2270.8985674991022,2223
2272.789633566488,2179
2274.6802690749237,2171
2276.570473974053,2115
2278.4602482125933,2189
2280.3495917383257,2215
2282.238504498101,2181
2284.1269864378387,2148
2286.0150375025264,2139
2287.9026576362203,2178
2289.789846782043,2166
2291.6766048821873,2182
2293.5629318779147,2288
2295.4488277095534,2211
2297.3342923164996,2242
2299.2193256372193,2131
2301.1039276092465,2186
2302.9880981691817,2168
2304.871837252696,2210
2306.755144794528,2196
2308.6380207284838,2228
2310.5204649874386,2273
2312.4024775033354,2193
2314.2840582071854,2189
2316.165207029068,2235
2318.0459238981325,2255
2319.926208742594,2131
2321.8060614897363,2138
2323.6854820659137,2227
2325.5644703965463,2216
2327.443026406124,2239
2329.321150018203,2202
2331.1988411554107,2212
2333.0760997394395,2243
2334.952925691053,2214
2336.829318930082,2214
2338.705279375424,2181
2340.5808069450477,2208
2342.4559015559867,2250
2344.3305631243456,2215
2346.204791565297,2183
2348.07858679308,2162
2349.9519487210027,2210
2351.824877261443,2157
2353.6973723258448,2177
2355.5694338247226,2173
2357.4410616676564,2202
2359.312255763297,2320
2361.1830160193617,2212
2363.053342342637,2237
2364.9232346389776,2171
2366.792692813306,2253
2368.6617167696145,2248
2370.5303064109603,2219
2372.3984616394723,2278
2374.2661823563467,2223
2376.1334684618464,2207
2378.0003198553054,2245
2379.8667364351227,2244
2381.7327180987672,2200
2383.5982647427777,2199
2385.4633762627586,2210
2387.3280525533837,2232
2389.192293508395,2200
2391.0560990206027,2215
2392.919468981885,2202
2394.782403283189,2233
2396.644901814531,2310
2398.5069644649916,2234
2400.3685911227235,2250
2402.2297816749474,2234
2404.0905360079505,2249
2405.950854007089,2211
2407.8107355567886,2247
2409.670180540541,2201
2411.529188840908,2209
2413.387760339518,2237
2415.2458949170705,2224
2417.1035924533294,2209
2418.96085282713,2204
2420.8176759163744,2218
2422.6740615980334,2222
2424.5300097481468,2158
2426.38552024182,2281
2428.24059295323,2275
2430.0952277556207,2225
2431.949424521303,2229
2433.803183121658,2268
2435.6565034271343,2332
2437.5093853072485,2217
2439.361828630585,2253
2441.213833264798,2316
2443.0653990766095,2290
2444.916525931808,2270
2446.7672136952524,2270
2448.6174622308695,2254
2450.4672714016538,2237
2452.3166410696676,2191
2454.165571096043,2241
2456.0140613409794,2350
2457.8621116637432,2323
2459.709721922672,2219
2461.556891975169,2242
2463.403621677707,2247
2465.249910885827,2248
2467.0957594541383,2202
2468.9411672363167,2347
2470.78613408511,2228
2472.630659852331,2217
2474.4747443888614,2264
2476.3183875446516,2266
2478.161589168721,2186
2480.0043491091556,2235
2481.8466672131112,2181
2483.6885433268108,2263
2485.529977295547,2258
2487.370968963678,2287
2489.2115181746335,2280
2491.0516247709097,2217
2492.891288594071,2265
2494.7305094847497,2256
2496.569287282649,2318
2498.407621826537,2295
2500.2455129542523,2226
2502.0829605027,2286
2503.919964307855,2250
2505.7565242047594,2193
2507.5926400275252,2231
2509.42831160933,2273
2511.263538782423,2271
2513.0983213781174,2210
2514.9326592267994,2246
2516.76655215792,2259
2518.5999999999995,2257
2520.4330025806275,2234
2522.2655597264607,2235
2524.0976712632237,2245
2525.9293370157097,2260
2527.760556807782,2287
2529.591330462369,2218
2531.4216578014702,2276
2533.2515386461523,2279
2535.080972816548,2291
2536.9099601318626,2256
2538.738500410366,2298
2540.5665934693993,2247
2542.3942391253695,2237
2544.221437193752,2214
2546.0481874890925,2243
2547.874489825003,2231
2549.700344014164,2273
2551.5257498683245,2314
2553.350707198304,2323
2555.175215813986,2222
2556.9992755243256,2277
2558.8228861373454,2263
2560.646047460134,2199
2562.468759298852,2349
2564.2910214587255,2288
2566.1128337440496,2262
2567.93419595819,2247
2569.7551079035757,2268
2571.5755693817077,2247
2573.395580193155,2251
2575.2151401375536,2305
2577.034249013609,2249
2578.8529066190936,2340
2580.6711127508493,2325
2582.488867204785,2255
2584.3061697758794,2288
2586.1230202581787,2269
2587.939418444797,2276
2589.7553641279183,2264
2591.570857098791,2264
2593.385897147736,2304
2595.200484064141,2251
2597.014617636461,2303
2598.8282976522214,2244
2600.6415238980126,2294
2602.454296159496,2171
2604.266614221401,2291
2606.0784778675243,2342
2607.8898868807305,2293
2609.700841042955,2276
2611.5113401351973,2278
2613.32138393753,2192
2615.13097222909,2317
2616.940104788084,2287
2618.748781391788,2209
2620.557001816543,2243
2622.364765837763,2274
2624.1720732299264,2389
2625.9789237665814,2328
2627.7853172203445,2269
2629.5912533629,2235
2631.396731965001,2309
2633.2017527964676,2240
2635.0063156261904,2248
2636.810420222126,2262
2638.614066351301,2329
2640.417253779809,2345
2642.219982272813,2309
2644.022251594542,2307
2645.8240615082973,2248
2647.625411776444,2284
2649.4263021604183,2316
2651.226732420724,2275
2653.026702316933,2274
2654.8262116076858,2317
2656.625260050691,2312
2658.423847402724,2272
2660.221973419631,2251
2662.0196378563246,2318
2663.8168404667867,2324
2665.613581004068,2278
2667.4098592202854,2345
2669.2056748666246,2303
2671.0010276933417,2264
2672.7959174497596,2336
2674.5903438842674,2284
2676.384306744327,2245
2678.177805776465,2288
2679.9708407262765,2339
2681.7634113384274,2327
2683.555517356648,2404
2685.3471585237403,2320
2687.138334581574,2401
2688.9290452710843,2262
2690.7192903322784,2327
2692.50906950423,2334
2694.2983825250794,2353
2696.087229132039,2305
2697.875609061386,2361
2699.6635220484677,2392
2701.450967827699,2245
2703.237946132564,2253
2705.0244566956126,2298
2706.8104992484664,2332
2708.596073521813,2333
2710.381179245408,2335
2712.1658161480777,2389
2713.949983957714,2274
2715.7336824012773,2357
2717.516911204798,2214
2719.299670093374,2352
2721.0819587911706,2389
2722.8637770214223,2340
2724.6451245064322,2361
2726.426000967571,2365
2728.2064061252763,2284
2729.986339699057,2292
2731.765801407488,2240
2733.5447909682134,2221
2735.323308097945,2281
2737.101352512463,2234
2738.8789239266166,2249
2740.6560220543215,2313
2742.4326466085645,2285
2744.2087973013977,2294
2745.984473843944,2380
2747.7596759463922,2279
2749.534403318001,2274
2751.308655667096,2224
2753.0824327010737,2350
2754.8557341263954,2320
2756.628559648593,2353
2758.4009089722667,2351
2760.172781801083,2339
2761.944177837779,2310
2763.715096784159,2413
2765.4855383410945,2366
2767.2555022085267,2331
2769.024988085465,2349
2770.793995669988,2358
2772.5625246592385,2335
2774.3305747494323,2403
2776.098145635852,2340
2777.865237012847,2361
2779.6318485738357,2267
2781.397980011306,2241
2783.163631016813,2384
2784.928801280979,2378
2786.6934904934974,2284
2788.457698343127,2297
2790.221424517697,2394
2791.9846687041027,2321
2793.74743058831,2326
2795.5097098553515,2361
2797.2715061893286,2344
2799.0328192734105,2305
2800.793648789836,2238
2802.553994419911,2359
2804.3138558440087,2337
2806.073232741573,2357
2807.8321247911135,2271
2809.590531670211,2360
2811.3484530555115,2291
2813.105888622732,2336
2814.8628380466557,2297
2816.6193010011348,2252
2818.3752771590903,2418
2820.13076619251,2321
2821.885767772452,2325
2823.640281569041,2399
2825.3943072514703,2402
2827.147844488002,2357
2828.9008929459665,2286
2830.6534522917614,2325
2832.405522190854,2305
2834.1571023077786,2334
2835.9081923061394,2242
2837.658791848606,2359
2839.40890059692,2304
2841.1585182118874,2370
2842.907644353386,2437
2844.6562786803593,2400
2846.4044208508203,2368
2848.15207052185,2394
2849.899227349598,2353
2851.6458909892804,2335
2853.392061095185,2364
2855.137737320664,2442
2856.882919318142,2443
2858.6276067391063,2403
2860.371799234118,2335
2862.1154964528037,2388
2863.8586980438586,2331
2865.6014036550464,2389
2867.343612933199,2377
2869.0853255242173,2361
2870.826541073068,2379
2872.567259223789,2309
2874.307479619485,2365
2876.0472019023287,2363
2877.7864257135625,2366
2879.525150693495,2296
2881.263376481505,2405
2883.0011027160385,2332
2884.73832903461,2369
2886.4750550738027,2355
2888.2112804692665,2454
2889.9470048557223,2403
2891.682227866956,2472
2893.416949135825,2359
2895.151168294252,2330
2896.88488497323,2350
2898.6180988028204,2434
2900.3508094121503,2397
2902.083016429419,2370
2903.81471948189,2382
2905.5459181958972,2420
2907.276612196844,2355
2909.0068011091994,2383
2910.736484556502,2339
2912.465662161359,2383
2914.194333545445,2418
2915.922498329504,2394
2917.650156133346,2304
2919.377306575852,2407
2921.103949274969,2381
2922.830083847715,2364
2924.555709910173,2394
2926.2808270774967,2326
2928.005434963907,2344
2929.7295331826936,2327
2931.4531213462133,2395
2933.1761990658924,2403
2934.8987659522254,2428
2936.6208216147747,2399
2938.3423656621694,2458
2940.0633977021116,2423
2941.783917341366,2442
2943.503924185768,2379
2945.223417840223,2454
2946.9423979087023,2404
2948.6608639942456,2410
2950.378815698962,2368
2952.096252624029,2456
2953.81317436969,2378
2955.529580535259,2425
2957.2454707191177,2410
2958.9608445187164,2501
2960.6757015305734,2391
2962.3900413502733,2456
2964.103863572472,2397
2965.817167790894,2460
2967.529953598327,2391
2969.2422205866337,2416
2970.953968346739,2394
2972.6651964686407,2465
2974.3759045414035,2420
2976.0860921531585,2384
2977.7957588911067,2399
2979.504904341517,2432
2981.2135280897273,2382
2982.9216297201433,2472
2984.629208816238,2386
2986.336264960554,2413
2988.0427977347017,2391
2989.7488067193594,2394
2991.454291494274,2441
2993.1592516382607,2384
2994.8636867292034,2427
2996.567596344053,2319
2998.2709800588295,2446
2999.973837448621,2486
3001.6761680875857,2415
3003.377971548946,2380
3005.0792474049954,2405
3006.7799952270957,2438
3008.480214585676,2412
3010.1799050502345,2372
3011.8790661893368,2384
3013.5776975706176,2356
3015.2757987607793,2379
3016.973369325592,2393
3018.6704088298966,2363
3020.366916837598,2415
3022.0628929116747,2487
3023.7583366141675,2360
3025.4532475061915,2378
3027.147625147925,2410
3028.841469098617,2346
3030.534778916585,2352
3032.2275541592144,2409
3033.9197943829577,2345
3035.611499143338,2423
3037.302667994943,2466
3038.9933004914333,2381
3040.683396185535,2415
3042.372954629042,2470
3044.061975372817,2317
3045.7504579667934,2467
3047.4384019599684,2387
3049.1258069004116,2322
3050.812672335258,2405
3052.4989978107124,2440
3054.184782872047,2402
3055.870027063603,2423
3057.554729928791,2342
3059.238891010086,2349
3060.9225098490347,2394
3062.6055859862518,2384
3064.2881189614177,2424
3065.970108313285,2425
3067.651553579671,2462
3069.3324542974633,2342
3071.012810002616,2382
3072.6926202301543,2433
3074.3718845141702,2404
3076.050602387822,2365
3077.728773383339,2391
3079.406397032018,2459
3081.083472864223,2488
3082.7600004093874,2326
3084.4359791960137,2372
3086.11140875167,2393
3087.7862886029952,2320
3089.4606182756943,2455
3091.134397294544,2490
3092.807625183385,2382
3094.4803014651284,2346
3096.152425661755,2312
3097.8239972943097,2389
3099.49501588291,2396
3101.165480946741,2446
3102.8353920040518,2367
3104.504748572165,2406
3106.1735501674693,2431
3107.8417963054226,2439
3109.5094865005485,2411
3111.176620266441,2454
3112.8431971157625,2418
3114.5092165602427,2431
3116.1746781106813,2417
3117.839581276943,2462
3119.503925567965,2453
3121.167710491747,2414
3122.830935555364,2484
3124.493600264954,2500
3126.1557041257247,2480
3127.817246641952,2489
3129.478227316982,2431
3131.1386456532273,2490
3132.798501152168,2426
3134.4577933143537,2434
3136.116521639402,2424
3137.7746856259982,2406
3139.4322847718977,2512
3141.0893185739224,2423
3142.745786527962,2441
3144.4016881289754,2394
3146.0570228709903,2453
3147.711790247102,2500
3149.3659897494754,2472
3151.0196208693396,2403
3152.6726830969974,2477
3154.3251759218165,2508
3155.9770988322334,2515
3157.6284513157534,2491
3159.2792328589485,2386
3160.929442947461,2396
3162.579081066002,2474
3164.2281466983477,2415
3165.8766393273454,2417
3167.5245584349086,2413
3169.1719035020224,2431
3170.818674008735,2386
3172.4648694341677,2396
3174.110489256508,2459
3175.7555329530105,2531
3177.4000000000005,2474
3179.0438898728707,2511
3180.6872020460805,2506
3182.32993599316,2433
3183.972091186706,2430
3185.613667098384,2457
3187.254663198927,2460
3188.8950789581386,2457
3190.5349138448873,2462
3192.1741673271126,2490
3193.8128388718224,2490
3195.4509279450886,2432
3197.0884340120574,2509
3198.725356536939,2424
3200.361694983014,2431
3201.997448812629,2422
3203.632617487203,2462
3205.2672004672195,2402
3206.901197212229,2374
3208.5346071808563,2485
3210.167429830789,2459
3211.799664618785,2470
3213.4313110006706,2451
3215.0623684313387,2431
3216.692836364753,2489
3218.3227142539445,2454
3219.9520015510125,2449
3221.5806977071215,2421
3223.2088021725103,2449
3224.8363143964816,2404
3226.4632338274077,2500
3228.089559912728,2400
3229.715292098951,2452
3231.3404298316545,2480
3232.9649725554846,2420
3234.5889197141523,2416
3236.2122707504395,2535
3237.8350251061984,2499
3239.457182222345,2398
3241.0787415388677,2426
3242.6997024948187,2498
3244.3200645283223,2441
3245.9398270765696,2488
3247.558989575821,2504
3249.177551461403,2403
3250.7955121677123,2565
3252.412871128213,2439
3254.029627775437,2506
3255.6457815409867,2361
3257.2613318555286,2500
3258.876278148802,2445
3260.490619849613,2472
3262.1043563858348,2394
3263.717487184408,2419
3265.3300116713453,2421
3266.941929271725,2423
3268.5532394096917,2431
3270.1639415084646,2488
3271.7740349903233,2371
3273.383519276621,2530
3274.9923937877775,2439
3276.6006579432833,2480
3278.2083111616903,2474
3279.815352860627,2539
3281.421782456786,2473
3283.027599365927,2462
3284.632803002881,2430
3286.237392781545,2410
3287.841368114885,2410
3289.4447284149373,2452
3291.047473092801,2449
3292.649601558651,2435
3294.2511132217223,2402
3295.8520074903254,2425
3297.452283771835,2415
3299.051941472695,2451
3300.650979998417,2414
3302.2493987535827,2526
3303.8471971418403,2511
3305.4443745659064,2562
3307.0409304275654,2461
3308.636864127674,2493
3310.2321750661513,2520
3311.8268626419876,2435
3313.420926253242,2445
3315.01436529704,2460
3316.6071791695776,2546
3318.1993672661183,2449
3319.7909289809913,2406
3321.3818637075983,2499
3322.972170838406,2452
3324.561849764951,2491
3326.150899877838,2510
3327.7393205667386,2468
3329.3271112203956,2505
3330.9142712266166,2466
3332.5007999722793,2502
3334.08669684333,2446
3335.6719612247834,2511
3337.2565925007193,2508
3338.840590054291,2566
3340.4239532677157,2453
3342.006681522281,2524
3343.5887741983406,2540
3345.1702306753214,2483
3346.7510503317126,2550
3348.3312325450743,2467
3349.910776692037,2466
3351.4896821482953,2473
3353.0679482886153,2538
3354.645574486829,2539
3356.2225601158398,2508
3357.798904547615,2437
