CollectionTime,7/9/2024 4:55:34 PM
ExposureUsed,3
CalibratedSpectrum
-962.7078968117929,489
-959.9714848408522,518
-957.2358232597828,523
-954.5009119013725,483
-951.7667505983302,519
-949.0333391832855,508
-946.3006774887896,483
-943.5687653473143,498
-940.837602591253,499
-938.1071890529199,528
-935.3775245645503,523
-932.6486089583007,543
-929.9204420662485,538
-927.1930237203925,510
-924.4663537526524,531
-921.7404319948689,527
-919.0152582788041,536
-916.2908324361409,586
-913.5671542984834,554
-910.8442236973568,508
-908.1220404642074,534
-905.4006044304027,553
-902.679915427231,550
-899.959973285902,534
-897.2407778375464,535
-894.5223289132158,533
-891.8046263438832,530
-889.0876699604426,504
-886.3714595937089,496
-883.6559950744183,507
-880.9412762332282,509
-878.2273029007168,516
-875.5140749073835,509
-872.8015920836489,520
-870.0898542598545,534
-867.3788612662631,538
-864.6686129330585,500
-861.9591090903457,518
-859.2503495681506,520
-856.5423341964203,517
-853.8350628050229,518
-851.1285352237478,519
-848.4227512823054,496
-845.7177108103272,517
-843.0134136373656,544
-840.3098595928943,539
-837.6070485063082,525
-834.9049802069229,527
-832.2036545239757,531
-829.5030712866244,523
-826.8032303239481,532
-824.1041314649472,536
-821.4057745385428,531
-818.7081593735775,507
-816.0112857988148,500
-813.3151536429393,523
-810.6197627345566,505
-807.9251129021936,536
-805.2312039742981,519
-802.5380357792392,530
-799.8456081453069,518
-797.1539209007124,535
-794.462973873588,559
-791.772766891987,561
-789.083299783884,556
-786.3945723771743,564
-783.7065844996748,517
-781.0193359791231,553
-778.3328266431781,546
-775.6470563194197,545
-772.9620248353489,537
-770.2777320183878,538
-767.5941776958798,541
-764.9113616950891,553
-762.2292838432011,520
-759.5479439673222,539
-756.8673418944801,538
-754.1874774516235,547
-751.5083504656222,545
-748.8299607632671,550
-746.15230817127,543
-743.475392516264,572
-740.7992136248035,555
-738.1237713233636,583
-735.4490654383407,536
-732.7750957960521,560
-730.1018622227365,586
-727.4293645445534,547
-724.7576025875837,530
-722.0865761778291,575
-719.4162851412126,546
-716.7467293035781,567
-714.0779084906909,574
-711.409822528237,600
-708.7424712418238,588
-706.0758544569796,566
-703.4099719991541,590
-700.7448236937178,574
-698.0804093659622,601
-695.4167288411002,593
-692.7537819442656,587
-690.0915685005134,570
-687.4300883348199,587
-684.7693412720819,558
-682.1093271371178,591
-679.4500457546669,584
-676.7914969493897,593
-674.1336805458676,607
-671.4765963686034,606
-668.8202442420206,594
-666.1646239904642,645
-663.5097354382001,602
-660.8555784094151,600
-658.2021527282176,617
-655.5494582186366,626
-652.8974947046223,617
-650.2462620100463,588
-647.5957599587009,617
-644.9459883742998,604
-642.2969470804776,619
-639.6486359007902,618
-637.0010546587141,628
-634.3542031776476,634
-631.7080812809096,633
-629.0626887917401,630
-626.4180255333008,616
-623.7740913286734,619
-621.1308860008619,655
-618.4884093727904,639
-615.8466612673046,663
-613.2056415071715,596
-610.5653499150785,632
-607.9257863136347,650
-605.28695052537,622
-602.6488423727357,667
-600.0114616781036,668
-597.3748082637674,651
-594.7388819519412,616
-592.1036825647604,672
-589.4692099242818,698
-586.8354638524829,703
-584.2024441712624,668
-581.5701507024403,650
-578.9385832677575,677
-576.3077416888759,638
-573.6776257873787,664
-571.0482353847704,654
-568.4195703024757,645
-565.7916303618415,615
-563.164415384135,644
-560.5379251905453,654
-557.9121596021815,679
-555.2871184400748,681
-552.6628015251767,686
-550.0392086783606,701
-547.4163397204204,699
-544.794194472071,707
-542.1727727539491,733
-539.5520743866118,705
-536.9320991905377,729
-534.3128469861261,739
-531.6943175936979,751
-529.0765108334947,777
-526.4594265256793,787
-523.8430644903358,908
-521.2274245474689,1036
-518.612506517005,1093
-515.9983102187913,1103
-513.3848354725959,1106
-510.77208209810846,1111
-508.16004991493924,1213
-505.5487387426199,1418
-502.9381484006032,1485
-500.3282787082628,1614
-497.71912948489364,1471
-495.1107005497117,1447
-492.5029917218539,1241
-489.8960028203786,1087
-487.28973366426493,1033
-484.68418407241325,915
-482.07935386364494,868
-479.47524285670266,881
-476.87185087025,867
-474.2691777228715,850
-471.66722323307334,871
-469.0659872192821,850
-466.4654694998459,880
-463.86566989303384,888
-461.26658821703614,809
-458.66822428996414,841
-456.07057792985,825
-453.4736489546475,857
-450.877437182231,860
-448.28194243039627,808
-445.68716451686,827
-443.09310325926003,824
-440.49975847515555,823
-437.9071299820263,814
-435.31521759727354,820
-432.72402113821954,810
-430.13354042210767,817
-427.5437752661022,869
-424.95472548728867,832
-422.36639090267386,867
-419.7787713291855,892
-417.1918665836721,970
-414.60567648290385,908
-412.0202008435715,873
-409.4354394822874,869
-406.8513922155845,900
-404.26805885991723,905
-401.685439231661,950
-399.103533147112,936
-396.522340422488,917
-393.9418608739278,902
-391.3620943174908,922
-388.7830405691583,829
-386.2046994448317,797
-383.6270707603344,834
-381.05015433141045,772
-378.473949973725,771
-375.8984575028645,732
-373.32367673433623,660
-370.74960748356875,657
-368.1762495659117,675
-365.60360279663576,606
-363.03166699093265,547
-360.4604419639154,542
-357.8899275306178,510
-355.32012350599507,505
-352.7510297049233,488
-350.1826459421999,453
-347.61497203254316,478
-345.04800779059235,458
-342.4817530309082,489
-339.91620756797226,484
-337.35137121618743,504
-334.7872437898774,475
-332.22382510328725,535
-329.66111497058273,480
-327.09911320585127,480
-324.53781962310075,524
-321.9772340362607,547
-319.4173562591816,490
-316.8581861056348,467
-314.2997233893127,457
-311.7419679238294,483
-309.1849195227194,460
-306.62857799943856,500
-304.0729431673641,532
-301.51801483979375,563
-298.963792829947,528
-296.41027695096386,522
-293.85746701590574,540
-291.3053628377552,528
-288.7539642294155,557
-286.2032710037115,545
-283.65328297338897,533
-281.1039999511146,586
-278.5554217494762,569
-276.007548180983,535
-273.4603790580651,545
-270.9139141930734,523
-268.3681533982807,520
-265.8230964858798,538
-263.27874326798565,570
-260.7350935566336,576
-258.1921471637804,613
-255.6499039013039,575
-253.10836358100266,590
-250.56752601459698,534
-248.02739101372765,577
-245.48795838995704,578
-242.94922795476816,577
-240.41119951956557,568
-237.8738728956746,644
-235.33724789434166,683
-232.80132432673452,631
-230.2661020039418,605
-227.73158073697357,635
-225.19776033676033,672
-222.66464061415422,743
-220.1322213799284,650
-217.60050244477725,619
-215.06948361931552,645
-212.53916471408013,718
-210.00954553952818,679
-207.48062590603843,658
-204.9524056239104,655
-202.4248845033651,736
-199.8980623545441,695
-197.37193898751036,717
-194.84651421224817,719
-192.32178783866232,750
-189.79775967657952,739
-187.27442953574644,807
-184.7517972258321,795
-182.2298625564256,755
-179.7086253370378,745
-177.18808537710026,762
-174.66824248596583,754
-172.14909647290835,793
-169.6306471471229,843
-167.11289431772548,792
-164.59583779375328,724
-162.07947738416453,801
-159.5638128978386,799
-157.04884414357605,994
-154.53457093009854,1037
-152.02099306604828,1052
-149.50811035998936,842
-146.99592262040665,755
-144.48442965570587,814
-141.97363127421409,852
-139.46352728417958,912
-136.95411749377126,1101
-134.44540171107985,1071
-131.93737974411636,900
-129.43005140081357,864
-126.92341648902493,1316
-124.41747481652521,1674
-121.91222619101006,1877
-119.40767042009657,2360
-116.90380731132257,2789
-114.40063667214702,2933
-111.8981583099503,2311
-109.3963720320337,1569
-106.89527764561933,1364
-104.39487495785067,1676
-101.89516377579241,2642
-99.39614390642998,3137
-96.89781515667039,3618
-94.40017733334128,3497
-91.90323024319173,3709
-89.40697369289148,4386
-86.91140748903172,5566
-84.41653143812482,6261
-81.92234534660395,5303
-79.42884902082358,3546
-76.93604226705907,4779
-74.4439248915071,8529
-71.95249670028534,13584
-69.46175749943245,16241
-66.97170709490854,17409
-64.48234529259423,15193
-61.99367189829195,12103
-59.50568671772464,9224
-57.01838955653636,7926
-54.53178022029283,7549
-52.045858514480074,7314
-49.560624244506016,7946
-47.07607721569923,9127
-44.59221723330904,9998
-42.10904410250669,9639
-39.62655762838392,8616
-37.14475761595372,7256
-34.66364387015028,6437
-32.18321619582866,6074
-29.70347439776515,6198
-27.224418280657005,6742
-24.74604764912317,8877
-22.26836230770266,13961
-19.7913620608565,27030
-17.315046712966478,48641
-14.83941606833514,65036
-12.36446993118659,65036
-9.89020810566592,65036
-7.416630395839093,65036
-4.94373660569363,65036
-2.471526539137585,65036
-6.821210263296962E-13,65036
2.47084320796705,65036
4.941003281093458,65036
7.410480415786196,65036
9.879274808531363,65036
12.347386655893956,65036
14.814816154518212,65036
17.28156350112681,65036
19.74762889252179,65036
22.21301252558385,65036
24.67771459727237,19664
27.141735304626195,3804
29.605074844762612,2146
32.06773341487792,1690
34.52971121224755,1830
36.99100843422559,1968
39.45162527824516,1702
41.91156194181792,1448
44.370818622535126,1350
46.82939551806646,1188
49.287292826160524,1283
51.74451074464503,1387
54.201049471426245,1340
56.65690920448981,1316
59.112090141899785,1198
61.56659248179983,1045
64.02041642241159,983
66.4735621620365,957
68.92602989905402,891
71.37781983192338,909
73.82893215918205,928
76.27936707944684,1001
78.72912479141326,1112
81.17820549385567,1059
83.62660938562783,1144
86.07433666566146,1149
88.5213875329681,912
90.96776218663751,928
93.41346082583925,861
95.85848364982041,886
98.30283085790859,863
100.7465026495089,987
103.18949922410604,941
105.63182078126385,985
108.07346752062438,1066
110.51443964190923,906
112.95473734491827,859
115.39436082953114,856
117.83331029570547,886
120.27158594347827,800
122.7091879729652,874
125.1461165843615,891
127.58237197794062,845
130.01795435405518,774
132.4528639131364,774
134.88710085569494,849
137.32066538231982,767
139.75355769367923,777
142.1857779905207,808
144.61732647366978,838
147.04820334403132,838
149.47840880258934,880
151.90794305040674,841
154.33680628862487,928
156.76499871846443,1186
159.19252054122433,1320
161.61937195828352,1445
164.04555317109896,1459
166.47106438120693,1576
168.89590579022217,1760
171.320077599839,1814
173.7435800118302,1933
176.16641322804742,1925
178.58857745042144,2033
181.01007288096173,2266
183.43089972175687,2274
185.85105817497413,2186
188.27054844285988,2184
190.6893707277394,2250
193.10752523201643,2294
195.5250121581745,2285
197.9418317087751,2322
200.3579840864594,2304
202.7734694939469,2424
205.18828813403627,2416
207.6024402096051,2489
210.01592592360964,2500
212.42874547908548,2588
214.84089907914665,2531
217.2523869269868,2390
219.66320922587727,2633
222.0733661791695,2503
224.48285799029293,2505
226.8916848627572,2442
229.29984700014882,2533
231.7073446061355,2518
234.11417788446204,2446
236.520347038953,2511
238.92585227351185,2460
241.33069379212054,2586
243.73487179884035,2614
246.1383864978112,2644
248.541238093252,2687
250.9434267894609,2605
253.34495279081432,2618
255.74581630176783,2561
258.1460175268563,2616
260.54555667069314,2700
262.9444339379703,2707
265.3426495334594,2693
267.7402036620107,2718
270.1370965285529,2583
272.53332833809407,2540
274.9288992957214,2544
277.32380960660055,2493
279.718059475976,2477
282.1116491091717,2410
284.5045787115897,2471
286.89684848871195,2417
289.2884586460981,2475
291.67940938938807,2491
294.0697009242996,2523
296.4593334566299,2413
298.84830719225477,2458
301.23662233712923,2364
303.6242790972866,2371
306.01127767884,2444
308.39761828798066,2412
310.78330113097934,2448
313.16832641418534,2325
315.5526943440269,2307
317.9364051270112,2255
320.3194589697242,2291
322.70185607883093,2317
325.0835966610754,2224
327.4646809232805,2269
329.8451090723478,2158
332.2248813152577,2191
334.6039978590701,2227
336.9824589109231,2087
339.36026467803447,2102
341.7374153677,2188
344.113911187295,2086
346.48975234427337,2137
348.8649390461686,2123
351.2394715005918,2113
353.61334991523415,2142
355.9865744978655,2121
358.35914545633375,2160
360.73106299856715,2054
363.10232733257146,2125
365.47293866643247,2072
367.84289720831396,2036
370.2122031664593,2074
372.5808567491905,2029
374.9488581649083,2059
377.31620762209275,1998
379.6829053293021,1979
382.0489514951745,2013
384.4143463284262,2039
386.7790900378528,1982
389.14318283232853,1995
391.50662492080653,1976
393.86941651231916,2014
396.23155781597745,2093
398.5930490409713,2015
400.9538903965696,1974
403.3140820921202,1952
405.6736243370498,1879
408.03251734086336,1966
410.3907613131465,1965
412.74835646356166,1914
415.10530300185144,1901
417.4616011378372,1957
419.81725108141893,2007
422.1722530425758,1959
424.5266072313656,1997
426.880313857925,1898
429.2333731324701,1946
431.58578526529516,1950
433.9375504667738,1884
436.2886689473588,1870
438.63914091758113,1883
440.9889665880513,1882
443.33814616945835,1873
445.68667987257015,1944
448.03456790823395,1941
450.3818104873759,1883
452.72840782100013,1917
455.07436012019105,1912
457.41966759611057,1978
459.7643304600007,1905
462.10834892318155,1905
464.4517231970525,1866
466.79445349309174,1879
469.1365400228566,1855
471.4779829979826,1898
473.81878263018564,1919
476.15893913125876,1867
478.4984527130747,1911
480.8373235875855,2012
483.17555196682144,2076
485.5131380628919,2143
487.8500820879857,2202
490.1863842543697,2249
492.52204477439034,2431
494.8570638604725,2674
497.1914417251204,3065
499.52517858091653,3323
501.85827464052306,3544
504.19073011668036,3693
506.5225452222086,3592
508.85372017000566,3496
511.18425517304956,3323
513.514150444396,3573
515.8434061971808,4226
518.1720226446176,5119
520.4999999999999,5218
522.8273384766991,5173
525.1540382881666,4597
527.480099647932,3970
529.8055227696037,3300
532.1303078668694,2670
534.454455153496,2311
536.777964843328,2133
539.1008371502907,2149
541.4230722883866,2073
543.744670471698,2114
546.0656319143858,2078
548.3859568306899,2056
550.7056454349294,2021
553.0246979415016,2067
555.3431145648834,2036
557.6608955196306,1949
559.978041020377,1941
562.2945512818363,2007
564.6104265188006,1952
566.9256669461412,2108
569.2402727788082,2014
571.5542442318302,2022
573.8675815203156,2016
576.1802848594508,2038
578.4923544645015,2000
580.8037905508126,2057
583.114593333807,2068
585.4247630289875,2042
587.7342998519354,2052
590.0432040183106,2020
592.3514757438526,2078
594.6591152443794,2068
596.9661227357875,2063
599.2724984340531,2079
601.578242555231,2056
603.8833553154542,2116
606.1878369309362,2067
608.4916876179676,2009
610.7949075929192,1983
613.0974970722403,2023
615.3994562724587,2051
617.7007854101818,1948
620.0014847020951,2038
622.3015543649641,1979
624.6009946156324,2039
626.8998056710224,1979
629.1979877481361,1956
631.4955410640538,2000
633.7924658359349,1994
636.0887622810175,1974
638.3844306166192,1992
640.6794710601358,1924
642.9738838290426,2002
645.2676691408932,2070
647.5608272133207,1985
649.853358264037,2072
652.1452625108324,2008
654.4365401715764,2073
656.7271914642178,1989
659.0172166067838,1991
661.3066158173809,1993
663.5953893141935,2019
665.8835373154867,2048
668.1710600396028,1998
670.4579577049639,2025
672.7442305300709,1982
675.0298787335033,2037
677.3149025339197,1967
679.599302150058,2026
681.8830778007342,2030
684.1662297048437,2023
686.4487580813608,2023
688.7306631493387,2041
691.0119451279091,2001
693.2926042362834,2024
695.5726406937516,2067
697.8520547196814,2024
700.1308465335215,1941
702.4090163547982,2021
704.6865644031171,1991
706.9634908981619,1997
709.2397960596965,2003
711.5154801075631,2021
713.7905432616823,1988
716.0649857420548,1984
718.3388077687592,2029
720.612009561953,2036
722.8845913418733,2045
725.1565533288352,2037
727.427895743234,1990
729.6986188055427,1997
731.9687227363137,1967
734.238207756178,1999
736.5070740858458,1956
738.7753219461066,1966
741.0429515578281,2027
743.3099631419569,2004
745.5763569195191,1972
747.8421331116193,2063
750.1072919394409,2001
752.3718336242467,1984
754.6357583873777,2054
756.8990664502545,1996
759.1617580343765,1938
761.423833361321,1976
763.6852926527457,1992
765.9461361303862,2003
768.206364016058,2031
770.4659765316536,2042
772.7249738991469,2025
774.9833563405886,2024
777.2411240781092,1988
779.4982773339183,1989
781.7548163303044,2040
784.010741289634,2047
786.2660524343538,2051
788.5207499869881,2136
790.7748341701416,2009
793.0283052064964,2062
795.2811633188143,2084
797.5334087299362,2057
799.7850416627813,2085
802.0360623403484,2049
804.2864709857143,2047
806.5362678220353,2094
808.7854530725468,2025
811.0340269605625,2080
813.2819897094754,2041
815.5293415427581,2062
817.77608268396,2167
820.0222133567116,2065
822.2677337847211,2039
824.5126441917765,2078
826.7569448017433,2080
829.0006358385675,2078
831.2437175262731,2047
833.4861900889629,2020
835.7280537508192,2027
837.9693087361026,1973
840.2099552691533,2007
842.4499935743896,2038
844.689423876309,2027
846.9282463994886,2052
849.1664613685833,2076
851.4040690083276,2100
853.6410695435349,2027
855.877463199097,2034
858.1132501999847,2040
860.3484307712487,2061
862.5830051380175,2097
864.8169735254988,2100
867.0503361589791,2110
869.2830932638243,2083
871.5152450654786,2081
873.7467917894654,2061
875.9777336613873,2158
878.2080709069252,2115
880.4378037518389,2084
882.666932421968,2129
884.8954571432301,2076
887.1233781416219,2131
889.3506956432192,2200
891.5774098741766,2135
893.803521060728,2152
896.0290294291852,2150
898.2539352059397,2091
900.4782386174619,2137
902.7019398903011,2009
904.925039251085,2113
907.147536926521,2161
909.3694331433943,2054
911.59072812857,2113
913.8114221089921,2098
916.0315153116827,2030
918.2510079637437,2095
920.4699002923547,2044
922.6881925247761,2129
924.905884888345,2049
927.1229776104793,2039
929.3394709186747,2073
931.555365040506,2077
933.7706602036275,2096
935.9853566357709,2042
938.1994545647489,2038
940.4129542184515,2114
942.6258558248488,2072
944.8381596119883,2039
947.0498658079974,2062
949.2609746410825,2003
951.4714863395287,1966
953.6814011316998,2072
955.8907192460387,2037
958.0994409110671,2005
960.3075663553858,2026
962.5150958076741,2050
964.7220294966913,1928
966.928367651274,1974
969.1341105003388,2061
971.3392582728806,1939
973.5438111979742,1986
975.747769504772,1987
977.9511334225061,1954
980.153903180487,1904
982.3560790081052,1884
984.5576611348289,1905
986.7586497902058,1960
988.9590452038618,1928
991.158847605503,1863
993.3580572249133,1882
995.5566742919558,1883
997.7546990365728,1850
999.952131688785,1785
1002.1489724786926,1798
1004.3452216364743,1694
1006.5408793923874,1716
1008.7359459767691,1753
1010.9304216200343,1723
1013.1243065526781,1755
1015.3176010052733,1753
1017.510305208472,1642
1019.7024193930064,1680
1021.8939437896848,1680
1024.0848786293977,1653
1026.2752241431122,1685
1028.4649805618747,1708
1030.6541481168115,1664
1032.842727039127,1605
1035.0307175601051,1638
1037.2181199111074,1614
1039.4049343235752,1671
1041.591161029029,1623
1043.7768002590683,1648
1045.9618522453698,1622
1048.1463172196918,1600
1050.3301954138697,1633
1052.513487059818,1656
1054.69619238953,1647
1056.8783116350783,1618
1059.0598450286152,1670
1061.2407928023704,1630
1063.4211551886528,1580
1065.6009324198508,1623
1067.780124728432,1654
1069.9587323469414,1672
1072.1367555080046,1673
1074.314194444325,1667
1076.4910493886855,1643
1078.667320573947,1642
1080.843008233051,1552
1083.0181125990161,1591
1085.1926339049414,1604
1087.3665723840027,1527
1089.5399282694575,1520
1091.7127017946405,1563
1093.8848931929647,1592
1096.0565026979243,1582
1098.2275305430899,1557
1100.3979769621128,1590
1102.567842188722,1576
1104.737126456726,1582
1106.9058300000124,1540
1109.0739530525475,1559
1111.2414958483764,1553
1113.4084586216231,1522
1115.5748416064907,1543
1117.7406450372605,1594
1119.9058691482942,1659
1122.0705141740304,1585
1124.2345803489884,1503
1126.3980679077658,1594
1128.5609770850388,1560
1130.7233081155623,1580
1132.8850612341707,1533
1135.0462366757774,1546
1137.2068346753745,1526
1139.3668554680326,1586
1141.526299288901,1551
1143.68516637321,1536
1145.8434569562655,1541
1148.001171273455,1486
1150.158309560244,1588
1152.3148720521767,1508
1154.470858984876,1418
1156.626270594044,1500
1158.7811071154629,1511
1160.9353687849912,1500
1163.089055838569,1530
1165.242168512213,1495
1167.3947070420209,1523
1169.5466716641677,1532
1171.6980626149075,1507
1173.8488801305748,1548
1175.9991244475814,1448
1178.1487958024186,1494
1180.2978944316555,1508
1182.4464205719428,1474
1184.5943744600072,1473
1186.7417563326567,1481
1188.8885664267755,1521
1191.0348049793297,1465
1193.1804722273619,1483
1195.325568407995,1536
1197.4700937584303,1512
1199.614048515948,1544
1201.7574329179074,1483
1203.900247201746,1535
1206.042491604982,1509
1208.1841663652099,1577
1210.3252717201053,1515
1212.465807907422,1491
1214.6057751649923,1484
1216.7451737307279,1555
1218.8840038426192,1593
1221.0222657387353,1504
1223.1599596572241,1492
1225.2970858363137,1519
1227.4336445143094,1566
1229.5696359295966,1535
1231.705060320639,1488
1233.8399179259786,1475
1235.9742089842384,1536
1238.107933734118,1512
1240.2410924143974,1488
1242.373685263935,1504
1244.5057125216676,1505
1246.6371744266116,1546
1248.7680712178621,1576
1250.898403134593,1529
1253.028170416058,1495
1255.1573733015875,1558
1257.2860120305932,1549
1259.4140868425648,1564
1261.54159797707,1555
1263.6685456737569,1568
1265.7949301723515,1511
1267.9207517126597,1545
1270.046010534565,1632
1272.1707068780306,1576
1274.2948409830983,1647
1276.4184130898889,1608
1278.541423438603,1549
1280.6638722695184,1598
1282.785759822993,1596
1284.9070863394636,1604
1287.0278520594447,1633
1289.1480572235314,1623
1291.2677020723963,1597
1293.3867868467923,1578
1295.5053117875495,1595
1297.623277135579,1654
1299.740683131868,1706
1301.8575300174857,1584
1303.973818033578,1600
1306.0895474213703,1632
1308.2047184221678,1596
1310.3193312773528,1670
1312.4333862283888,1642
1314.5468835168163,1667
1316.659823384255,1646
1318.7722060724045,1688
1320.8840318230418,1712
1322.9953008780249,1650
1325.1060134792888,1661
1327.2161698688478,1588
1329.3257702887959,1612
1331.4348149813054,1625
1333.5433041886276,1632
1335.6512381530933,1604
1337.7586171171101,1698
1339.8654413231675,1628
1341.9717110138317,1608
1344.0774264317488,1669
1346.1825878196432,1683
1348.2871954203192,1634
1350.3912494766587,1687
1352.4947502316231,1658
1354.5976979282532,1574
1356.7000928096686,1701
1358.8019351190665,1641
1360.9032250997243,1558
1363.0039629949988,1659
1365.1041490483235,1577
1367.2037835032133,1651
1369.3028666032606,1559
1371.401398592137,1553
1373.4993797135926,1627
1375.5968102114575,1600
1377.6936903296396,1653
1379.7900203121262,1608
1381.8858004029835,1680
1383.9810308463561,1661
1386.075711886469,1698
1388.1698437676241,1622
1390.2634267342032,1661
1392.356461030667,1649
1394.4489469015557,1677
1396.5408845914872,1655
1398.6322743451592,1667
1400.7231164073469,1705
1402.813411022907,1626
1404.903158436773,1683
1406.9923588939578,1689
1409.0810126395531,1615
1411.1691199187303,1681
1413.2566809767386,1710
1415.343696058907,1699
1417.4301654106425,1671
1419.5160892774315,1742
1421.6014679048399,1699
1423.6863015385125,1739
1425.7705904241707,1725
1427.8543348076178,1634
1429.9375349347342,1784
1432.0201910514802,1702
1434.102303403894,1731
1436.1838722380944,1735
1438.2648978002767,1760
1440.3453803367174,1705
1442.4253200937692,1717
1444.5047173178677,1720
1446.5835722555234,1746
1448.6618851533285,1854
1450.739656257952,1891
1452.8168858161434,1833
1454.8935740747306,1889
1456.96972128062,1870
1459.045327680797,1896
1461.120393522327,1805
1463.1949190523528,1915
1465.2689045180973,1872
1467.3423501668608,1909
1469.415256246024,1882
1471.4876230030463,2017
1473.559450685465,1925
1475.6307395408976,1973
1477.7014898170391,1962
1479.771701761665,2038
1481.8413756226287,2076
1483.9105116478618,2036
1485.9791100853772,2048
1488.0471711832643,2108
1490.1146951896926,2088
1492.1816823529098,2141
1494.2481329212433,2185
1496.3140471430984,2134
1498.3794252669609,2182
1500.4442675413939,2160
1502.5085742150404,2176
1504.572345536622,2194
1506.6355817549388,2221
1508.6982831188702,2180
1510.7604498773744,2194
1512.8220822794883,2187
1514.8831805743293,2203
1516.9437450110909,2250
1519.003775839048,2215
1521.0632733075522,2252
1523.1222376660367,2259
1525.1806691640113,2259
1527.2385680510652,2259
1529.2959345768668,2321
1531.3527689911643,2292
1533.4090715437833,2279
1535.4648424846291,2340
1537.5200820636855,2332
1539.5747905310159,2358
1541.6289681367616,2477
1543.6826151311434,2449
1545.7357317644614,2459
1547.7883182870937,2469
1549.8403749494987,2510
1551.8919020022113,2504
1553.9428996958477,2493
1555.9933682811015,2604
1558.0433080087469,2533
1560.0927191296346,2599
1562.1416018946961,2609
1564.1899565549415,2610
1566.2377833614592,2685
1568.2850825654164,2624
1570.3318544180606,2626
1572.3780991707158,2594
1574.423817074788,2524
1576.4690083817595,2526
1578.5136733431923,2288
1580.5578122107272,2335
1582.601425236085,2234
1584.6445126710646,2215
1586.6870747675434,2132
1588.7291117774776,2093
1590.7706239529034,2132
1592.8116115459347,1957
1594.8520748087658,1978
1596.8920139936686,1962
1598.9314293529933,1892
1600.9703211391711,1913
1603.008689604711,1801
1605.0465350022005,1867
1607.0838575843068,1803
1609.1206576037753,1754
1611.1569353134305,1770
1613.1926909661765,1761
1615.2279248149953,1671
1617.2626371129481,1666
1619.2968281131757,1573
1621.3304980688963,1728
1623.3636472334088,1636
1625.39627586009,1668
1627.428384202396,1662
1629.459972513861,1678
1631.4910410480993,1611
1633.5215900588028,1666
1635.551619799744,1600
1637.5811305247717,1601
1639.6101224878166,1646
1641.6385959428862,1590
1643.6665511440683,1598
1645.693988345528,1564
1647.7209078015112,1577
1649.7473097663405,1548
1651.7731944944203,1592
1653.7985622402307,1555
1655.823413258333,1553
1657.847747803366,1597
1659.8715661300494,1572
1661.8948684931793,1539
1663.9176551476316,1564
1665.9399263483624,1612
1667.9616823504057,1588
1669.982923408873,1645
1672.0036497789574,1608
1674.0238617159293,1581
1676.043559475138,1546
1678.0627433120121,1505
1680.081413482059,1552
1682.0995702408654,1607
1684.117213844096,1538
1686.134344547495,1622
1688.1509626068864,1612
1690.1670682781705,1624
1692.182661817329,1560
1694.1977434804217,1573
1696.2123135235875,1576
1698.226372203043,1575
1700.2399197750851,1537
1702.2529564960905,1640
1704.2654826225112,1544
1706.277498410882,1568
1708.2890041178139,1547
1710.2999999999988,1481
1712.3104863142066,1551
1714.3204633172854,1525
1716.329931266163,1510
1718.3388904178469,1551
1720.3473410294214,1528
1722.3552833580516,1485
1724.3627176609807,1510
1726.3696441955308,1540
1728.3760632191033,1526
1730.3819749891782,1530
1732.3873797633146,1550
1734.3922777991502,1543
1736.3966693544012,1579
1738.4005546868639,1508
1740.4039340544127,1486
1742.406807715001,1517
1744.4091759266616,1518
1746.4110389475054,1498
1748.4123970357223,1537
1750.413250449582,1518
1752.4135994474318,1498
1754.4134442876993,1480
1756.4127852288902,1517
1758.4116225295893,1548
1760.4099564484595,1518
1762.407787244244,1473
1764.405115175764,1508
1766.4019405019203,1488
1768.3982634816916,1541
1770.3940843741357,1555
1772.3894034383907,1526
1774.3842209336717,1513
1776.378537119274,1537
1778.372352254571,1484
1780.3656665990156,1458
1782.3584804121397,1447
1784.3507939535534,1441
1786.3426074829463,1441
1788.3339212600863,1524
1790.3247355448211,1539
1792.3150505970766,1516
1794.3048666768573,1503
1796.2941840442477,1498
1798.2830029594106,1503
1800.2713236825884,1495
1802.2591464741004,1471
1804.2464715943465,1525
1806.2332993038058,1545
1808.2196298630352,1541
1810.2054635326708,1455
1812.190800573428,1491
1814.175641246101,1510
1816.1599858115628,1481
1818.1438345307652,1501
1820.127187664738,1463
1822.1100454745924,1493
1824.092408221516,1441
1826.0742761667766,1469
1828.055649571721,1481
1830.0365286977735,1465
1832.0169138064398,1484
1833.9968051593014,1445
1835.9762030180214,1447
1837.9551076443408,1498
1839.9335193000788,1514
1841.9114382471344,1467
1843.888864747485,1486
1845.8657990631878,1413
1847.842241456378,1482
1849.8181921892697,1409
1851.7936515241558,1497
1853.7686197234098,1457
1855.7430970494815,1484
1857.7170837649014,1430
1859.6905801322787,1455
1861.6635864143004,1451
1863.6361028737338,1440
1865.608129773424,1451
1867.5796673762961,1446
1869.5507159453537,1516
1871.521275743678,1502
1873.4913470344313,1456
1875.4609300808534,1431
1877.4300251462632,1527
1879.3986324940588,1459
1881.366752387717,1423
1883.3343850907936,1447
1885.3015308669228,1464
1887.268189979819,1485
1889.2343626932739,1495
1891.2000492711595,1464
1893.1652499774254,1540
1895.1299650761011,1433
1897.0941948312952,1425
1899.0579395071945,1486
1901.0211993680641,1489
1902.98397467825,1472
1904.9462657021745,1490
1906.9080727043415,1496
1908.869395949332,1478
1910.8302357018065,1448
1912.790592226504,1528
1914.7504657882428,1462
1916.7098566519212,1468
1918.6687650825133,1479
1920.6271913450764,1457
1922.5851357047422,1460
1924.5425984267245,1436
1926.499579776314,1437
1928.4560800188833,1442
1930.4120994198802,1455
1932.367638244833,1492
1934.32269675935,1515
1936.2772752291175,1477
1938.231373919899,1431
1940.1849930975404,1475
1942.1381330279637,1464
1944.0907939771696,1476
1946.0429762112412,1438
1947.9946799963363,1446
1949.9459055986945,1430
1951.896653284633,1485
1953.8469233205478,1503
1955.7967159729142,1494
1957.7460315082863,1487
1959.6948701932974,1481
1961.6432322946594,1474
1963.5911180791632,1480
1965.5385278136787,1490
1967.4854617651545,1431
1969.4319202006182,1441
1971.377903387176,1449
1973.3234115920136,1489
1975.268445082395,1486
1977.2130041256642,1492
1979.1570889892423,1436
1981.1006999406304,1445
1983.04383724741,1500
1984.986501177238,1541
1986.928691997853,1480
1988.8704099770712,1508
1990.811655382789,1397
1992.7524284829801,1495
1994.692729545698,1474
1996.6325588390755,1444
1998.5719166313224,1491
2000.5108031907307,1449
2002.4492187856677,1484
2004.387163684583,1452
2006.3246381560011,1475
2008.2616424685298,1457
2010.1981768908527,1457
2012.1342416917332,1403
2014.069837140014,1452
2016.0049635046162,1412
2017.9396210545406,1456
2019.8738100588666,1393
2021.8075307867502,1433
2023.740783507431,1418
2025.6735684902228,1455
2027.6058860045214,1476
2029.5377363198004,1390
2031.4691197056118,1462
2033.4000364315875,1458
2035.3304867674374,1462
2037.260470982952,1425
2039.189989347998,1432
2041.1190421325232,1429
2043.047629606554,1417
2044.9757520401945,1456
2046.9034097036288,1446
2048.8306028671195,1424
2050.7573318010086,1449
2052.683596775716,1416
2054.609398061742,1482
2056.5347359296647,1448
2058.4596106501403,1412
2060.384022493906,1422
2062.3079717317764,1459
2064.231458634646,1462
2066.1544834734873,1417
2068.077046519352,1437
2069.99914804337,1470
2071.9207883167524,1458
2073.8419676107865,1443
2075.7626861968406,1466
2077.6829443463607,1491
2079.6027423308715,1407
2081.522080421977,1428
2083.440958891362,1475
2085.359378010786,1415
2087.2773380520907,1423
2089.194839287196,1408
2091.111881988101,1479
2093.0284664268825,1442
2094.9445928756973,1424
2096.86026160678,1406
2098.775472892446,1494
2100.690227005088,1430
2102.604524217178,1454
2104.5183648012676,1418
2106.431749029985,1435
2108.34467717604,1515
2110.2571495122206,1421
2112.169166311393,1429
2114.080727846503,1476
2115.9918343905747,1485
2117.902486216711,1463
2119.8126835980956,1445
2121.722426807987,1490
2123.6317161197285,1442
2125.5405518067364,1541
2127.448934142509,1481
2129.356863400624,1415
2131.264339854737,1530
2133.1713637785815,1515
2135.077935445972,1485
2136.9840551308002,1487
2138.889723107037,1478
2140.7949396487334,1480
2142.699705030018,1447
2144.6040195250994,1549
2146.507883408264,1475
2148.4112969538774,1528
2150.3142604363848,1462
2152.2167741303097,1503
2154.1188383102535,1514
2156.0204532508997,1529
2157.9216192270064,1472
2159.822336513414,1471
2161.7226053850413,1500
2163.622426116884,1478
2165.5217989840185,1472
2167.4207242616,1507
2169.319202224862,1521
2171.2172331491165,1513
2173.1148173097563,1566
2175.0119549822507,1511
2176.90864644215,1458
2178.8048919650823,1503
2180.7006918267534,1552
2182.596046302952,1585
2184.4909556695407,1558
2186.3854202024645,1525
2188.279440177746,1510
2190.173015871487,1478
2192.066147559868,1508
2193.958835519149,1533
2195.851080025667,1604
2197.7428813558417,1501
2199.6342397861667,1551
2201.5251555932186,1527
2203.415629053651,1544
2205.3056604441986,1535
2207.19525004167,1576
2209.084398122958,1542
2210.9731049650327,1560
2212.861370844941,1594
2214.749196039812,1504
2216.636580826851,1578
2218.523525483344,1616
2220.410030286655,1569
2222.296095514226,1614
2224.1817214435805,1545
2226.066908352319,1563
2227.951656518121,1631
2229.835966218746,1558
2231.71983773203,1601
2233.6032713358913,1573
2235.486267308324,1619
2237.3688259274036,1521
2239.2509474712824,1528
2241.132632218193,1541
2243.013880446447,1565
2244.8946924344323,1575
2246.7750684606203,1537
2248.6550088035574,1584
2250.534513741871,1626
2252.413583554265,1547
2254.292218519526,1563
2256.170418916517,1565
2258.0481850241786,1604
2259.925517121534,1525
2261.8024154876825,1523
2263.678880401803,1553
2265.5549121431536,1588
2267.430510991071,1604
2269.305677224971,1553
2271.180411124348,1535
2273.0547129687766,1576
2274.9285830379076,1524
2276.8020216114737,1508
2278.6750289692845,1584
2280.5476053912294,1516
2282.4197511572766,1601
2284.2914665474727,1640
2286.162751841943,1669
2288.0336073208937,1602
2289.904033264608,1678
2291.774029953448,1600
2293.6435976678554,1581
2295.5127366883517,1591
2297.381447295534,1549
2299.2497297700825,1515
2301.1175843927526,1444
2302.9850114443825,1414
2304.852011205885,1433
2306.7185839582553,1382
2308.5847299825664,1332
2310.4504495599676,1313
2312.3157429716925,1308
2314.1806104990483,1323
2316.0450524234247,1301
2317.9090690262888,1305
2319.772660589186,1342
2321.635827393742,1307
2323.498569721661,1306
2325.3608878547248,1315
2327.2227820747967,1311
2329.0842526638157,1323
2330.945299903803,1251
2332.805924076857,1302
2334.6661254651535,1339
2336.525904350951,1296
2338.3852610165827,1322
2340.244195744464,1341
2342.102708817088,1264
2343.9608005170253,1344
2345.8184711269287,1313
2347.675720929526,1334
2349.532550207628,1274
2351.38895924412,1282
2353.24494832197,1326
2355.100517724223,1317
2356.955667734004,1305
2358.810398634514,1317
2360.664710709037,1297
2362.5186042409337,1339
2364.3720795136437,1329
2366.225136810686,1309
2368.0777764156583,1315
2369.929998612237,1347
2371.7818036841777,1350
2373.633191915315,1346
2375.484163589562,1279
2377.3347189909114,1353
2379.184858403434,1318
2381.03458211128,1313
2382.8838903986775,1325
2384.732783549936,1376
2386.5812618494406,1388
2388.4293255816588,1360
2390.2769750311327,1320
2392.1242104824883,1321
2393.971032220427,1292
2395.8174405297295,1324
2397.6634356952563,1341
2399.509018001947,1350
2401.3541877348193,1364
2403.1989451789705,1377
2405.043290619576,1345
2406.8872243418905,1401
2408.730746631247,1370
2410.5738577730594,1369
2412.4165580528183,1336
2414.258847756095,1276
2416.100727168537,1298
2417.9421965758734,1395
2419.783256263912,1384
2421.623906518538,1361
2423.4641476257157,1297
2425.303979871491,1369
2427.143403541984,1376
2428.9824189233977,1356
2430.821026302012,1359
2432.6592259641866,1396
2434.497018196361,1314
2436.33440328505,1357
2438.171381516851,1370
2440.00795317844,1409
2441.844118556569,1399
2443.6798779380724,1365
2445.5152316098606,1359
2447.3501798589255,1399
2449.1847229723357,1370
2451.0188612372403,1367
2452.8525949408663,1369
2454.6859243705203,1344
2456.518849813587,1393
2458.3513715575314,1348
2460.183489889895,1361
2462.015205098301,1361
2463.8465174704493,1366
2465.67742729412,1336
2467.5079348571717,1355
2469.338040447542,1409
2471.1677443532476,1433
2472.9970468623833,1344
2474.825948263123,1333
2476.6544488437207,1289
2478.482548892508,1365
2480.310248697896,1350
2482.137548548374,1338
2483.9644487325118,1411
2485.790949538956,1383
2487.617051256433,1306
2489.44275417375,1363
2491.26805857979,1355
2493.0929647635157,1372
2494.917473013971,1394
2496.741583620276,1365
2498.5652968716304,1371
2500.3886130573137,1359
2502.2115324666834,1383
2504.0340553891765,1380
2505.856182114308,1384
2507.6779129316733,1431
2509.499248130945,1406
2511.3201880018764,1410
2513.140732834298,1399
2514.9608829181198,1390
2516.780638543331,1357
2518.6,1340
2520.418967578273,1403
2522.237541568376,1363
2524.0557222606144,1374
2525.8735099453706,1424
2527.6909049131086,1385
2529.507907454368,1411
2531.32451785977,1406
2533.140736420014,1378
2534.9565634258774,1402
2536.771999168218,1418
2538.5870439379714,1441
2540.4016980261526,1422
2542.2159617238544,1378
2544.02983532225,1424
2545.8433191125914,1459
2547.656413386209,1395
2549.4691184345115,1435
2551.2814345489874,1469
2553.093362021204,1415
2554.904901142808,1438
2556.716052205523,1519
2558.526815501153,1456
2560.3371913215824,1491
2562.147179958771,1427
2563.956781704761,1484
2565.7659968516705,1475
2567.5748256916986,1449
2569.3832685171224,1491
2571.1913256202984,1497
2572.9989972936614,1529
2574.806283829725,1488
2576.613185521084,1498
2578.4197026604074,1504
2580.2258355404483,1511
2582.031584454035,1509
2583.836949694077,1519
2585.6419315535613,1492
2587.4465303255533,1527
2589.2507463032002,1524
2591.0545797797245,1421
2592.8580310484303,1522
2594.6611004026995,1561
2596.463788135992,1517
2598.266094541849,1575
2600.0680199138874,1493
2601.869564545807,1539
2603.670728731383,1520
2605.4715127644704,1554
2607.2719169390048,1510
2609.071941548998,1519
2610.8715868885433,1574
2612.670853251811,1570
2614.469740933052,1539
2616.268250226594,1558
2618.0663814268455,1528
2619.864134828292,1499
2621.6615107255006,1558
2623.458509413115,1538
2625.2551311858597,1526
2627.0513763385347,1446
2628.8472451660223,1447
2630.6427379632833,1512
2632.4378550253564,1413
2634.232596647359,1471
2636.026963124488,1379
2637.8209547520187,1438
2639.6145718253065,1507
2641.407814639785,1453
2643.200683490966,1419
2644.9931786744414,1459
2646.7853004858807,1453
2648.577049221034,1431
2650.3684251757277,1515
2652.1594286458712,1451
2653.9500599274484,1431
2655.740319316525,1462
2657.5302071092437,1448
2659.3197236018286,1440
2661.10886909058,1437
2662.8976438718782,1446
2664.686048242183,1390
2666.4740824980327,1448
2668.2617469360443,1431
2670.0490418529134,1387
2671.8359675454153,1376
2673.622524310403,1450
2675.408712444811,1427
2677.1945322456495,1366
2678.979984010009,1422
2680.76506803506,1385
2682.5497846180497,1436
2684.334134056306,1350
2686.1181166472343,1357
2687.9017326883213,1399
2689.6849824771293,1348
2691.4678663113013,1405
2693.2503844885596,1337
2695.032537306705,1390
2696.8143250636167,1393
2698.5957480572542,1355
2700.3768065856534,1348
2702.1575009469316,1360
2703.937831439283,1323
2705.717798360982,1365
2707.4974020103837,1319
2709.276642685917,1303
2711.055520686095,1352
2712.834036309506,1363
2714.612189854819,1330
2716.389981620782,1323
2718.1674119062204,1307
2719.944481010041,1351
2721.721189231226,1323
2723.4975368688415,1403
2725.273524222027,1333
2727.0491515900053,1297
2728.824419272075,1374
2730.5993275676146,1335
2732.3738767760838,1316
2734.148067197016,1327
2735.921899130031,1359
2737.6953728748194,1386
2739.468488731156,1334
2741.2412469988926,1347
2743.0136479779617,1333
2744.785691968372,1315
2746.5573792702116,1331
2748.3287101836504,1270
2750.099685008934,1320
2751.870304046388,1301
2753.640567596418,1288
2755.4104759595057,1315
2757.1800294362156,1322
2758.949228327187,1334
2760.7180729331412,1330
2762.486563554877,1261
2764.254700493272,1340
2766.022484049284,1325
2767.789914523947,1308
2769.5569922183786,1319
2771.3237174337705,1291
2773.090090471394,1280
2774.8561116326036,1298
2776.6217812188274,1260
2778.3870995315756,1345
2780.1520668724356,1300
2781.9166835430747,1321
2783.6809498452394,1278
2785.444866080754,1358
2787.2084325515225,1306
2788.971649559527,1328
2790.73451740683,1318
2792.4970363955713,1323
2794.2592068279705,1314
2796.0210290063264,1301
2797.7825032330147,1318
2799.543629810493,1346
2801.304409041296,1267
2803.0648412280366,1313
2804.8249266734088,1300
2806.5846656801846,1365
2808.344058551212,1338
2810.1031055894246,1325
2811.8618070978273,1280
2813.6201633795085,1297
2815.378174737636,1360
2817.1358414754536,1358
2818.893163896285,1376
2820.6501423035334,1339
2822.4067770006814,1316
2824.1630682912883,1346
2825.9190164789957,1268
2827.6746218675207,1335
2829.429884760661,1329
2831.184805462294,1336
2832.9393842763743,1317
2834.693621506936,1329
2836.4475174580916,1326
2838.201072434034,1267
2839.954286739034,1312
2841.707160677441,1323
2843.459694553685,1261
2845.2118886722724,1296
2846.96374333779,1327
2848.7152588549034,1340
2850.4664355283567,1332
2852.217273662973,1344
2853.9677735636546,1283
2855.7179355353833,1346
2857.4677598832186,1341
2859.217246912299,1303
2860.9663969278427,1314
2862.715210235146,1356
2864.4636871395846,1340
2866.211827946614,1314
2867.9596329617652,1292
2869.7071024906536,1306
2871.4542368389684,1334
2873.20103631248,1323
2874.947501217038,1307
2876.6936318585695,1344
2878.4394285430812,1380
2880.1848915766604,1329
2881.9300212654707,1303
2883.6748179157553,1281
2885.4192818338374,1275
2887.1634133261173,1308
2888.907212699077,1340
2890.6506802592744,1340
2892.393816313348,1311
2894.1366211680142,1413
2895.8790951300693,1350
2897.621238506388,1271
2899.363051603925,1337
2901.1045347297118,1317
2902.8456881908596,1286
2904.58651229456,1311
2906.327007348081,1307
2908.067173658772,1282
2909.8070115340597,1336
2911.5465212814497,1251
2913.285703208527,1309
2915.0245576229563,1299
2916.7630848324807,1345
2918.5012851449196,1363
2920.2391588681758,1350
2921.976706310227,1332
2923.7139277791334,1306
2925.4508235830313,1315
2927.187394030137,1317
2928.923639428745,1353
2930.6595600872306,1331
2932.395156314046,1244
2934.1304284177218,1278
2935.8653767068713,1322
2937.6000014901815,1306
2939.3343030764227,1337
2941.068281774442,1323
2942.8019378931644,1360
2944.5352717415976,1305
2946.2682836288236,1300
2948.0009738640065,1305
2949.7333427563885,1331
2951.465390615289,1352
2953.1971177501086,1277
2954.9285244703265,1308
2956.6596110855,1349
2958.3903779052657,1327
2960.1208252393385,1329
2961.8509533975125,1286
2963.5807626896617,1349
2965.3102534257378,1287
2967.0394259157715,1339
2968.768280469873,1300
2970.496817398232,1329
2972.2250370111146,1324
2973.952939618869,1315
2975.6805255319196,1327
2977.4077950607707,1288
2979.134748516006,1427
2980.861386208289,1340
2982.587708448359,1382
2984.313715547037,1309
2986.039407815222,1316
2987.764785563891,1324
2989.489849104102,1291
2991.2145987469908,1264
2992.9390348037705,1315
2994.6631575857346,1352
2996.3869674042576,1269
2998.1104645707887,1333
2999.83364939686,1314
3001.5565221940783,1291
3003.2790832741334,1316
3005.0013329487924,1331
3006.7232715298996,1268
3008.4448993293804,1304
3010.166216659239,1258
3011.887223831558,1291
3013.607921158498,1300
3015.3283089522993,1317
3017.0483875252826,1274
3018.7681571898443,1272
3020.4876182584626,1282
3022.2067710436927,1282
3023.9256158581707,1344
3025.644153014609,1342
3027.362382825801,1253
3029.0803056046193,1301
3030.797921664012,1289
3032.5152313170106,1348
3034.2322348767225,1319
3035.9489326563353,1314
3037.665324969115,1270
3039.3814121284063,1280
3041.097194447633,1252
3042.812672240299,1327
3044.5278458199855,1325
3046.2427155003525,1284
3047.9572815951406,1246
3049.671544418167,1271
3051.38550428333,1329
3053.0991615046073,1287
3054.812516396051,1285
3056.5255692717974,1285
3058.2383204460575,1300
3059.9507702331257,1303
3061.662918947372,1274
3063.3747669032446,1265
3065.0863144152736,1317
3066.7975617980674,1319
3068.508509366309,1291
3070.219157434767,1272
3071.9295063182844,1301
3073.639556331785,1307
3075.3493077902704,1279
3077.058761008821,1322
3078.7679163025964,1309
3080.476773986837,1277
3082.1853343768594,1319
3083.89359778806,1310
3085.6015645359153,1250
3087.3092349359786,1297
3089.016609303884,1303
3090.7236879553434,1330
3092.4304712061476,1281
3094.136959372166,1277
3095.843152769349,1308
3097.5490517137237,1290
3099.2546565213966,1308
3100.959967508554,1307
3102.66498499146,1293
3104.3697092864577,1269
3106.0741407099695,1300
3107.778279578498,1313
3109.482126208622,1262
3111.1856809170004,1287
3112.8889440203716,1290
3114.5919158355528,1308
3116.294596679439,1315
3117.996986869006,1339
3119.6990867213062,1289
3121.4008965534726,1312
3123.102416682717,1328
3124.803647426329,1311
3126.5045891016784,1287
3128.205242026213,1272
3129.90560651746,1317
3131.605682893025,1285
3133.3054714705922,1332
3135.0049725679282,1362
3136.7041865028714,1260
3138.4031135933465,1297
3140.101754157353,1332
3141.800108512971,1324
3143.498176978357,1254
3145.1959598717494,1310
3146.8934575114636,1387
3148.5906702158954,1282
3150.2875983035183,1319
3151.9842420928853,1280
3153.680601902627,1323
3155.376678051456,1286
3157.07247085816,1279
3158.767980641609,1280
3160.463207720748,1255
3162.158152414606,1296
3163.8528150422862,1346
3165.5471959229726,1276
3167.2412953759303,1318
3168.9351137204976,1274
3170.628651276098,1273
3172.3219083622307,1276
3174.014885298474,1287
3175.707582404485,1277
3177.4000000000005,1312
3179.092138404835,1316
3180.7839979388846,1289
3182.47557892212,1313
3184.166881674594,1343
3185.8579065164386,1307
3187.5486537678626,1302
3189.2391237491547,1337
3190.9293167806827,1318
3192.6192331828934,1369
3194.3088732763117,1324
3195.998237381542,1355
3197.687325819268,1287
3199.376138910251,1239
3201.064676975334,1272
3202.7529403354347,1230
3204.4409293115523,1338
3206.1286442247647,1302
3207.816085396229,1318
3209.5032531471825,1272
3211.190147798936,1238
3212.8767696728846,1305
3214.5631190905015,1249
3216.2491963733373,1260
3217.9350018430214,1306
3219.6205358212637,1295
3221.305798629851,1283
3222.990790590651,1244
3224.6755120256103,1237
3226.359963256751,1251
3228.0441446061795,1284
3229.7280563960758,1292
3231.411698948703,1276
3233.0950725863995,1251
3234.778177631587,1257
3236.461014406761,1267
3238.1435832345005,1264
3239.8258844374595,1272
3241.507918338374,1308
3243.1896852600576,1307
3244.8711855254023,1303
3246.552419457381,1281
3248.233387379042,1326
3249.914089613516,1234
3251.59452648401,1267
3253.274698313813,1275
3254.95460542629,1243
3256.6342481448855,1299
3258.313626793125,1247
3259.9927416946084,1285
3261.6715931730196,1253
3263.3501815521176,1270
3265.0285071557437,1209
3266.706570307815,1240
3268.3843713323286,1292
3270.0619105533615,1301
3271.739188295068,1269
3273.4162048816834,1275
3275.0929606375184,1297
3276.769455886966,1279
3278.445690954498,1307
3280.1216661646613,1300
3281.797381842087,1302
3283.4728383114807,1277
3285.1480358976296,1306
3286.8229749253996,1266
3288.4976557197333,1271
3290.172078605655,1256
3291.846243908266,1300
3293.5201519527463,1293
3295.193803064357,1254
3296.8671975684374,1290
3298.5403357904024,1259
3300.21321805575,1270
3301.8858446900567,1332
3303.558216018975,1295
3305.23033236824,1326
3306.9021940636603,1271
3308.57380143113,1276
3310.2451547966184,1276
3311.916254486174,1280
3313.5871008259246,1271
3315.2576941420766,1301
3316.9280347609147,1257
3318.5981230088046,1297
3320.2679592121895,1268
3321.9375436975924,1232
3323.606876791612,1269
3325.27595882093,1268
3326.944790112305,1244
3328.6133709925753,1330
3330.2817017886573,1278
3331.949782827547,1265
3333.617614436319,1237
3335.2851969421245,1245
3336.952530672199,1256
3338.619615953853,1282
3340.286453114475,1307
3341.9530424815357,1281
3343.619384382583,1287
3345.2854791452437,1261
3346.951327097224,1314
3348.6169285663073,1296
3350.2822838803577,1233
3351.947393367319,1277
3353.61225735521,1327
3355.2768761721345,1258
3356.9412501462693,1229
3358.605379605873,1270
3360.2692648792827,1332
3361.9329062949146,1242
3363.596304181263,1287
