CollectionTime,7/9/2024 4:55:04 PM
ExposureUsed,3
CalibratedSpectrum
-962.7078968117929,494
-959.9714848408522,500
-957.2358232597828,528
-954.5009119013725,478
-951.7667505983302,489
-949.0333391832855,515
-946.3006774887896,504
-943.5687653473143,507
-940.837602591253,510
-938.1071890529199,498
-935.3775245645503,530
-932.6486089583007,502
-929.9204420662485,527
-927.1930237203925,515
-924.4663537526524,524
-921.7404319948689,548
-919.0152582788041,514
-916.2908324361409,595
-913.5671542984834,583
-910.8442236973568,527
-908.1220404642074,492
-905.4006044304027,541
-902.679915427231,512
-899.959973285902,533
-897.2407778375464,532
-894.5223289132158,534
-891.8046263438832,526
-889.0876699604426,510
-886.3714595937089,501
-883.6559950744183,521
-880.9412762332282,493
-878.2273029007168,527
-875.5140749073835,486
-872.8015920836489,491
-870.0898542598545,509
-867.3788612662631,537
-864.6686129330585,521
-861.9591090903457,528
-859.2503495681506,488
-856.5423341964203,504
-853.8350628050229,504
-851.1285352237478,504
-848.4227512823054,507
-845.7177108103272,501
-843.0134136373656,493
-840.3098595928943,528
-837.6070485063082,516
-834.9049802069229,538
-832.2036545239757,518
-829.5030712866244,518
-826.8032303239481,522
-824.1041314649472,521
-821.4057745385428,541
-818.7081593735775,523
-816.0112857988148,529
-813.3151536429393,523
-810.6197627345566,542
-807.9251129021936,531
-805.2312039742981,524
-802.5380357792392,500
-799.8456081453069,502
-797.1539209007124,541
-794.462973873588,540
-791.772766891987,531
-789.083299783884,548
-786.3945723771743,525
-783.7065844996748,553
-781.0193359791231,531
-778.3328266431781,533
-775.6470563194197,522
-772.9620248353489,512
-770.2777320183878,515
-767.5941776958798,530
-764.9113616950891,538
-762.2292838432011,538
-759.5479439673222,494
-756.8673418944801,518
-754.1874774516235,531
-751.5083504656222,543
-748.8299607632671,544
-746.15230817127,557
-743.475392516264,547
-740.7992136248035,576
-738.1237713233636,542
-735.4490654383407,548
-732.7750957960521,550
-730.1018622227365,583
-727.4293645445534,567
-724.7576025875837,540
-722.0865761778291,540
-719.4162851412126,520
-716.7467293035781,550
-714.0779084906909,548
-711.409822528237,594
-708.7424712418238,545
-706.0758544569796,575
-703.4099719991541,581
-700.7448236937178,593
-698.0804093659622,560
-695.4167288411002,558
-692.7537819442656,579
-690.0915685005134,571
-687.4300883348199,580
-684.7693412720819,584
-682.1093271371178,577
-679.4500457546669,565
-676.7914969493897,569
-674.1336805458676,564
-671.4765963686034,577
-668.8202442420206,604
-666.1646239904642,579
-663.5097354382001,602
-660.8555784094151,632
-658.2021527282176,594
-655.5494582186366,629
-652.8974947046223,602
-650.2462620100463,589
-647.5957599587009,570
-644.9459883742998,617
-642.2969470804776,640
-639.6486359007902,645
-637.0010546587141,627
-634.3542031776476,606
-631.7080812809096,626
-629.0626887917401,589
-626.4180255333008,588
-623.7740913286734,621
-621.1308860008619,638
-618.4884093727904,665
-615.8466612673046,602
-613.2056415071715,607
-610.5653499150785,626
-607.9257863136347,636
-605.28695052537,648
-602.6488423727357,641
-600.0114616781036,625
-597.3748082637674,631
-594.7388819519412,664
-592.1036825647604,656
-589.4692099242818,668
-586.8354638524829,632
-584.2024441712624,675
-581.5701507024403,697
-578.9385832677575,672
-576.3077416888759,694
-573.6776257873787,642
-571.0482353847704,627
-568.4195703024757,659
-565.7916303618415,669
-563.164415384135,639
-560.5379251905453,639
-557.9121596021815,632
-555.2871184400748,642
-552.6628015251767,671
-550.0392086783606,691
-547.4163397204204,668
-544.794194472071,680
-542.1727727539491,694
-539.5520743866118,722
-536.9320991905377,720
-534.3128469861261,738
-531.6943175936979,783
-529.0765108334947,767
-526.4594265256793,818
-523.8430644903358,971
-521.2274245474689,1064
-518.612506517005,1144
-515.9983102187913,1099
-513.3848354725959,1124
-510.77208209810846,1181
-508.16004991493924,1293
-505.5487387426199,1522
-502.9381484006032,1604
-500.3282787082628,1657
-497.71912948489364,1617
-495.1107005497117,1511
-492.5029917218539,1322
-489.8960028203786,1099
-487.28973366426493,1026
-484.68418407241325,938
-482.07935386364494,913
-479.47524285670266,868
-476.87185087025,885
-474.2691777228715,843
-471.66722323307334,864
-469.0659872192821,881
-466.4654694998459,845
-463.86566989303384,823
-461.26658821703614,880
-458.66822428996414,848
-456.07057792985,854
-453.4736489546475,873
-450.877437182231,806
-448.28194243039627,787
-445.68716451686,800
-443.09310325926003,801
-440.49975847515555,806
-437.9071299820263,812
-435.31521759727354,814
-432.72402113821954,872
-430.13354042210767,868
-427.5437752661022,854
-424.95472548728867,892
-422.36639090267386,910
-419.7787713291855,881
-417.1918665836721,988
-414.60567648290385,924
-412.0202008435715,912
-409.4354394822874,960
-406.8513922155845,898
-404.26805885991723,903
-401.685439231661,933
-399.103533147112,904
-396.522340422488,939
-393.9418608739278,880
-391.3620943174908,897
-388.7830405691583,856
-386.2046994448317,890
-383.6270707603344,842
-381.05015433141045,819
-378.473949973725,758
-375.8984575028645,730
-373.32367673433623,665
-370.74960748356875,677
-368.1762495659117,671
-365.60360279663576,596
-363.03166699093265,564
-360.4604419639154,536
-357.8899275306178,508
-355.32012350599507,524
-352.7510297049233,484
-350.1826459421999,474
-347.61497203254316,477
-345.04800779059235,486
-342.4817530309082,509
-339.91620756797226,509
-337.35137121618743,477
-334.7872437898774,553
-332.22382510328725,543
-329.66111497058273,510
-327.09911320585127,500
-324.53781962310075,517
-321.9772340362607,535
-319.4173562591816,489
-316.8581861056348,496
-314.2997233893127,464
-311.7419679238294,494
-309.1849195227194,474
-306.62857799943856,503
-304.0729431673641,594
-301.51801483979375,551
-298.963792829947,532
-296.41027695096386,553
-293.85746701590574,557
-291.3053628377552,547
-288.7539642294155,606
-286.2032710037115,590
-283.65328297338897,544
-281.1039999511146,628
-278.5554217494762,664
-276.007548180983,545
-273.4603790580651,558
-270.9139141930734,560
-268.3681533982807,545
-265.8230964858798,554
-263.27874326798565,592
-260.7350935566336,606
-258.1921471637804,642
-255.6499039013039,611
-253.10836358100266,652
-250.56752601459698,558
-248.02739101372765,600
-245.48795838995704,650
-242.94922795476816,601
-240.41119951956557,629
-237.8738728956746,683
-235.33724789434166,735
-232.80132432673452,668
-230.2661020039418,644
-227.73158073697357,695
-225.19776033676033,737
-222.66464061415422,834
-220.1322213799284,724
-217.60050244477725,640
-215.06948361931552,701
-212.53916471408013,721
-210.00954553952818,717
-207.48062590603843,718
-204.9524056239104,707
-202.4248845033651,800
-199.8980623545441,827
-197.37193898751036,847
-194.84651421224817,812
-192.32178783866232,836
-189.79775967657952,819
-187.27442953574644,858
-184.7517972258321,912
-182.2298625564256,874
-179.7086253370378,812
-177.18808537710026,815
-174.66824248596583,869
-172.14909647290835,987
-169.6306471471229,991
-167.11289431772548,868
-164.59583779375328,809
-162.07947738416453,896
-159.5638128978386,917
-157.04884414357605,1090
-154.53457093009854,1155
-152.02099306604828,1181
-149.50811035998936,977
-146.99592262040665,860
-144.48442965570587,911
-141.97363127421409,913
-139.46352728417958,1078
-136.95411749377126,1228
-134.44540171107985,1168
-131.93737974411636,1027
-129.43005140081357,1066
-126.92341648902493,1652
-124.41747481652521,2098
-121.91222619101006,2376
-119.40767042009657,2932
-116.90380731132257,3589
-114.40063667214702,3773
-111.8981583099503,2918
-109.3963720320337,1880
-106.89527764561933,1587
-104.39487495785067,1868
-101.89516377579241,3270
-99.39614390642998,3972
-96.89781515667039,4413
-94.40017733334128,4286
-91.90323024319173,4320
-89.40697369289148,5336
-86.91140748903172,7121
-84.41653143812482,8042
-81.92234534660395,6562
-79.42884902082358,4370
-76.93604226705907,5955
-74.4439248915071,11044
-71.95249670028534,17314
-69.46175749943245,20637
-66.97170709490854,20769
-64.48234529259423,17851
-61.99367189829195,13891
-59.50568671772464,10172
-57.01838955653636,9025
-54.53178022029283,9142
-52.045858514480074,8903
-49.560624244506016,10138
-47.07607721569923,11399
-44.59221723330904,12574
-42.10904410250669,11555
-39.62655762838392,9570
-37.14475761595372,7857
-34.66364387015028,7175
-32.18321619582866,6948
-29.70347439776515,7058
-27.224418280657005,7996
-24.74604764912317,10094
-22.26836230770266,16392
-19.7913620608565,31533
-17.315046712966478,58094
-14.83941606833514,65036
-12.36446993118659,65036
-9.89020810566592,65036
-7.416630395839093,65036
-4.94373660569363,65036
-2.471526539137585,65036
-6.821210263296962E-13,65036
2.47084320796705,65036
4.941003281093458,65036
7.410480415786196,65036
9.879274808531363,65036
12.347386655893956,65036
14.814816154518212,65036
17.28156350112681,65036
19.74762889252179,65036
22.21301252558385,65036
24.67771459727237,20361
27.141735304626195,4047
29.605074844762612,2377
32.06773341487792,1888
34.52971121224755,1971
36.99100843422559,2265
39.45162527824516,1896
41.91156194181792,1664
44.370818622535126,1488
46.82939551806646,1368
49.287292826160524,1493
51.74451074464503,1568
54.201049471426245,1544
56.65690920448981,1539
59.112090141899785,1294
61.56659248179983,1079
64.02041642241159,999
66.4735621620365,966
68.92602989905402,973
71.37781983192338,977
73.82893215918205,1025
76.27936707944684,1166
78.72912479141326,1196
81.17820549385567,1165
83.62660938562783,1272
86.07433666566146,1294
88.5213875329681,990
90.96776218663751,936
93.41346082583925,933
95.85848364982041,941
98.30283085790859,970
100.7465026495089,1052
103.18949922410604,1006
105.63182078126385,1101
108.07346752062438,1155
110.51443964190923,996
112.95473734491827,895
115.39436082953114,960
117.83331029570547,964
120.27158594347827,900
122.7091879729652,987
125.1461165843615,949
127.58237197794062,858
130.01795435405518,802
132.4528639131364,927
134.88710085569494,971
137.32066538231982,868
139.75355769367923,809
142.1857779905207,872
144.61732647366978,899
147.04820334403132,946
149.47840880258934,905
151.90794305040674,920
154.33680628862487,1043
156.76499871846443,1214
159.19252054122433,1306
161.61937195828352,1422
164.04555317109896,1455
166.47106438120693,1612
168.89590579022217,1674
171.320077599839,1809
173.7435800118302,2007
176.16641322804742,1982
178.58857745042144,2117
181.01007288096173,2231
183.43089972175687,2359
185.85105817497413,2428
188.27054844285988,2279
190.6893707277394,2286
193.10752523201643,2317
195.5250121581745,2264
197.9418317087751,2318
200.3579840864594,2324
202.7734694939469,2440
205.18828813403627,2466
207.6024402096051,2572
210.01592592360964,2583
212.42874547908548,2615
214.84089907914665,2614
217.2523869269868,2485
219.66320922587727,2567
222.0733661791695,2501
224.48285799029293,2582
226.8916848627572,2506
229.29984700014882,2484
231.7073446061355,2458
234.11417788446204,2461
236.520347038953,2449
238.92585227351185,2506
241.33069379212054,2584
243.73487179884035,2557
246.1383864978112,2652
248.541238093252,2597
250.9434267894609,2607
253.34495279081432,2527
255.74581630176783,2617
258.1460175268563,2519
260.54555667069314,2609
262.9444339379703,2554
265.3426495334594,2568
267.7402036620107,2624
270.1370965285529,2542
272.53332833809407,2555
274.9288992957214,2519
277.32380960660055,2566
279.718059475976,2628
282.1116491091717,2592
284.5045787115897,2415
286.89684848871195,2531
289.2884586460981,2601
291.67940938938807,2556
294.0697009242996,2526
296.4593334566299,2639
298.84830719225477,2495
301.23662233712923,2565
303.6242790972866,2490
306.01127767884,2400
308.39761828798066,2353
310.78330113097934,2433
313.16832641418534,2421
315.5526943440269,2305
317.9364051270112,2246
320.3194589697242,2285
322.70185607883093,2365
325.0835966610754,2340
327.4646809232805,2292
329.8451090723478,2368
332.2248813152577,2232
334.6039978590701,2288
336.9824589109231,2254
339.36026467803447,2123
341.7374153677,2194
344.113911187295,2226
346.48975234427337,2231
348.8649390461686,2147
351.2394715005918,2238
353.61334991523415,2193
355.9865744978655,2164
358.35914545633375,2155
360.73106299856715,2186
363.10232733257146,2174
365.47293866643247,2184
367.84289720831396,2143
370.2122031664593,2110
372.5808567491905,2094
374.9488581649083,2082
377.31620762209275,2032
379.6829053293021,2054
382.0489514951745,2026
384.4143463284262,2024
386.7790900378528,1976
389.14318283232853,1982
391.50662492080653,2082
393.86941651231916,2030
396.23155781597745,2110
398.5930490409713,2023
400.9538903965696,2022
403.3140820921202,2037
405.6736243370498,2062
408.03251734086336,2044
410.3907613131465,1979
412.74835646356166,2012
415.10530300185144,2017
417.4616011378372,1996
419.81725108141893,2014
422.1722530425758,2027
424.5266072313656,1979
426.880313857925,2020
429.2333731324701,2048
431.58578526529516,2051
433.9375504667738,1983
436.2886689473588,1881
438.63914091758113,1914
440.9889665880513,1953
443.33814616945835,1866
445.68667987257015,1907
448.03456790823395,1919
450.3818104873759,1861
452.72840782100013,1921
455.07436012019105,1986
457.41966759611057,1961
459.7643304600007,1933
462.10834892318155,1913
464.4517231970525,1909
466.79445349309174,2008
469.1365400228566,1954
471.4779829979826,1976
473.81878263018564,1927
476.15893913125876,1944
478.4984527130747,2030
480.8373235875855,2004
483.17555196682144,2083
485.5131380628919,2205
487.8500820879857,2303
490.1863842543697,2396
492.52204477439034,2503
494.8570638604725,2740
497.1914417251204,3215
499.52517858091653,3440
501.85827464052306,3848
504.19073011668036,3894
506.5225452222086,3934
508.85372017000566,3855
511.18425517304956,3751
513.514150444396,3837
515.8434061971808,4481
518.1720226446176,5496
520.4999999999999,5738
522.8273384766991,5314
525.1540382881666,4774
527.480099647932,4149
529.8055227696037,3317
532.1303078668694,2795
534.454455153496,2400
536.777964843328,2214
539.1008371502907,2235
541.4230722883866,2118
543.744670471698,2244
546.0656319143858,2109
548.3859568306899,2139
550.7056454349294,2096
553.0246979415016,2155
555.3431145648834,2095
557.6608955196306,2072
559.978041020377,1960
562.2945512818363,2106
564.6104265188006,2094
566.9256669461412,2150
569.2402727788082,2115
571.5542442318302,2074
573.8675815203156,2160
576.1802848594508,2151
578.4923544645015,2141
580.8037905508126,2144
583.114593333807,2231
585.4247630289875,2077
587.7342998519354,2099
590.0432040183106,2089
592.3514757438526,2092
594.6591152443794,2169
596.9661227357875,2157
599.2724984340531,2119
601.578242555231,2083
603.8833553154542,2202
606.1878369309362,2160
608.4916876179676,2030
610.7949075929192,2071
613.0974970722403,2005
615.3994562724587,2122
617.7007854101818,2042
620.0014847020951,2067
622.3015543649641,2103
624.6009946156324,2075
626.8998056710224,2010
629.1979877481361,2097
631.4955410640538,2056
633.7924658359349,2022
636.0887622810175,2019
638.3844306166192,2025
640.6794710601358,2010
642.9738838290426,2081
645.2676691408932,2020
647.5608272133207,2038
649.853358264037,2018
652.1452625108324,2088
654.4365401715764,2122
656.7271914642178,2083
659.0172166067838,2049
661.3066158173809,2068
663.5953893141935,2089
665.8835373154867,2073
668.1710600396028,2005
670.4579577049639,2048
672.7442305300709,2072
675.0298787335033,2110
677.3149025339197,2201
679.599302150058,2115
681.8830778007342,2094
684.1662297048437,2051
686.4487580813608,2007
688.7306631493387,2063
691.0119451279091,2085
693.2926042362834,2123
695.5726406937516,2086
697.8520547196814,2099
700.1308465335215,1996
702.4090163547982,2091
704.6865644031171,2046
706.9634908981619,1999
709.2397960596965,2048
711.5154801075631,2020
713.7905432616823,2078
716.0649857420548,2034
718.3388077687592,1982
720.612009561953,2058
722.8845913418733,2071
725.1565533288352,2054
727.427895743234,2070
729.6986188055427,2044
731.9687227363137,2021
734.238207756178,2051
736.5070740858458,2096
738.7753219461066,2046
741.0429515578281,2059
743.3099631419569,2028
745.5763569195191,2089
747.8421331116193,2118
750.1072919394409,2053
752.3718336242467,2040
754.6357583873777,2047
756.8990664502545,2118
759.1617580343765,2063
761.423833361321,2154
763.6852926527457,2028
765.9461361303862,2081
768.206364016058,2066
770.4659765316536,2058
772.7249738991469,2045
774.9833563405886,2070
777.2411240781092,2091
779.4982773339183,2075
781.7548163303044,2157
784.010741289634,2133
786.2660524343538,2189
788.5207499869881,2094
790.7748341701416,2101
793.0283052064964,2174
795.2811633188143,2076
797.5334087299362,2103
799.7850416627813,2134
802.0360623403484,2090
804.2864709857143,2112
806.5362678220353,2112
808.7854530725468,2135
811.0340269605625,2180
813.2819897094754,2110
815.5293415427581,2101
817.77608268396,2055
820.0222133567116,2132
822.2677337847211,2089
824.5126441917765,2134
826.7569448017433,2080
829.0006358385675,2128
831.2437175262731,2066
833.4861900889629,2050
835.7280537508192,2109
837.9693087361026,2113
840.2099552691533,2038
842.4499935743896,2081
844.689423876309,2108
846.9282463994886,2148
849.1664613685833,2112
851.4040690083276,2094
853.6410695435349,2010
855.877463199097,2095
858.1132501999847,2106
860.3484307712487,2078
862.5830051380175,2106
864.8169735254988,2138
867.0503361589791,2191
869.2830932638243,2163
871.5152450654786,2117
873.7467917894654,2145
875.9777336613873,2173
878.2080709069252,2202
880.4378037518389,2183
882.666932421968,2216
884.8954571432301,2241
887.1233781416219,2146
889.3506956432192,2177
891.5774098741766,2255
893.803521060728,2188
896.0290294291852,2144
898.2539352059397,2179
900.4782386174619,2147
902.7019398903011,2133
904.925039251085,2193
907.147536926521,2186
909.3694331433943,2125
911.59072812857,2144
913.8114221089921,2089
916.0315153116827,2138
918.2510079637437,2092
920.4699002923547,2062
922.6881925247761,2060
924.905884888345,2083
927.1229776104793,2081
929.3394709186747,2080
931.555365040506,2091
933.7706602036275,2121
935.9853566357709,2076
938.1994545647489,2122
940.4129542184515,2191
942.6258558248488,2105
944.8381596119883,2148
947.0498658079974,2127
949.2609746410825,2123
951.4714863395287,2101
953.6814011316998,2136
955.8907192460387,2056
958.0994409110671,2032
960.3075663553858,2008
962.5150958076741,2074
964.7220294966913,2056
966.928367651274,2079
969.1341105003388,2083
971.3392582728806,1988
973.5438111979742,1991
975.747769504772,2038
977.9511334225061,1956
980.153903180487,1979
982.3560790081052,1944
984.5576611348289,1961
986.7586497902058,1909
988.9590452038618,1933
991.158847605503,1895
993.3580572249133,1974
995.5566742919558,1872
997.7546990365728,1806
999.952131688785,1853
1002.1489724786926,1883
1004.3452216364743,1873
1006.5408793923874,1763
1008.7359459767691,1796
1010.9304216200343,1749
1013.1243065526781,1734
1015.3176010052733,1818
1017.510305208472,1719
1019.7024193930064,1757
1021.8939437896848,1723
1024.0848786293977,1724
1026.2752241431122,1725
1028.4649805618747,1750
1030.6541481168115,1702
1032.842727039127,1734
1035.0307175601051,1643
1037.2181199111074,1677
1039.4049343235752,1708
1041.591161029029,1701
1043.7768002590683,1641
1045.9618522453698,1636
1048.1463172196918,1661
1050.3301954138697,1645
1052.513487059818,1658
1054.69619238953,1709
1056.8783116350783,1651
1059.0598450286152,1647
1061.2407928023704,1617
1063.4211551886528,1599
1065.6009324198508,1684
1067.780124728432,1694
1069.9587323469414,1677
1072.1367555080046,1652
1074.314194444325,1647
1076.4910493886855,1702
1078.667320573947,1648
1080.843008233051,1663
1083.0181125990161,1611
1085.1926339049414,1666
1087.3665723840027,1585
1089.5399282694575,1620
1091.7127017946405,1627
1093.8848931929647,1611
1096.0565026979243,1583
1098.2275305430899,1627
1100.3979769621128,1563
1102.567842188722,1608
1104.737126456726,1573
1106.9058300000124,1554
1109.0739530525475,1632
1111.2414958483764,1608
1113.4084586216231,1569
1115.5748416064907,1566
1117.7406450372605,1556
1119.9058691482942,1574
1122.0705141740304,1602
1124.2345803489884,1588
1126.3980679077658,1601
1128.5609770850388,1571
1130.7233081155623,1497
1132.8850612341707,1532
1135.0462366757774,1579
1137.2068346753745,1545
1139.3668554680326,1489
1141.526299288901,1634
1143.68516637321,1565
1145.8434569562655,1560
1148.001171273455,1554
1150.158309560244,1546
1152.3148720521767,1572
1154.470858984876,1506
1156.626270594044,1586
1158.7811071154629,1533
1160.9353687849912,1566
1163.089055838569,1547
1165.242168512213,1497
1167.3947070420209,1484
1169.5466716641677,1538
1171.6980626149075,1513
1173.8488801305748,1524
1175.9991244475814,1513
1178.1487958024186,1569
1180.2978944316555,1505
1182.4464205719428,1454
1184.5943744600072,1496
1186.7417563326567,1514
1188.8885664267755,1513
1191.0348049793297,1530
1193.1804722273619,1492
1195.325568407995,1512
1197.4700937584303,1507
1199.614048515948,1551
1201.7574329179074,1555
1203.900247201746,1536
1206.042491604982,1485
1208.1841663652099,1513
1210.3252717201053,1471
1212.465807907422,1504
1214.6057751649923,1501
1216.7451737307279,1539
1218.8840038426192,1534
1221.0222657387353,1483
1223.1599596572241,1528
1225.2970858363137,1577
1227.4336445143094,1536
1229.5696359295966,1605
1231.705060320639,1602
1233.8399179259786,1552
1235.9742089842384,1595
1238.107933734118,1518
1240.2410924143974,1597
1242.373685263935,1524
1244.5057125216676,1559
1246.6371744266116,1540
1248.7680712178621,1552
1250.898403134593,1541
1253.028170416058,1512
1255.1573733015875,1551
1257.2860120305932,1528
1259.4140868425648,1514
1261.54159797707,1555
1263.6685456737569,1637
1265.7949301723515,1551
1267.9207517126597,1587
1270.046010534565,1540
1272.1707068780306,1588
1274.2948409830983,1562
1276.4184130898889,1532
1278.541423438603,1592
1280.6638722695184,1502
1282.785759822993,1542
1284.9070863394636,1580
1287.0278520594447,1623
1289.1480572235314,1562
1291.2677020723963,1592
1293.3867868467923,1582
1295.5053117875495,1673
1297.623277135579,1607
1299.740683131868,1600
1301.8575300174857,1564
1303.973818033578,1659
1306.0895474213703,1615
1308.2047184221678,1640
1310.3193312773528,1645
1312.4333862283888,1668
1314.5468835168163,1659
1316.659823384255,1700
1318.7722060724045,1643
1320.8840318230418,1636
1322.9953008780249,1649
1325.1060134792888,1588
1327.2161698688478,1603
1329.3257702887959,1610
1331.4348149813054,1595
1333.5433041886276,1614
1335.6512381530933,1615
1337.7586171171101,1652
1339.8654413231675,1588
1341.9717110138317,1633
1344.0774264317488,1595
1346.1825878196432,1671
1348.2871954203192,1614
1350.3912494766587,1605
1352.4947502316231,1641
1354.5976979282532,1606
1356.7000928096686,1639
1358.8019351190665,1580
1360.9032250997243,1592
1363.0039629949988,1633
1365.1041490483235,1672
1367.2037835032133,1589
1369.3028666032606,1646
1371.401398592137,1610
1373.4993797135926,1579
1375.5968102114575,1568
1377.6936903296396,1635
1379.7900203121262,1668
1381.8858004029835,1620
1383.9810308463561,1681
1386.075711886469,1565
1388.1698437676241,1679
1390.2634267342032,1663
1392.356461030667,1574
1394.4489469015557,1648
1396.5408845914872,1700
1398.6322743451592,1652
1400.7231164073469,1650
1402.813411022907,1591
1404.903158436773,1644
1406.9923588939578,1671
1409.0810126395531,1632
1411.1691199187303,1677
1413.2566809767386,1639
1415.343696058907,1716
1417.4301654106425,1682
1419.5160892774315,1684
1421.6014679048399,1689
1423.6863015385125,1747
1425.7705904241707,1781
1427.8543348076178,1723
1429.9375349347342,1651
1432.0201910514802,1689
1434.102303403894,1734
1436.1838722380944,1704
1438.2648978002767,1617
1440.3453803367174,1760
1442.4253200937692,1738
1444.5047173178677,1675
1446.5835722555234,1725
1448.6618851533285,1739
1450.739656257952,1745
1452.8168858161434,1817
1454.8935740747306,1757
1456.96972128062,1709
1459.045327680797,1776
1461.120393522327,1768
1463.1949190523528,1811
1465.2689045180973,1771
1467.3423501668608,1791
1469.415256246024,1851
1471.4876230030463,1816
1473.559450685465,1798
1475.6307395408976,1945
1477.7014898170391,1813
1479.771701761665,1880
1481.8413756226287,1958
1483.9105116478618,1897
1485.9791100853772,1845
1488.0471711832643,1867
1490.1146951896926,1893
1492.1816823529098,1879
1494.2481329212433,1849
1496.3140471430984,1929
1498.3794252669609,1951
1500.4442675413939,2004
1502.5085742150404,1915
1504.572345536622,2016
1506.6355817549388,1966
1508.6982831188702,1973
1510.7604498773744,1965
1512.8220822794883,1985
1514.8831805743293,1948
1516.9437450110909,1924
1519.003775839048,1944
1521.0632733075522,1972
1523.1222376660367,2038
1525.1806691640113,2075
1527.2385680510652,2094
1529.2959345768668,2036
1531.3527689911643,2037
1533.4090715437833,2067
1535.4648424846291,2074
1537.5200820636855,2086
1539.5747905310159,2113
1541.6289681367616,2142
1543.6826151311434,2146
1545.7357317644614,2152
1547.7883182870937,2184
1549.8403749494987,2219
1551.8919020022113,2193
1553.9428996958477,2257
1555.9933682811015,2328
1558.0433080087469,2264
1560.0927191296346,2291
1562.1416018946961,2280
1564.1899565549415,2323
1566.2377833614592,2327
1568.2850825654164,2339
1570.3318544180606,2320
1572.3780991707158,2333
1574.423817074788,2315
1576.4690083817595,2253
1578.5136733431923,2201
1580.5578122107272,2216
1582.601425236085,2109
1584.6445126710646,2114
1586.6870747675434,2064
1588.7291117774776,1976
1590.7706239529034,1872
1592.8116115459347,1923
1594.8520748087658,1860
1596.8920139936686,1796
1598.9314293529933,1821
1600.9703211391711,1791
1603.008689604711,1782
1605.0465350022005,1725
1607.0838575843068,1790
1609.1206576037753,1751
1611.1569353134305,1740
1613.1926909661765,1709
1615.2279248149953,1641
1617.2626371129481,1696
1619.2968281131757,1652
1621.3304980688963,1619
1623.3636472334088,1655
1625.39627586009,1693
1627.428384202396,1669
1629.459972513861,1671
1631.4910410480993,1657
1633.5215900588028,1641
1635.551619799744,1596
1637.5811305247717,1634
1639.6101224878166,1569
1641.6385959428862,1565
1643.6665511440683,1618
1645.693988345528,1603
1647.7209078015112,1665
1649.7473097663405,1626
1651.7731944944203,1568
1653.7985622402307,1574
1655.823413258333,1607
1657.847747803366,1548
1659.8715661300494,1532
1661.8948684931793,1568
1663.9176551476316,1566
1665.9399263483624,1640
1667.9616823504057,1591
1669.982923408873,1628
1672.0036497789574,1652
1674.0238617159293,1630
1676.043559475138,1583
1678.0627433120121,1536
1680.081413482059,1598
1682.0995702408654,1553
1684.117213844096,1559
1686.134344547495,1540
1688.1509626068864,1567
1690.1670682781705,1537
1692.182661817329,1623
1694.1977434804217,1562
1696.2123135235875,1575
1698.226372203043,1573
1700.2399197750851,1612
1702.2529564960905,1570
1704.2654826225112,1579
1706.277498410882,1552
1708.2890041178139,1592
1710.2999999999988,1513
1712.3104863142066,1576
1714.3204633172854,1617
1716.329931266163,1532
1718.3388904178469,1559
1720.3473410294214,1536
1722.3552833580516,1573
1724.3627176609807,1534
1726.3696441955308,1531
1728.3760632191033,1555
1730.3819749891782,1531
1732.3873797633146,1545
1734.3922777991502,1550
1736.3966693544012,1589
1738.4005546868639,1542
1740.4039340544127,1545
1742.406807715001,1550
1744.4091759266616,1583
1746.4110389475054,1556
1748.4123970357223,1554
1750.413250449582,1588
1752.4135994474318,1521
1754.4134442876993,1552
1756.4127852288902,1603
1758.4116225295893,1552
1760.4099564484595,1577
1762.407787244244,1520
1764.405115175764,1513
1766.4019405019203,1540
1768.3982634816916,1550
1770.3940843741357,1568
1772.3894034383907,1500
1774.3842209336717,1503
1776.378537119274,1532
1778.372352254571,1459
1780.3656665990156,1539
1782.3584804121397,1451
1784.3507939535534,1609
1786.3426074829463,1575
1788.3339212600863,1521
1790.3247355448211,1504
1792.3150505970766,1518
1794.3048666768573,1468
1796.2941840442477,1513
1798.2830029594106,1472
1800.2713236825884,1521
1802.2591464741004,1484
1804.2464715943465,1507
1806.2332993038058,1510
1808.2196298630352,1565
1810.2054635326708,1578
1812.190800573428,1536
1814.175641246101,1548
1816.1599858115628,1544
1818.1438345307652,1518
1820.127187664738,1562
1822.1100454745924,1576
1824.092408221516,1537
1826.0742761667766,1548
1828.055649571721,1590
1830.0365286977735,1487
1832.0169138064398,1500
1833.9968051593014,1546
1835.9762030180214,1637
1837.9551076443408,1506
1839.9335193000788,1555
1841.9114382471344,1539
1843.888864747485,1515
1845.8657990631878,1530
1847.842241456378,1484
1849.8181921892697,1500
1851.7936515241558,1471
1853.7686197234098,1526
1855.7430970494815,1447
1857.7170837649014,1476
1859.6905801322787,1551
1861.6635864143004,1467
1863.6361028737338,1559
1865.608129773424,1541
1867.5796673762961,1508
1869.5507159453537,1507
1871.521275743678,1478
1873.4913470344313,1537
1875.4609300808534,1482
1877.4300251462632,1498
1879.3986324940588,1522
1881.366752387717,1574
1883.3343850907936,1487
1885.3015308669228,1518
1887.268189979819,1472
1889.2343626932739,1547
1891.2000492711595,1572
1893.1652499774254,1502
1895.1299650761011,1483
1897.0941948312952,1460
1899.0579395071945,1551
1901.0211993680641,1481
1902.98397467825,1556
1904.9462657021745,1595
1906.9080727043415,1559
1908.869395949332,1499
1910.8302357018065,1487
1912.790592226504,1535
1914.7504657882428,1521
1916.7098566519212,1433
1918.6687650825133,1530
1920.6271913450764,1543
1922.5851357047422,1481
1924.5425984267245,1523
1926.499579776314,1507
1928.4560800188833,1512
1930.4120994198802,1520
1932.367638244833,1529
1934.32269675935,1530
1936.2772752291175,1492
1938.231373919899,1593
1940.1849930975404,1563
1942.1381330279637,1502
1944.0907939771696,1520
1946.0429762112412,1462
1947.9946799963363,1511
1949.9459055986945,1545
1951.896653284633,1507
1953.8469233205478,1502
1955.7967159729142,1505
1957.7460315082863,1519
1959.6948701932974,1578
1961.6432322946594,1546
1963.5911180791632,1494
1965.5385278136787,1506
1967.4854617651545,1435
1969.4319202006182,1571
1971.377903387176,1492
1973.3234115920136,1569
1975.268445082395,1498
1977.2130041256642,1558
1979.1570889892423,1602
1981.1006999406304,1580
1983.04383724741,1522
1984.986501177238,1485
1986.928691997853,1555
1988.8704099770712,1541
1990.811655382789,1553
1992.7524284829801,1532
1994.692729545698,1498
1996.6325588390755,1578
1998.5719166313224,1519
2000.5108031907307,1517
2002.4492187856677,1512
2004.387163684583,1547
2006.3246381560011,1505
2008.2616424685298,1527
2010.1981768908527,1463
2012.1342416917332,1471
2014.069837140014,1498
2016.0049635046162,1507
2017.9396210545406,1500
2019.8738100588666,1548
2021.8075307867502,1494
2023.740783507431,1535
2025.6735684902228,1484
2027.6058860045214,1573
2029.5377363198004,1476
2031.4691197056118,1511
2033.4000364315875,1470
2035.3304867674374,1488
2037.260470982952,1559
2039.189989347998,1529
2041.1190421325232,1491
2043.047629606554,1507
2044.9757520401945,1521
2046.9034097036288,1453
2048.8306028671195,1491
2050.7573318010086,1494
2052.683596775716,1518
2054.609398061742,1547
2056.5347359296647,1526
2058.4596106501403,1513
2060.384022493906,1520
2062.3079717317764,1461
2064.231458634646,1547
2066.1544834734873,1512
2068.077046519352,1507
2069.99914804337,1475
2071.9207883167524,1477
2073.8419676107865,1521
2075.7626861968406,1509
2077.6829443463607,1518
2079.6027423308715,1536
2081.522080421977,1504
2083.440958891362,1543
2085.359378010786,1461
2087.2773380520907,1554
2089.194839287196,1442
2091.111881988101,1485
2093.0284664268825,1500
2094.9445928756973,1459
2096.86026160678,1508
2098.775472892446,1517
2100.690227005088,1468
2102.604524217178,1561
2104.5183648012676,1575
2106.431749029985,1555
2108.34467717604,1504
2110.2571495122206,1502
2112.169166311393,1520
2114.080727846503,1523
2115.9918343905747,1492
2117.902486216711,1503
2119.8126835980956,1589
2121.722426807987,1534
2123.6317161197285,1531
2125.5405518067364,1531
2127.448934142509,1530
2129.356863400624,1524
2131.264339854737,1610
2133.1713637785815,1528
2135.077935445972,1482
2136.9840551308002,1550
2138.889723107037,1504
2140.7949396487334,1542
2142.699705030018,1660
2144.6040195250994,1569
2146.507883408264,1626
2148.4112969538774,1576
2150.3142604363848,1622
2152.2167741303097,1570
2154.1188383102535,1544
2156.0204532508997,1549
2157.9216192270064,1627
2159.822336513414,1571
2161.7226053850413,1585
2163.622426116884,1514
2165.5217989840185,1632
2167.4207242616,1563
2169.319202224862,1576
2171.2172331491165,1623
2173.1148173097563,1594
2175.0119549822507,1613
2176.90864644215,1598
2178.8048919650823,1632
2180.7006918267534,1625
2182.596046302952,1604
2184.4909556695407,1625
2186.3854202024645,1569
2188.279440177746,1572
2190.173015871487,1656
2192.066147559868,1638
2193.958835519149,1624
2195.851080025667,1569
2197.7428813558417,1559
2199.6342397861667,1662
2201.5251555932186,1660
2203.415629053651,1628
2205.3056604441986,1650
2207.19525004167,1714
2209.084398122958,1664
2210.9731049650327,1629
2212.861370844941,1671
2214.749196039812,1649
2216.636580826851,1695
2218.523525483344,1636
2220.410030286655,1629
2222.296095514226,1682
2224.1817214435805,1720
2226.066908352319,1645
2227.951656518121,1595
2229.835966218746,1667
2231.71983773203,1717
2233.6032713358913,1652
2235.486267308324,1656
2237.3688259274036,1692
2239.2509474712824,1655
2241.132632218193,1653
2243.013880446447,1716
2244.8946924344323,1702
2246.7750684606203,1694
2248.6550088035574,1672
2250.534513741871,1706
2252.413583554265,1601
2254.292218519526,1702
2256.170418916517,1704
2258.0481850241786,1594
2259.925517121534,1662
2261.8024154876825,1641
2263.678880401803,1566
2265.5549121431536,1711
2267.430510991071,1679
2269.305677224971,1650
2271.180411124348,1688
2273.0547129687766,1584
2274.9285830379076,1609
2276.8020216114737,1643
2278.6750289692845,1574
2280.5476053912294,1680
2282.4197511572766,1680
2284.2914665474727,1731
2286.162751841943,1757
2288.0336073208937,1721
2289.904033264608,1721
2291.774029953448,1670
2293.6435976678554,1638
2295.5127366883517,1599
2297.381447295534,1597
2299.2497297700825,1531
2301.1175843927526,1526
2302.9850114443825,1453
2304.852011205885,1447
2306.7185839582553,1456
2308.5847299825664,1423
2310.4504495599676,1360
2312.3157429716925,1365
2314.1806104990483,1371
2316.0450524234247,1354
2317.9090690262888,1331
2319.772660589186,1393
2321.635827393742,1408
2323.498569721661,1350
2325.3608878547248,1331
2327.2227820747967,1335
2329.0842526638157,1429
2330.945299903803,1356
2332.805924076857,1325
2334.6661254651535,1374
2336.525904350951,1334
2338.3852610165827,1357
2340.244195744464,1407
2342.102708817088,1300
2343.9608005170253,1381
2345.8184711269287,1299
2347.675720929526,1344
2349.532550207628,1323
2351.38895924412,1379
2353.24494832197,1282
2355.100517724223,1352
2356.955667734004,1328
2358.810398634514,1406
2360.664710709037,1401
2362.5186042409337,1330
2364.3720795136437,1330
2366.225136810686,1383
2368.0777764156583,1384
2369.929998612237,1353
2371.7818036841777,1386
2373.633191915315,1411
2375.484163589562,1347
2377.3347189909114,1395
2379.184858403434,1362
2381.03458211128,1387
2382.8838903986775,1407
2384.732783549936,1360
2386.5812618494406,1393
2388.4293255816588,1358
2390.2769750311327,1395
2392.1242104824883,1388
2393.971032220427,1378
2395.8174405297295,1395
2397.6634356952563,1407
2399.509018001947,1309
2401.3541877348193,1353
2403.1989451789705,1352
2405.043290619576,1379
2406.8872243418905,1351
2408.730746631247,1355
2410.5738577730594,1391
2412.4165580528183,1419
2414.258847756095,1379
2416.100727168537,1436
2417.9421965758734,1386
2419.783256263912,1361
2421.623906518538,1371
2423.4641476257157,1392
2425.303979871491,1385
2427.143403541984,1366
2428.9824189233977,1380
2430.821026302012,1375
2432.6592259641866,1395
2434.497018196361,1392
2436.33440328505,1437
2438.171381516851,1385
2440.00795317844,1384
2441.844118556569,1360
2443.6798779380724,1347
2445.5152316098606,1429
2447.3501798589255,1377
2449.1847229723357,1352
2451.0188612372403,1356
2452.8525949408663,1353
2454.6859243705203,1394
2456.518849813587,1357
2458.3513715575314,1389
2460.183489889895,1364
2462.015205098301,1396
2463.8465174704493,1377
2465.67742729412,1364
2467.5079348571717,1395
2469.338040447542,1387
2471.1677443532476,1407
2472.9970468623833,1382
2474.825948263123,1382
2476.6544488437207,1392
2478.482548892508,1378
2480.310248697896,1379
2482.137548548374,1370
2483.9644487325118,1376
2485.790949538956,1390
2487.617051256433,1423
2489.44275417375,1356
2491.26805857979,1391
2493.0929647635157,1378
2494.917473013971,1345
2496.741583620276,1418
2498.5652968716304,1440
2500.3886130573137,1352
2502.2115324666834,1387
2504.0340553891765,1405
2505.856182114308,1429
2507.6779129316733,1403
2509.499248130945,1382
2511.3201880018764,1383
2513.140732834298,1440
2514.9608829181198,1376
2516.780638543331,1400
2518.6,1412
2520.418967578273,1383
2522.237541568376,1456
2524.0557222606144,1390
2525.8735099453706,1433
2527.6909049131086,1393
2529.507907454368,1415
2531.32451785977,1418
2533.140736420014,1432
2534.9565634258774,1474
2536.771999168218,1453
2538.5870439379714,1421
2540.4016980261526,1448
2542.2159617238544,1438
2544.02983532225,1440
2545.8433191125914,1422
2547.656413386209,1438
2549.4691184345115,1509
2551.2814345489874,1428
2553.093362021204,1423
2554.904901142808,1496
2556.716052205523,1445
2558.526815501153,1435
2560.3371913215824,1456
2562.147179958771,1485
2563.956781704761,1435
2565.7659968516705,1538
2567.5748256916986,1477
2569.3832685171224,1502
2571.1913256202984,1503
2572.9989972936614,1492
2574.806283829725,1479
2576.613185521084,1449
2578.4197026604074,1459
2580.2258355404483,1541
2582.031584454035,1501
2583.836949694077,1481
2585.6419315535613,1480
2587.4465303255533,1554
2589.2507463032002,1579
2591.0545797797245,1488
2592.8580310484303,1544
2594.6611004026995,1537
2596.463788135992,1509
2598.266094541849,1552
2600.0680199138874,1598
2601.869564545807,1497
2603.670728731383,1529
2605.4715127644704,1501
2607.2719169390048,1497
2609.071941548998,1585
2610.8715868885433,1569
2612.670853251811,1489
2614.469740933052,1518
2616.268250226594,1545
2618.0663814268455,1557
2619.864134828292,1476
2621.6615107255006,1534
2623.458509413115,1593
2625.2551311858597,1537
2627.0513763385347,1503
2628.8472451660223,1450
2630.6427379632833,1473
2632.4378550253564,1519
2634.232596647359,1477
2636.026963124488,1568
2637.8209547520187,1492
2639.6145718253065,1507
2641.407814639785,1451
2643.200683490966,1471
2644.9931786744414,1500
2646.7853004858807,1512
2648.577049221034,1558
2650.3684251757277,1521
2652.1594286458712,1476
2653.9500599274484,1447
2655.740319316525,1447
2657.5302071092437,1424
2659.3197236018286,1448
2661.10886909058,1451
2662.8976438718782,1442
2664.686048242183,1401
2666.4740824980327,1430
2668.2617469360443,1389
2670.0490418529134,1387
2671.8359675454153,1441
2673.622524310403,1440
2675.408712444811,1384
2677.1945322456495,1349
2678.979984010009,1399
2680.76506803506,1387
2682.5497846180497,1387
2684.334134056306,1385
2686.1181166472343,1397
2687.9017326883213,1385
2689.6849824771293,1357
2691.4678663113013,1393
2693.2503844885596,1449
2695.032537306705,1378
2696.8143250636167,1358
2698.5957480572542,1380
2700.3768065856534,1372
2702.1575009469316,1361
2703.937831439283,1396
2705.717798360982,1435
2707.4974020103837,1326
2709.276642685917,1364
2711.055520686095,1365
2712.834036309506,1431
2714.612189854819,1357
2716.389981620782,1335
2718.1674119062204,1401
2719.944481010041,1326
2721.721189231226,1381
2723.4975368688415,1371
2725.273524222027,1374
2727.0491515900053,1358
2728.824419272075,1358
2730.5993275676146,1338
2732.3738767760838,1360
2734.148067197016,1358
2735.921899130031,1326
2737.6953728748194,1301
2739.468488731156,1344
2741.2412469988926,1286
2743.0136479779617,1340
2744.785691968372,1367
2746.5573792702116,1341
2748.3287101836504,1334
2750.099685008934,1346
2751.870304046388,1378
2753.640567596418,1327
2755.4104759595057,1408
2757.1800294362156,1343
2758.949228327187,1319
2760.7180729331412,1376
2762.486563554877,1400
2764.254700493272,1380
2766.022484049284,1379
2767.789914523947,1317
2769.5569922183786,1382
2771.3237174337705,1323
2773.090090471394,1318
2774.8561116326036,1343
2776.6217812188274,1351
2778.3870995315756,1351
2780.1520668724356,1348
2781.9166835430747,1355
2783.6809498452394,1364
2785.444866080754,1366
2787.2084325515225,1311
2788.971649559527,1381
2790.73451740683,1327
2792.4970363955713,1366
2794.2592068279705,1305
2796.0210290063264,1399
2797.7825032330147,1339
2799.543629810493,1368
2801.304409041296,1358
2803.0648412280366,1373
2804.8249266734088,1385
2806.5846656801846,1363
2808.344058551212,1393
2810.1031055894246,1314
2811.8618070978273,1416
2813.6201633795085,1348
2815.378174737636,1375
2817.1358414754536,1385
2818.893163896285,1357
2820.6501423035334,1407
2822.4067770006814,1370
2824.1630682912883,1361
2825.9190164789957,1329
2827.6746218675207,1378
2829.429884760661,1363
2831.184805462294,1300
2832.9393842763743,1349
2834.693621506936,1380
2836.4475174580916,1316
2838.201072434034,1362
2839.954286739034,1350
2841.707160677441,1341
2843.459694553685,1425
2845.2118886722724,1370
2846.96374333779,1401
2848.7152588549034,1378
2850.4664355283567,1420
2852.217273662973,1404
2853.9677735636546,1343
2855.7179355353833,1404
2857.4677598832186,1384
2859.217246912299,1383
2860.9663969278427,1343
2862.715210235146,1320
2864.4636871395846,1315
2866.211827946614,1316
2867.9596329617652,1333
2869.7071024906536,1348
2871.4542368389684,1322
2873.20103631248,1337
2874.947501217038,1332
2876.6936318585695,1348
2878.4394285430812,1371
2880.1848915766604,1348
2881.9300212654707,1345
2883.6748179157553,1384
2885.4192818338374,1384
2887.1634133261173,1374
2888.907212699077,1365
2890.6506802592744,1343
2892.393816313348,1394
2894.1366211680142,1404
2895.8790951300693,1396
2897.621238506388,1367
2899.363051603925,1325
2901.1045347297118,1396
2902.8456881908596,1352
2904.58651229456,1398
2906.327007348081,1347
2908.067173658772,1337
2909.8070115340597,1342
2911.5465212814497,1390
2913.285703208527,1378
2915.0245576229563,1396
2916.7630848324807,1368
2918.5012851449196,1358
2920.2391588681758,1385
2921.976706310227,1390
2923.7139277791334,1336
2925.4508235830313,1327
2927.187394030137,1331
2928.923639428745,1286
2930.6595600872306,1358
2932.395156314046,1394
2934.1304284177218,1364
2935.8653767068713,1347
2937.6000014901815,1368
2939.3343030764227,1342
2941.068281774442,1311
2942.8019378931644,1355
2944.5352717415976,1377
2946.2682836288236,1358
2948.0009738640065,1368
2949.7333427563885,1380
2951.465390615289,1426
2953.1971177501086,1403
2954.9285244703265,1340
2956.6596110855,1350
2958.3903779052657,1382
2960.1208252393385,1349
2961.8509533975125,1410
2963.5807626896617,1369
2965.3102534257378,1390
2967.0394259157715,1369
2968.768280469873,1298
2970.496817398232,1380
2972.2250370111146,1348
2973.952939618869,1301
2975.6805255319196,1374
2977.4077950607707,1389
2979.134748516006,1398
2980.861386208289,1293
2982.587708448359,1359
2984.313715547037,1299
2986.039407815222,1354
2987.764785563891,1403
2989.489849104102,1295
2991.2145987469908,1344
2992.9390348037705,1287
2994.6631575857346,1372
2996.3869674042576,1386
2998.1104645707887,1347
2999.83364939686,1398
3001.5565221940783,1331
3003.2790832741334,1298
3005.0013329487924,1393
3006.7232715298996,1326
3008.4448993293804,1364
3010.166216659239,1320
3011.887223831558,1339
3013.607921158498,1396
3015.3283089522993,1332
3017.0483875252826,1348
3018.7681571898443,1339
3020.4876182584626,1294
3022.2067710436927,1340
3023.9256158581707,1334
3025.644153014609,1282
3027.362382825801,1337
3029.0803056046193,1394
3030.797921664012,1356
3032.5152313170106,1275
3034.2322348767225,1327
3035.9489326563353,1337
3037.665324969115,1367
3039.3814121284063,1366
3041.097194447633,1340
3042.812672240299,1285
3044.5278458199855,1340
3046.2427155003525,1392
3047.9572815951406,1366
3049.671544418167,1333
3051.38550428333,1380
3053.0991615046073,1334
3054.812516396051,1276
3056.5255692717974,1328
3058.2383204460575,1303
3059.9507702331257,1329
3061.662918947372,1322
3063.3747669032446,1255
3065.0863144152736,1309
3066.7975617980674,1313
3068.508509366309,1336
3070.219157434767,1298
3071.9295063182844,1328
3073.639556331785,1327
3075.3493077902704,1352
3077.058761008821,1347
3078.7679163025964,1272
3080.476773986837,1396
3082.1853343768594,1333
3083.89359778806,1337
3085.6015645359153,1340
3087.3092349359786,1271
3089.016609303884,1358
3090.7236879553434,1361
3092.4304712061476,1348
3094.136959372166,1313
3095.843152769349,1339
3097.5490517137237,1312
3099.2546565213966,1357
3100.959967508554,1360
3102.66498499146,1326
3104.3697092864577,1348
3106.0741407099695,1302
3107.778279578498,1332
3109.482126208622,1401
3111.1856809170004,1324
3112.8889440203716,1308
3114.5919158355528,1313
3116.294596679439,1317
3117.996986869006,1319
3119.6990867213062,1385
3121.4008965534726,1345
3123.102416682717,1426
3124.803647426329,1388
3126.5045891016784,1361
3128.205242026213,1400
3129.90560651746,1388
3131.605682893025,1386
3133.3054714705922,1368
3135.0049725679282,1336
3136.7041865028714,1296
3138.4031135933465,1336
3140.101754157353,1370
3141.800108512971,1378
3143.498176978357,1399
3145.1959598717494,1388
3146.8934575114636,1357
3148.5906702158954,1375
3150.2875983035183,1333
3151.9842420928853,1317
3153.680601902627,1347
3155.376678051456,1268
3157.07247085816,1319
3158.767980641609,1336
3160.463207720748,1332
3162.158152414606,1314
3163.8528150422862,1357
3165.5471959229726,1340
3167.2412953759303,1418
3168.9351137204976,1349
3170.628651276098,1328
3172.3219083622307,1331
3174.014885298474,1307
3175.707582404485,1299
3177.4000000000005,1370
3179.092138404835,1402
3180.7839979388846,1305
3182.47557892212,1349
3184.166881674594,1353
3185.8579065164386,1378
3187.5486537678626,1361
3189.2391237491547,1366
3190.9293167806827,1347
3192.6192331828934,1328
3194.3088732763117,1302
3195.998237381542,1325
3197.687325819268,1336
3199.376138910251,1282
3201.064676975334,1342
3202.7529403354347,1304
3204.4409293115523,1318
3206.1286442247647,1316
3207.816085396229,1295
3209.5032531471825,1293
3211.190147798936,1273
3212.8767696728846,1366
3214.5631190905015,1325
3216.2491963733373,1321
3217.9350018430214,1263
3219.6205358212637,1315
3221.305798629851,1377
3222.990790590651,1334
3224.6755120256103,1317
3226.359963256751,1322
3228.0441446061795,1299
3229.7280563960758,1330
3231.411698948703,1264
3233.0950725863995,1321
3234.778177631587,1351
3236.461014406761,1350
3238.1435832345005,1320
3239.8258844374595,1376
3241.507918338374,1355
3243.1896852600576,1303
3244.8711855254023,1341
3246.552419457381,1378
3248.233387379042,1297
3249.914089613516,1296
3251.59452648401,1304
3253.274698313813,1328
3254.95460542629,1319
3256.6342481448855,1322
3258.313626793125,1312
3259.9927416946084,1371
3261.6715931730196,1347
3263.3501815521176,1322
3265.0285071557437,1271
3266.706570307815,1245
3268.3843713323286,1290
3270.0619105533615,1269
3271.739188295068,1340
3273.4162048816834,1308
3275.0929606375184,1324
3276.769455886966,1296
3278.445690954498,1356
3280.1216661646613,1366
3281.797381842087,1325
3283.4728383114807,1388
3285.1480358976296,1332
3286.8229749253996,1326
3288.4976557197333,1336
3290.172078605655,1323
3291.846243908266,1319
3293.5201519527463,1282
3295.193803064357,1309
3296.8671975684374,1292
3298.5403357904024,1248
3300.21321805575,1344
3301.8858446900567,1342
3303.558216018975,1258
3305.23033236824,1343
3306.9021940636603,1322
3308.57380143113,1283
3310.2451547966184,1362
3311.916254486174,1275
3313.5871008259246,1350
3315.2576941420766,1339
3316.9280347609147,1315
3318.5981230088046,1326
3320.2679592121895,1320
3321.9375436975924,1263
3323.606876791612,1317
3325.27595882093,1294
3326.944790112305,1335
3328.6133709925753,1283
3330.2817017886573,1304
3331.949782827547,1281
3333.617614436319,1301
3335.2851969421245,1277
3336.952530672199,1320
3338.619615953853,1314
3340.286453114475,1325
3341.9530424815357,1348
3343.619384382583,1349
3345.2854791452437,1337
3346.951327097224,1348
3348.6169285663073,1377
3350.2822838803577,1347
3351.947393367319,1316
3353.61225735521,1343
3355.2768761721345,1272
3356.9412501462693,1301
3358.605379605873,1339
3360.2692648792827,1318
3361.9329062949146,1363
3363.596304181263,1355
