CollectionTime,7/9/2024 4:58:55 PM
ExposureUsed,3
CalibratedSpectrum
-962.7078968117929,2227
-959.9714848408522,2449
-957.2358232597828,2437
-954.5009119013725,2445
-951.7667505983302,2459
-949.0333391832855,2522
-946.3006774887896,2498
-943.5687653473143,2593
-940.837602591253,2410
-938.1071890529199,2563
-935.3775245645503,2486
-932.6486089583007,2514
-929.9204420662485,2531
-927.1930237203925,2469
-924.4663537526524,2527
-921.7404319948689,2518
-919.0152582788041,2583
-916.2908324361409,2674
-913.5671542984834,2522
-910.8442236973568,2530
-908.1220404642074,2564
-905.4006044304027,2568
-902.679915427231,2552
-899.959973285902,2554
-897.2407778375464,2524
-894.5223289132158,2531
-891.8046263438832,2563
-889.0876699604426,2599
-886.3714595937089,2590
-883.6559950744183,2554
-880.9412762332282,2577
-878.2273029007168,2613
-875.5140749073835,2571
-872.8015920836489,2637
-870.0898542598545,2654
-867.3788612662631,2569
-864.6686129330585,2584
-861.9591090903457,2618
-859.2503495681506,2687
-856.5423341964203,2669
-853.8350628050229,2634
-851.1285352237478,2618
-848.4227512823054,2629
-845.7177108103272,2695
-843.0134136373656,2633
-840.3098595928943,2666
-837.6070485063082,2669
-834.9049802069229,2661
-832.2036545239757,2718
-829.5030712866244,2767
-826.8032303239481,2716
-824.1041314649472,2655
-821.4057745385428,2650
-818.7081593735775,2705
-816.0112857988148,2681
-813.3151536429393,2716
-810.6197627345566,2736
-807.9251129021936,2668
-805.2312039742981,2770
-802.5380357792392,2762
-799.8456081453069,2796
-797.1539209007124,2802
-794.462973873588,2827
-791.772766891987,2806
-789.083299783884,2852
-786.3945723771743,2771
-783.7065844996748,2826
-781.0193359791231,2791
-778.3328266431781,2870
-775.6470563194197,2921
-772.9620248353489,2810
-770.2777320183878,2694
-767.5941776958798,2834
-764.9113616950891,2884
-762.2292838432011,2849
-759.5479439673222,2795
-756.8673418944801,2854
-754.1874774516235,2948
-751.5083504656222,2866
-748.8299607632671,2844
-746.15230817127,2922
-743.475392516264,2897
-740.7992136248035,2774
-738.1237713233636,2848
-735.4490654383407,2915
-732.7750957960521,2952
-730.1018622227365,2914
-727.4293645445534,2873
-724.7576025875837,2889
-722.0865761778291,2953
-719.4162851412126,2972
-716.7467293035781,2910
-714.0779084906909,2990
-711.409822528237,2937
-708.7424712418238,2956
-706.0758544569796,3011
-703.4099719991541,2995
-700.7448236937178,3007
-698.0804093659622,3033
-695.4167288411002,3041
-692.7537819442656,2991
-690.0915685005134,3011
-687.4300883348199,2999
-684.7693412720819,3118
-682.1093271371178,3104
-679.4500457546669,3018
-676.7914969493897,3027
-674.1336805458676,2990
-671.4765963686034,3042
-668.8202442420206,3019
-666.1646239904642,2986
-663.5097354382001,3094
-660.8555784094151,3061
-658.2021527282176,3112
-655.5494582186366,3112
-652.8974947046223,3109
-650.2462620100463,3110
-647.5957599587009,3121
-644.9459883742998,3025
-642.2969470804776,3084
-639.6486359007902,3220
-637.0010546587141,3188
-634.3542031776476,3111
-631.7080812809096,3272
-629.0626887917401,3111
-626.4180255333008,3107
-623.7740913286734,3201
-621.1308860008619,3167
-618.4884093727904,3174
-615.8466612673046,3175
-613.2056415071715,3203
-610.5653499150785,3221
-607.9257863136347,3198
-605.28695052537,3273
-602.6488423727357,3200
-600.0114616781036,3212
-597.3748082637674,3258
-594.7388819519412,3320
-592.1036825647604,3383
-589.4692099242818,3308
-586.8354638524829,3321
-584.2024441712624,3257
-581.5701507024403,3331
-578.9385832677575,3390
-576.3077416888759,3322
-573.6776257873787,3372
-571.0482353847704,3370
-568.4195703024757,3292
-565.7916303618415,3424
-563.164415384135,3379
-560.5379251905453,3296
-557.9121596021815,3320
-555.2871184400748,3355
-552.6628015251767,3404
-550.0392086783606,3415
-547.4163397204204,3418
-544.794194472071,3529
-542.1727727539491,3411
-539.5520743866118,3489
-536.9320991905377,3413
-534.3128469861261,3555
-531.6943175936979,3547
-529.0765108334947,3590
-526.4594265256793,3635
-523.8430644903358,3708
-521.2274245474689,3832
-518.612506517005,3824
-515.9983102187913,3851
-513.3848354725959,3821
-510.77208209810846,3731
-508.16004991493924,3927
-505.5487387426199,4039
-502.9381484006032,3982
-500.3282787082628,3987
-497.71912948489364,4105
-495.1107005497117,3960
-492.5029917218539,3809
-489.8960028203786,3737
-487.28973366426493,3688
-484.68418407241325,3554
-482.07935386364494,3763
-479.47524285670266,3648
-476.87185087025,3639
-474.2691777228715,3677
-471.66722323307334,3800
-469.0659872192821,3687
-466.4654694998459,3737
-463.86566989303384,3748
-461.26658821703614,3756
-458.66822428996414,3801
-456.07057792985,3848
-453.4736489546475,3694
-450.877437182231,3740
-448.28194243039627,3760
-445.68716451686,3688
-443.09310325926003,3745
-440.49975847515555,3715
-437.9071299820263,3713
-435.31521759727354,3667
-432.72402113821954,3656
-430.13354042210767,3752
-427.5437752661022,3641
-424.95472548728867,3668
-422.36639090267386,3733
-419.7787713291855,3699
-417.1918665836721,3834
-414.60567648290385,3792
-412.0202008435715,3800
-409.4354394822874,3873
-406.8513922155845,3804
-404.26805885991723,3821
-401.685439231661,3781
-399.103533147112,3832
-396.522340422488,3789
-393.9418608739278,3766
-391.3620943174908,3627
-388.7830405691583,3601
-386.2046994448317,3383
-383.6270707603344,3264
-381.05015433141045,2940
-378.473949973725,2599
-375.8984575028645,2419
-373.32367673433623,2067
-370.74960748356875,1828
-368.1762495659117,1582
-365.60360279663576,1202
-363.03166699093265,981
-360.4604419639154,839
-357.8899275306178,699
-355.32012350599507,625
-352.7510297049233,556
-350.1826459421999,576
-347.61497203254316,551
-345.04800779059235,494
-342.4817530309082,496
-339.91620756797226,525
-337.35137121618743,538
-334.7872437898774,537
-332.22382510328725,548
-329.66111497058273,487
-327.09911320585127,473
-324.53781962310075,507
-321.9772340362607,494
-319.4173562591816,453
-316.8581861056348,460
-314.2997233893127,444
-311.7419679238294,436
-309.1849195227194,456
-306.62857799943856,481
-304.0729431673641,474
-301.51801483979375,453
-298.963792829947,497
-296.41027695096386,467
-293.85746701590574,523
-291.3053628377552,532
-288.7539642294155,549
-286.2032710037115,549
-283.65328297338897,565
-281.1039999511146,569
-278.5554217494762,602
-276.007548180983,505
-273.4603790580651,492
-270.9139141930734,506
-268.3681533982807,515
-265.8230964858798,500
-263.27874326798565,512
-260.7350935566336,527
-258.1921471637804,523
-255.6499039013039,576
-253.10836358100266,585
-250.56752601459698,573
-248.02739101372765,611
-245.48795838995704,618
-242.94922795476816,604
-240.41119951956557,585
-237.8738728956746,588
-235.33724789434166,595
-232.80132432673452,571
-230.2661020039418,581
-227.73158073697357,582
-225.19776033676033,652
-222.66464061415422,675
-220.1322213799284,616
-217.60050244477725,573
-215.06948361931552,565
-212.53916471408013,666
-210.00954553952818,742
-207.48062590603843,636
-204.9524056239104,627
-202.4248845033651,702
-199.8980623545441,691
-197.37193898751036,730
-194.84651421224817,720
-192.32178783866232,713
-189.79775967657952,678
-187.27442953574644,763
-184.7517972258321,813
-182.2298625564256,763
-179.7086253370378,755
-177.18808537710026,677
-174.66824248596583,724
-172.14909647290835,814
-169.6306471471229,871
-167.11289431772548,759
-164.59583779375328,774
-162.07947738416453,778
-159.5638128978386,885
-157.04884414357605,1147
-154.53457093009854,1248
-152.02099306604828,1031
-149.50811035998936,883
-146.99592262040665,784
-144.48442965570587,813
-141.97363127421409,939
-139.46352728417958,1181
-136.95411749377126,1449
-134.44540171107985,1350
-131.93737974411636,1039
-129.43005140081357,1033
-126.92341648902493,1185
-124.41747481652521,1112
-121.91222619101006,1100
-119.40767042009657,1277
-116.90380731132257,1569
-114.40063667214702,1501
-111.8981583099503,1945
-109.3963720320337,2927
-106.89527764561933,3742
-104.39487495785067,3681
-101.89516377579241,3414
-99.39614390642998,4400
-96.89781515667039,6985
-94.40017733334128,9578
-91.90323024319173,9677
-89.40697369289148,6805
-86.91140748903172,3844
-84.41653143812482,2506
-81.92234534660395,2933
-79.42884902082358,5531
-76.93604226705907,9461
-74.4439248915071,14653
-71.95249670028534,18136
-69.46175749943245,18403
-66.97170709490854,17610
-64.48234529259423,13767
-61.99367189829195,10099
-59.50568671772464,8384
-57.01838955653636,8882
-54.53178022029283,8689
-52.045858514480074,8329
-49.560624244506016,9087
-47.07607721569923,10367
-44.59221723330904,10452
-42.10904410250669,9654
-39.62655762838392,7960
-37.14475761595372,6787
-34.66364387015028,5609
-32.18321619582866,5633
-29.70347439776515,6484
-27.224418280657005,7537
-24.74604764912317,9009
-22.26836230770266,14869
-19.7913620608565,31682
-17.315046712966478,63793
-14.83941606833514,65039
-12.36446993118659,65039
-9.89020810566592,65039
-7.416630395839093,65039
-4.94373660569363,65039
-2.471526539137585,65039
-6.821210263296962E-13,65039
2.47084320796705,65039
4.941003281093458,65039
7.410480415786196,65039
9.879274808531363,65039
12.347386655893956,65039
14.814816154518212,65039
17.28156350112681,65039
19.74762889252179,65039
22.21301252558385,65039
24.67771459727237,19109
27.141735304626195,3141
29.605074844762612,1882
32.06773341487792,1734
34.52971121224755,1782
36.99100843422559,1690
39.45162527824516,1612
41.91156194181792,1457
44.370818622535126,1287
46.82939551806646,1294
49.287292826160524,1395
51.74451074464503,1541
54.201049471426245,1367
56.65690920448981,1074
59.112090141899785,1052
61.56659248179983,1269
64.02041642241159,1113
66.4735621620365,1141
68.92602989905402,1132
71.37781983192338,1249
73.82893215918205,1236
76.27936707944684,1120
78.72912479141326,986
81.17820549385567,997
83.62660938562783,1107
86.07433666566146,1023
88.5213875329681,915
90.96776218663751,968
93.41346082583925,1020
95.85848364982041,1043
98.30283085790859,1052
100.7465026495089,983
103.18949922410604,803
105.63182078126385,857
108.07346752062438,927
110.51443964190923,930
112.95473734491827,873
115.39436082953114,854
117.83331029570547,804
120.27158594347827,745
122.7091879729652,906
125.1461165843615,866
127.58237197794062,763
130.01795435405518,835
132.4528639131364,917
134.88710085569494,911
137.32066538231982,827
139.75355769367923,838
142.1857779905207,866
144.61732647366978,835
147.04820334403132,893
149.47840880258934,998
151.90794305040674,1051
154.33680628862487,1299
156.76499871846443,1540
159.19252054122433,1877
161.61937195828352,2180
164.04555317109896,2552
166.47106438120693,3131
168.89590579022217,3535
171.320077599839,3832
173.7435800118302,4124
176.16641322804742,4380
178.58857745042144,4496
181.01007288096173,4670
183.43089972175687,5103
185.85105817497413,5296
188.27054844285988,5529
190.6893707277394,5720
193.10752523201643,5983
195.5250121581745,6301
197.9418317087751,6347
200.3579840864594,6391
202.7734694939469,6479
205.18828813403627,6442
207.6024402096051,6561
210.01592592360964,6685
212.42874547908548,6906
214.84089907914665,6814
217.2523869269868,6842
219.66320922587727,6816
222.0733661791695,6840
224.48285799029293,6829
226.8916848627572,6969
229.29984700014882,7068
231.7073446061355,7064
234.11417788446204,7101
236.520347038953,6985
238.92585227351185,7108
241.33069379212054,7018
243.73487179884035,7018
246.1383864978112,7134
248.541238093252,7167
250.9434267894609,7067
253.34495279081432,7117
255.74581630176783,7066
258.1460175268563,7080
260.54555667069314,7127
262.9444339379703,7166
265.3426495334594,7056
267.7402036620107,7001
270.1370965285529,7112
272.53332833809407,7087
274.9288992957214,6964
277.32380960660055,7038
279.718059475976,7114
282.1116491091717,6982
284.5045787115897,7100
286.89684848871195,7260
289.2884586460981,7060
291.67940938938807,7231
294.0697009242996,7073
296.4593334566299,7212
298.84830719225477,7260
301.23662233712923,7320
303.6242790972866,7318
306.01127767884,7108
308.39761828798066,7135
310.78330113097934,7211
313.16832641418534,7156
315.5526943440269,7277
317.9364051270112,7224
320.3194589697242,7205
322.70185607883093,7234
325.0835966610754,7085
327.4646809232805,6972
329.8451090723478,6940
332.2248813152577,7131
334.6039978590701,7100
336.9824589109231,7161
339.36026467803447,7038
341.7374153677,7208
344.113911187295,7265
346.48975234427337,7050
348.8649390461686,7230
351.2394715005918,7119
353.61334991523415,7369
355.9865744978655,7279
358.35914545633375,7129
360.73106299856715,7214
363.10232733257146,7251
365.47293866643247,7220
367.84289720831396,7139
370.2122031664593,7266
372.5808567491905,7186
374.9488581649083,7319
377.31620762209275,7309
379.6829053293021,7235
382.0489514951745,7166
384.4143463284262,7258
386.7790900378528,7335
389.14318283232853,7178
391.50662492080653,7237
393.86941651231916,7245
396.23155781597745,7212
398.5930490409713,7122
400.9538903965696,7191
403.3140820921202,7167
405.6736243370498,7324
408.03251734086336,7202
410.3907613131465,7111
412.74835646356166,7228
415.10530300185144,7241
417.4616011378372,7213
419.81725108141893,7365
422.1722530425758,7196
424.5266072313656,7412
426.880313857925,7338
429.2333731324701,7384
431.58578526529516,7442
433.9375504667738,7387
436.2886689473588,7341
438.63914091758113,7354
440.9889665880513,7240
443.33814616945835,7134
445.68667987257015,7287
448.03456790823395,7200
450.3818104873759,7199
452.72840782100013,7243
455.07436012019105,7348
457.41966759611057,7221
459.7643304600007,7389
462.10834892318155,7461
464.4517231970525,7542
466.79445349309174,7399
469.1365400228566,7344
471.4779829979826,7322
473.81878263018564,7384
476.15893913125876,7415
478.4984527130747,7327
480.8373235875855,7528
483.17555196682144,7350
485.5131380628919,7417
487.8500820879857,7520
490.1863842543697,7674
492.52204477439034,7702
494.8570638604725,7857
497.1914417251204,8108
499.52517858091653,8184
501.85827464052306,8330
504.19073011668036,8579
506.5225452222086,8479
508.85372017000566,8442
511.18425517304956,8635
513.514150444396,8695
515.8434061971808,9380
518.1720226446176,10199
520.4999999999999,10704
522.8273384766991,10406
525.1540382881666,9789
527.480099647932,9152
529.8055227696037,8738
532.1303078668694,8306
534.454455153496,7896
536.777964843328,7816
539.1008371502907,7665
541.4230722883866,7644
543.744670471698,7835
546.0656319143858,7900
548.3859568306899,7699
550.7056454349294,7728
553.0246979415016,7728
555.3431145648834,7586
557.6608955196306,7794
559.978041020377,7728
562.2945512818363,7737
564.6104265188006,7663
566.9256669461412,7798
569.2402727788082,7722
571.5542442318302,7816
573.8675815203156,7815
576.1802848594508,7877
578.4923544645015,7857
580.8037905508126,7943
583.114593333807,7777
585.4247630289875,7949
587.7342998519354,7816
590.0432040183106,7904
592.3514757438526,7888
594.6591152443794,7830
596.9661227357875,7895
599.2724984340531,7785
601.578242555231,7686
603.8833553154542,8025
606.1878369309362,7699
608.4916876179676,7861
610.7949075929192,7847
613.0974970722403,7868
615.3994562724587,7935
617.7007854101818,7899
620.0014847020951,7998
622.3015543649641,7664
624.6009946156324,7924
626.8998056710224,7865
629.1979877481361,7901
631.4955410640538,7843
633.7924658359349,8044
636.0887622810175,7999
638.3844306166192,8030
640.6794710601358,7891
642.9738838290426,8137
645.2676691408932,7974
647.5608272133207,8178
649.853358264037,8061
652.1452625108324,8189
654.4365401715764,8076
656.7271914642178,8001
659.0172166067838,8188
661.3066158173809,8112
663.5953893141935,8130
665.8835373154867,8087
668.1710600396028,8304
670.4579577049639,8208
672.7442305300709,8230
675.0298787335033,8237
677.3149025339197,8018
679.599302150058,8198
681.8830778007342,8416
684.1662297048437,8269
686.4487580813608,8252
688.7306631493387,8306
691.0119451279091,8245
693.2926042362834,8242
695.5726406937516,8188
697.8520547196814,8238
700.1308465335215,8298
702.4090163547982,8285
704.6865644031171,8178
706.9634908981619,8250
709.2397960596965,8208
711.5154801075631,8330
713.7905432616823,8271
716.0649857420548,8247
718.3388077687592,8222
720.612009561953,8270
722.8845913418733,8395
725.1565533288352,8336
727.427895743234,8242
729.6986188055427,8249
731.9687227363137,8315
734.238207756178,8227
736.5070740858458,8445
738.7753219461066,8398
741.0429515578281,8329
743.3099631419569,8475
745.5763569195191,8448
747.8421331116193,8463
750.1072919394409,8371
752.3718336242467,8364
754.6357583873777,8457
756.8990664502545,8426
759.1617580343765,8358
761.423833361321,8425
763.6852926527457,8248
765.9461361303862,8477
768.206364016058,8363
770.4659765316536,8474
772.7249738991469,8399
774.9833563405886,8505
777.2411240781092,8457
779.4982773339183,8398
781.7548163303044,8593
784.010741289634,8496
786.2660524343538,8504
788.5207499869881,8465
790.7748341701416,8576
793.0283052064964,8696
795.2811633188143,8496
797.5334087299362,8746
799.7850416627813,8502
802.0360623403484,8543
804.2864709857143,8816
806.5362678220353,8680
808.7854530725468,8663
811.0340269605625,8589
813.2819897094754,8745
815.5293415427581,8762
817.77608268396,8752
820.0222133567116,8763
822.2677337847211,8665
824.5126441917765,8678
826.7569448017433,8500
829.0006358385675,8645
831.2437175262731,8547
833.4861900889629,8658
835.7280537508192,8533
837.9693087361026,8532
840.2099552691533,8717
842.4499935743896,8600
844.689423876309,8532
846.9282463994886,8501
849.1664613685833,8576
851.4040690083276,8719
853.6410695435349,8689
855.877463199097,8755
858.1132501999847,8693
860.3484307712487,8671
862.5830051380175,8978
864.8169735254988,8784
867.0503361589791,8876
869.2830932638243,8744
871.5152450654786,8780
873.7467917894654,8753
875.9777336613873,8819
878.2080709069252,8789
880.4378037518389,8689
882.666932421968,8711
884.8954571432301,8651
887.1233781416219,8786
889.3506956432192,8809
891.5774098741766,8824
893.803521060728,8789
896.0290294291852,8754
898.2539352059397,8692
900.4782386174619,8821
902.7019398903011,8794
904.925039251085,8772
907.147536926521,8878
909.3694331433943,8806
911.59072812857,8605
913.8114221089921,8787
916.0315153116827,8751
918.2510079637437,8785
920.4699002923547,8831
922.6881925247761,8664
924.905884888345,8685
927.1229776104793,8585
929.3394709186747,8773
931.555365040506,8826
933.7706602036275,8667
935.9853566357709,8682
938.1994545647489,8621
940.4129542184515,8788
942.6258558248488,8768
944.8381596119883,8917
947.0498658079974,8910
949.2609746410825,8643
951.4714863395287,8788
953.6814011316998,8752
955.8907192460387,8784
958.0994409110671,8853
960.3075663553858,8980
962.5150958076741,8823
964.7220294966913,8781
966.928367651274,8837
969.1341105003388,8866
971.3392582728806,8823
973.5438111979742,8999
975.747769504772,8852
977.9511334225061,8967
980.153903180487,8757
982.3560790081052,8871
984.5576611348289,9022
986.7586497902058,9046
988.9590452038618,8961
991.158847605503,8982
993.3580572249133,8890
995.5566742919558,8788
997.7546990365728,8896
999.952131688785,8719
1002.1489724786926,8644
1004.3452216364743,8881
1006.5408793923874,8786
1008.7359459767691,8617
1010.9304216200343,8739
1013.1243065526781,8700
1015.3176010052733,8784
1017.510305208472,8643
1019.7024193930064,8490
1021.8939437896848,8758
1024.0848786293977,8809
1026.2752241431122,8545
1028.4649805618747,8647
1030.6541481168115,8678
1032.842727039127,8594
1035.0307175601051,8779
1037.2181199111074,8589
1039.4049343235752,8808
1041.591161029029,8740
1043.7768002590683,8711
1045.9618522453698,8771
1048.1463172196918,8819
1050.3301954138697,8748
1052.513487059818,8890
1054.69619238953,8752
1056.8783116350783,8837
1059.0598450286152,8972
1061.2407928023704,8759
1063.4211551886528,8810
1065.6009324198508,8803
1067.780124728432,8782
1069.9587323469414,8879
1072.1367555080046,8863
1074.314194444325,8855
1076.4910493886855,9090
1078.667320573947,8795
1080.843008233051,8631
1083.0181125990161,8834
1085.1926339049414,8842
1087.3665723840027,8784
1089.5399282694575,8709
1091.7127017946405,8823
1093.8848931929647,8744
1096.0565026979243,8683
1098.2275305430899,8597
1100.3979769621128,8898
1102.567842188722,8720
1104.737126456726,8597
1106.9058300000124,8656
1109.0739530525475,8594
1111.2414958483764,8619
1113.4084586216231,8883
1115.5748416064907,8820
1117.7406450372605,8885
1119.9058691482942,8852
1122.0705141740304,8905
1124.2345803489884,8761
1126.3980679077658,8858
1128.5609770850388,8955
1130.7233081155623,8864
1132.8850612341707,8886
1135.0462366757774,8941
1137.2068346753745,8797
1139.3668554680326,8869
1141.526299288901,8867
1143.68516637321,8865
1145.8434569562655,8785
1148.001171273455,8830
1150.158309560244,9008
1152.3148720521767,8881
1154.470858984876,8770
1156.626270594044,8865
1158.7811071154629,8752
1160.9353687849912,8843
1163.089055838569,8911
1165.242168512213,8912
1167.3947070420209,8796
1169.5466716641677,8786
1171.6980626149075,8801
1173.8488801305748,8685
1175.9991244475814,8772
1178.1487958024186,8817
1180.2978944316555,8903
1182.4464205719428,8607
1184.5943744600072,8890
1186.7417563326567,8924
1188.8885664267755,8879
1191.0348049793297,8753
1193.1804722273619,8746
1195.325568407995,8795
1197.4700937584303,8837
1199.614048515948,8710
1201.7574329179074,9057
1203.900247201746,8767
1206.042491604982,8771
1208.1841663652099,8990
1210.3252717201053,9024
1212.465807907422,9123
1214.6057751649923,8920
1216.7451737307279,8905
1218.8840038426192,8969
1221.0222657387353,9030
1223.1599596572241,8987
1225.2970858363137,8971
1227.4336445143094,9062
1229.5696359295966,8858
1231.705060320639,9051
1233.8399179259786,8883
1235.9742089842384,9120
1238.107933734118,9082
1240.2410924143974,9203
1242.373685263935,9042
1244.5057125216676,8986
1246.6371744266116,8973
1248.7680712178621,8909
1250.898403134593,9000
1253.028170416058,9132
1255.1573733015875,8840
1257.2860120305932,9030
1259.4140868425648,9055
1261.54159797707,8996
1263.6685456737569,9179
1265.7949301723515,9075
1267.9207517126597,9158
1270.046010534565,8969
1272.1707068780306,9005
1274.2948409830983,9044
1276.4184130898889,9004
1278.541423438603,9078
1280.6638722695184,9138
1282.785759822993,9163
1284.9070863394636,9110
1287.0278520594447,9156
1289.1480572235314,9214
1291.2677020723963,9222
1293.3867868467923,9163
1295.5053117875495,9255
1297.623277135579,9185
1299.740683131868,9227
1301.8575300174857,9233
1303.973818033578,9301
1306.0895474213703,9465
1308.2047184221678,9399
1310.3193312773528,9246
1312.4333862283888,9303
1314.5468835168163,9413
1316.659823384255,9464
1318.7722060724045,9295
1320.8840318230418,9287
1322.9953008780249,9417
1325.1060134792888,9385
1327.2161698688478,9502
1329.3257702887959,9187
1331.4348149813054,9380
1333.5433041886276,9523
1335.6512381530933,9306
1337.7586171171101,9336
1339.8654413231675,9364
1341.9717110138317,9248
1344.0774264317488,9322
1346.1825878196432,9397
1348.2871954203192,9438
1350.3912494766587,9241
1352.4947502316231,9259
1354.5976979282532,9302
1356.7000928096686,9438
1358.8019351190665,9365
1360.9032250997243,9291
1363.0039629949988,9270
1365.1041490483235,9525
1367.2037835032133,9467
1369.3028666032606,9338
1371.401398592137,9460
1373.4993797135926,9479
1375.5968102114575,9492
1377.6936903296396,9385
1379.7900203121262,9428
1381.8858004029835,9702
1383.9810308463561,9345
1386.075711886469,9573
1388.1698437676241,9509
1390.2634267342032,9501
1392.356461030667,9424
1394.4489469015557,9556
1396.5408845914872,9344
1398.6322743451592,9751
1400.7231164073469,9584
1402.813411022907,9643
1404.903158436773,9488
1406.9923588939578,9409
1409.0810126395531,9591
1411.1691199187303,9471
1413.2566809767386,9572
1415.343696058907,9509
1417.4301654106425,9451
1419.5160892774315,9343
1421.6014679048399,9540
1423.6863015385125,9590
1425.7705904241707,9424
1427.8543348076178,9404
1429.9375349347342,9602
1432.0201910514802,9522
1434.102303403894,9530
1436.1838722380944,9507
1438.2648978002767,9671
1440.3453803367174,9644
1442.4253200937692,9726
1444.5047173178677,9777
1446.5835722555234,9614
1448.6618851533285,9742
1450.739656257952,9725
1452.8168858161434,9672
1454.8935740747306,9604
1456.96972128062,9688
1459.045327680797,9671
1461.120393522327,9841
1463.1949190523528,9719
1465.2689045180973,9797
1467.3423501668608,9791
1469.415256246024,9945
1471.4876230030463,9850
1473.559450685465,9698
1475.6307395408976,9952
1477.7014898170391,9903
1479.771701761665,9948
1481.8413756226287,9845
1483.9105116478618,9807
1485.9791100853772,10069
1488.0471711832643,10129
1490.1146951896926,9952
1492.1816823529098,9883
1494.2481329212433,9974
1496.3140471430984,9962
1498.3794252669609,9846
1500.4442675413939,10050
1502.5085742150404,9866
1504.572345536622,10075
1506.6355817549388,10080
1508.6982831188702,10062
1510.7604498773744,10144
1512.8220822794883,10309
1514.8831805743293,10011
1516.9437450110909,10054
1519.003775839048,10133
1521.0632733075522,10297
1523.1222376660367,10224
1525.1806691640113,10131
1527.2385680510652,10295
1529.2959345768668,10195
1531.3527689911643,10155
1533.4090715437833,10342
1535.4648424846291,10387
1537.5200820636855,10330
1539.5747905310159,10450
1541.6289681367616,10357
1543.6826151311434,10284
1545.7357317644614,10333
1547.7883182870937,10424
1549.8403749494987,10417
1551.8919020022113,10451
1553.9428996958477,10468
1555.9933682811015,10515
1558.0433080087469,10417
1560.0927191296346,10602
1562.1416018946961,10561
1564.1899565549415,10591
1566.2377833614592,10653
1568.2850825654164,10542
1570.3318544180606,10496
1572.3780991707158,10597
1574.423817074788,10477
1576.4690083817595,10475
1578.5136733431923,10322
1580.5578122107272,10471
1582.601425236085,10222
1584.6445126710646,10162
1586.6870747675434,10177
1588.7291117774776,10040
1590.7706239529034,10151
1592.8116115459347,10051
1594.8520748087658,10153
1596.8920139936686,10028
1598.9314293529933,9912
1600.9703211391711,9815
1603.008689604711,9900
1605.0465350022005,9785
1607.0838575843068,9768
1609.1206576037753,9945
1611.1569353134305,9765
1613.1926909661765,9714
1615.2279248149953,9637
1617.2626371129481,9808
1619.2968281131757,9801
1621.3304980688963,9829
1623.3636472334088,9790
1625.39627586009,9754
1627.428384202396,9648
1629.459972513861,9571
1631.4910410480993,9744
1633.5215900588028,9728
1635.551619799744,9850
1637.5811305247717,9769
1639.6101224878166,9721
1641.6385959428862,9784
1643.6665511440683,9685
1645.693988345528,9722
1647.7209078015112,9893
1649.7473097663405,9860
1651.7731944944203,9580
1653.7985622402307,9672
1655.823413258333,9557
1657.847747803366,9605
1659.8715661300494,9512
1661.8948684931793,9675
1663.9176551476316,9639
1665.9399263483624,9605
1667.9616823504057,9715
1669.982923408873,9502
1672.0036497789574,9649
1674.0238617159293,9548
1676.043559475138,9737
1678.0627433120121,9618
1680.081413482059,9644
1682.0995702408654,9585
1684.117213844096,9594
1686.134344547495,9537
1688.1509626068864,9777
1690.1670682781705,9676
1692.182661817329,9444
1694.1977434804217,9704
1696.2123135235875,9561
1698.226372203043,9597
1700.2399197750851,9553
1702.2529564960905,9430
1704.2654826225112,9579
1706.277498410882,9481
1708.2890041178139,9546
1710.2999999999988,9638
1712.3104863142066,9451
1714.3204633172854,9630
1716.329931266163,9394
1718.3388904178469,9558
1720.3473410294214,9506
1722.3552833580516,9587
1724.3627176609807,9615
1726.3696441955308,9522
1728.3760632191033,9568
1730.3819749891782,9597
1732.3873797633146,9592
1734.3922777991502,9446
1736.3966693544012,9698
1738.4005546868639,9642
1740.4039340544127,9818
1742.406807715001,9687
1744.4091759266616,9556
1746.4110389475054,9759
1748.4123970357223,9520
1750.413250449582,9588
1752.4135994474318,9587
1754.4134442876993,9579
1756.4127852288902,9456
1758.4116225295893,9592
1760.4099564484595,9560
1762.407787244244,9742
1764.405115175764,9485
1766.4019405019203,9580
1768.3982634816916,9456
1770.3940843741357,9489
1772.3894034383907,9575
1774.3842209336717,9524
1776.378537119274,9553
1778.372352254571,9561
1780.3656665990156,9557
1782.3584804121397,9651
1784.3507939535534,9667
1786.3426074829463,9505
1788.3339212600863,9499
1790.3247355448211,9575
1792.3150505970766,9634
1794.3048666768573,9624
1796.2941840442477,9564
1798.2830029594106,9569
1800.2713236825884,9536
1802.2591464741004,9557
1804.2464715943465,9591
1806.2332993038058,9513
1808.2196298630352,9565
1810.2054635326708,9612
1812.190800573428,9803
1814.175641246101,9699
1816.1599858115628,9553
1818.1438345307652,9713
1820.127187664738,9586
1822.1100454745924,9802
1824.092408221516,9914
1826.0742761667766,9668
1828.055649571721,9834
1830.0365286977735,9606
1832.0169138064398,9695
1833.9968051593014,9657
1835.9762030180214,9779
1837.9551076443408,9621
1839.9335193000788,9598
1841.9114382471344,9749
1843.888864747485,9566
1845.8657990631878,9601
1847.842241456378,9520
1849.8181921892697,9683
1851.7936515241558,9699
1853.7686197234098,9637
1855.7430970494815,9522
1857.7170837649014,9761
1859.6905801322787,9543
1861.6635864143004,9731
1863.6361028737338,9668
1865.608129773424,9630
1867.5796673762961,9738
1869.5507159453537,9667
1871.521275743678,9763
1873.4913470344313,9767
1875.4609300808534,9973
1877.4300251462632,9814
1879.3986324940588,9606
1881.366752387717,9878
1883.3343850907936,9891
1885.3015308669228,10115
1887.268189979819,9788
1889.2343626932739,9776
1891.2000492711595,9847
1893.1652499774254,9852
1895.1299650761011,9608
1897.0941948312952,9891
1899.0579395071945,9923
1901.0211993680641,9980
1902.98397467825,9887
1904.9462657021745,9770
1906.9080727043415,9951
1908.869395949332,9822
1910.8302357018065,9824
1912.790592226504,9711
1914.7504657882428,9810
1916.7098566519212,9843
1918.6687650825133,9903
1920.6271913450764,9731
1922.5851357047422,9826
1924.5425984267245,9748
1926.499579776314,10005
1928.4560800188833,9801
1930.4120994198802,9738
1932.367638244833,9862
1934.32269675935,9740
1936.2772752291175,9767
1938.231373919899,9982
1940.1849930975404,9957
1942.1381330279637,9931
1944.0907939771696,9998
1946.0429762112412,9945
1947.9946799963363,9946
1949.9459055986945,9974
1951.896653284633,9876
1953.8469233205478,9854
1955.7967159729142,9752
1957.7460315082863,9926
1959.6948701932974,9812
1961.6432322946594,9893
1963.5911180791632,10078
1965.5385278136787,9869
1967.4854617651545,9991
1969.4319202006182,10009
1971.377903387176,9932
1973.3234115920136,9900
1975.268445082395,9948
1977.2130041256642,9999
1979.1570889892423,9891
1981.1006999406304,9908
1983.04383724741,9932
1984.986501177238,9822
1986.928691997853,9833
1988.8704099770712,9649
1990.811655382789,9965
1992.7524284829801,10068
1994.692729545698,9933
1996.6325588390755,10000
1998.5719166313224,9899
2000.5108031907307,10080
2002.4492187856677,9896
2004.387163684583,9931
2006.3246381560011,9793
2008.2616424685298,9891
2010.1981768908527,9955
2012.1342416917332,9877
2014.069837140014,9957
2016.0049635046162,10028
2017.9396210545406,10133
2019.8738100588666,9930
2021.8075307867502,9829
2023.740783507431,9894
2025.6735684902228,9973
2027.6058860045214,9808
2029.5377363198004,9734
2031.4691197056118,9917
2033.4000364315875,9870
2035.3304867674374,9856
2037.260470982952,9888
2039.189989347998,9745
2041.1190421325232,9975
2043.047629606554,9871
2044.9757520401945,10071
2046.9034097036288,10066
2048.8306028671195,10208
2050.7573318010086,9949
2052.683596775716,9982
2054.609398061742,9983
2056.5347359296647,10008
2058.4596106501403,10011
2060.384022493906,10172
2062.3079717317764,10195
2064.231458634646,10023
2066.1544834734873,10165
2068.077046519352,10224
2069.99914804337,10319
2071.9207883167524,10048
2073.8419676107865,10249
2075.7626861968406,10144
2077.6829443463607,10111
2079.6027423308715,10143
2081.522080421977,10250
2083.440958891362,10173
2085.359378010786,10139
2087.2773380520907,10099
2089.194839287196,10200
2091.111881988101,10198
2093.0284664268825,9993
2094.9445928756973,10218
2096.86026160678,10087
2098.775472892446,10363
2100.690227005088,10119
2102.604524217178,10357
2104.5183648012676,10226
2106.431749029985,10222
2108.34467717604,10223
2110.2571495122206,10262
2112.169166311393,10143
2114.080727846503,10249
2115.9918343905747,10196
2117.902486216711,10332
2119.8126835980956,10272
2121.722426807987,10335
2123.6317161197285,10258
2125.5405518067364,10404
2127.448934142509,10441
2129.356863400624,10208
2131.264339854737,10397
2133.1713637785815,10444
2135.077935445972,10343
2136.9840551308002,10483
2138.889723107037,10362
2140.7949396487334,10372
2142.699705030018,10485
2144.6040195250994,10575
2146.507883408264,10552
2148.4112969538774,10388
2150.3142604363848,10331
2152.2167741303097,10513
2154.1188383102535,10341
2156.0204532508997,10642
2157.9216192270064,10606
2159.822336513414,10476
2161.7226053850413,10560
2163.622426116884,10600
2165.5217989840185,10483
2167.4207242616,10522
2169.319202224862,10659
2171.2172331491165,10742
2173.1148173097563,10457
2175.0119549822507,10451
2176.90864644215,10579
2178.8048919650823,10501
2180.7006918267534,10485
2182.596046302952,10669
2184.4909556695407,10365
2186.3854202024645,10742
2188.279440177746,10297
2190.173015871487,10515
2192.066147559868,10468
2193.958835519149,10664
2195.851080025667,10577
2197.7428813558417,10531
2199.6342397861667,10675
2201.5251555932186,10744
2203.415629053651,10583
2205.3056604441986,10702
2207.19525004167,10575
2209.084398122958,10626
2210.9731049650327,10672
2212.861370844941,10860
2214.749196039812,10808
2216.636580826851,10843
2218.523525483344,10867
2220.410030286655,10897
2222.296095514226,10593
2224.1817214435805,10846
2226.066908352319,10620
2227.951656518121,10812
2229.835966218746,10699
2231.71983773203,10685
2233.6032713358913,10702
2235.486267308324,10739
2237.3688259274036,10800
2239.2509474712824,10724
2241.132632218193,10759
2243.013880446447,10768
2244.8946924344323,10860
2246.7750684606203,10748
2248.6550088035574,10808
2250.534513741871,10660
2252.413583554265,10842
2254.292218519526,10723
2256.170418916517,10925
2258.0481850241786,10789
2259.925517121534,10868
2261.8024154876825,10731
2263.678880401803,10809
2265.5549121431536,10576
2267.430510991071,10672
2269.305677224971,10915
2271.180411124348,10656
2273.0547129687766,10773
2274.9285830379076,10579
2276.8020216114737,10717
2278.6750289692845,10603
2280.5476053912294,10752
2282.4197511572766,10699
2284.2914665474727,10879
2286.162751841943,10739
2288.0336073208937,10656
2289.904033264608,10740
2291.774029953448,10722
2293.6435976678554,10661
2295.5127366883517,10620
2297.381447295534,10646
2299.2497297700825,10751
2301.1175843927526,10772
2302.9850114443825,10736
2304.852011205885,10764
2306.7185839582553,10627
2308.5847299825664,10701
2310.4504495599676,10682
2312.3157429716925,10685
2314.1806104990483,10693
2316.0450524234247,10625
2317.9090690262888,10689
2319.772660589186,10716
2321.635827393742,10796
2323.498569721661,10729
2325.3608878547248,10722
2327.2227820747967,10750
2329.0842526638157,10653
2330.945299903803,10648
2332.805924076857,10591
2334.6661254651535,10529
2336.525904350951,10650
2338.3852610165827,10522
2340.244195744464,10713
2342.102708817088,10545
2343.9608005170253,10692
2345.8184711269287,10606
2347.675720929526,10624
2349.532550207628,10648
2351.38895924412,10728
2353.24494832197,10691
2355.100517724223,10814
2356.955667734004,10880
2358.810398634514,10623
2360.664710709037,10819
2362.5186042409337,10688
2364.3720795136437,10649
2366.225136810686,10860
2368.0777764156583,10834
2369.929998612237,10818
2371.7818036841777,10745
2373.633191915315,10783
2375.484163589562,10829
2377.3347189909114,10764
2379.184858403434,10754
2381.03458211128,10646
2382.8838903986775,10742
2384.732783549936,10800
2386.5812618494406,10865
2388.4293255816588,10745
2390.2769750311327,10790
2392.1242104824883,10691
2393.971032220427,10826
2395.8174405297295,10706
2397.6634356952563,10819
2399.509018001947,10816
2401.3541877348193,10846
2403.1989451789705,10796
2405.043290619576,10823
2406.8872243418905,10929
2408.730746631247,10742
2410.5738577730594,10743
2412.4165580528183,10798
2414.258847756095,10787
2416.100727168537,10837
2417.9421965758734,10706
2419.783256263912,10754
2421.623906518538,10842
2423.4641476257157,10875
2425.303979871491,10990
2427.143403541984,10839
2428.9824189233977,10853
2430.821026302012,10835
2432.6592259641866,10788
2434.497018196361,10758
2436.33440328505,10562
2438.171381516851,10880
2440.00795317844,10811
2441.844118556569,10898
2443.6798779380724,10753
2445.5152316098606,10797
2447.3501798589255,10821
2449.1847229723357,10757
2451.0188612372403,10932
2452.8525949408663,10860
2454.6859243705203,10866
2456.518849813587,10792
2458.3513715575314,10871
2460.183489889895,10928
2462.015205098301,10834
2463.8465174704493,10944
2465.67742729412,10861
2467.5079348571717,10987
2469.338040447542,10871
2471.1677443532476,11033
2472.9970468623833,10996
2474.825948263123,10932
2476.6544488437207,10852
2478.482548892508,10938
2480.310248697896,10879
2482.137548548374,10992
2483.9644487325118,11008
2485.790949538956,10920
2487.617051256433,11115
2489.44275417375,11044
2491.26805857979,11059
2493.0929647635157,10880
2494.917473013971,10993
2496.741583620276,10905
2498.5652968716304,11040
2500.3886130573137,11018
2502.2115324666834,11272
2504.0340553891765,11098
2505.856182114308,10889
2507.6779129316733,10919
2509.499248130945,11027
2511.3201880018764,11031
2513.140732834298,11062
2514.9608829181198,10989
2516.780638543331,11106
2518.6,10949
2520.418967578273,11049
2522.237541568376,10970
2524.0557222606144,11096
2525.8735099453706,10964
2527.6909049131086,10894
2529.507907454368,11017
2531.32451785977,11254
2533.140736420014,11239
2534.9565634258774,10975
2536.771999168218,11256
2538.5870439379714,11072
2540.4016980261526,11143
2542.2159617238544,11210
2544.02983532225,11304
2545.8433191125914,11338
2547.656413386209,11199
2549.4691184345115,11093
2551.2814345489874,11244
2553.093362021204,11352
2554.904901142808,11162
2556.716052205523,11087
2558.526815501153,11199
2560.3371913215824,11099
2562.147179958771,11176
2563.956781704761,11190
2565.7659968516705,11020
2567.5748256916986,11083
2569.3832685171224,11137
2571.1913256202984,11172
2572.9989972936614,11353
2574.806283829725,11240
2576.613185521084,11199
2578.4197026604074,11264
2580.2258355404483,11320
2582.031584454035,11273
2583.836949694077,11156
2585.6419315535613,11212
2587.4465303255533,11252
2589.2507463032002,11120
2591.0545797797245,11052
2592.8580310484303,11344
2594.6611004026995,11232
2596.463788135992,11270
2598.266094541849,11052
2600.0680199138874,11309
2601.869564545807,11195
2603.670728731383,11310
2605.4715127644704,11333
2607.2719169390048,11201
2609.071941548998,11124
2610.8715868885433,11158
2612.670853251811,11317
2614.469740933052,11190
2616.268250226594,11283
2618.0663814268455,11235
2619.864134828292,11357
2621.6615107255006,11093
2623.458509413115,11089
2625.2551311858597,11412
2627.0513763385347,11191
2628.8472451660223,11171
2630.6427379632833,11156
2632.4378550253564,11336
2634.232596647359,11428
2636.026963124488,11158
2637.8209547520187,11131
2639.6145718253065,11229
2641.407814639785,11235
2643.200683490966,11337
2644.9931786744414,11351
2646.7853004858807,11277
2648.577049221034,11109
2650.3684251757277,11131
2652.1594286458712,11189
2653.9500599274484,11332
2655.740319316525,11185
2657.5302071092437,11346
2659.3197236018286,11306
2661.10886909058,11256
2662.8976438718782,11171
2664.686048242183,11269
2666.4740824980327,11225
2668.2617469360443,11413
2670.0490418529134,11394
2671.8359675454153,11328
2673.622524310403,11390
2675.408712444811,11410
2677.1945322456495,11332
2678.979984010009,11111
2680.76506803506,11241
2682.5497846180497,11300
2684.334134056306,11230
2686.1181166472343,11296
2687.9017326883213,11328
2689.6849824771293,11352
2691.4678663113013,11277
2693.2503844885596,11287
2695.032537306705,11351
2696.8143250636167,11316
2698.5957480572542,11396
2700.3768065856534,11380
2702.1575009469316,11263
2703.937831439283,11380
2705.717798360982,11280
2707.4974020103837,11250
2709.276642685917,11366
2711.055520686095,11392
2712.834036309506,11194
2714.612189854819,11291
2716.389981620782,11274
2718.1674119062204,11120
2719.944481010041,11277
2721.721189231226,11226
2723.4975368688415,11322
2725.273524222027,11431
2727.0491515900053,11597
2728.824419272075,11283
2730.5993275676146,11322
2732.3738767760838,11234
2734.148067197016,11028
2735.921899130031,11426
2737.6953728748194,11257
2739.468488731156,11379
2741.2412469988926,11405
2743.0136479779617,11225
2744.785691968372,11248
2746.5573792702116,11380
2748.3287101836504,11435
2750.099685008934,11470
2751.870304046388,11424
2753.640567596418,11334
2755.4104759595057,11340
2757.1800294362156,11297
2758.949228327187,11357
2760.7180729331412,11473
2762.486563554877,11350
2764.254700493272,11423
2766.022484049284,11418
2767.789914523947,11341
2769.5569922183786,11443
2771.3237174337705,11273
2773.090090471394,11426
2774.8561116326036,11472
2776.6217812188274,11385
2778.3870995315756,11495
2780.1520668724356,11325
2781.9166835430747,11484
2783.6809498452394,11588
2785.444866080754,11347
2787.2084325515225,11647
2788.971649559527,11406
2790.73451740683,11440
2792.4970363955713,11574
2794.2592068279705,11477
2796.0210290063264,11575
2797.7825032330147,11736
2799.543629810493,11611
2801.304409041296,11596
2803.0648412280366,11412
2804.8249266734088,11697
2806.5846656801846,11418
2808.344058551212,11630
2810.1031055894246,11828
2811.8618070978273,11541
2813.6201633795085,11662
2815.378174737636,11763
2817.1358414754536,11696
2818.893163896285,11656
2820.6501423035334,11669
2822.4067770006814,11743
2824.1630682912883,11756
2825.9190164789957,11650
2827.6746218675207,11716
2829.429884760661,11629
2831.184805462294,11713
2832.9393842763743,11859
2834.693621506936,11873
2836.4475174580916,11902
2838.201072434034,11679
2839.954286739034,11847
2841.707160677441,11729
2843.459694553685,11714
2845.2118886722724,11716
2846.96374333779,11893
2848.7152588549034,11677
2850.4664355283567,11586
2852.217273662973,11705
2853.9677735636546,11784
2855.7179355353833,11811
2857.4677598832186,11847
2859.217246912299,11880
2860.9663969278427,11797
2862.715210235146,11500
2864.4636871395846,11599
2866.211827946614,11713
2867.9596329617652,11733
2869.7071024906536,11762
2871.4542368389684,11775
2873.20103631248,11668
2874.947501217038,11728
2876.6936318585695,11646
2878.4394285430812,11830
2880.1848915766604,11633
2881.9300212654707,11554
2883.6748179157553,11732
2885.4192818338374,11823
2887.1634133261173,11796
2888.907212699077,11846
2890.6506802592744,11820
2892.393816313348,11994
2894.1366211680142,11797
2895.8790951300693,12012
2897.621238506388,11893
2899.363051603925,12008
2901.1045347297118,11947
2902.8456881908596,11993
2904.58651229456,12170
2906.327007348081,11946
2908.067173658772,11867
2909.8070115340597,11744
2911.5465212814497,11622
2913.285703208527,11580
2915.0245576229563,11493
2916.7630848324807,11612
2918.5012851449196,11596
2920.2391588681758,11784
2921.976706310227,11844
2923.7139277791334,11907
2925.4508235830313,11737
2927.187394030137,11901
2928.923639428745,11951
2930.6595600872306,11867
2932.395156314046,11996
2934.1304284177218,11905
2935.8653767068713,12023
2937.6000014901815,12160
2939.3343030764227,12058
2941.068281774442,11989
2942.8019378931644,11820
2944.5352717415976,12189
2946.2682836288236,11762
2948.0009738640065,11990
2949.7333427563885,12056
2951.465390615289,12020
2953.1971177501086,11986
2954.9285244703265,12009
2956.6596110855,12059
2958.3903779052657,12014
2960.1208252393385,11822
2961.8509533975125,11698
2963.5807626896617,11955
2965.3102534257378,11913
2967.0394259157715,11970
2968.768280469873,11932
2970.496817398232,12041
2972.2250370111146,12004
2973.952939618869,12051
2975.6805255319196,12167
2977.4077950607707,12036
2979.134748516006,12119
2980.861386208289,12147
2982.587708448359,12180
2984.313715547037,12280
2986.039407815222,12112
2987.764785563891,12270
2989.489849104102,12254
2991.2145987469908,12226
2992.9390348037705,12087
2994.6631575857346,12200
2996.3869674042576,12118
2998.1104645707887,12203
2999.83364939686,12131
3001.5565221940783,12189
3003.2790832741334,12096
3005.0013329487924,12162
3006.7232715298996,11979
3008.4448993293804,12262
3010.166216659239,12074
3011.887223831558,12177
3013.607921158498,12037
3015.3283089522993,12212
3017.0483875252826,12344
3018.7681571898443,12203
3020.4876182584626,12153
3022.2067710436927,12279
3023.9256158581707,12158
3025.644153014609,12273
3027.362382825801,12156
3029.0803056046193,12011
3030.797921664012,12270
3032.5152313170106,12283
3034.2322348767225,12137
3035.9489326563353,12217
3037.665324969115,12398
3039.3814121284063,12281
3041.097194447633,12285
3042.812672240299,12227
3044.5278458199855,12299
3046.2427155003525,12212
3047.9572815951406,12160
3049.671544418167,12128
3051.38550428333,12310
3053.0991615046073,12264
3054.812516396051,12073
3056.5255692717974,12110
3058.2383204460575,12271
3059.9507702331257,12151
3061.662918947372,12439
3063.3747669032446,12091
3065.0863144152736,12274
3066.7975617980674,12208
3068.508509366309,12273
3070.219157434767,12570
3071.9295063182844,12355
3073.639556331785,12466
3075.3493077902704,12543
3077.058761008821,12571
3078.7679163025964,12186
3080.476773986837,12420
3082.1853343768594,12352
3083.89359778806,12369
3085.6015645359153,12400
3087.3092349359786,12552
3089.016609303884,12489
3090.7236879553434,12511
3092.4304712061476,12407
3094.136959372166,12439
3095.843152769349,12450
3097.5490517137237,12424
3099.2546565213966,12293
3100.959967508554,12482
3102.66498499146,12464
3104.3697092864577,12496
3106.0741407099695,12516
3107.778279578498,12633
3109.482126208622,12456
3111.1856809170004,12608
3112.8889440203716,12488
3114.5919158355528,12678
3116.294596679439,12474
3117.996986869006,12608
3119.6990867213062,12712
3121.4008965534726,12605
3123.102416682717,12573
3124.803647426329,12633
3126.5045891016784,12550
3128.205242026213,12635
3129.90560651746,12586
3131.605682893025,12712
3133.3054714705922,12690
3135.0049725679282,12796
3136.7041865028714,12830
3138.4031135933465,12579
3140.101754157353,12814
3141.800108512971,12579
3143.498176978357,12604
3145.1959598717494,12471
3146.8934575114636,12589
3148.5906702158954,12729
3150.2875983035183,12444
3151.9842420928853,12476
3153.680601902627,12563
3155.376678051456,12573
3157.07247085816,12635
3158.767980641609,12706
3160.463207720748,12681
3162.158152414606,12543
3163.8528150422862,12698
3165.5471959229726,12845
3167.2412953759303,12777
3168.9351137204976,12820
3170.628651276098,12751
3172.3219083622307,12832
3174.014885298474,13007
3175.707582404485,13081
3177.4000000000005,13010
3179.092138404835,12990
3180.7839979388846,12924
3182.47557892212,12960
3184.166881674594,12923
3185.8579065164386,12853
3187.5486537678626,13048
3189.2391237491547,12864
3190.9293167806827,12993
3192.6192331828934,12937
3194.3088732763117,12979
3195.998237381542,12785
3197.687325819268,12790
3199.376138910251,12813
3201.064676975334,12887
3202.7529403354347,12683
3204.4409293115523,12619
3206.1286442247647,12888
3207.816085396229,12995
3209.5032531471825,12583
3211.190147798936,12796
3212.8767696728846,12653
3214.5631190905015,12741
3216.2491963733373,12670
3217.9350018430214,12490
3219.6205358212637,12764
3221.305798629851,12492
3222.990790590651,12682
3224.6755120256103,12695
3226.359963256751,12608
3228.0441446061795,12631
3229.7280563960758,12681
3231.411698948703,12722
3233.0950725863995,12917
3234.778177631587,12826
3236.461014406761,12979
3238.1435832345005,12808
3239.8258844374595,12778
3241.507918338374,12936
3243.1896852600576,13132
3244.8711855254023,13036
3246.552419457381,12967
3248.233387379042,13123
3249.914089613516,13019
3251.59452648401,13023
3253.274698313813,13000
3254.95460542629,12900
3256.6342481448855,12680
3258.313626793125,12706
3259.9927416946084,12744
3261.6715931730196,12748
3263.3501815521176,12729
3265.0285071557437,12745
3266.706570307815,12833
3268.3843713323286,12898
3270.0619105533615,12860
3271.739188295068,12938
3273.4162048816834,12958
3275.0929606375184,13026
3276.769455886966,13016
3278.445690954498,13056
3280.1216661646613,13146
3281.797381842087,12923
3283.4728383114807,13197
3285.1480358976296,13125
3286.8229749253996,13029
3288.4976557197333,12724
3290.172078605655,12781
3291.846243908266,12701
3293.5201519527463,12767
3295.193803064357,12850
3296.8671975684374,12753
3298.5403357904024,12882
3300.21321805575,13029
3301.8858446900567,12886
3303.558216018975,12823
3305.23033236824,12965
3306.9021940636603,13155
3308.57380143113,13192
3310.2451547966184,13111
3311.916254486174,13277
3313.5871008259246,13074
3315.2576941420766,13059
3316.9280347609147,13071
3318.5981230088046,12893
3320.2679592121895,12878
3321.9375436975924,12666
3323.606876791612,12875
3325.27595882093,12969
3326.944790112305,12869
3328.6133709925753,12839
3330.2817017886573,12900
3331.949782827547,13016
3333.617614436319,13122
3335.2851969421245,12829
3336.952530672199,13298
3338.619615953853,13386
3340.286453114475,13258
3341.9530424815357,13300
3343.619384382583,13336
3345.2854791452437,13287
3346.951327097224,13466
3348.6169285663073,13312
3350.2822838803577,13349
3351.947393367319,13506
3353.61225735521,13475
3355.2768761721345,13560
3356.9412501462693,13302
3358.605379605873,13343
3360.2692648792827,13385
3361.9329062949146,13284
3363.596304181263,13155
