CollectionTime,7/9/2024 4:59:25 PM
ExposureUsed,3
CalibratedSpectrum
-962.7078968117929,2890
-959.9714848408522,3177
-957.2358232597828,3149
-954.5009119013725,3145
-951.7667505983302,3099
-949.0333391832855,3115
-946.3006774887896,3106
-943.5687653473143,3164
-940.837602591253,3072
-938.1071890529199,3102
-935.3775245645503,3113
-932.6486089583007,3189
-929.9204420662485,3182
-927.1930237203925,3200
-924.4663537526524,3161
-921.7404319948689,3136
-919.0152582788041,3171
-916.2908324361409,3237
-913.5671542984834,3253
-910.8442236973568,3153
-908.1220404642074,3223
-905.4006044304027,3127
-902.679915427231,3269
-899.959973285902,3174
-897.2407778375464,3317
-894.5223289132158,3209
-891.8046263438832,3200
-889.0876699604426,3236
-886.3714595937089,3171
-883.6559950744183,3268
-880.9412762332282,3208
-878.2273029007168,3303
-875.5140749073835,3218
-872.8015920836489,3204
-870.0898542598545,3296
-867.3788612662631,3252
-864.6686129330585,3334
-861.9591090903457,3268
-859.2503495681506,3375
-856.5423341964203,3352
-853.8350628050229,3358
-851.1285352237478,3477
-848.4227512823054,3396
-845.7177108103272,3404
-843.0134136373656,3452
-840.3098595928943,3441
-837.6070485063082,3422
-834.9049802069229,3428
-832.2036545239757,3370
-829.5030712866244,3456
-826.8032303239481,3402
-824.1041314649472,3423
-821.4057745385428,3456
-818.7081593735775,3519
-816.0112857988148,3482
-813.3151536429393,3505
-810.6197627345566,3375
-807.9251129021936,3443
-805.2312039742981,3488
-802.5380357792392,3454
-799.8456081453069,3504
-797.1539209007124,3463
-794.462973873588,3515
-791.772766891987,3564
-789.083299783884,3521
-786.3945723771743,3488
-783.7065844996748,3537
-781.0193359791231,3428
-778.3328266431781,3436
-775.6470563194197,3561
-772.9620248353489,3515
-770.2777320183878,3537
-767.5941776958798,3686
-764.9113616950891,3542
-762.2292838432011,3657
-759.5479439673222,3662
-756.8673418944801,3515
-754.1874774516235,3629
-751.5083504656222,3652
-748.8299607632671,3658
-746.15230817127,3666
-743.475392516264,3693
-740.7992136248035,3668
-738.1237713233636,3669
-735.4490654383407,3646
-732.7750957960521,3767
-730.1018622227365,3578
-727.4293645445534,3697
-724.7576025875837,3673
-722.0865761778291,3661
-719.4162851412126,3788
-716.7467293035781,3717
-714.0779084906909,3666
-711.409822528237,3712
-708.7424712418238,3756
-706.0758544569796,3748
-703.4099719991541,3825
-700.7448236937178,3806
-698.0804093659622,3814
-695.4167288411002,3790
-692.7537819442656,3790
-690.0915685005134,3784
-687.4300883348199,3874
-684.7693412720819,3813
-682.1093271371178,3754
-679.4500457546669,3754
-676.7914969493897,3782
-674.1336805458676,3841
-671.4765963686034,3791
-668.8202442420206,3855
-666.1646239904642,3915
-663.5097354382001,3813
-660.8555784094151,3873
-658.2021527282176,3868
-655.5494582186366,3949
-652.8974947046223,3975
-650.2462620100463,3969
-647.5957599587009,3914
-644.9459883742998,3840
-642.2969470804776,4110
-639.6486359007902,4059
-637.0010546587141,4012
-634.3542031776476,4028
-631.7080812809096,3992
-629.0626887917401,4077
-626.4180255333008,4042
-623.7740913286734,4045
-621.1308860008619,4029
-618.4884093727904,4028
-615.8466612673046,4039
-613.2056415071715,4056
-610.5653499150785,4088
-607.9257863136347,4124
-605.28695052537,4113
-602.6488423727357,4130
-600.0114616781036,4125
-597.3748082637674,4021
-594.7388819519412,4178
-592.1036825647604,4250
-589.4692099242818,4246
-586.8354638524829,4198
-584.2024441712624,4277
-581.5701507024403,4094
-578.9385832677575,4279
-576.3077416888759,4241
-573.6776257873787,4305
-571.0482353847704,4211
-568.4195703024757,4228
-565.7916303618415,4212
-563.164415384135,4288
-560.5379251905453,4341
-557.9121596021815,4281
-555.2871184400748,4254
-552.6628015251767,4270
-550.0392086783606,4408
-547.4163397204204,4357
-544.794194472071,4300
-542.1727727539491,4360
-539.5520743866118,4496
-536.9320991905377,4365
-534.3128469861261,4412
-531.6943175936979,4555
-529.0765108334947,4392
-526.4594265256793,4394
-523.8430644903358,4591
-521.2274245474689,4726
-518.612506517005,4723
-515.9983102187913,4829
-513.3848354725959,4622
-510.77208209810846,4782
-508.16004991493924,4816
-505.5487387426199,4792
-502.9381484006032,4901
-500.3282787082628,4991
-497.71912948489364,4839
-495.1107005497117,4774
-492.5029917218539,4759
-489.8960028203786,4741
-487.28973366426493,4766
-484.68418407241325,4682
-482.07935386364494,4607
-479.47524285670266,4625
-476.87185087025,4701
-474.2691777228715,4661
-471.66722323307334,4692
-469.0659872192821,4766
-466.4654694998459,4750
-463.86566989303384,4693
-461.26658821703614,4749
-458.66822428996414,4808
-456.07057792985,4704
-453.4736489546475,4753
-450.877437182231,4754
-448.28194243039627,4691
-445.68716451686,4569
-443.09310325926003,4696
-440.49975847515555,4670
-437.9071299820263,4599
-435.31521759727354,4692
-432.72402113821954,4526
-430.13354042210767,4645
-427.5437752661022,4666
-424.95472548728867,4658
-422.36639090267386,4616
-419.7787713291855,4605
-417.1918665836721,4685
-414.60567648290385,4854
-412.0202008435715,4739
-409.4354394822874,4830
-406.8513922155845,4814
-404.26805885991723,4771
-401.685439231661,4769
-399.103533147112,4749
-396.522340422488,4776
-393.9418608739278,4734
-391.3620943174908,4491
-388.7830405691583,4440
-386.2046994448317,4298
-383.6270707603344,4083
-381.05015433141045,3628
-378.473949973725,3426
-375.8984575028645,2926
-373.32367673433623,2559
-370.74960748356875,2119
-368.1762495659117,1833
-365.60360279663576,1572
-363.03166699093265,1164
-360.4604419639154,986
-357.8899275306178,777
-355.32012350599507,696
-352.7510297049233,633
-350.1826459421999,536
-347.61497203254316,531
-345.04800779059235,469
-342.4817530309082,511
-339.91620756797226,510
-337.35137121618743,512
-334.7872437898774,517
-332.22382510328725,540
-329.66111497058273,466
-327.09911320585127,478
-324.53781962310075,480
-321.9772340362607,479
-319.4173562591816,453
-316.8581861056348,448
-314.2997233893127,436
-311.7419679238294,435
-309.1849195227194,423
-306.62857799943856,468
-304.0729431673641,476
-301.51801483979375,468
-298.963792829947,465
-296.41027695096386,485
-293.85746701590574,526
-291.3053628377552,511
-288.7539642294155,533
-286.2032710037115,533
-283.65328297338897,498
-281.1039999511146,579
-278.5554217494762,557
-276.007548180983,513
-273.4603790580651,483
-270.9139141930734,497
-268.3681533982807,506
-265.8230964858798,512
-263.27874326798565,505
-260.7350935566336,555
-258.1921471637804,552
-255.6499039013039,541
-253.10836358100266,576
-250.56752601459698,560
-248.02739101372765,563
-245.48795838995704,616
-242.94922795476816,614
-240.41119951956557,601
-237.8738728956746,579
-235.33724789434166,574
-232.80132432673452,577
-230.2661020039418,532
-227.73158073697357,549
-225.19776033676033,605
-222.66464061415422,651
-220.1322213799284,600
-217.60050244477725,561
-215.06948361931552,552
-212.53916471408013,648
-210.00954553952818,692
-207.48062590603843,620
-204.9524056239104,630
-202.4248845033651,645
-199.8980623545441,696
-197.37193898751036,708
-194.84651421224817,688
-192.32178783866232,698
-189.79775967657952,701
-187.27442953574644,766
-184.7517972258321,775
-182.2298625564256,760
-179.7086253370378,715
-177.18808537710026,636
-174.66824248596583,730
-172.14909647290835,815
-169.6306471471229,828
-167.11289431772548,739
-164.59583779375328,730
-162.07947738416453,783
-159.5638128978386,818
-157.04884414357605,1102
-154.53457093009854,1122
-152.02099306604828,1009
-149.50811035998936,801
-146.99592262040665,758
-144.48442965570587,836
-141.97363127421409,931
-139.46352728417958,1271
-136.95411749377126,1394
-134.44540171107985,1260
-131.93737974411636,940
-129.43005140081357,834
-126.92341648902493,987
-124.41747481652521,1106
-121.91222619101006,1375
-119.40767042009657,1788
-116.90380731132257,2137
-114.40063667214702,1803
-111.8981583099503,1322
-109.3963720320337,1342
-106.89527764561933,1587
-104.39487495785067,1715
-101.89516377579241,2301
-99.39614390642998,3351
-96.89781515667039,4639
-94.40017733334128,4729
-91.90323024319173,3908
-89.40697369289148,2927
-86.91140748903172,2551
-84.41653143812482,2729
-81.92234534660395,3140
-79.42884902082358,4053
-76.93604226705907,7115
-74.4439248915071,12069
-71.95249670028534,15647
-69.46175749943245,16345
-66.97170709490854,15513
-64.48234529259423,12351
-61.99367189829195,8891
-59.50568671772464,7343
-57.01838955653636,7908
-54.53178022029283,8081
-52.045858514480074,7525
-49.560624244506016,8045
-47.07607721569923,9096
-44.59221723330904,8902
-42.10904410250669,8091
-39.62655762838392,6642
-37.14475761595372,5927
-34.66364387015028,5190
-32.18321619582866,5392
-29.70347439776515,6466
-27.224418280657005,7286
-24.74604764912317,9033
-22.26836230770266,15754
-19.7913620608565,34306
-17.315046712966478,65040
-14.83941606833514,65040
-12.36446993118659,65040
-9.89020810566592,65040
-7.416630395839093,65040
-4.94373660569363,65040
-2.471526539137585,65040
-6.821210263296962E-13,65040
2.47084320796705,65040
4.941003281093458,65040
7.410480415786196,65040
9.879274808531363,65040
12.347386655893956,65040
14.814816154518212,65040
17.28156350112681,65040
19.74762889252179,65040
22.21301252558385,20127
24.67771459727237,3187
27.141735304626195,1912
29.605074844762612,1543
32.06773341487792,1421
34.52971121224755,1573
36.99100843422559,1620
39.45162527824516,1455
41.91156194181792,1358
44.370818622535126,1177
46.82939551806646,1154
49.287292826160524,1209
51.74451074464503,1337
54.201049471426245,1225
56.65690920448981,1014
59.112090141899785,1007
61.56659248179983,1095
64.02041642241159,1024
66.4735621620365,1053
68.92602989905402,992
71.37781983192338,1102
73.82893215918205,1067
76.27936707944684,996
78.72912479141326,941
81.17820549385567,1001
83.62660938562783,1048
86.07433666566146,998
88.5213875329681,789
90.96776218663751,829
93.41346082583925,920
95.85848364982041,983
98.30283085790859,957
100.7465026495089,885
103.18949922410604,797
105.63182078126385,803
108.07346752062438,870
110.51443964190923,892
112.95473734491827,759
115.39436082953114,777
117.83331029570547,763
120.27158594347827,766
122.7091879729652,777
125.1461165843615,819
127.58237197794062,760
130.01795435405518,701
132.4528639131364,827
134.88710085569494,832
137.32066538231982,773
139.75355769367923,804
142.1857779905207,811
144.61732647366978,800
147.04820334403132,883
149.47840880258934,960
151.90794305040674,1061
154.33680628862487,1333
156.76499871846443,1605
159.19252054122433,1967
161.61937195828352,2466
164.04555317109896,2908
166.47106438120693,3361
168.89590579022217,3894
171.320077599839,4224
173.7435800118302,4549
176.16641322804742,4857
178.58857745042144,5102
181.01007288096173,5534
183.43089972175687,5744
185.85105817497413,6199
188.27054844285988,6482
190.6893707277394,6663
193.10752523201643,7094
195.5250121581745,7188
197.9418317087751,7402
200.3579840864594,7524
202.7734694939469,7665
205.18828813403627,7676
207.6024402096051,7814
210.01592592360964,7913
212.42874547908548,8143
214.84089907914665,8054
217.2523869269868,7877
219.66320922587727,7894
222.0733661791695,7958
224.48285799029293,8274
226.8916848627572,8277
229.29984700014882,8247
231.7073446061355,8322
234.11417788446204,8321
236.520347038953,8361
238.92585227351185,8281
241.33069379212054,8257
243.73487179884035,8334
246.1383864978112,8345
248.541238093252,8394
250.9434267894609,8294
253.34495279081432,8416
255.74581630176783,8433
258.1460175268563,8177
260.54555667069314,8377
262.9444339379703,8261
265.3426495334594,8434
267.7402036620107,8402
270.1370965285529,8421
272.53332833809407,8380
274.9288992957214,8429
277.32380960660055,8415
279.718059475976,8307
282.1116491091717,8263
284.5045787115897,8446
286.89684848871195,8553
289.2884586460981,8337
291.67940938938807,8321
294.0697009242996,8398
296.4593334566299,8529
298.84830719225477,8502
301.23662233712923,8463
303.6242790972866,8533
306.01127767884,8490
308.39761828798066,8526
310.78330113097934,8522
313.16832641418534,8448
315.5526943440269,8474
317.9364051270112,8625
320.3194589697242,8468
322.70185607883093,8619
325.0835966610754,8505
327.4646809232805,8549
329.8451090723478,8409
332.2248813152577,8410
334.6039978590701,8448
336.9824589109231,8403
339.36026467803447,8464
341.7374153677,8482
344.113911187295,8676
346.48975234427337,8522
348.8649390461686,8468
351.2394715005918,8663
353.61334991523415,8572
355.9865744978655,8575
358.35914545633375,8505
360.73106299856715,8633
363.10232733257146,8641
365.47293866643247,8461
367.84289720831396,8390
370.2122031664593,8611
372.5808567491905,8583
374.9488581649083,8751
377.31620762209275,8732
379.6829053293021,8628
382.0489514951745,8384
384.4143463284262,8580
386.7790900378528,8537
389.14318283232853,8555
391.50662492080653,8656
393.86941651231916,8671
396.23155781597745,8599
398.5930490409713,8553
400.9538903965696,8611
403.3140820921202,8616
405.6736243370498,8641
408.03251734086336,8660
410.3907613131465,8737
412.74835646356166,8672
415.10530300185144,8563
417.4616011378372,8577
419.81725108141893,8626
422.1722530425758,8721
424.5266072313656,8587
426.880313857925,8741
429.2333731324701,8672
431.58578526529516,8840
433.9375504667738,8762
436.2886689473588,8748
438.63914091758113,8664
440.9889665880513,8529
443.33814616945835,8519
445.68667987257015,8447
448.03456790823395,8497
450.3818104873759,8617
452.72840782100013,8572
455.07436012019105,8725
457.41966759611057,8699
459.7643304600007,8853
462.10834892318155,8790
464.4517231970525,8725
466.79445349309174,8907
469.1365400228566,8836
471.4779829979826,8855
473.81878263018564,8784
476.15893913125876,8637
478.4984527130747,8985
480.8373235875855,8764
483.17555196682144,8801
485.5131380628919,8868
487.8500820879857,8855
490.1863842543697,8939
492.52204477439034,9205
494.8570638604725,9302
497.1914417251204,9354
499.52517858091653,9547
501.85827464052306,9900
504.19073011668036,9900
506.5225452222086,9982
508.85372017000566,9705
511.18425517304956,9919
513.514150444396,10259
515.8434061971808,10993
518.1720226446176,11787
520.4999999999999,11886
522.8273384766991,11700
525.1540382881666,11425
527.480099647932,10758
529.8055227696037,10252
532.1303078668694,9663
534.454455153496,9401
536.777964843328,9437
539.1008371502907,9265
541.4230722883866,9188
543.744670471698,9240
546.0656319143858,9291
548.3859568306899,9023
550.7056454349294,9021
553.0246979415016,9105
555.3431145648834,9167
557.6608955196306,9249
559.978041020377,9111
562.2945512818363,9002
564.6104265188006,9042
566.9256669461412,9214
569.2402727788082,9289
571.5542442318302,9132
573.8675815203156,9201
576.1802848594508,9191
578.4923544645015,9294
580.8037905508126,9242
583.114593333807,9191
585.4247630289875,9460
587.7342998519354,9326
590.0432040183106,9322
592.3514757438526,9405
594.6591152443794,9249
596.9661227357875,9389
599.2724984340531,9520
601.578242555231,9277
603.8833553154542,9396
606.1878369309362,9297
608.4916876179676,9398
610.7949075929192,9452
613.0974970722403,9362
615.3994562724587,9338
617.7007854101818,9469
620.0014847020951,9498
622.3015543649641,9487
624.6009946156324,9431
626.8998056710224,9417
629.1979877481361,9362
631.4955410640538,9330
633.7924658359349,9606
636.0887622810175,9555
638.3844306166192,9478
640.6794710601358,9559
642.9738838290426,9575
645.2676691408932,9702
647.5608272133207,9559
649.853358264037,9430
652.1452625108324,9799
654.4365401715764,9591
656.7271914642178,9549
659.0172166067838,9593
661.3066158173809,9660
663.5953893141935,9704
665.8835373154867,9701
668.1710600396028,9759
670.4579577049639,9708
672.7442305300709,9836
675.0298787335033,9689
677.3149025339197,9669
679.599302150058,9759
681.8830778007342,9685
684.1662297048437,9857
686.4487580813608,9694
688.7306631493387,9829
691.0119451279091,9843
693.2926042362834,9682
695.5726406937516,9872
697.8520547196814,9597
700.1308465335215,9914
702.4090163547982,9926
704.6865644031171,9736
706.9634908981619,9834
709.2397960596965,9759
711.5154801075631,9617
713.7905432616823,9704
716.0649857420548,9834
718.3388077687592,9789
720.612009561953,9995
722.8845913418733,9900
725.1565533288352,9891
727.427895743234,9955
729.6986188055427,10059
731.9687227363137,10088
734.238207756178,9979
736.5070740858458,10123
738.7753219461066,10052
741.0429515578281,9949
743.3099631419569,10024
745.5763569195191,9975
747.8421331116193,10193
750.1072919394409,10050
752.3718336242467,9983
754.6357583873777,10166
756.8990664502545,10105
759.1617580343765,10100
761.423833361321,9969
763.6852926527457,10071
765.9461361303862,9987
768.206364016058,10165
770.4659765316536,10020
772.7249738991469,10105
774.9833563405886,9986
777.2411240781092,10160
779.4982773339183,10050
781.7548163303044,10076
784.010741289634,10318
786.2660524343538,10018
788.5207499869881,10135
790.7748341701416,10242
793.0283052064964,10268
795.2811633188143,10209
797.5334087299362,10291
799.7850416627813,10407
802.0360623403484,10367
804.2864709857143,10394
806.5362678220353,10150
808.7854530725468,10295
811.0340269605625,10462
813.2819897094754,10217
815.5293415427581,10299
817.77608268396,10311
820.0222133567116,10460
822.2677337847211,10425
824.5126441917765,10159
826.7569448017433,10380
829.0006358385675,10336
831.2437175262731,10424
833.4861900889629,10324
835.7280537508192,10141
837.9693087361026,10329
840.2099552691533,10381
842.4499935743896,10406
844.689423876309,10394
846.9282463994886,10290
849.1664613685833,10302
851.4040690083276,10496
853.6410695435349,10409
855.877463199097,10388
858.1132501999847,10386
860.3484307712487,10460
862.5830051380175,10427
864.8169735254988,10447
867.0503361589791,10325
869.2830932638243,10359
871.5152450654786,10581
873.7467917894654,10532
875.9777336613873,10547
878.2080709069252,10446
880.4378037518389,10633
882.666932421968,10477
884.8954571432301,10410
887.1233781416219,10560
889.3506956432192,10498
891.5774098741766,10506
893.803521060728,10573
896.0290294291852,10604
898.2539352059397,10517
900.4782386174619,10538
902.7019398903011,10596
904.925039251085,10698
907.147536926521,10837
909.3694331433943,10680
911.59072812857,10684
913.8114221089921,10715
916.0315153116827,10484
918.2510079637437,10645
920.4699002923547,10584
922.6881925247761,10543
924.905884888345,10560
927.1229776104793,10473
929.3394709186747,10584
931.555365040506,10549
933.7706602036275,10625
935.9853566357709,10744
938.1994545647489,10491
940.4129542184515,10761
942.6258558248488,10412
944.8381596119883,10619
947.0498658079974,10607
949.2609746410825,10592
951.4714863395287,10630
953.6814011316998,10880
955.8907192460387,10747
958.0994409110671,10682
960.3075663553858,10846
962.5150958076741,10884
964.7220294966913,10681
966.928367651274,10632
969.1341105003388,10792
971.3392582728806,10787
973.5438111979742,10777
975.747769504772,10907
977.9511334225061,10737
980.153903180487,10881
982.3560790081052,10735
984.5576611348289,10835
986.7586497902058,10921
988.9590452038618,10908
991.158847605503,10895
993.3580572249133,10554
995.5566742919558,10813
997.7546990365728,10760
999.952131688785,10685
1002.1489724786926,10693
1004.3452216364743,10842
1006.5408793923874,10803
1008.7359459767691,10586
1010.9304216200343,10713
1013.1243065526781,10710
1015.3176010052733,10618
1017.510305208472,10619
1019.7024193930064,10654
1021.8939437896848,10669
1024.0848786293977,10824
1026.2752241431122,10612
1028.4649805618747,10774
1030.6541481168115,10744
1032.842727039127,10554
1035.0307175601051,10683
1037.2181199111074,10691
1039.4049343235752,10697
1041.591161029029,10623
1043.7768002590683,10717
1045.9618522453698,10762
1048.1463172196918,10724
1050.3301954138697,10780
1052.513487059818,11039
1054.69619238953,10763
1056.8783116350783,10705
1059.0598450286152,10966
1061.2407928023704,10797
1063.4211551886528,10835
1065.6009324198508,10769
1067.780124728432,10829
1069.9587323469414,10783
1072.1367555080046,10967
1074.314194444325,11046
1076.4910493886855,10896
1078.667320573947,10993
1080.843008233051,10818
1083.0181125990161,10796
1085.1926339049414,10747
1087.3665723840027,10822
1089.5399282694575,10799
1091.7127017946405,10858
1093.8848931929647,10822
1096.0565026979243,10894
1098.2275305430899,10763
1100.3979769621128,10974
1102.567842188722,10890
1104.737126456726,10844
1106.9058300000124,10889
1109.0739530525475,10887
1111.2414958483764,10963
1113.4084586216231,10842
1115.5748416064907,10918
1117.7406450372605,10816
1119.9058691482942,10757
1122.0705141740304,11016
1124.2345803489884,10986
1126.3980679077658,10957
1128.5609770850388,10982
1130.7233081155623,11026
1132.8850612341707,11119
1135.0462366757774,11084
1137.2068346753745,10983
1139.3668554680326,10922
1141.526299288901,11071
1143.68516637321,11274
1145.8434569562655,11195
1148.001171273455,11264
1150.158309560244,11036
1152.3148720521767,11178
1154.470858984876,11118
1156.626270594044,11067
1158.7811071154629,10953
1160.9353687849912,11038
1163.089055838569,11146
1165.242168512213,11159
1167.3947070420209,11009
1169.5466716641677,11068
1171.6980626149075,10988
1173.8488801305748,10935
1175.9991244475814,10918
1178.1487958024186,11090
1180.2978944316555,10919
1182.4464205719428,10956
1184.5943744600072,11036
1186.7417563326567,11076
1188.8885664267755,10982
1191.0348049793297,11016
1193.1804722273619,10847
1195.325568407995,11035
1197.4700937584303,11100
1199.614048515948,11096
1201.7574329179074,10967
1203.900247201746,11094
1206.042491604982,10989
1208.1841663652099,11069
1210.3252717201053,11315
1212.465807907422,11255
1214.6057751649923,11327
1216.7451737307279,11194
1218.8840038426192,11377
1221.0222657387353,11326
1223.1599596572241,11259
1225.2970858363137,11217
1227.4336445143094,11316
1229.5696359295966,11224
1231.705060320639,11376
1233.8399179259786,11240
1235.9742089842384,11398
1238.107933734118,11500
1240.2410924143974,11398
1242.373685263935,11339
1244.5057125216676,11385
1246.6371744266116,11204
1248.7680712178621,11246
1250.898403134593,11366
1253.028170416058,11399
1255.1573733015875,11433
1257.2860120305932,11474
1259.4140868425648,11388
1261.54159797707,11286
1263.6685456737569,11122
1265.7949301723515,11352
1267.9207517126597,11149
1270.046010534565,11483
1272.1707068780306,11187
1274.2948409830983,11364
1276.4184130898889,11432
1278.541423438603,11534
1280.6638722695184,11291
1282.785759822993,11329
1284.9070863394636,11564
1287.0278520594447,11479
1289.1480572235314,11581
1291.2677020723963,11711
1293.3867868467923,11612
1295.5053117875495,11665
1297.623277135579,11538
1299.740683131868,11730
1301.8575300174857,11687
1303.973818033578,11519
1306.0895474213703,11567
1308.2047184221678,11774
1310.3193312773528,11761
1312.4333862283888,11848
1314.5468835168163,11908
1316.659823384255,11788
1318.7722060724045,11907
1320.8840318230418,11881
1322.9953008780249,11800
1325.1060134792888,11715
1327.2161698688478,12025
1329.3257702887959,11996
1331.4348149813054,11854
1333.5433041886276,11844
1335.6512381530933,11851
1337.7586171171101,11698
1339.8654413231675,11660
1341.9717110138317,11768
1344.0774264317488,11887
1346.1825878196432,11681
1348.2871954203192,11700
1350.3912494766587,11743
1352.4947502316231,11870
1354.5976979282532,11866
1356.7000928096686,11724
1358.8019351190665,11903
1360.9032250997243,11934
1363.0039629949988,11756
1365.1041490483235,11729
1367.2037835032133,11912
1369.3028666032606,11763
1371.401398592137,11820
1373.4993797135926,11855
1375.5968102114575,11992
1377.6936903296396,12146
1379.7900203121262,11989
1381.8858004029835,11837
1383.9810308463561,12055
1386.075711886469,12049
1388.1698437676241,11985
1390.2634267342032,12020
1392.356461030667,11926
1394.4489469015557,12144
1396.5408845914872,12137
1398.6322743451592,12061
1400.7231164073469,12193
1402.813411022907,12228
1404.903158436773,11965
1406.9923588939578,11976
1409.0810126395531,11945
1411.1691199187303,11994
1413.2566809767386,12092
1415.343696058907,11970
1417.4301654106425,12104
1419.5160892774315,11903
1421.6014679048399,12004
1423.6863015385125,11823
1425.7705904241707,12019
1427.8543348076178,12026
1429.9375349347342,12042
1432.0201910514802,11871
1434.102303403894,12017
1436.1838722380944,12017
1438.2648978002767,12082
1440.3453803367174,12211
1442.4253200937692,12171
1444.5047173178677,12104
1446.5835722555234,12241
1448.6618851533285,12059
1450.739656257952,12125
1452.8168858161434,12119
1454.8935740747306,12122
1456.96972128062,12198
1459.045327680797,12337
1461.120393522327,12358
1463.1949190523528,12040
1465.2689045180973,12335
1467.3423501668608,12481
1469.415256246024,12419
1471.4876230030463,12533
1473.559450685465,12364
1475.6307395408976,12248
1477.7014898170391,12504
1479.771701761665,12389
1481.8413756226287,12350
1483.9105116478618,12641
1485.9791100853772,12520
1488.0471711832643,12492
1490.1146951896926,12343
1492.1816823529098,12357
1494.2481329212433,12384
1496.3140471430984,12617
1498.3794252669609,12476
1500.4442675413939,12447
1502.5085742150404,12648
1504.572345536622,12602
1506.6355817549388,12524
1508.6982831188702,12503
1510.7604498773744,12550
1512.8220822794883,12525
1514.8831805743293,12627
1516.9437450110909,12667
1519.003775839048,12572
1521.0632733075522,12611
1523.1222376660367,12639
1525.1806691640113,12751
1527.2385680510652,12807
1529.2959345768668,12662
1531.3527689911643,12938
1533.4090715437833,12903
1535.4648424846291,13013
1537.5200820636855,13047
1539.5747905310159,12832
1541.6289681367616,13031
1543.6826151311434,12973
1545.7357317644614,12986
1547.7883182870937,13059
1549.8403749494987,13228
1551.8919020022113,13118
1553.9428996958477,13089
1555.9933682811015,13188
1558.0433080087469,13114
1560.0927191296346,13195
1562.1416018946961,13246
1564.1899565549415,13147
1566.2377833614592,12976
1568.2850825654164,13272
1570.3318544180606,12896
1572.3780991707158,13236
1574.423817074788,13028
1576.4690083817595,13102
1578.5136733431923,12765
1580.5578122107272,12995
1582.601425236085,12944
1584.6445126710646,12781
1586.6870747675434,12433
1588.7291117774776,12645
1590.7706239529034,12550
1592.8116115459347,12311
1594.8520748087658,12505
1596.8920139936686,12353
1598.9314293529933,12488
1600.9703211391711,12549
1603.008689604711,12344
1605.0465350022005,12201
1607.0838575843068,12269
1609.1206576037753,12271
1611.1569353134305,12530
1613.1926909661765,12212
1615.2279248149953,12396
1617.2626371129481,12424
1619.2968281131757,12393
1621.3304980688963,12351
1623.3636472334088,12006
1625.39627586009,12189
1627.428384202396,12290
1629.459972513861,12431
1631.4910410480993,12433
1633.5215900588028,12206
1635.551619799744,12455
1637.5811305247717,12364
1639.6101224878166,12410
1641.6385959428862,12195
1643.6665511440683,12474
1645.693988345528,12262
1647.7209078015112,12378
1649.7473097663405,12398
1651.7731944944203,12325
1653.7985622402307,12132
1655.823413258333,12116
1657.847747803366,12243
1659.8715661300494,12312
1661.8948684931793,12209
1663.9176551476316,12321
1665.9399263483624,12128
1667.9616823504057,12132
1669.982923408873,12233
1672.0036497789574,12117
1674.0238617159293,12002
1676.043559475138,12088
1678.0627433120121,12120
1680.081413482059,12262
1682.0995702408654,12233
1684.117213844096,12079
1686.134344547495,12034
1688.1509626068864,11921
1690.1670682781705,12166
1692.182661817329,11856
1694.1977434804217,12265
1696.2123135235875,12244
1698.226372203043,12131
1700.2399197750851,12023
1702.2529564960905,11960
1704.2654826225112,12286
1706.277498410882,12296
1708.2890041178139,12171
1710.2999999999988,12342
1712.3104863142066,12267
1714.3204633172854,12223
1716.329931266163,12268
1718.3388904178469,12231
1720.3473410294214,12286
1722.3552833580516,12321
1724.3627176609807,12341
1726.3696441955308,12295
1728.3760632191033,12213
1730.3819749891782,12289
1732.3873797633146,12233
1734.3922777991502,12083
1736.3966693544012,12244
1738.4005546868639,12202
1740.4039340544127,12017
1742.406807715001,12162
1744.4091759266616,12198
1746.4110389475054,12181
1748.4123970357223,12218
1750.413250449582,12214
1752.4135994474318,12131
1754.4134442876993,11883
1756.4127852288902,12137
1758.4116225295893,12287
1760.4099564484595,12260
1762.407787244244,12081
1764.405115175764,11943
1766.4019405019203,12184
1768.3982634816916,12236
1770.3940843741357,12255
1772.3894034383907,12230
1774.3842209336717,12164
1776.378537119274,12116
1778.372352254571,12114
1780.3656665990156,12133
1782.3584804121397,12034
1784.3507939535534,12089
1786.3426074829463,12154
1788.3339212600863,12264
1790.3247355448211,11993
1792.3150505970766,12342
1794.3048666768573,12063
1796.2941840442477,12134
1798.2830029594106,12066
1800.2713236825884,12205
1802.2591464741004,12136
1804.2464715943465,12326
1806.2332993038058,12171
1808.2196298630352,12238
1810.2054635326708,12445
1812.190800573428,12281
1814.175641246101,12422
1816.1599858115628,12419
1818.1438345307652,12398
1820.127187664738,12431
1822.1100454745924,12570
1824.092408221516,12320
1826.0742761667766,12414
1828.055649571721,12314
1830.0365286977735,12331
1832.0169138064398,12266
1833.9968051593014,12204
1835.9762030180214,12573
1837.9551076443408,12340
1839.9335193000788,12254
1841.9114382471344,12212
1843.888864747485,12157
1845.8657990631878,12309
1847.842241456378,12409
1849.8181921892697,12273
1851.7936515241558,12173
1853.7686197234098,12244
1855.7430970494815,12342
1857.7170837649014,12135
1859.6905801322787,12207
1861.6635864143004,12312
1863.6361028737338,12117
1865.608129773424,12340
1867.5796673762961,12497
1869.5507159453537,12386
1871.521275743678,12433
1873.4913470344313,12278
1875.4609300808534,12285
1877.4300251462632,12323
1879.3986324940588,12359
1881.366752387717,12276
1883.3343850907936,12440
1885.3015308669228,12317
1887.268189979819,12418
1889.2343626932739,12513
1891.2000492711595,12486
1893.1652499774254,12576
1895.1299650761011,12511
1897.0941948312952,12442
1899.0579395071945,12552
1901.0211993680641,12507
1902.98397467825,12505
1904.9462657021745,12333
1906.9080727043415,12506
1908.869395949332,12385
1910.8302357018065,12552
1912.790592226504,12549
1914.7504657882428,12098
1916.7098566519212,12256
1918.6687650825133,12653
1920.6271913450764,12426
1922.5851357047422,12444
1924.5425984267245,12428
1926.499579776314,12555
1928.4560800188833,12458
1930.4120994198802,12256
1932.367638244833,12427
1934.32269675935,12398
1936.2772752291175,12389
1938.231373919899,12369
1940.1849930975404,12572
1942.1381330279637,12785
1944.0907939771696,12566
1946.0429762112412,12381
1947.9946799963363,12471
1949.9459055986945,12443
1951.896653284633,12269
1953.8469233205478,12548
1955.7967159729142,12439
1957.7460315082863,12525
1959.6948701932974,12488
1961.6432322946594,12613
1963.5911180791632,12506
1965.5385278136787,12582
1967.4854617651545,12721
1969.4319202006182,12582
1971.377903387176,12644
1973.3234115920136,12798
1975.268445082395,12756
1977.2130041256642,12493
1979.1570889892423,12595
1981.1006999406304,12645
1983.04383724741,12580
1984.986501177238,12660
1986.928691997853,12731
1988.8704099770712,12693
1990.811655382789,12482
1992.7524284829801,12721
1994.692729545698,12698
1996.6325588390755,12547
1998.5719166313224,12761
2000.5108031907307,12611
2002.4492187856677,12623
2004.387163684583,12748
2006.3246381560011,12483
2008.2616424685298,12824
2010.1981768908527,12570
2012.1342416917332,12643
2014.069837140014,12595
2016.0049635046162,12623
2017.9396210545406,12617
2019.8738100588666,12605
2021.8075307867502,12638
2023.740783507431,12532
2025.6735684902228,12546
2027.6058860045214,12490
2029.5377363198004,12449
2031.4691197056118,12616
2033.4000364315875,12674
2035.3304867674374,12636
2037.260470982952,12444
2039.189989347998,12865
2041.1190421325232,12679
2043.047629606554,12671
2044.9757520401945,12786
2046.9034097036288,12733
2048.8306028671195,12610
2050.7573318010086,12906
2052.683596775716,12812
2054.609398061742,12644
2056.5347359296647,12759
2058.4596106501403,12875
2060.384022493906,12892
2062.3079717317764,12824
2064.231458634646,13018
2066.1544834734873,12929
2068.077046519352,12816
2069.99914804337,12857
2071.9207883167524,12817
2073.8419676107865,12769
2075.7626861968406,12727
2077.6829443463607,13077
2079.6027423308715,12796
2081.522080421977,13136
2083.440958891362,13044
2085.359378010786,12903
2087.2773380520907,12896
2089.194839287196,13032
2091.111881988101,12949
2093.0284664268825,12903
2094.9445928756973,13088
2096.86026160678,13216
2098.775472892446,13092
2100.690227005088,13127
2102.604524217178,12966
2104.5183648012676,12995
2106.431749029985,13102
2108.34467717604,13153
2110.2571495122206,12927
2112.169166311393,13019
2114.080727846503,13184
2115.9918343905747,13059
2117.902486216711,12949
2119.8126835980956,13165
2121.722426807987,13127
2123.6317161197285,13361
2125.5405518067364,13169
2127.448934142509,13232
2129.356863400624,13059
2131.264339854737,13265
2133.1713637785815,13191
2135.077935445972,13544
2136.9840551308002,13323
2138.889723107037,13138
2140.7949396487334,13203
2142.699705030018,13405
2144.6040195250994,13266
2146.507883408264,13220
2148.4112969538774,13303
2150.3142604363848,13419
2152.2167741303097,13327
2154.1188383102535,13331
2156.0204532508997,13387
2157.9216192270064,13499
2159.822336513414,13493
2161.7226053850413,13521
2163.622426116884,13364
2165.5217989840185,13349
2167.4207242616,13312
2169.319202224862,13373
2171.2172331491165,13555
2173.1148173097563,13499
2175.0119549822507,13228
2176.90864644215,13446
2178.8048919650823,13566
2180.7006918267534,13554
2182.596046302952,13521
2184.4909556695407,13239
2186.3854202024645,13416
2188.279440177746,13635
2190.173015871487,13462
2192.066147559868,13434
2193.958835519149,13754
2195.851080025667,13627
2197.7428813558417,13580
2199.6342397861667,13630
2201.5251555932186,13643
2203.415629053651,13550
2205.3056604441986,13499
2207.19525004167,13652
2209.084398122958,13840
2210.9731049650327,13929
2212.861370844941,13558
2214.749196039812,13703
2216.636580826851,13730
2218.523525483344,13668
2220.410030286655,13828
2222.296095514226,13585
2224.1817214435805,13786
2226.066908352319,13710
2227.951656518121,13606
2229.835966218746,13827
2231.71983773203,13752
2233.6032713358913,13722
2235.486267308324,13752
2237.3688259274036,13716
2239.2509474712824,13674
2241.132632218193,13760
2243.013880446447,13771
2244.8946924344323,13613
2246.7750684606203,13767
2248.6550088035574,13563
2250.534513741871,13684
2252.413583554265,13774
2254.292218519526,13540
2256.170418916517,13556
2258.0481850241786,13578
2259.925517121534,13672
2261.8024154876825,13549
2263.678880401803,13344
2265.5549121431536,13510
2267.430510991071,13631
2269.305677224971,13613
2271.180411124348,13537
2273.0547129687766,13573
2274.9285830379076,13546
2276.8020216114737,13580
2278.6750289692845,13787
2280.5476053912294,13604
2282.4197511572766,13637
2284.2914665474727,13470
2286.162751841943,13704
2288.0336073208937,13638
2289.904033264608,13674
2291.774029953448,13738
2293.6435976678554,13432
2295.5127366883517,13528
2297.381447295534,13651
2299.2497297700825,13531
2301.1175843927526,13770
2302.9850114443825,13597
2304.852011205885,13629
2306.7185839582553,13541
2308.5847299825664,13828
2310.4504495599676,13518
2312.3157429716925,13594
2314.1806104990483,13575
2316.0450524234247,13671
2317.9090690262888,13494
2319.772660589186,13553
2321.635827393742,13662
2323.498569721661,13714
2325.3608878547248,13688
2327.2227820747967,13610
2329.0842526638157,13653
2330.945299903803,13708
2332.805924076857,13786
2334.6661254651535,13583
2336.525904350951,13724
2338.3852610165827,13648
2340.244195744464,13399
2342.102708817088,13739
2343.9608005170253,13800
2345.8184711269287,13649
2347.675720929526,13697
2349.532550207628,13527
2351.38895924412,13706
2353.24494832197,13701
2355.100517724223,13761
2356.955667734004,13601
2358.810398634514,13728
2360.664710709037,13604
2362.5186042409337,13654
2364.3720795136437,13629
2366.225136810686,13640
2368.0777764156583,13849
2369.929998612237,13571
2371.7818036841777,13747
2373.633191915315,13551
2375.484163589562,14081
2377.3347189909114,13722
2379.184858403434,13816
2381.03458211128,13704
2382.8838903986775,13729
2384.732783549936,13756
2386.5812618494406,13637
2388.4293255816588,13639
2390.2769750311327,13774
2392.1242104824883,13755
2393.971032220427,13726
2395.8174405297295,13842
2397.6634356952563,13895
2399.509018001947,13790
2401.3541877348193,13897
2403.1989451789705,13871
2405.043290619576,13783
2406.8872243418905,13613
2408.730746631247,13726
2410.5738577730594,13641
2412.4165580528183,13743
2414.258847756095,13789
2416.100727168537,13919
2417.9421965758734,13906
2419.783256263912,13617
2421.623906518538,13922
2423.4641476257157,13689
2425.303979871491,13691
2427.143403541984,13803
2428.9824189233977,13722
2430.821026302012,13769
2432.6592259641866,13638
2434.497018196361,13846
2436.33440328505,13731
2438.171381516851,13735
2440.00795317844,13838
2441.844118556569,13844
2443.6798779380724,13938
2445.5152316098606,13780
2447.3501798589255,13833
2449.1847229723357,13778
2451.0188612372403,14093
2452.8525949408663,13843
2454.6859243705203,14020
2456.518849813587,14046
2458.3513715575314,14051
2460.183489889895,13889
2462.015205098301,14015
2463.8465174704493,13795
2465.67742729412,13822
2467.5079348571717,13721
2469.338040447542,14041
2471.1677443532476,14031
2472.9970468623833,13977
2474.825948263123,13988
2476.6544488437207,14014
2478.482548892508,13928
2480.310248697896,14097
2482.137548548374,13982
2483.9644487325118,13922
2485.790949538956,14020
2487.617051256433,14012
2489.44275417375,14122
2491.26805857979,13907
2493.0929647635157,14197
2494.917473013971,14261
2496.741583620276,14101
2498.5652968716304,13880
2500.3886130573137,14181
2502.2115324666834,14009
2504.0340553891765,14020
2505.856182114308,13938
2507.6779129316733,14105
2509.499248130945,14131
2511.3201880018764,14204
2513.140732834298,13996
2514.9608829181198,13868
2516.780638543331,14138
2518.6,14027
2520.418967578273,14151
2522.237541568376,14076
2524.0557222606144,14205
2525.8735099453706,14090
2527.6909049131086,13877
2529.507907454368,14099
2531.32451785977,13998
2533.140736420014,14286
2534.9565634258774,14251
2536.771999168218,14210
2538.5870439379714,14183
2540.4016980261526,14228
2542.2159617238544,14329
2544.02983532225,14389
2545.8433191125914,14381
2547.656413386209,14355
2549.4691184345115,14285
2551.2814345489874,14387
2553.093362021204,14299
2554.904901142808,14363
2556.716052205523,14428
2558.526815501153,14258
2560.3371913215824,14106
2562.147179958771,14158
2563.956781704761,14111
2565.7659968516705,14257
2567.5748256916986,14218
2569.3832685171224,14144
2571.1913256202984,14308
2572.9989972936614,14225
2574.806283829725,14187
2576.613185521084,14129
2578.4197026604074,14343
2580.2258355404483,14363
2582.031584454035,14100
2583.836949694077,14047
2585.6419315535613,14276
2587.4465303255533,14108
2589.2507463032002,14236
2591.0545797797245,14351
2592.8580310484303,14216
2594.6611004026995,14323
2596.463788135992,14264
2598.266094541849,14345
2600.0680199138874,14055
2601.869564545807,14298
2603.670728731383,14374
2605.4715127644704,14025
2607.2719169390048,14444
2609.071941548998,14443
2610.8715868885433,14279
2612.670853251811,14429
2614.469740933052,14069
2616.268250226594,14258
2618.0663814268455,14519
2619.864134828292,14267
2621.6615107255006,14351
2623.458509413115,14184
2625.2551311858597,14178
2627.0513763385347,14117
2628.8472451660223,14351
2630.6427379632833,14153
2632.4378550253564,14289
2634.232596647359,14499
2636.026963124488,14395
2637.8209547520187,14161
2639.6145718253065,14563
2641.407814639785,14207
2643.200683490966,14416
2644.9931786744414,14357
2646.7853004858807,14250
2648.577049221034,14439
2650.3684251757277,14426
2652.1594286458712,14295
2653.9500599274484,14338
2655.740319316525,14351
2657.5302071092437,14383
2659.3197236018286,14281
2661.10886909058,14353
2662.8976438718782,14349
2664.686048242183,14265
2666.4740824980327,14372
2668.2617469360443,14327
2670.0490418529134,14606
2671.8359675454153,14559
2673.622524310403,14566
2675.408712444811,14442
2677.1945322456495,14316
2678.979984010009,14448
2680.76506803506,14160
2682.5497846180497,14316
2684.334134056306,14310
2686.1181166472343,14315
2687.9017326883213,14447
2689.6849824771293,14397
2691.4678663113013,14472
2693.2503844885596,14519
2695.032537306705,14359
2696.8143250636167,14343
2698.5957480572542,14421
2700.3768065856534,14216
2702.1575009469316,14511
2703.937831439283,14281
2705.717798360982,14286
2707.4974020103837,14473
2709.276642685917,14396
2711.055520686095,14341
2712.834036309506,14323
2714.612189854819,14424
2716.389981620782,14323
2718.1674119062204,14329
2719.944481010041,14252
2721.721189231226,14414
2723.4975368688415,14455
2725.273524222027,14329
2727.0491515900053,14352
2728.824419272075,14449
2730.5993275676146,14436
2732.3738767760838,14381
2734.148067197016,14519
2735.921899130031,14747
2737.6953728748194,14478
2739.468488731156,14520
2741.2412469988926,14284
2743.0136479779617,14091
2744.785691968372,14605
2746.5573792702116,14391
2748.3287101836504,14410
2750.099685008934,14359
2751.870304046388,14545
2753.640567596418,14607
2755.4104759595057,14500
2757.1800294362156,14445
2758.949228327187,14391
2760.7180729331412,14667
2762.486563554877,14303
2764.254700493272,14455
2766.022484049284,14411
2767.789914523947,14501
2769.5569922183786,14436
2771.3237174337705,14711
2773.090090471394,14396
2774.8561116326036,14416
2776.6217812188274,14500
2778.3870995315756,14694
2780.1520668724356,14477
2781.9166835430747,14370
2783.6809498452394,14441
2785.444866080754,14652
2787.2084325515225,14596
2788.971649559527,14397
2790.73451740683,14543
2792.4970363955713,14629
2794.2592068279705,14360
2796.0210290063264,14788
2797.7825032330147,14562
2799.543629810493,14529
2801.304409041296,14526
2803.0648412280366,14517
2804.8249266734088,14549
2806.5846656801846,14575
2808.344058551212,14549
2810.1031055894246,14773
2811.8618070978273,14737
2813.6201633795085,14868
2815.378174737636,14833
2817.1358414754536,14674
2818.893163896285,14882
2820.6501423035334,14658
2822.4067770006814,14630
2824.1630682912883,14750
2825.9190164789957,14827
2827.6746218675207,14842
2829.429884760661,14886
2831.184805462294,14885
2832.9393842763743,14842
2834.693621506936,15105
2836.4475174580916,14785
2838.201072434034,14622
2839.954286739034,14869
2841.707160677441,14784
2843.459694553685,14875
2845.2118886722724,14723
2846.96374333779,14799
2848.7152588549034,14886
2850.4664355283567,14855
2852.217273662973,15043
2853.9677735636546,14799
2855.7179355353833,14813
2857.4677598832186,14803
2859.217246912299,14852
2860.9663969278427,14809
2862.715210235146,14946
2864.4636871395846,14717
2866.211827946614,14633
2867.9596329617652,14780
2869.7071024906536,14773
2871.4542368389684,14616
2873.20103631248,14833
2874.947501217038,14780
2876.6936318585695,14805
2878.4394285430812,14678
2880.1848915766604,14649
2881.9300212654707,14685
2883.6748179157553,14771
2885.4192818338374,14838
2887.1634133261173,14862
2888.907212699077,14898
2890.6506802592744,14758
2892.393816313348,15000
2894.1366211680142,14949
2895.8790951300693,14828
2897.621238506388,15017
2899.363051603925,14847
2901.1045347297118,14895
2902.8456881908596,14967
2904.58651229456,14821
2906.327007348081,14899
2908.067173658772,14874
2909.8070115340597,14618
2911.5465212814497,14800
2913.285703208527,14783
2915.0245576229563,14578
2916.7630848324807,14619
2918.5012851449196,14588
2920.2391588681758,14577
2921.976706310227,14742
2923.7139277791334,14851
2925.4508235830313,14856
2927.187394030137,14774
2928.923639428745,15215
2930.6595600872306,14883
2932.395156314046,14930
2934.1304284177218,14984
2935.8653767068713,15008
2937.6000014901815,15051
2939.3343030764227,15091
2941.068281774442,15122
2942.8019378931644,15125
2944.5352717415976,15214
2946.2682836288236,15337
2948.0009738640065,15286
2949.7333427563885,15391
2951.465390615289,15111
2953.1971177501086,15089
2954.9285244703265,14988
2956.6596110855,15059
2958.3903779052657,15065
2960.1208252393385,15041
2961.8509533975125,14856
2963.5807626896617,14904
2965.3102534257378,14953
2967.0394259157715,15183
2968.768280469873,15099
2970.496817398232,15267
2972.2250370111146,15152
2973.952939618869,15206
2975.6805255319196,15130
2977.4077950607707,15279
2979.134748516006,15108
2980.861386208289,15210
2982.587708448359,15314
2984.313715547037,15358
2986.039407815222,15536
2987.764785563891,15291
2989.489849104102,15362
2991.2145987469908,15166
2992.9390348037705,15410
2994.6631575857346,15224
2996.3869674042576,15354
2998.1104645707887,15304
2999.83364939686,15099
3001.5565221940783,15208
3003.2790832741334,15067
3005.0013329487924,15113
3006.7232715298996,15116
3008.4448993293804,15343
3010.166216659239,15215
3011.887223831558,15151
3013.607921158498,15033
3015.3283089522993,15328
3017.0483875252826,15095
3018.7681571898443,15065
3020.4876182584626,14985
3022.2067710436927,15237
3023.9256158581707,15149
3025.644153014609,15235
3027.362382825801,15170
3029.0803056046193,15187
3030.797921664012,15293
3032.5152313170106,15093
3034.2322348767225,15521
3035.9489326563353,15444
3037.665324969115,15310
3039.3814121284063,15267
3041.097194447633,14957
3042.812672240299,15304
3044.5278458199855,15521
3046.2427155003525,15258
3047.9572815951406,15343
3049.671544418167,15397
3051.38550428333,15449
3053.0991615046073,15177
3054.812516396051,15103
3056.5255692717974,15034
3058.2383204460575,15197
3059.9507702331257,15132
3061.662918947372,15138
3063.3747669032446,15364
3065.0863144152736,15312
3066.7975617980674,15299
3068.508509366309,15356
3070.219157434767,15553
3071.9295063182844,15464
3073.639556331785,15439
3075.3493077902704,15439
3077.058761008821,15704
3078.7679163025964,15578
3080.476773986837,15464
3082.1853343768594,15181
3083.89359778806,15661
3085.6015645359153,15401
3087.3092349359786,15392
3089.016609303884,15379
3090.7236879553434,15202
3092.4304712061476,15368
3094.136959372166,15292
3095.843152769349,15475
3097.5490517137237,15456
3099.2546565213966,15613
3100.959967508554,15514
3102.66498499146,15518
3104.3697092864577,15425
3106.0741407099695,15684
3107.778279578498,15552
3109.482126208622,15541
3111.1856809170004,15620
3112.8889440203716,15693
3114.5919158355528,15503
3116.294596679439,15687
3117.996986869006,15439
3119.6990867213062,15685
3121.4008965534726,15730
3123.102416682717,15568
3124.803647426329,15790
3126.5045891016784,15709
3128.205242026213,15693
3129.90560651746,15909
3131.605682893025,15542
3133.3054714705922,15495
3135.0049725679282,15565
3136.7041865028714,15737
3138.4031135933465,15724
3140.101754157353,15484
3141.800108512971,15729
3143.498176978357,15719
3145.1959598717494,15819
3146.8934575114636,15552
3148.5906702158954,15477
3150.2875983035183,15801
3151.9842420928853,15637
3153.680601902627,15644
3155.376678051456,15442
3157.07247085816,15485
3158.767980641609,15507
3160.463207720748,15554
3162.158152414606,15550
3163.8528150422862,15562
3165.5471959229726,15992
3167.2412953759303,15786
3168.9351137204976,15884
3170.628651276098,15922
3172.3219083622307,15993
3174.014885298474,15924
3175.707582404485,16142
3177.4000000000005,15951
3179.092138404835,15875
3180.7839979388846,15986
3182.47557892212,15845
3184.166881674594,16116
3185.8579065164386,16025
3187.5486537678626,15864
3189.2391237491547,15988
3190.9293167806827,16022
3192.6192331828934,16088
3194.3088732763117,16068
3195.998237381542,15774
3197.687325819268,15978
3199.376138910251,15865
3201.064676975334,15808
3202.7529403354347,15854
3204.4409293115523,15934
3206.1286442247647,15697
3207.816085396229,15729
3209.5032531471825,15888
3211.190147798936,15564
3212.8767696728846,15819
3214.5631190905015,15735
3216.2491963733373,15512
3217.9350018430214,15653
3219.6205358212637,15527
3221.305798629851,15547
3222.990790590651,15731
3224.6755120256103,15659
3226.359963256751,15775
3228.0441446061795,15609
3229.7280563960758,15508
3231.411698948703,15875
3233.0950725863995,15843
3234.778177631587,15909
3236.461014406761,15905
3238.1435832345005,16045
3239.8258844374595,16025
3241.507918338374,15880
3243.1896852600576,16260
3244.8711855254023,16152
3246.552419457381,16178
3248.233387379042,16056
3249.914089613516,16020
3251.59452648401,16186
3253.274698313813,15964
3254.95460542629,15798
3256.6342481448855,15854
3258.313626793125,15617
3259.9927416946084,15720
3261.6715931730196,15857
3263.3501815521176,15653
3265.0285071557437,15775
3266.706570307815,15650
3268.3843713323286,15927
3270.0619105533615,15820
3271.739188295068,15882
3273.4162048816834,16111
3275.0929606375184,16072
3276.769455886966,16253
3278.445690954498,15885
3280.1216661646613,16205
3281.797381842087,16003
3283.4728383114807,16097
3285.1480358976296,16089
3286.8229749253996,15792
3288.4976557197333,16148
3290.172078605655,15843
3291.846243908266,15931
3293.5201519527463,15934
3295.193803064357,15683
3296.8671975684374,15851
3298.5403357904024,15676
3300.21321805575,15969
3301.8858446900567,16185
3303.558216018975,16054
3305.23033236824,16217
3306.9021940636603,16304
3308.57380143113,16356
3310.2451547966184,16258
3311.916254486174,16278
3313.5871008259246,16083
3315.2576941420766,16004
3316.9280347609147,15826
3318.5981230088046,15830
3320.2679592121895,15909
3321.9375436975924,15832
3323.606876791612,15804
3325.27595882093,16064
3326.944790112305,15919
3328.6133709925753,15836
3330.2817017886573,15815
3331.949782827547,16015
3333.617614436319,16131
3335.2851969421245,16256
3336.952530672199,16332
3338.619615953853,16411
3340.286453114475,16570
3341.9530424815357,16436
3343.619384382583,16549
3345.2854791452437,16488
3346.951327097224,16476
3348.6169285663073,16478
3350.2822838803577,16302
3351.947393367319,16239
3353.61225735521,16559
3355.2768761721345,16635
3356.9412501462693,16421
3358.605379605873,16439
3360.2692648792827,16277
3361.9329062949146,16335
3363.596304181263,16268
