CollectionTime,7/9/2024 4:59:02 PM
ExposureUsed,3
CalibratedSpectrum
-962.7078968117929,2339
-959.9714848408522,2536
-957.2358232597828,2510
-954.5009119013725,2420
-951.7667505983302,2483
-949.0333391832855,2518
-946.3006774887896,2523
-943.5687653473143,2525
-940.837602591253,2446
-938.1071890529199,2501
-935.3775245645503,2524
-932.6486089583007,2559
-929.9204420662485,2511
-927.1930237203925,2533
-924.4663537526524,2526
-921.7404319948689,2532
-919.0152582788041,2586
-916.2908324361409,2595
-913.5671542984834,2553
-910.8442236973568,2603
-908.1220404642074,2609
-905.4006044304027,2554
-902.679915427231,2544
-899.959973285902,2626
-897.2407778375464,2615
-894.5223289132158,2571
-891.8046263438832,2601
-889.0876699604426,2658
-886.3714595937089,2604
-883.6559950744183,2492
-880.9412762332282,2587
-878.2273029007168,2538
-875.5140749073835,2588
-872.8015920836489,2649
-870.0898542598545,2650
-867.3788612662631,2692
-864.6686129330585,2663
-861.9591090903457,2712
-859.2503495681506,2641
-856.5423341964203,2664
-853.8350628050229,2613
-851.1285352237478,2683
-848.4227512823054,2710
-845.7177108103272,2701
-843.0134136373656,2692
-840.3098595928943,2730
-837.6070485063082,2773
-834.9049802069229,2695
-832.2036545239757,2715
-829.5030712866244,2815
-826.8032303239481,2744
-824.1041314649472,2799
-821.4057745385428,2732
-818.7081593735775,2798
-816.0112857988148,2735
-813.3151536429393,2760
-810.6197627345566,2802
-807.9251129021936,2813
-805.2312039742981,2862
-802.5380357792392,2765
-799.8456081453069,2782
-797.1539209007124,2833
-794.462973873588,2869
-791.772766891987,2812
-789.083299783884,2876
-786.3945723771743,2808
-783.7065844996748,2866
-781.0193359791231,2849
-778.3328266431781,2896
-775.6470563194197,2860
-772.9620248353489,2834
-770.2777320183878,2879
-767.5941776958798,2877
-764.9113616950891,2940
-762.2292838432011,2923
-759.5479439673222,2805
-756.8673418944801,2990
-754.1874774516235,2886
-751.5083504656222,2915
-748.8299607632671,2951
-746.15230817127,2867
-743.475392516264,2831
-740.7992136248035,2956
-738.1237713233636,2866
-735.4490654383407,2949
-732.7750957960521,2990
-730.1018622227365,2903
-727.4293645445534,2947
-724.7576025875837,2916
-722.0865761778291,3000
-719.4162851412126,2932
-716.7467293035781,3078
-714.0779084906909,2990
-711.409822528237,2978
-708.7424712418238,3071
-706.0758544569796,3139
-703.4099719991541,3054
-700.7448236937178,3057
-698.0804093659622,3014
-695.4167288411002,3039
-692.7537819442656,3043
-690.0915685005134,3060
-687.4300883348199,3066
-684.7693412720819,3113
-682.1093271371178,3108
-679.4500457546669,3138
-676.7914969493897,3121
-674.1336805458676,3126
-671.4765963686034,3064
-668.8202442420206,3079
-666.1646239904642,3065
-663.5097354382001,3124
-660.8555784094151,3120
-658.2021527282176,3035
-655.5494582186366,3126
-652.8974947046223,3168
-650.2462620100463,3204
-647.5957599587009,3144
-644.9459883742998,3146
-642.2969470804776,3186
-639.6486359007902,3159
-637.0010546587141,3193
-634.3542031776476,3258
-631.7080812809096,3281
-629.0626887917401,3283
-626.4180255333008,3168
-623.7740913286734,3258
-621.1308860008619,3234
-618.4884093727904,3272
-615.8466612673046,3252
-613.2056415071715,3201
-610.5653499150785,3387
-607.9257863136347,3310
-605.28695052537,3295
-602.6488423727357,3271
-600.0114616781036,3278
-597.3748082637674,3309
-594.7388819519412,3382
-592.1036825647604,3475
-589.4692099242818,3427
-586.8354638524829,3322
-584.2024441712624,3393
-581.5701507024403,3398
-578.9385832677575,3481
-576.3077416888759,3386
-573.6776257873787,3448
-571.0482353847704,3399
-568.4195703024757,3372
-565.7916303618415,3355
-563.164415384135,3463
-560.5379251905453,3382
-557.9121596021815,3435
-555.2871184400748,3423
-552.6628015251767,3456
-550.0392086783606,3433
-547.4163397204204,3518
-544.794194472071,3505
-542.1727727539491,3469
-539.5520743866118,3534
-536.9320991905377,3576
-534.3128469861261,3547
-531.6943175936979,3577
-529.0765108334947,3579
-526.4594265256793,3599
-523.8430644903358,3691
-521.2274245474689,3900
-518.612506517005,3836
-515.9983102187913,3881
-513.3848354725959,3824
-510.77208209810846,3848
-508.16004991493924,3859
-505.5487387426199,4080
-502.9381484006032,4116
-500.3282787082628,4074
-497.71912948489364,4049
-495.1107005497117,3984
-492.5029917218539,3890
-489.8960028203786,3831
-487.28973366426493,3735
-484.68418407241325,3800
-482.07935386364494,3754
-479.47524285670266,3756
-476.87185087025,3719
-474.2691777228715,3870
-471.66722323307334,3734
-469.0659872192821,3745
-466.4654694998459,3701
-463.86566989303384,3909
-461.26658821703614,3870
-458.66822428996414,3813
-456.07057792985,3735
-453.4736489546475,3822
-450.877437182231,3802
-448.28194243039627,3759
-445.68716451686,3899
-443.09310325926003,3788
-440.49975847515555,3716
-437.9071299820263,3800
-435.31521759727354,3728
-432.72402113821954,3672
-430.13354042210767,3692
-427.5437752661022,3716
-424.95472548728867,3765
-422.36639090267386,3793
-419.7787713291855,3870
-417.1918665836721,3866
-414.60567648290385,3904
-412.0202008435715,3899
-409.4354394822874,3972
-406.8513922155845,3940
-404.26805885991723,3876
-401.685439231661,3903
-399.103533147112,3894
-396.522340422488,3947
-393.9418608739278,3815
-391.3620943174908,3707
-388.7830405691583,3550
-386.2046994448317,3480
-383.6270707603344,3299
-381.05015433141045,2926
-378.473949973725,2767
-375.8984575028645,2409
-373.32367673433623,2077
-370.74960748356875,1819
-368.1762495659117,1592
-365.60360279663576,1280
-363.03166699093265,1040
-360.4604419639154,845
-357.8899275306178,757
-355.32012350599507,664
-352.7510297049233,585
-350.1826459421999,537
-347.61497203254316,530
-345.04800779059235,488
-342.4817530309082,526
-339.91620756797226,527
-337.35137121618743,541
-334.7872437898774,544
-332.22382510328725,549
-329.66111497058273,479
-327.09911320585127,459
-324.53781962310075,514
-321.9772340362607,493
-319.4173562591816,477
-316.8581861056348,466
-314.2997233893127,446
-311.7419679238294,443
-309.1849195227194,474
-306.62857799943856,507
-304.0729431673641,492
-301.51801483979375,472
-298.963792829947,482
-296.41027695096386,474
-293.85746701590574,517
-291.3053628377552,547
-288.7539642294155,537
-286.2032710037115,545
-283.65328297338897,538
-281.1039999511146,606
-278.5554217494762,634
-276.007548180983,508
-273.4603790580651,473
-270.9139141930734,508
-268.3681533982807,521
-265.8230964858798,550
-263.27874326798565,538
-260.7350935566336,564
-258.1921471637804,595
-255.6499039013039,589
-253.10836358100266,628
-250.56752601459698,542
-248.02739101372765,603
-245.48795838995704,662
-242.94922795476816,658
-240.41119951956557,615
-237.8738728956746,601
-235.33724789434166,615
-232.80132432673452,550
-230.2661020039418,561
-227.73158073697357,544
-225.19776033676033,648
-222.66464061415422,672
-220.1322213799284,605
-217.60050244477725,563
-215.06948361931552,566
-212.53916471408013,654
-210.00954553952818,732
-207.48062590603843,660
-204.9524056239104,658
-202.4248845033651,700
-199.8980623545441,743
-197.37193898751036,776
-194.84651421224817,806
-192.32178783866232,743
-189.79775967657952,669
-187.27442953574644,805
-184.7517972258321,809
-182.2298625564256,727
-179.7086253370378,740
-177.18808537710026,725
-174.66824248596583,764
-172.14909647290835,838
-169.6306471471229,882
-167.11289431772548,752
-164.59583779375328,744
-162.07947738416453,816
-159.5638128978386,912
-157.04884414357605,1138
-154.53457093009854,1291
-152.02099306604828,1091
-149.50811035998936,897
-146.99592262040665,790
-144.48442965570587,837
-141.97363127421409,948
-139.46352728417958,1149
-136.95411749377126,1340
-134.44540171107985,1311
-131.93737974411636,1007
-129.43005140081357,1077
-126.92341648902493,1361
-124.41747481652521,1253
-121.91222619101006,1170
-119.40767042009657,1385
-116.90380731132257,1559
-114.40063667214702,1517
-111.8981583099503,1964
-109.3963720320337,3224
-106.89527764561933,4425
-104.39487495785067,4586
-101.89516377579241,4239
-99.39614390642998,4956
-96.89781515667039,7860
-94.40017733334128,11060
-91.90323024319173,11897
-89.40697369289148,8428
-86.91140748903172,4667
-84.41653143812482,2710
-81.92234534660395,3140
-79.42884902082358,6540
-76.93604226705907,11182
-74.4439248915071,16331
-71.95249670028534,19635
-69.46175749943245,20042
-66.97170709490854,18270
-64.48234529259423,14398
-61.99367189829195,10224
-59.50568671772464,8236
-57.01838955653636,8794
-54.53178022029283,8562
-52.045858514480074,8243
-49.560624244506016,8866
-47.07607721569923,10150
-44.59221723330904,10228
-42.10904410250669,9390
-39.62655762838392,7658
-37.14475761595372,6493
-34.66364387015028,5681
-32.18321619582866,5675
-29.70347439776515,6679
-27.224418280657005,7816
-24.74604764912317,9283
-22.26836230770266,15747
-19.7913620608565,34362
-17.315046712966478,65039
-14.83941606833514,65039
-12.36446993118659,65039
-9.89020810566592,65039
-7.416630395839093,65039
-4.94373660569363,65039
-2.471526539137585,65039
-6.821210263296962E-13,65039
2.47084320796705,65039
4.941003281093458,65039
7.410480415786196,65039
9.879274808531363,65039
12.347386655893956,65039
14.814816154518212,65039
17.28156350112681,65039
19.74762889252179,65039
22.21301252558385,65039
24.67771459727237,18256
27.141735304626195,3198
29.605074844762612,1772
32.06773341487792,1665
34.52971121224755,1841
36.99100843422559,1716
39.45162527824516,1583
41.91156194181792,1442
44.370818622535126,1364
46.82939551806646,1332
49.287292826160524,1462
51.74451074464503,1527
54.201049471426245,1463
56.65690920448981,1114
59.112090141899785,1036
61.56659248179983,1254
64.02041642241159,1150
66.4735621620365,1126
68.92602989905402,1173
71.37781983192338,1410
73.82893215918205,1331
76.27936707944684,1143
78.72912479141326,1074
81.17820549385567,1050
83.62660938562783,1075
86.07433666566146,1062
88.5213875329681,949
90.96776218663751,977
93.41346082583925,1074
95.85848364982041,1149
98.30283085790859,1175
100.7465026495089,990
103.18949922410604,843
105.63182078126385,869
108.07346752062438,960
110.51443964190923,947
112.95473734491827,852
115.39436082953114,844
117.83331029570547,795
120.27158594347827,808
122.7091879729652,876
125.1461165843615,881
127.58237197794062,810
130.01795435405518,797
132.4528639131364,863
134.88710085569494,892
137.32066538231982,812
139.75355769367923,860
142.1857779905207,887
144.61732647366978,909
147.04820334403132,863
149.47840880258934,977
151.90794305040674,1035
154.33680628862487,1264
156.76499871846443,1514
159.19252054122433,1792
161.61937195828352,2167
164.04555317109896,2572
166.47106438120693,3075
168.89590579022217,3435
171.320077599839,3709
173.7435800118302,4027
176.16641322804742,4220
178.58857745042144,4450
181.01007288096173,4687
183.43089972175687,4937
185.85105817497413,5177
188.27054844285988,5527
190.6893707277394,5552
193.10752523201643,5981
195.5250121581745,6091
197.9418317087751,6201
200.3579840864594,6287
202.7734694939469,6436
205.18828813403627,6446
207.6024402096051,6509
210.01592592360964,6666
212.42874547908548,6643
214.84089907914665,6662
217.2523869269868,6758
219.66320922587727,6695
222.0733661791695,6829
224.48285799029293,6801
226.8916848627572,6712
229.29984700014882,6792
231.7073446061355,6933
234.11417788446204,6862
236.520347038953,7099
238.92585227351185,6866
241.33069379212054,6865
243.73487179884035,6928
246.1383864978112,7003
248.541238093252,7021
250.9434267894609,7016
253.34495279081432,6966
255.74581630176783,6995
258.1460175268563,6972
260.54555667069314,6978
262.9444339379703,6883
265.3426495334594,7047
267.7402036620107,7081
270.1370965285529,6993
272.53332833809407,6962
274.9288992957214,6873
277.32380960660055,6827
279.718059475976,7173
282.1116491091717,7018
284.5045787115897,6837
286.89684848871195,6899
289.2884586460981,7005
291.67940938938807,6855
294.0697009242996,6928
296.4593334566299,7119
298.84830719225477,7296
301.23662233712923,7161
303.6242790972866,7127
306.01127767884,7151
308.39761828798066,7079
310.78330113097934,7092
313.16832641418534,7040
315.5526943440269,7229
317.9364051270112,7041
320.3194589697242,7052
322.70185607883093,6991
325.0835966610754,7105
327.4646809232805,7155
329.8451090723478,7041
332.2248813152577,6985
334.6039978590701,6935
336.9824589109231,6994
339.36026467803447,7035
341.7374153677,6993
344.113911187295,6994
346.48975234427337,7102
348.8649390461686,7134
351.2394715005918,6924
353.61334991523415,7240
355.9865744978655,7039
358.35914545633375,7067
360.73106299856715,7103
363.10232733257146,7081
365.47293866643247,7138
367.84289720831396,7118
370.2122031664593,7053
372.5808567491905,7093
374.9488581649083,7040
377.31620762209275,7102
379.6829053293021,7179
382.0489514951745,7118
384.4143463284262,7110
386.7790900378528,7086
389.14318283232853,7095
391.50662492080653,7130
393.86941651231916,6989
396.23155781597745,6929
398.5930490409713,6991
400.9538903965696,7070
403.3140820921202,7295
405.6736243370498,7226
408.03251734086336,7155
410.3907613131465,7010
412.74835646356166,7090
415.10530300185144,7171
417.4616011378372,7118
419.81725108141893,7009
422.1722530425758,7176
424.5266072313656,7185
426.880313857925,7195
429.2333731324701,7108
431.58578526529516,7154
433.9375504667738,7339
436.2886689473588,7346
438.63914091758113,7328
440.9889665880513,6997
443.33814616945835,7038
445.68667987257015,7007
448.03456790823395,6931
450.3818104873759,7164
452.72840782100013,7071
455.07436012019105,7002
457.41966759611057,7147
459.7643304600007,7153
462.10834892318155,7245
464.4517231970525,7221
466.79445349309174,7094
469.1365400228566,7335
471.4779829979826,7360
473.81878263018564,7247
476.15893913125876,7149
478.4984527130747,7205
480.8373235875855,7197
483.17555196682144,7345
485.5131380628919,7307
487.8500820879857,7554
490.1863842543697,7551
492.52204477439034,7584
494.8570638604725,7699
497.1914417251204,7729
499.52517858091653,8109
501.85827464052306,8291
504.19073011668036,8346
506.5225452222086,8340
508.85372017000566,8537
511.18425517304956,8492
513.514150444396,8638
515.8434061971808,9270
518.1720226446176,10246
520.4999999999999,10373
522.8273384766991,10179
525.1540382881666,9493
527.480099647932,9144
529.8055227696037,8652
532.1303078668694,8202
534.454455153496,7800
536.777964843328,7666
539.1008371502907,7693
541.4230722883866,7469
543.744670471698,7627
546.0656319143858,7556
548.3859568306899,7388
550.7056454349294,7576
553.0246979415016,7455
555.3431145648834,7466
557.6608955196306,7528
559.978041020377,7519
562.2945512818363,7534
564.6104265188006,7587
566.9256669461412,7577
569.2402727788082,7677
571.5542442318302,7668
573.8675815203156,7675
576.1802848594508,7795
578.4923544645015,7678
580.8037905508126,7714
583.114593333807,7672
585.4247630289875,7778
587.7342998519354,7805
590.0432040183106,7689
592.3514757438526,7811
594.6591152443794,7728
596.9661227357875,7625
599.2724984340531,7658
601.578242555231,7876
603.8833553154542,7740
606.1878369309362,7736
608.4916876179676,7816
610.7949075929192,7872
613.0974970722403,7867
615.3994562724587,7720
617.7007854101818,7774
620.0014847020951,7834
622.3015543649641,7810
624.6009946156324,7932
626.8998056710224,7749
629.1979877481361,7808
631.4955410640538,7758
633.7924658359349,7811
636.0887622810175,7860
638.3844306166192,7729
640.6794710601358,7831
642.9738838290426,7781
645.2676691408932,8037
647.5608272133207,7902
649.853358264037,7928
652.1452625108324,7902
654.4365401715764,7912
656.7271914642178,7965
659.0172166067838,8173
661.3066158173809,8054
663.5953893141935,7931
665.8835373154867,8050
668.1710600396028,7994
670.4579577049639,8178
672.7442305300709,8108
675.0298787335033,8141
677.3149025339197,8024
679.599302150058,7959
681.8830778007342,8038
684.1662297048437,8093
686.4487580813608,8043
688.7306631493387,8092
691.0119451279091,8044
693.2926042362834,8130
695.5726406937516,8046
697.8520547196814,8025
700.1308465335215,8157
702.4090163547982,8083
704.6865644031171,8034
706.9634908981619,8008
709.2397960596965,8052
711.5154801075631,8137
713.7905432616823,8007
716.0649857420548,8214
718.3388077687592,8266
720.612009561953,8251
722.8845913418733,8166
725.1565533288352,8057
727.427895743234,8080
729.6986188055427,8162
731.9687227363137,8288
734.238207756178,8194
736.5070740858458,8164
738.7753219461066,8272
741.0429515578281,8234
743.3099631419569,8256
745.5763569195191,8269
747.8421331116193,8371
750.1072919394409,8278
752.3718336242467,8329
754.6357583873777,8238
756.8990664502545,8348
759.1617580343765,8219
761.423833361321,8149
763.6852926527457,8326
765.9461361303862,8333
768.206364016058,8327
770.4659765316536,8291
772.7249738991469,8292
774.9833563405886,8390
777.2411240781092,8260
779.4982773339183,8264
781.7548163303044,8326
784.010741289634,8251
786.2660524343538,8324
788.5207499869881,8425
790.7748341701416,8359
793.0283052064964,8278
795.2811633188143,8487
797.5334087299362,8425
799.7850416627813,8442
802.0360623403484,8443
804.2864709857143,8435
806.5362678220353,8570
808.7854530725468,8545
811.0340269605625,8417
813.2819897094754,8525
815.5293415427581,8616
817.77608268396,8574
820.0222133567116,8435
822.2677337847211,8258
824.5126441917765,8305
826.7569448017433,8434
829.0006358385675,8453
831.2437175262731,8499
833.4861900889629,8465
835.7280537508192,8579
837.9693087361026,8467
840.2099552691533,8481
842.4499935743896,8417
844.689423876309,8526
846.9282463994886,8447
849.1664613685833,8308
851.4040690083276,8454
853.6410695435349,8295
855.877463199097,8551
858.1132501999847,8471
860.3484307712487,8423
862.5830051380175,8579
864.8169735254988,8496
867.0503361589791,8588
869.2830932638243,8418
871.5152450654786,8467
873.7467917894654,8622
875.9777336613873,8695
878.2080709069252,8653
880.4378037518389,8696
882.666932421968,8581
884.8954571432301,8691
887.1233781416219,8738
889.3506956432192,8834
891.5774098741766,8660
893.803521060728,8636
896.0290294291852,8648
898.2539352059397,8748
900.4782386174619,8739
902.7019398903011,8579
904.925039251085,8781
907.147536926521,8751
909.3694331433943,8702
911.59072812857,8704
913.8114221089921,8695
916.0315153116827,8619
918.2510079637437,8708
920.4699002923547,8470
922.6881925247761,8615
924.905884888345,8597
927.1229776104793,8610
929.3394709186747,8527
931.555365040506,8570
933.7706602036275,8589
935.9853566357709,8554
938.1994545647489,8560
940.4129542184515,8595
942.6258558248488,8585
944.8381596119883,8508
947.0498658079974,8632
949.2609746410825,8650
951.4714863395287,8466
953.6814011316998,8675
955.8907192460387,8781
958.0994409110671,8782
960.3075663553858,8581
962.5150958076741,8688
964.7220294966913,8721
966.928367651274,8608
969.1341105003388,8696
971.3392582728806,8651
973.5438111979742,8675
975.747769504772,8885
977.9511334225061,8832
980.153903180487,8605
982.3560790081052,8876
984.5576611348289,8740
986.7586497902058,8695
988.9590452038618,8672
991.158847605503,8777
993.3580572249133,8615
995.5566742919558,8565
997.7546990365728,8644
999.952131688785,8627
1002.1489724786926,8622
1004.3452216364743,8377
1006.5408793923874,8536
1008.7359459767691,8602
1010.9304216200343,8682
1013.1243065526781,8469
1015.3176010052733,8547
1017.510305208472,8509
1019.7024193930064,8657
1021.8939437896848,8481
1024.0848786293977,8538
1026.2752241431122,8577
1028.4649805618747,8595
1030.6541481168115,8555
1032.842727039127,8443
1035.0307175601051,8566
1037.2181199111074,8406
1039.4049343235752,8673
1041.591161029029,8579
1043.7768002590683,8550
1045.9618522453698,8559
1048.1463172196918,8674
1050.3301954138697,8740
1052.513487059818,8711
1054.69619238953,8540
1056.8783116350783,8694
1059.0598450286152,8615
1061.2407928023704,8714
1063.4211551886528,8546
1065.6009324198508,8527
1067.780124728432,8507
1069.9587323469414,8761
1072.1367555080046,8802
1074.314194444325,8652
1076.4910493886855,8749
1078.667320573947,8712
1080.843008233051,8627
1083.0181125990161,8640
1085.1926339049414,8514
1087.3665723840027,8688
1089.5399282694575,8688
1091.7127017946405,8672
1093.8848931929647,8571
1096.0565026979243,8524
1098.2275305430899,8468
1100.3979769621128,8509
1102.567842188722,8660
1104.737126456726,8517
1106.9058300000124,8462
1109.0739530525475,8553
1111.2414958483764,8485
1113.4084586216231,8602
1115.5748416064907,8474
1117.7406450372605,8650
1119.9058691482942,8488
1122.0705141740304,8701
1124.2345803489884,8603
1126.3980679077658,8631
1128.5609770850388,8542
1130.7233081155623,8570
1132.8850612341707,8568
1135.0462366757774,8730
1137.2068346753745,8622
1139.3668554680326,8776
1141.526299288901,8615
1143.68516637321,8716
1145.8434569562655,8624
1148.001171273455,8715
1150.158309560244,8774
1152.3148720521767,8592
1154.470858984876,8676
1156.626270594044,8653
1158.7811071154629,8715
1160.9353687849912,8706
1163.089055838569,8563
1165.242168512213,8755
1167.3947070420209,8677
1169.5466716641677,8798
1171.6980626149075,8557
1173.8488801305748,8532
1175.9991244475814,8462
1178.1487958024186,8621
1180.2978944316555,8709
1182.4464205719428,8635
1184.5943744600072,8669
1186.7417563326567,8500
1188.8885664267755,8548
1191.0348049793297,8615
1193.1804722273619,8653
1195.325568407995,8718
1197.4700937584303,8604
1199.614048515948,8653
1201.7574329179074,8625
1203.900247201746,8753
1206.042491604982,8646
1208.1841663652099,8707
1210.3252717201053,8867
1212.465807907422,8815
1214.6057751649923,8743
1216.7451737307279,8719
1218.8840038426192,8709
1221.0222657387353,8921
1223.1599596572241,8824
1225.2970858363137,8916
1227.4336445143094,8711
1229.5696359295966,8781
1231.705060320639,8777
1233.8399179259786,8846
1235.9742089842384,8874
1238.107933734118,8719
1240.2410924143974,8768
1242.373685263935,8764
1244.5057125216676,8929
1246.6371744266116,8729
1248.7680712178621,8757
1250.898403134593,8832
1253.028170416058,8738
1255.1573733015875,8866
1257.2860120305932,8946
1259.4140868425648,8875
1261.54159797707,8855
1263.6685456737569,8808
1265.7949301723515,8777
1267.9207517126597,8851
1270.046010534565,8778
1272.1707068780306,8961
1274.2948409830983,8955
1276.4184130898889,8814
1278.541423438603,8866
1280.6638722695184,8979
1282.785759822993,8972
1284.9070863394636,8908
1287.0278520594447,8977
1289.1480572235314,8854
1291.2677020723963,8928
1293.3867868467923,9126
1295.5053117875495,9084
1297.623277135579,8812
1299.740683131868,9222
1301.8575300174857,9050
1303.973818033578,9186
1306.0895474213703,9128
1308.2047184221678,9156
1310.3193312773528,9156
1312.4333862283888,9220
1314.5468835168163,9007
1316.659823384255,9144
1318.7722060724045,9225
1320.8840318230418,9210
1322.9953008780249,9131
1325.1060134792888,9131
1327.2161698688478,9180
1329.3257702887959,9273
1331.4348149813054,9153
1333.5433041886276,9067
1335.6512381530933,9132
1337.7586171171101,9069
1339.8654413231675,9173
1341.9717110138317,9018
1344.0774264317488,8967
1346.1825878196432,8944
1348.2871954203192,8951
1350.3912494766587,9158
1352.4947502316231,9139
1354.5976979282532,9102
1356.7000928096686,9027
1358.8019351190665,9050
1360.9032250997243,9245
1363.0039629949988,9125
1365.1041490483235,9026
1367.2037835032133,9306
1369.3028666032606,9234
1371.401398592137,9081
1373.4993797135926,9142
1375.5968102114575,9063
1377.6936903296396,9217
1379.7900203121262,9294
1381.8858004029835,9214
1383.9810308463561,9165
1386.075711886469,9268
1388.1698437676241,9213
1390.2634267342032,9255
1392.356461030667,9292
1394.4489469015557,9368
1396.5408845914872,9371
1398.6322743451592,9138
1400.7231164073469,9202
1402.813411022907,9265
1404.903158436773,9220
1406.9923588939578,9383
1409.0810126395531,9374
1411.1691199187303,9272
1413.2566809767386,9437
1415.343696058907,9211
1417.4301654106425,9348
1419.5160892774315,9262
1421.6014679048399,9274
1423.6863015385125,9273
1425.7705904241707,9200
1427.8543348076178,9155
1429.9375349347342,9228
1432.0201910514802,9163
1434.102303403894,9431
1436.1838722380944,9299
1438.2648978002767,9261
1440.3453803367174,9243
1442.4253200937692,9398
1444.5047173178677,9429
1446.5835722555234,9373
1448.6618851533285,9405
1450.739656257952,9304
1452.8168858161434,9370
1454.8935740747306,9282
1456.96972128062,9379
1459.045327680797,9610
1461.120393522327,9559
1463.1949190523528,9682
1465.2689045180973,9500
1467.3423501668608,9537
1469.415256246024,9665
1471.4876230030463,9646
1473.559450685465,9634
1475.6307395408976,9592
1477.7014898170391,9740
1479.771701761665,9568
1481.8413756226287,9666
1483.9105116478618,9680
1485.9791100853772,9671
1488.0471711832643,9631
1490.1146951896926,9665
1492.1816823529098,9540
1494.2481329212433,9763
1496.3140471430984,9582
1498.3794252669609,9639
1500.4442675413939,9800
1502.5085742150404,9809
1504.572345536622,9648
1506.6355817549388,9916
1508.6982831188702,9762
1510.7604498773744,9960
1512.8220822794883,9858
1514.8831805743293,9892
1516.9437450110909,9764
1519.003775839048,9944
1521.0632733075522,9778
1523.1222376660367,10067
1525.1806691640113,9910
1527.2385680510652,10017
1529.2959345768668,10016
1531.3527689911643,10054
1533.4090715437833,9931
1535.4648424846291,9993
1537.5200820636855,10130
1539.5747905310159,10234
1541.6289681367616,9962
1543.6826151311434,10015
1545.7357317644614,10184
1547.7883182870937,10117
1549.8403749494987,10195
1551.8919020022113,10228
1553.9428996958477,10256
1555.9933682811015,10157
1558.0433080087469,10312
1560.0927191296346,10426
1562.1416018946961,10442
1564.1899565549415,10376
1566.2377833614592,10274
1568.2850825654164,10219
1570.3318544180606,10239
1572.3780991707158,10394
1574.423817074788,9994
1576.4690083817595,10112
1578.5136733431923,9971
1580.5578122107272,9936
1582.601425236085,10084
1584.6445126710646,9806
1586.6870747675434,9952
1588.7291117774776,9832
1590.7706239529034,9556
1592.8116115459347,9748
1594.8520748087658,9782
1596.8920139936686,9694
1598.9314293529933,9618
1600.9703211391711,9660
1603.008689604711,9640
1605.0465350022005,9606
1607.0838575843068,9704
1609.1206576037753,9540
1611.1569353134305,9443
1613.1926909661765,9465
1615.2279248149953,9479
1617.2626371129481,9386
1619.2968281131757,9397
1621.3304980688963,9550
1623.3636472334088,9522
1625.39627586009,9375
1627.428384202396,9414
1629.459972513861,9375
1631.4910410480993,9386
1633.5215900588028,9251
1635.551619799744,9625
1637.5811305247717,9384
1639.6101224878166,9409
1641.6385959428862,9419
1643.6665511440683,9592
1645.693988345528,9387
1647.7209078015112,9414
1649.7473097663405,9404
1651.7731944944203,9475
1653.7985622402307,9390
1655.823413258333,9440
1657.847747803366,9409
1659.8715661300494,9365
1661.8948684931793,9342
1663.9176551476316,9425
1665.9399263483624,9297
1667.9616823504057,9352
1669.982923408873,9376
1672.0036497789574,9304
1674.0238617159293,9257
1676.043559475138,9288
1678.0627433120121,9278
1680.081413482059,9380
1682.0995702408654,9329
1684.117213844096,9253
1686.134344547495,9268
1688.1509626068864,9268
1690.1670682781705,9247
1692.182661817329,9317
1694.1977434804217,9361
1696.2123135235875,9145
1698.226372203043,9187
1700.2399197750851,9361
1702.2529564960905,9261
1704.2654826225112,9513
1706.277498410882,9321
1708.2890041178139,9290
1710.2999999999988,9413
1712.3104863142066,9504
1714.3204633172854,9094
1716.329931266163,9371
1718.3388904178469,9375
1720.3473410294214,9293
1722.3552833580516,9452
1724.3627176609807,9261
1726.3696441955308,9422
1728.3760632191033,9355
1730.3819749891782,9364
1732.3873797633146,9207
1734.3922777991502,9288
1736.3966693544012,9503
1738.4005546868639,9188
1740.4039340544127,9353
1742.406807715001,9295
1744.4091759266616,9314
1746.4110389475054,9354
1748.4123970357223,9374
1750.413250449582,9383
1752.4135994474318,9362
1754.4134442876993,9298
1756.4127852288902,9317
1758.4116225295893,9307
1760.4099564484595,9274
1762.407787244244,9210
1764.405115175764,9299
1766.4019405019203,9268
1768.3982634816916,9383
1770.3940843741357,9373
1772.3894034383907,9292
1774.3842209336717,9288
1776.378537119274,9311
1778.372352254571,9219
1780.3656665990156,9223
1782.3584804121397,9374
1784.3507939535534,9287
1786.3426074829463,9446
1788.3339212600863,9460
1790.3247355448211,9313
1792.3150505970766,9271
1794.3048666768573,9300
1796.2941840442477,9397
1798.2830029594106,9359
1800.2713236825884,9335
1802.2591464741004,9384
1804.2464715943465,9518
1806.2332993038058,9608
1808.2196298630352,9396
1810.2054635326708,9379
1812.190800573428,9489
1814.175641246101,9530
1816.1599858115628,9559
1818.1438345307652,9452
1820.127187664738,9349
1822.1100454745924,9504
1824.092408221516,9684
1826.0742761667766,9577
1828.055649571721,9436
1830.0365286977735,9422
1832.0169138064398,9432
1833.9968051593014,9408
1835.9762030180214,9357
1837.9551076443408,9448
1839.9335193000788,9422
1841.9114382471344,9244
1843.888864747485,9478
1845.8657990631878,9515
1847.842241456378,9660
1849.8181921892697,9384
1851.7936515241558,9417
1853.7686197234098,9351
1855.7430970494815,9556
1857.7170837649014,9424
1859.6905801322787,9336
1861.6635864143004,9685
1863.6361028737338,9539
1865.608129773424,9675
1867.5796673762961,9742
1869.5507159453537,9465
1871.521275743678,9536
1873.4913470344313,9585
1875.4609300808534,9478
1877.4300251462632,9548
1879.3986324940588,9641
1881.366752387717,9522
1883.3343850907936,9664
1885.3015308669228,9672
1887.268189979819,9637
1889.2343626932739,9586
1891.2000492711595,9550
1893.1652499774254,9539
1895.1299650761011,9553
1897.0941948312952,9578
1899.0579395071945,9661
1901.0211993680641,9560
1902.98397467825,9610
1904.9462657021745,9636
1906.9080727043415,9696
1908.869395949332,9655
1910.8302357018065,9781
1912.790592226504,9608
1914.7504657882428,9534
1916.7098566519212,9526
1918.6687650825133,9525
1920.6271913450764,9594
1922.5851357047422,9548
1924.5425984267245,9508
1926.499579776314,9493
1928.4560800188833,9529
1930.4120994198802,9676
1932.367638244833,9626
1934.32269675935,9494
1936.2772752291175,9598
1938.231373919899,9596
1940.1849930975404,9550
1942.1381330279637,9643
1944.0907939771696,9506
1946.0429762112412,9764
1947.9946799963363,9556
1949.9459055986945,9783
1951.896653284633,9648
1953.8469233205478,9763
1955.7967159729142,9538
1957.7460315082863,9726
1959.6948701932974,9537
1961.6432322946594,9628
1963.5911180791632,9716
1965.5385278136787,9710
1967.4854617651545,9770
1969.4319202006182,9715
1971.377903387176,9822
1973.3234115920136,9672
1975.268445082395,9753
1977.2130041256642,9617
1979.1570889892423,9774
1981.1006999406304,9766
1983.04383724741,9892
1984.986501177238,9706
1986.928691997853,9791
1988.8704099770712,9741
1990.811655382789,9790
1992.7524284829801,9651
1994.692729545698,9705
1996.6325588390755,9862
1998.5719166313224,9754
2000.5108031907307,9871
2002.4492187856677,9546
2004.387163684583,9937
2006.3246381560011,9697
2008.2616424685298,9627
2010.1981768908527,9656
2012.1342416917332,9683
2014.069837140014,9775
2016.0049635046162,9777
2017.9396210545406,9690
2019.8738100588666,9628
2021.8075307867502,9602
2023.740783507431,9590
2025.6735684902228,9805
2027.6058860045214,9782
2029.5377363198004,9770
2031.4691197056118,9798
2033.4000364315875,9849
2035.3304867674374,9768
2037.260470982952,9736
2039.189989347998,9807
2041.1190421325232,9977
2043.047629606554,9952
2044.9757520401945,9774
2046.9034097036288,9750
2048.8306028671195,9797
2050.7573318010086,9828
2052.683596775716,9762
2054.609398061742,10050
2056.5347359296647,9850
2058.4596106501403,10024
2060.384022493906,9771
2062.3079717317764,9836
2064.231458634646,9937
2066.1544834734873,9761
2068.077046519352,9975
2069.99914804337,10043
2071.9207883167524,9889
2073.8419676107865,10057
2075.7626861968406,9909
2077.6829443463607,10070
2079.6027423308715,10039
2081.522080421977,9964
2083.440958891362,10005
2085.359378010786,10013
2087.2773380520907,9902
2089.194839287196,10039
2091.111881988101,9873
2093.0284664268825,10028
2094.9445928756973,10049
2096.86026160678,10140
2098.775472892446,10019
2100.690227005088,9855
2102.604524217178,9909
2104.5183648012676,10010
2106.431749029985,10033
2108.34467717604,10156
2110.2571495122206,9987
2112.169166311393,9925
2114.080727846503,9940
2115.9918343905747,10077
2117.902486216711,10106
2119.8126835980956,10184
2121.722426807987,9890
2123.6317161197285,10057
2125.5405518067364,10316
2127.448934142509,10037
2129.356863400624,10185
2131.264339854737,10027
2133.1713637785815,10193
2135.077935445972,10197
2136.9840551308002,10156
2138.889723107037,10233
2140.7949396487334,10256
2142.699705030018,10481
2144.6040195250994,10313
2146.507883408264,10243
2148.4112969538774,10236
2150.3142604363848,10424
2152.2167741303097,10466
2154.1188383102535,10194
2156.0204532508997,10458
2157.9216192270064,10384
2159.822336513414,10466
2161.7226053850413,10454
2163.622426116884,10263
2165.5217989840185,10224
2167.4207242616,10243
2169.319202224862,10512
2171.2172331491165,10300
2173.1148173097563,10318
2175.0119549822507,10405
2176.90864644215,10371
2178.8048919650823,10309
2180.7006918267534,10417
2182.596046302952,10349
2184.4909556695407,10300
2186.3854202024645,10334
2188.279440177746,10238
2190.173015871487,10590
2192.066147559868,10474
2193.958835519149,10390
2195.851080025667,10436
2197.7428813558417,10334
2199.6342397861667,10270
2201.5251555932186,10508
2203.415629053651,10439
2205.3056604441986,10417
2207.19525004167,10520
2209.084398122958,10456
2210.9731049650327,10454
2212.861370844941,10462
2214.749196039812,10603
2216.636580826851,10615
2218.523525483344,10499
2220.410030286655,10679
2222.296095514226,10581
2224.1817214435805,10488
2226.066908352319,10541
2227.951656518121,10399
2229.835966218746,10600
2231.71983773203,10670
2233.6032713358913,10632
2235.486267308324,10500
2237.3688259274036,10472
2239.2509474712824,10573
2241.132632218193,10610
2243.013880446447,10592
2244.8946924344323,10606
2246.7750684606203,10542
2248.6550088035574,10496
2250.534513741871,10492
2252.413583554265,10495
2254.292218519526,10537
2256.170418916517,10523
2258.0481850241786,10599
2259.925517121534,10460
2261.8024154876825,10432
2263.678880401803,10416
2265.5549121431536,10273
2267.430510991071,10344
2269.305677224971,10542
2271.180411124348,10523
2273.0547129687766,10482
2274.9285830379076,10428
2276.8020216114737,10515
2278.6750289692845,10664
2280.5476053912294,10442
2282.4197511572766,10403
2284.2914665474727,10548
2286.162751841943,10498
2288.0336073208937,10557
2289.904033264608,10556
2291.774029953448,10567
2293.6435976678554,10389
2295.5127366883517,10528
2297.381447295534,10580
2299.2497297700825,10693
2301.1175843927526,10550
2302.9850114443825,10510
2304.852011205885,10420
2306.7185839582553,10472
2308.5847299825664,10392
2310.4504495599676,10512
2312.3157429716925,10428
2314.1806104990483,10462
2316.0450524234247,10535
2317.9090690262888,10510
2319.772660589186,10494
2321.635827393742,10564
2323.498569721661,10426
2325.3608878547248,10605
2327.2227820747967,10564
2329.0842526638157,10465
2330.945299903803,10447
2332.805924076857,10446
2334.6661254651535,10448
2336.525904350951,10527
2338.3852610165827,10371
2340.244195744464,10487
2342.102708817088,10603
2343.9608005170253,10587
2345.8184711269287,10464
2347.675720929526,10533
2349.532550207628,10310
2351.38895924412,10404
2353.24494832197,10360
2355.100517724223,10560
2356.955667734004,10592
2358.810398634514,10506
2360.664710709037,10599
2362.5186042409337,10580
2364.3720795136437,10572
2366.225136810686,10498
2368.0777764156583,10545
2369.929998612237,10487
2371.7818036841777,10576
2373.633191915315,10679
2375.484163589562,10586
2377.3347189909114,10614
2379.184858403434,10632
2381.03458211128,10380
2382.8838903986775,10488
2384.732783549936,10570
2386.5812618494406,10594
2388.4293255816588,10532
2390.2769750311327,10557
2392.1242104824883,10517
2393.971032220427,10616
2395.8174405297295,10461
2397.6634356952563,10679
2399.509018001947,10533
2401.3541877348193,10500
2403.1989451789705,10556
2405.043290619576,10576
2406.8872243418905,10524
2408.730746631247,10491
2410.5738577730594,10484
2412.4165580528183,10588
2414.258847756095,10476
2416.100727168537,10403
2417.9421965758734,10577
2419.783256263912,10541
2421.623906518538,10582
2423.4641476257157,10613
2425.303979871491,10684
2427.143403541984,10389
2428.9824189233977,10685
2430.821026302012,10548
2432.6592259641866,10368
2434.497018196361,10586
2436.33440328505,10567
2438.171381516851,10483
2440.00795317844,10480
2441.844118556569,10561
2443.6798779380724,10710
2445.5152316098606,10660
2447.3501798589255,10761
2449.1847229723357,10845
2451.0188612372403,10820
2452.8525949408663,10561
2454.6859243705203,10664
2456.518849813587,10736
2458.3513715575314,10640
2460.183489889895,10703
2462.015205098301,10714
2463.8465174704493,10679
2465.67742729412,10677
2467.5079348571717,10730
2469.338040447542,10615
2471.1677443532476,10631
2472.9970468623833,10783
2474.825948263123,10803
2476.6544488437207,10630
2478.482548892508,10729
2480.310248697896,10659
2482.137548548374,10639
2483.9644487325118,10803
2485.790949538956,10926
2487.617051256433,10804
2489.44275417375,10867
2491.26805857979,10810
2493.0929647635157,10662
2494.917473013971,10933
2496.741583620276,10699
2498.5652968716304,10929
2500.3886130573137,10871
2502.2115324666834,10822
2504.0340553891765,10931
2505.856182114308,10868
2507.6779129316733,10850
2509.499248130945,10824
2511.3201880018764,10698
2513.140732834298,10706
2514.9608829181198,10759
2516.780638543331,10834
2518.6,10868
2520.418967578273,10823
2522.237541568376,10800
2524.0557222606144,10692
2525.8735099453706,10730
2527.6909049131086,10777
2529.507907454368,10743
2531.32451785977,10875
2533.140736420014,10922
2534.9565634258774,10777
2536.771999168218,10751
2538.5870439379714,10969
2540.4016980261526,10876
2542.2159617238544,10911
2544.02983532225,11065
2545.8433191125914,11044
2547.656413386209,10869
2549.4691184345115,10829
2551.2814345489874,10968
2553.093362021204,11086
2554.904901142808,10963
2556.716052205523,11228
2558.526815501153,10856
2560.3371913215824,10790
2562.147179958771,10905
2563.956781704761,10826
2565.7659968516705,10968
2567.5748256916986,10889
2569.3832685171224,10949
2571.1913256202984,10966
2572.9989972936614,10957
2574.806283829725,10732
2576.613185521084,10921
2578.4197026604074,11008
2580.2258355404483,10982
2582.031584454035,10864
2583.836949694077,11117
2585.6419315535613,11051
2587.4465303255533,10923
2589.2507463032002,11078
2591.0545797797245,10901
2592.8580310484303,10993
2594.6611004026995,10891
2596.463788135992,10915
2598.266094541849,11069
2600.0680199138874,10884
2601.869564545807,10885
2603.670728731383,11099
2605.4715127644704,11190
2607.2719169390048,11019
2609.071941548998,10960
2610.8715868885433,11062
2612.670853251811,11031
2614.469740933052,11149
2616.268250226594,11080
2618.0663814268455,11029
2619.864134828292,11004
2621.6615107255006,11114
2623.458509413115,11109
2625.2551311858597,10966
2627.0513763385347,11016
2628.8472451660223,11096
2630.6427379632833,11068
2632.4378550253564,11181
2634.232596647359,11078
2636.026963124488,10910
2637.8209547520187,11065
2639.6145718253065,10881
2641.407814639785,11063
2643.200683490966,10947
2644.9931786744414,10965
2646.7853004858807,10945
2648.577049221034,10887
2650.3684251757277,10930
2652.1594286458712,10933
2653.9500599274484,10972
2655.740319316525,11008
2657.5302071092437,11047
2659.3197236018286,11172
2661.10886909058,11043
2662.8976438718782,11025
2664.686048242183,11235
2666.4740824980327,11196
2668.2617469360443,10903
2670.0490418529134,11033
2671.8359675454153,10999
2673.622524310403,10990
2675.408712444811,10942
2677.1945322456495,10935
2678.979984010009,11079
2680.76506803506,11098
2682.5497846180497,11103
2684.334134056306,11008
2686.1181166472343,11076
2687.9017326883213,11029
2689.6849824771293,11028
2691.4678663113013,11040
2693.2503844885596,11049
2695.032537306705,10890
2696.8143250636167,11122
2698.5957480572542,10982
2700.3768065856534,11058
2702.1575009469316,11077
2703.937831439283,11112
2705.717798360982,11105
2707.4974020103837,11060
2709.276642685917,11131
2711.055520686095,11194
2712.834036309506,11050
2714.612189854819,11142
2716.389981620782,11147
2718.1674119062204,11219
2719.944481010041,11213
2721.721189231226,11116
2723.4975368688415,11014
2725.273524222027,11050
2727.0491515900053,11102
2728.824419272075,10997
2730.5993275676146,10900
2732.3738767760838,11092
2734.148067197016,10943
2735.921899130031,10984
2737.6953728748194,11056
2739.468488731156,10908
2741.2412469988926,11089
2743.0136479779617,11065
2744.785691968372,11071
2746.5573792702116,11128
2748.3287101836504,10983
2750.099685008934,11096
2751.870304046388,11255
2753.640567596418,10988
2755.4104759595057,11115
2757.1800294362156,11187
2758.949228327187,11340
2760.7180729331412,11216
2762.486563554877,11147
2764.254700493272,11162
2766.022484049284,11194
2767.789914523947,11016
2769.5569922183786,11121
2771.3237174337705,11080
2773.090090471394,11067
2774.8561116326036,11025
2776.6217812188274,11088
2778.3870995315756,11172
2780.1520668724356,11044
2781.9166835430747,11166
2783.6809498452394,11321
2785.444866080754,11180
2787.2084325515225,11171
2788.971649559527,11234
2790.73451740683,11176
2792.4970363955713,11215
2794.2592068279705,11143
2796.0210290063264,11259
2797.7825032330147,11392
2799.543629810493,11278
2801.304409041296,11342
2803.0648412280366,11328
2804.8249266734088,11315
2806.5846656801846,11383
2808.344058551212,11281
2810.1031055894246,11302
2811.8618070978273,11532
2813.6201633795085,11288
2815.378174737636,11399
2817.1358414754536,11220
2818.893163896285,11484
2820.6501423035334,11415
2822.4067770006814,11370
2824.1630682912883,11427
2825.9190164789957,11355
2827.6746218675207,11530
2829.429884760661,11475
2831.184805462294,11331
2832.9393842763743,11266
2834.693621506936,11410
2836.4475174580916,11494
2838.201072434034,11312
2839.954286739034,11399
2841.707160677441,11358
2843.459694553685,11432
2845.2118886722724,11511
2846.96374333779,11437
2848.7152588549034,11316
2850.4664355283567,11336
2852.217273662973,11565
2853.9677735636546,11612
2855.7179355353833,11530
2857.4677598832186,11518
2859.217246912299,11417
2860.9663969278427,11645
2862.715210235146,11575
2864.4636871395846,11412
2866.211827946614,11666
2867.9596329617652,11435
2869.7071024906536,11482
2871.4542368389684,11484
2873.20103631248,11367
2874.947501217038,11254
2876.6936318585695,11314
2878.4394285430812,11316
2880.1848915766604,11476
2881.9300212654707,11549
2883.6748179157553,11292
2885.4192818338374,11418
2887.1634133261173,11454
2888.907212699077,11432
2890.6506802592744,11476
2892.393816313348,11436
2894.1366211680142,11497
2895.8790951300693,11549
2897.621238506388,11686
2899.363051603925,11581
2901.1045347297118,11646
2902.8456881908596,11480
2904.58651229456,11552
2906.327007348081,11518
2908.067173658772,11331
2909.8070115340597,11591
2911.5465212814497,11387
2913.285703208527,11453
2915.0245576229563,11334
2916.7630848324807,11365
2918.5012851449196,11509
2920.2391588681758,11272
2921.976706310227,11437
2923.7139277791334,11541
2925.4508235830313,11632
2927.187394030137,11610
2928.923639428745,11528
2930.6595600872306,11616
2932.395156314046,11614
2934.1304284177218,11442
2935.8653767068713,11805
2937.6000014901815,11724
2939.3343030764227,11795
2941.068281774442,11672
2942.8019378931644,11781
2944.5352717415976,12089
2946.2682836288236,11710
2948.0009738640065,11763
2949.7333427563885,11794
2951.465390615289,11746
2953.1971177501086,11693
2954.9285244703265,11717
2956.6596110855,11742
2958.3903779052657,11683
2960.1208252393385,11560
2961.8509533975125,11548
2963.5807626896617,11649
2965.3102534257378,11551
2967.0394259157715,11716
2968.768280469873,11648
2970.496817398232,11651
2972.2250370111146,11509
2973.952939618869,11961
2975.6805255319196,11759
2977.4077950607707,11816
2979.134748516006,11873
2980.861386208289,12016
2982.587708448359,11790
2984.313715547037,11954
2986.039407815222,11946
2987.764785563891,11993
2989.489849104102,11883
2991.2145987469908,12041
2992.9390348037705,11895
2994.6631575857346,12030
2996.3869674042576,11909
2998.1104645707887,11861
2999.83364939686,12023
3001.5565221940783,11966
3003.2790832741334,11830
3005.0013329487924,11847
3006.7232715298996,11917
3008.4448993293804,11899
3010.166216659239,11815
3011.887223831558,11696
3013.607921158498,11856
3015.3283089522993,11821
3017.0483875252826,11847
3018.7681571898443,11971
3020.4876182584626,11913
3022.2067710436927,11804
3023.9256158581707,11758
3025.644153014609,11899
3027.362382825801,11688
3029.0803056046193,11803
3030.797921664012,12040
3032.5152313170106,11771
3034.2322348767225,11726
3035.9489326563353,11872
3037.665324969115,11925
3039.3814121284063,11986
3041.097194447633,11812
3042.812672240299,11872
3044.5278458199855,11745
3046.2427155003525,12131
3047.9572815951406,11853
3049.671544418167,11845
3051.38550428333,11832
3053.0991615046073,11919
3054.812516396051,11933
3056.5255692717974,11982
3058.2383204460575,11949
3059.9507702331257,11807
3061.662918947372,12054
3063.3747669032446,11820
3065.0863144152736,11998
3066.7975617980674,12093
3068.508509366309,12128
3070.219157434767,12057
3071.9295063182844,12091
3073.639556331785,12119
3075.3493077902704,12011
3077.058761008821,12034
3078.7679163025964,12113
3080.476773986837,11948
3082.1853343768594,11996
3083.89359778806,12148
3085.6015645359153,11964
3087.3092349359786,11841
3089.016609303884,12017
3090.7236879553434,12190
3092.4304712061476,11963
3094.136959372166,12098
3095.843152769349,12029
3097.5490517137237,12081
3099.2546565213966,11953
3100.959967508554,12160
3102.66498499146,12175
3104.3697092864577,12271
3106.0741407099695,12204
3107.778279578498,11966
3109.482126208622,12111
3111.1856809170004,11919
3112.8889440203716,12309
3114.5919158355528,12272
3116.294596679439,12306
3117.996986869006,12187
3119.6990867213062,12368
3121.4008965534726,12379
3123.102416682717,12157
3124.803647426329,12358
3126.5045891016784,12232
3128.205242026213,12336
3129.90560651746,12433
3131.605682893025,12250
3133.3054714705922,12336
3135.0049725679282,12558
3136.7041865028714,12314
3138.4031135933465,12243
3140.101754157353,12177
3141.800108512971,12225
3143.498176978357,12378
3145.1959598717494,12268
3146.8934575114636,12065
3148.5906702158954,12204
3150.2875983035183,12092
3151.9842420928853,12387
3153.680601902627,12185
3155.376678051456,12303
3157.07247085816,12176
3158.767980641609,12233
3160.463207720748,12435
3162.158152414606,12296
3163.8528150422862,12326
3165.5471959229726,12236
3167.2412953759303,12445
3168.9351137204976,12522
3170.628651276098,12527
3172.3219083622307,12633
3174.014885298474,12620
3175.707582404485,12557
3177.4000000000005,12662
3179.092138404835,12764
3180.7839979388846,12596
3182.47557892212,12648
3184.166881674594,12563
3185.8579065164386,12679
3187.5486537678626,12482
3189.2391237491547,12490
3190.9293167806827,12427
3192.6192331828934,12621
3194.3088732763117,12621
3195.998237381542,12476
3197.687325819268,12571
3199.376138910251,12594
3201.064676975334,12440
3202.7529403354347,12687
3204.4409293115523,12495
3206.1286442247647,12262
3207.816085396229,12566
3209.5032531471825,12301
3211.190147798936,12289
3212.8767696728846,12347
3214.5631190905015,12343
3216.2491963733373,12246
3217.9350018430214,12128
3219.6205358212637,12405
3221.305798629851,12306
3222.990790590651,12211
3224.6755120256103,12167
3226.359963256751,12312
3228.0441446061795,12180
3229.7280563960758,12540
3231.411698948703,12600
3233.0950725863995,12592
3234.778177631587,12708
3236.461014406761,12523
3238.1435832345005,12466
3239.8258844374595,12683
3241.507918338374,12648
3243.1896852600576,12576
3244.8711855254023,12614
3246.552419457381,12459
3248.233387379042,12659
3249.914089613516,12922
3251.59452648401,12574
3253.274698313813,12558
3254.95460542629,12551
3256.6342481448855,12508
3258.313626793125,12405
3259.9927416946084,12376
3261.6715931730196,12456
3263.3501815521176,12432
3265.0285071557437,12459
3266.706570307815,12213
3268.3843713323286,12389
3270.0619105533615,12390
3271.739188295068,12411
3273.4162048816834,12684
3275.0929606375184,12573
3276.769455886966,12682
3278.445690954498,12820
3280.1216661646613,12747
3281.797381842087,12871
3283.4728383114807,12606
3285.1480358976296,12652
3286.8229749253996,12719
3288.4976557197333,12567
3290.172078605655,12708
3291.846243908266,12713
3293.5201519527463,12447
3295.193803064357,12457
3296.8671975684374,12504
3298.5403357904024,12412
3300.21321805575,12471
3301.8858446900567,12656
3303.558216018975,12732
3305.23033236824,12734
3306.9021940636603,12665
3308.57380143113,12657
3310.2451547966184,12828
3311.916254486174,12934
3313.5871008259246,12711
3315.2576941420766,12566
3316.9280347609147,12800
3318.5981230088046,12551
3320.2679592121895,12759
3321.9375436975924,12440
3323.606876791612,12644
3325.27595882093,12352
3326.944790112305,12522
3328.6133709925753,12331
3330.2817017886573,12405
3331.949782827547,12493
3333.617614436319,12662
3335.2851969421245,12827
3336.952530672199,12813
3338.619615953853,12777
3340.286453114475,12883
3341.9530424815357,13045
3343.619384382583,13108
3345.2854791452437,12912
3346.951327097224,12915
3348.6169285663073,12932
3350.2822838803577,13113
3351.947393367319,12994
3353.61225735521,12845
3355.2768761721345,12981
3356.9412501462693,12801
3358.605379605873,12936
3360.2692648792827,12969
3361.9329062949146,12932
3363.596304181263,12640
