CollectionTime,7/9/2024 4:59:18 PM
ExposureUsed,3
CalibratedSpectrum
-962.7078968117929,2903
-959.9714848408522,3098
-957.2358232597828,3117
-954.5009119013725,3144
-951.7667505983302,3079
-949.0333391832855,3172
-946.3006774887896,3079
-943.5687653473143,3096
-940.837602591253,3159
-938.1071890529199,3077
-935.3775245645503,3154
-932.6486089583007,3192
-929.9204420662485,3145
-927.1930237203925,3207
-924.4663537526524,3181
-921.7404319948689,3100
-919.0152582788041,3176
-916.2908324361409,3294
-913.5671542984834,3245
-910.8442236973568,3132
-908.1220404642074,3212
-905.4006044304027,3178
-902.679915427231,3225
-899.959973285902,3224
-897.2407778375464,3230
-894.5223289132158,3157
-891.8046263438832,3228
-889.0876699604426,3201
-886.3714595937089,3182
-883.6559950744183,3273
-880.9412762332282,3226
-878.2273029007168,3398
-875.5140749073835,3279
-872.8015920836489,3261
-870.0898542598545,3318
-867.3788612662631,3289
-864.6686129330585,3330
-861.9591090903457,3259
-859.2503495681506,3340
-856.5423341964203,3300
-853.8350628050229,3365
-851.1285352237478,3387
-848.4227512823054,3394
-845.7177108103272,3331
-843.0134136373656,3376
-840.3098595928943,3316
-837.6070485063082,3323
-834.9049802069229,3424
-832.2036545239757,3488
-829.5030712866244,3445
-826.8032303239481,3459
-824.1041314649472,3478
-821.4057745385428,3363
-818.7081593735775,3482
-816.0112857988148,3384
-813.3151536429393,3545
-810.6197627345566,3410
-807.9251129021936,3415
-805.2312039742981,3429
-802.5380357792392,3403
-799.8456081453069,3449
-797.1539209007124,3484
-794.462973873588,3580
-791.772766891987,3550
-789.083299783884,3442
-786.3945723771743,3507
-783.7065844996748,3423
-781.0193359791231,3572
-778.3328266431781,3600
-775.6470563194197,3521
-772.9620248353489,3538
-770.2777320183878,3623
-767.5941776958798,3555
-764.9113616950891,3519
-762.2292838432011,3583
-759.5479439673222,3615
-756.8673418944801,3542
-754.1874774516235,3597
-751.5083504656222,3560
-748.8299607632671,3738
-746.15230817127,3663
-743.475392516264,3551
-740.7992136248035,3556
-738.1237713233636,3684
-735.4490654383407,3622
-732.7750957960521,3555
-730.1018622227365,3646
-727.4293645445534,3646
-724.7576025875837,3767
-722.0865761778291,3701
-719.4162851412126,3698
-716.7467293035781,3646
-714.0779084906909,3755
-711.409822528237,3784
-708.7424712418238,3808
-706.0758544569796,3669
-703.4099719991541,3817
-700.7448236937178,3943
-698.0804093659622,3801
-695.4167288411002,3809
-692.7537819442656,3906
-690.0915685005134,3739
-687.4300883348199,3818
-684.7693412720819,3774
-682.1093271371178,3854
-679.4500457546669,3825
-676.7914969493897,3893
-674.1336805458676,3740
-671.4765963686034,3756
-668.8202442420206,3811
-666.1646239904642,3967
-663.5097354382001,3896
-660.8555784094151,3890
-658.2021527282176,3978
-655.5494582186366,3844
-652.8974947046223,3898
-650.2462620100463,3861
-647.5957599587009,3852
-644.9459883742998,3875
-642.2969470804776,4094
-639.6486359007902,3968
-637.0010546587141,4100
-634.3542031776476,4105
-631.7080812809096,4025
-629.0626887917401,4085
-626.4180255333008,3991
-623.7740913286734,4024
-621.1308860008619,4065
-618.4884093727904,4142
-615.8466612673046,4080
-613.2056415071715,4067
-610.5653499150785,4082
-607.9257863136347,4109
-605.28695052537,4162
-602.6488423727357,4128
-600.0114616781036,4153
-597.3748082637674,4124
-594.7388819519412,4151
-592.1036825647604,4214
-589.4692099242818,4178
-586.8354638524829,4164
-584.2024441712624,4271
-581.5701507024403,4173
-578.9385832677575,4208
-576.3077416888759,4201
-573.6776257873787,4372
-571.0482353847704,4288
-568.4195703024757,4249
-565.7916303618415,4291
-563.164415384135,4342
-560.5379251905453,4215
-557.9121596021815,4160
-555.2871184400748,4369
-552.6628015251767,4363
-550.0392086783606,4345
-547.4163397204204,4270
-544.794194472071,4229
-542.1727727539491,4356
-539.5520743866118,4291
-536.9320991905377,4402
-534.3128469861261,4417
-531.6943175936979,4325
-529.0765108334947,4419
-526.4594265256793,4439
-523.8430644903358,4501
-521.2274245474689,4609
-518.612506517005,4768
-515.9983102187913,4766
-513.3848354725959,4798
-510.77208209810846,4783
-508.16004991493924,4902
-505.5487387426199,4940
-502.9381484006032,4968
-500.3282787082628,4981
-497.71912948489364,4870
-495.1107005497117,4862
-492.5029917218539,4824
-489.8960028203786,4643
-487.28973366426493,4623
-484.68418407241325,4622
-482.07935386364494,4631
-479.47524285670266,4741
-476.87185087025,4619
-474.2691777228715,4727
-471.66722323307334,4627
-469.0659872192821,4738
-466.4654694998459,4732
-463.86566989303384,4711
-461.26658821703614,4612
-458.66822428996414,4778
-456.07057792985,4771
-453.4736489546475,4695
-450.877437182231,4642
-448.28194243039627,4683
-445.68716451686,4548
-443.09310325926003,4620
-440.49975847515555,4596
-437.9071299820263,4627
-435.31521759727354,4596
-432.72402113821954,4666
-430.13354042210767,4631
-427.5437752661022,4563
-424.95472548728867,4631
-422.36639090267386,4700
-419.7787713291855,4608
-417.1918665836721,4792
-414.60567648290385,4627
-412.0202008435715,4816
-409.4354394822874,4814
-406.8513922155845,4801
-404.26805885991723,4858
-401.685439231661,4894
-399.103533147112,4718
-396.522340422488,4794
-393.9418608739278,4681
-391.3620943174908,4618
-388.7830405691583,4495
-386.2046994448317,4293
-383.6270707603344,3988
-381.05015433141045,3650
-378.473949973725,3338
-375.8984575028645,2971
-373.32367673433623,2557
-370.74960748356875,2262
-368.1762495659117,1840
-365.60360279663576,1495
-363.03166699093265,1167
-360.4604419639154,933
-357.8899275306178,816
-355.32012350599507,685
-352.7510297049233,613
-350.1826459421999,570
-347.61497203254316,531
-345.04800779059235,472
-342.4817530309082,485
-339.91620756797226,486
-337.35137121618743,526
-334.7872437898774,517
-332.22382510328725,523
-329.66111497058273,475
-327.09911320585127,476
-324.53781962310075,457
-321.9772340362607,472
-319.4173562591816,455
-316.8581861056348,438
-314.2997233893127,447
-311.7419679238294,438
-309.1849195227194,466
-306.62857799943856,503
-304.0729431673641,464
-301.51801483979375,469
-298.963792829947,483
-296.41027695096386,491
-293.85746701590574,517
-291.3053628377552,521
-288.7539642294155,544
-286.2032710037115,530
-283.65328297338897,513
-281.1039999511146,554
-278.5554217494762,595
-276.007548180983,501
-273.4603790580651,483
-270.9139141930734,495
-268.3681533982807,490
-265.8230964858798,498
-263.27874326798565,534
-260.7350935566336,563
-258.1921471637804,575
-255.6499039013039,535
-253.10836358100266,556
-250.56752601459698,546
-248.02739101372765,549
-245.48795838995704,596
-242.94922795476816,594
-240.41119951956557,557
-237.8738728956746,560
-235.33724789434166,575
-232.80132432673452,564
-230.2661020039418,525
-227.73158073697357,540
-225.19776033676033,595
-222.66464061415422,643
-220.1322213799284,593
-217.60050244477725,521
-215.06948361931552,549
-212.53916471408013,617
-210.00954553952818,708
-207.48062590603843,617
-204.9524056239104,604
-202.4248845033651,681
-199.8980623545441,705
-197.37193898751036,755
-194.84651421224817,737
-192.32178783866232,673
-189.79775967657952,693
-187.27442953574644,746
-184.7517972258321,789
-182.2298625564256,717
-179.7086253370378,696
-177.18808537710026,680
-174.66824248596583,715
-172.14909647290835,797
-169.6306471471229,853
-167.11289431772548,727
-164.59583779375328,721
-162.07947738416453,753
-159.5638128978386,830
-157.04884414357605,1044
-154.53457093009854,1121
-152.02099306604828,1003
-149.50811035998936,817
-146.99592262040665,764
-144.48442965570587,819
-141.97363127421409,922
-139.46352728417958,1213
-136.95411749377126,1408
-134.44540171107985,1236
-131.93737974411636,906
-129.43005140081357,890
-126.92341648902493,1038
-124.41747481652521,1068
-121.91222619101006,1326
-119.40767042009657,1658
-116.90380731132257,2015
-114.40063667214702,1654
-111.8981583099503,1394
-109.3963720320337,1484
-106.89527764561933,1795
-104.39487495785067,2080
-101.89516377579241,2526
-99.39614390642998,3640
-96.89781515667039,4915
-94.40017733334128,5622
-91.90323024319173,4951
-89.40697369289148,3565
-86.91140748903172,2524
-84.41653143812482,2384
-81.92234534660395,2809
-79.42884902082358,4295
-76.93604226705907,7762
-74.4439248915071,12648
-71.95249670028534,15959
-69.46175749943245,16689
-66.97170709490854,15688
-64.48234529259423,12597
-61.99367189829195,9072
-59.50568671772464,7663
-57.01838955653636,7980
-54.53178022029283,8164
-52.045858514480074,7896
-49.560624244506016,8840
-47.07607721569923,10154
-44.59221723330904,10109
-42.10904410250669,9326
-39.62655762838392,7471
-37.14475761595372,6434
-34.66364387015028,5655
-32.18321619582866,5785
-29.70347439776515,6723
-27.224418280657005,7446
-24.74604764912317,9007
-22.26836230770266,15109
-19.7913620608565,33062
-17.315046712966478,65039
-14.83941606833514,65039
-12.36446993118659,65039
-9.89020810566592,65039
-7.416630395839093,65039
-4.94373660569363,65039
-2.471526539137585,65039
-6.821210263296962E-13,65039
2.47084320796705,65039
4.941003281093458,65039
7.410480415786196,65039
9.879274808531363,65039
12.347386655893956,65039
14.814816154518212,65039
17.28156350112681,65039
19.74762889252179,65039
22.21301252558385,20334
24.67771459727237,3292
27.141735304626195,1901
29.605074844762612,1623
32.06773341487792,1410
34.52971121224755,1587
36.99100843422559,1607
39.45162527824516,1548
41.91156194181792,1406
44.370818622535126,1221
46.82939551806646,1226
49.287292826160524,1218
51.74451074464503,1335
54.201049471426245,1223
56.65690920448981,1043
59.112090141899785,1018
61.56659248179983,1128
64.02041642241159,1099
66.4735621620365,1029
68.92602989905402,1056
71.37781983192338,1166
73.82893215918205,1118
76.27936707944684,1061
78.72912479141326,962
81.17820549385567,1019
83.62660938562783,1077
86.07433666566146,946
88.5213875329681,843
90.96776218663751,882
93.41346082583925,960
95.85848364982041,1038
98.30283085790859,1039
100.7465026495089,860
103.18949922410604,801
105.63182078126385,845
108.07346752062438,902
110.51443964190923,961
112.95473734491827,760
115.39436082953114,809
117.83331029570547,781
120.27158594347827,739
122.7091879729652,852
125.1461165843615,832
127.58237197794062,760
130.01795435405518,776
132.4528639131364,855
134.88710085569494,816
137.32066538231982,793
139.75355769367923,803
142.1857779905207,832
144.61732647366978,833
147.04820334403132,872
149.47840880258934,963
151.90794305040674,1083
154.33680628862487,1332
156.76499871846443,1627
159.19252054122433,2000
161.61937195828352,2422
164.04555317109896,2955
166.47106438120693,3417
168.89590579022217,3840
171.320077599839,4193
173.7435800118302,4375
176.16641322804742,4817
178.58857745042144,4916
181.01007288096173,5291
183.43089972175687,5712
185.85105817497413,6069
188.27054844285988,6302
190.6893707277394,6634
193.10752523201643,7003
195.5250121581745,7257
197.9418317087751,7389
200.3579840864594,7391
202.7734694939469,7628
205.18828813403627,7634
207.6024402096051,7703
210.01592592360964,7682
212.42874547908548,7792
214.84089907914665,7916
217.2523869269868,7990
219.66320922587727,7904
222.0733661791695,7907
224.48285799029293,8024
226.8916848627572,8134
229.29984700014882,8172
231.7073446061355,8283
234.11417788446204,8137
236.520347038953,8199
238.92585227351185,8263
241.33069379212054,8038
243.73487179884035,8288
246.1383864978112,8415
248.541238093252,8210
250.9434267894609,8358
253.34495279081432,8144
255.74581630176783,8285
258.1460175268563,8261
260.54555667069314,8276
262.9444339379703,8206
265.3426495334594,8214
267.7402036620107,8225
270.1370965285529,8186
272.53332833809407,8184
274.9288992957214,8158
277.32380960660055,8160
279.718059475976,8195
282.1116491091717,8192
284.5045787115897,8175
286.89684848871195,8120
289.2884586460981,8262
291.67940938938807,8118
294.0697009242996,8368
296.4593334566299,8305
298.84830719225477,8297
301.23662233712923,8382
303.6242790972866,8344
306.01127767884,8406
308.39761828798066,8328
310.78330113097934,8499
313.16832641418534,8485
315.5526943440269,8499
317.9364051270112,8528
320.3194589697242,8613
322.70185607883093,8400
325.0835966610754,8169
327.4646809232805,8383
329.8451090723478,8342
332.2248813152577,8372
334.6039978590701,8320
336.9824589109231,8384
339.36026467803447,8277
341.7374153677,8254
344.113911187295,8301
346.48975234427337,8220
348.8649390461686,8243
351.2394715005918,8459
353.61334991523415,8277
355.9865744978655,8440
358.35914545633375,8477
360.73106299856715,8326
363.10232733257146,8537
365.47293866643247,8381
367.84289720831396,8515
370.2122031664593,8425
372.5808567491905,8550
374.9488581649083,8565
377.31620762209275,8499
379.6829053293021,8460
382.0489514951745,8540
384.4143463284262,8433
386.7790900378528,8442
389.14318283232853,8401
391.50662492080653,8473
393.86941651231916,8273
396.23155781597745,8375
398.5930490409713,8289
400.9538903965696,8343
403.3140820921202,8404
405.6736243370498,8318
408.03251734086336,8539
410.3907613131465,8539
412.74835646356166,8310
415.10530300185144,8531
417.4616011378372,8574
419.81725108141893,8360
422.1722530425758,8630
424.5266072313656,8577
426.880313857925,8536
429.2333731324701,8672
431.58578526529516,8544
433.9375504667738,8624
436.2886689473588,8441
438.63914091758113,8408
440.9889665880513,8518
443.33814616945835,8407
445.68667987257015,8362
448.03456790823395,8286
450.3818104873759,8390
452.72840782100013,8486
455.07436012019105,8491
457.41966759611057,8718
459.7643304600007,8718
462.10834892318155,8578
464.4517231970525,8707
466.79445349309174,8541
469.1365400228566,8663
471.4779829979826,8693
473.81878263018564,8680
476.15893913125876,8626
478.4984527130747,8593
480.8373235875855,8672
483.17555196682144,8830
485.5131380628919,8763
487.8500820879857,8788
490.1863842543697,8806
492.52204477439034,8825
494.8570638604725,9132
497.1914417251204,9286
499.52517858091653,9366
501.85827464052306,9522
504.19073011668036,9686
506.5225452222086,9718
508.85372017000566,9844
511.18425517304956,9799
513.514150444396,9940
515.8434061971808,10770
518.1720226446176,11730
520.4999999999999,11780
522.8273384766991,11480
525.1540382881666,11026
527.480099647932,10314
529.8055227696037,10044
532.1303078668694,9562
534.454455153496,9247
536.777964843328,9248
539.1008371502907,9173
541.4230722883866,8907
543.744670471698,8930
546.0656319143858,8925
548.3859568306899,8924
550.7056454349294,9044
553.0246979415016,8996
555.3431145648834,8962
557.6608955196306,8827
559.978041020377,8964
562.2945512818363,8910
564.6104265188006,8888
566.9256669461412,8998
569.2402727788082,9090
571.5542442318302,9054
573.8675815203156,8916
576.1802848594508,9055
578.4923544645015,9010
580.8037905508126,9127
583.114593333807,9388
585.4247630289875,9232
587.7342998519354,9050
590.0432040183106,9142
592.3514757438526,8998
594.6591152443794,9096
596.9661227357875,9132
599.2724984340531,9250
601.578242555231,9354
603.8833553154542,9342
606.1878369309362,9260
608.4916876179676,9219
610.7949075929192,9265
613.0974970722403,9255
615.3994562724587,9214
617.7007854101818,9080
620.0014847020951,9083
622.3015543649641,9243
624.6009946156324,9166
626.8998056710224,9192
629.1979877481361,9256
631.4955410640538,9388
633.7924658359349,9224
636.0887622810175,9139
638.3844306166192,9279
640.6794710601358,9304
642.9738838290426,9416
645.2676691408932,9179
647.5608272133207,9285
649.853358264037,9489
652.1452625108324,9450
654.4365401715764,9312
656.7271914642178,9468
659.0172166067838,9470
661.3066158173809,9526
663.5953893141935,9761
665.8835373154867,9373
668.1710600396028,9425
670.4579577049639,9520
672.7442305300709,9427
675.0298787335033,9782
677.3149025339197,9574
679.599302150058,9625
681.8830778007342,9451
684.1662297048437,9479
686.4487580813608,9572
688.7306631493387,9517
691.0119451279091,9642
693.2926042362834,9730
695.5726406937516,9743
697.8520547196814,9707
700.1308465335215,9800
702.4090163547982,9543
704.6865644031171,9658
706.9634908981619,9582
709.2397960596965,9621
711.5154801075631,9621
713.7905432616823,9557
716.0649857420548,9651
718.3388077687592,9725
720.612009561953,9478
722.8845913418733,9744
725.1565533288352,9756
727.427895743234,9661
729.6986188055427,9702
731.9687227363137,9701
734.238207756178,9640
736.5070740858458,10042
738.7753219461066,9731
741.0429515578281,9791
743.3099631419569,9707
745.5763569195191,9881
747.8421331116193,9819
750.1072919394409,9790
752.3718336242467,9757
754.6357583873777,9922
756.8990664502545,9754
759.1617580343765,9907
761.423833361321,9892
763.6852926527457,9899
765.9461361303862,9837
768.206364016058,9877
770.4659765316536,9893
772.7249738991469,9756
774.9833563405886,9918
777.2411240781092,9781
779.4982773339183,9701
781.7548163303044,10042
784.010741289634,10050
786.2660524343538,9968
788.5207499869881,9840
790.7748341701416,9893
793.0283052064964,9989
795.2811633188143,9967
797.5334087299362,10096
799.7850416627813,10054
802.0360623403484,10089
804.2864709857143,10077
806.5362678220353,10080
808.7854530725468,10317
811.0340269605625,10172
813.2819897094754,10227
815.5293415427581,10255
817.77608268396,10213
820.0222133567116,9910
822.2677337847211,10080
824.5126441917765,10070
826.7569448017433,10297
829.0006358385675,10155
831.2437175262731,10003
833.4861900889629,10079
835.7280537508192,10052
837.9693087361026,10303
840.2099552691533,10164
842.4499935743896,10278
844.689423876309,10138
846.9282463994886,10316
849.1664613685833,10269
851.4040690083276,10179
853.6410695435349,10294
855.877463199097,10293
858.1132501999847,10213
860.3484307712487,10283
862.5830051380175,10273
864.8169735254988,10214
867.0503361589791,10164
869.2830932638243,10397
871.5152450654786,10275
873.7467917894654,10531
875.9777336613873,10427
878.2080709069252,10374
880.4378037518389,10455
882.666932421968,10412
884.8954571432301,10403
887.1233781416219,10430
889.3506956432192,10386
891.5774098741766,10346
893.803521060728,10458
896.0290294291852,10406
898.2539352059397,10343
900.4782386174619,10315
902.7019398903011,10371
904.925039251085,10288
907.147536926521,10478
909.3694331433943,10434
911.59072812857,10323
913.8114221089921,10264
916.0315153116827,10299
918.2510079637437,10345
920.4699002923547,10300
922.6881925247761,10291
924.905884888345,10256
927.1229776104793,10327
929.3394709186747,10433
931.555365040506,10280
933.7706602036275,10175
935.9853566357709,10507
938.1994545647489,10472
940.4129542184515,10415
942.6258558248488,10478
944.8381596119883,10433
947.0498658079974,10483
949.2609746410825,10394
951.4714863395287,10268
953.6814011316998,10408
955.8907192460387,10603
958.0994409110671,10342
960.3075663553858,10326
962.5150958076741,10478
964.7220294966913,10346
966.928367651274,10610
969.1341105003388,10454
971.3392582728806,10659
973.5438111979742,10685
975.747769504772,10500
977.9511334225061,10540
980.153903180487,10642
982.3560790081052,10466
984.5576611348289,10678
986.7586497902058,10506
988.9590452038618,10505
991.158847605503,10601
993.3580572249133,10740
995.5566742919558,10461
997.7546990365728,10375
999.952131688785,10416
1002.1489724786926,10345
1004.3452216364743,10244
1006.5408793923874,10470
1008.7359459767691,10305
1010.9304216200343,10387
1013.1243065526781,10391
1015.3176010052733,10262
1017.510305208472,10361
1019.7024193930064,10466
1021.8939437896848,10403
1024.0848786293977,10544
1026.2752241431122,10437
1028.4649805618747,10428
1030.6541481168115,10279
1032.842727039127,10421
1035.0307175601051,10272
1037.2181199111074,10512
1039.4049343235752,10380
1041.591161029029,10481
1043.7768002590683,10516
1045.9618522453698,10754
1048.1463172196918,10526
1050.3301954138697,10660
1052.513487059818,10762
1054.69619238953,10653
1056.8783116350783,10595
1059.0598450286152,10558
1061.2407928023704,10531
1063.4211551886528,10660
1065.6009324198508,10676
1067.780124728432,10429
1069.9587323469414,10633
1072.1367555080046,10841
1074.314194444325,10710
1076.4910493886855,10798
1078.667320573947,10599
1080.843008233051,10579
1083.0181125990161,10481
1085.1926339049414,10475
1087.3665723840027,10688
1089.5399282694575,10662
1091.7127017946405,10443
1093.8848931929647,10596
1096.0565026979243,10587
1098.2275305430899,10604
1100.3979769621128,10383
1102.567842188722,10608
1104.737126456726,10588
1106.9058300000124,10672
1109.0739530525475,10679
1111.2414958483764,10773
1113.4084586216231,10464
1115.5748416064907,10567
1117.7406450372605,10494
1119.9058691482942,10582
1122.0705141740304,10710
1124.2345803489884,10666
1126.3980679077658,10712
1128.5609770850388,10692
1130.7233081155623,10724
1132.8850612341707,10763
1135.0462366757774,10938
1137.2068346753745,10960
1139.3668554680326,10988
1141.526299288901,10811
1143.68516637321,10836
1145.8434569562655,10829
1148.001171273455,10942
1150.158309560244,10708
1152.3148720521767,10875
1154.470858984876,10719
1156.626270594044,10740
1158.7811071154629,10787
1160.9353687849912,10871
1163.089055838569,10734
1165.242168512213,10934
1167.3947070420209,10811
1169.5466716641677,10741
1171.6980626149075,10910
1173.8488801305748,10810
1175.9991244475814,10732
1178.1487958024186,10764
1180.2978944316555,10664
1182.4464205719428,10775
1184.5943744600072,10760
1186.7417563326567,10577
1188.8885664267755,10671
1191.0348049793297,10801
1193.1804722273619,10816
1195.325568407995,10823
1197.4700937584303,10876
1199.614048515948,10994
1201.7574329179074,10745
1203.900247201746,11047
1206.042491604982,10947
1208.1841663652099,10902
1210.3252717201053,11069
1212.465807907422,11042
1214.6057751649923,11064
1216.7451737307279,11168
1218.8840038426192,10928
1221.0222657387353,11184
1223.1599596572241,11019
1225.2970858363137,11069
1227.4336445143094,10938
1229.5696359295966,11130
1231.705060320639,11002
1233.8399179259786,11073
1235.9742089842384,11062
1238.107933734118,10997
1240.2410924143974,11085
1242.373685263935,11166
1244.5057125216676,10993
1246.6371744266116,10870
1248.7680712178621,11140
1250.898403134593,11060
1253.028170416058,11086
1255.1573733015875,11024
1257.2860120305932,11109
1259.4140868425648,11105
1261.54159797707,11139
1263.6685456737569,11211
1265.7949301723515,11023
1267.9207517126597,11108
1270.046010534565,11036
1272.1707068780306,10928
1274.2948409830983,11129
1276.4184130898889,11184
1278.541423438603,11109
1280.6638722695184,11268
1282.785759822993,11341
1284.9070863394636,11165
1287.0278520594447,11284
1289.1480572235314,11279
1291.2677020723963,11186
1293.3867868467923,11296
1295.5053117875495,11430
1297.623277135579,11530
1299.740683131868,11432
1301.8575300174857,11548
1303.973818033578,11656
1306.0895474213703,11400
1308.2047184221678,11297
1310.3193312773528,11544
1312.4333862283888,11379
1314.5468835168163,11531
1316.659823384255,11539
1318.7722060724045,11501
1320.8840318230418,11505
1322.9953008780249,11674
1325.1060134792888,11690
1327.2161698688478,11434
1329.3257702887959,11474
1331.4348149813054,11571
1333.5433041886276,11390
1335.6512381530933,11485
1337.7586171171101,11540
1339.8654413231675,11615
1341.9717110138317,11555
1344.0774264317488,11555
1346.1825878196432,11456
1348.2871954203192,11633
1350.3912494766587,11738
1352.4947502316231,11534
1354.5976979282532,11544
1356.7000928096686,11372
1358.8019351190665,11562
1360.9032250997243,11573
1363.0039629949988,11533
1365.1041490483235,11699
1367.2037835032133,11552
1369.3028666032606,11689
1371.401398592137,11742
1373.4993797135926,11419
1375.5968102114575,11724
1377.6936903296396,11460
1379.7900203121262,11562
1381.8858004029835,11584
1383.9810308463561,11723
1386.075711886469,11659
1388.1698437676241,11712
1390.2634267342032,11797
1392.356461030667,11705
1394.4489469015557,11748
1396.5408845914872,11901
1398.6322743451592,11848
1400.7231164073469,11831
1402.813411022907,11658
1404.903158436773,11895
1406.9923588939578,11981
1409.0810126395531,11887
1411.1691199187303,11789
1413.2566809767386,11813
1415.343696058907,11726
1417.4301654106425,11909
1419.5160892774315,11797
1421.6014679048399,11799
1423.6863015385125,11569
1425.7705904241707,11837
1427.8543348076178,11752
1429.9375349347342,11832
1432.0201910514802,11790
1434.102303403894,11786
1436.1838722380944,11987
1438.2648978002767,11880
1440.3453803367174,11926
1442.4253200937692,11987
1444.5047173178677,11933
1446.5835722555234,11818
1448.6618851533285,11931
1450.739656257952,12097
1452.8168858161434,11883
1454.8935740747306,12009
1456.96972128062,11864
1459.045327680797,12029
1461.120393522327,12267
1463.1949190523528,11955
1465.2689045180973,12176
1467.3423501668608,12033
1469.415256246024,11996
1471.4876230030463,12158
1473.559450685465,12208
1475.6307395408976,12245
1477.7014898170391,12049
1479.771701761665,12090
1481.8413756226287,12351
1483.9105116478618,12369
1485.9791100853772,12294
1488.0471711832643,12405
1490.1146951896926,12374
1492.1816823529098,12162
1494.2481329212433,12283
1496.3140471430984,12433
1498.3794252669609,12299
1500.4442675413939,12171
1502.5085742150404,12375
1504.572345536622,12147
1506.6355817549388,12396
1508.6982831188702,12388
1510.7604498773744,12299
1512.8220822794883,12265
1514.8831805743293,12339
1516.9437450110909,12365
1519.003775839048,12359
1521.0632733075522,12404
1523.1222376660367,12732
1525.1806691640113,12373
1527.2385680510652,12591
1529.2959345768668,12505
1531.3527689911643,12675
1533.4090715437833,12612
1535.4648424846291,12453
1537.5200820636855,12617
1539.5747905310159,12658
1541.6289681367616,12788
1543.6826151311434,12611
1545.7357317644614,12629
1547.7883182870937,12898
1549.8403749494987,12586
1551.8919020022113,12783
1553.9428996958477,12732
1555.9933682811015,12790
1558.0433080087469,12754
1560.0927191296346,12891
1562.1416018946961,12921
1564.1899565549415,12993
1566.2377833614592,13027
1568.2850825654164,13042
1570.3318544180606,12940
1572.3780991707158,12683
1574.423817074788,12532
1576.4690083817595,12786
1578.5136733431923,12695
1580.5578122107272,12594
1582.601425236085,12437
1584.6445126710646,12621
1586.6870747675434,12567
1588.7291117774776,12434
1590.7706239529034,12283
1592.8116115459347,12373
1594.8520748087658,12241
1596.8920139936686,12307
1598.9314293529933,12189
1600.9703211391711,12372
1603.008689604711,12172
1605.0465350022005,12158
1607.0838575843068,12203
1609.1206576037753,12276
1611.1569353134305,12019
1613.1926909661765,11992
1615.2279248149953,11976
1617.2626371129481,12174
1619.2968281131757,12097
1621.3304980688963,12235
1623.3636472334088,11956
1625.39627586009,12021
1627.428384202396,12003
1629.459972513861,12125
1631.4910410480993,12008
1633.5215900588028,12116
1635.551619799744,12108
1637.5811305247717,12078
1639.6101224878166,12052
1641.6385959428862,12185
1643.6665511440683,11936
1645.693988345528,12067
1647.7209078015112,12138
1649.7473097663405,12055
1651.7731944944203,11921
1653.7985622402307,11933
1655.823413258333,11959
1657.847747803366,11953
1659.8715661300494,12139
1661.8948684931793,12000
1663.9176551476316,12030
1665.9399263483624,11887
1667.9616823504057,11857
1669.982923408873,11818
1672.0036497789574,11930
1674.0238617159293,11975
1676.043559475138,11955
1678.0627433120121,11909
1680.081413482059,11917
1682.0995702408654,11728
1684.117213844096,11896
1686.134344547495,11863
1688.1509626068864,11824
1690.1670682781705,11731
1692.182661817329,11956
1694.1977434804217,11796
1696.2123135235875,12053
1698.226372203043,12014
1700.2399197750851,11989
1702.2529564960905,11874
1704.2654826225112,12152
1706.277498410882,11923
1708.2890041178139,11962
1710.2999999999988,11974
1712.3104863142066,11841
1714.3204633172854,11933
1716.329931266163,11971
1718.3388904178469,11985
1720.3473410294214,12122
1722.3552833580516,12286
1724.3627176609807,12103
1726.3696441955308,12342
1728.3760632191033,11991
1730.3819749891782,11889
1732.3873797633146,11990
1734.3922777991502,12130
1736.3966693544012,12072
1738.4005546868639,11931
1740.4039340544127,11906
1742.406807715001,11966
1744.4091759266616,11835
1746.4110389475054,11895
1748.4123970357223,11904
1750.413250449582,11962
1752.4135994474318,11764
1754.4134442876993,12036
1756.4127852288902,12128
1758.4116225295893,11942
1760.4099564484595,11780
1762.407787244244,11872
1764.405115175764,11831
1766.4019405019203,11890
1768.3982634816916,11836
1770.3940843741357,11949
1772.3894034383907,11989
1774.3842209336717,12062
1776.378537119274,12035
1778.372352254571,11955
1780.3656665990156,11780
1782.3584804121397,12144
1784.3507939535534,11932
1786.3426074829463,11683
1788.3339212600863,12026
1790.3247355448211,12030
1792.3150505970766,11818
1794.3048666768573,12146
1796.2941840442477,12064
1798.2830029594106,12045
1800.2713236825884,11877
1802.2591464741004,11870
1804.2464715943465,12011
1806.2332993038058,12208
1808.2196298630352,11925
1810.2054635326708,12018
1812.190800573428,12036
1814.175641246101,12151
1816.1599858115628,12075
1818.1438345307652,12242
1820.127187664738,12163
1822.1100454745924,12038
1824.092408221516,12200
1826.0742761667766,11997
1828.055649571721,11910
1830.0365286977735,11955
1832.0169138064398,12010
1833.9968051593014,12029
1835.9762030180214,12065
1837.9551076443408,12036
1839.9335193000788,11984
1841.9114382471344,12060
1843.888864747485,11984
1845.8657990631878,11914
1847.842241456378,12110
1849.8181921892697,11944
1851.7936515241558,11865
1853.7686197234098,12355
1855.7430970494815,12138
1857.7170837649014,11999
1859.6905801322787,11953
1861.6635864143004,12023
1863.6361028737338,12050
1865.608129773424,12261
1867.5796673762961,12045
1869.5507159453537,12074
1871.521275743678,12085
1873.4913470344313,12145
1875.4609300808534,12219
1877.4300251462632,12104
1879.3986324940588,12188
1881.366752387717,12250
1883.3343850907936,12202
1885.3015308669228,12229
1887.268189979819,12322
1889.2343626932739,12202
1891.2000492711595,12177
1893.1652499774254,12245
1895.1299650761011,12099
1897.0941948312952,12374
1899.0579395071945,12308
1901.0211993680641,12294
1902.98397467825,12199
1904.9462657021745,12184
1906.9080727043415,12192
1908.869395949332,12363
1910.8302357018065,12238
1912.790592226504,12142
1914.7504657882428,12291
1916.7098566519212,12118
1918.6687650825133,12174
1920.6271913450764,12327
1922.5851357047422,12076
1924.5425984267245,12219
1926.499579776314,12292
1928.4560800188833,12283
1930.4120994198802,12078
1932.367638244833,12096
1934.32269675935,12252
1936.2772752291175,12268
1938.231373919899,12232
1940.1849930975404,12372
1942.1381330279637,12242
1944.0907939771696,12167
1946.0429762112412,12111
1947.9946799963363,12388
1949.9459055986945,12244
1951.896653284633,12326
1953.8469233205478,12456
1955.7967159729142,12302
1957.7460315082863,12309
1959.6948701932974,12305
1961.6432322946594,12402
1963.5911180791632,12275
1965.5385278136787,12535
1967.4854617651545,12299
1969.4319202006182,12397
1971.377903387176,12593
1973.3234115920136,12400
1975.268445082395,12284
1977.2130041256642,12401
1979.1570889892423,12437
1981.1006999406304,12475
1983.04383724741,12503
1984.986501177238,12285
1986.928691997853,12442
1988.8704099770712,12505
1990.811655382789,12519
1992.7524284829801,12426
1994.692729545698,12291
1996.6325588390755,12323
1998.5719166313224,12195
2000.5108031907307,12484
2002.4492187856677,12443
2004.387163684583,12506
2006.3246381560011,12554
2008.2616424685298,12449
2010.1981768908527,12415
2012.1342416917332,12332
2014.069837140014,12454
2016.0049635046162,12283
2017.9396210545406,12418
2019.8738100588666,12379
2021.8075307867502,12412
2023.740783507431,12483
2025.6735684902228,12409
2027.6058860045214,12333
2029.5377363198004,12360
2031.4691197056118,12305
2033.4000364315875,12473
2035.3304867674374,12364
2037.260470982952,12433
2039.189989347998,12535
2041.1190421325232,12477
2043.047629606554,12332
2044.9757520401945,12438
2046.9034097036288,12526
2048.8306028671195,12427
2050.7573318010086,12398
2052.683596775716,12548
2054.609398061742,12760
2056.5347359296647,12705
2058.4596106501403,12612
2060.384022493906,12599
2062.3079717317764,12554
2064.231458634646,12632
2066.1544834734873,12619
2068.077046519352,12669
2069.99914804337,12707
2071.9207883167524,12870
2073.8419676107865,12724
2075.7626861968406,12760
2077.6829443463607,12610
2079.6027423308715,12811
2081.522080421977,12858
2083.440958891362,12673
2085.359378010786,12698
2087.2773380520907,12900
2089.194839287196,12575
2091.111881988101,12680
2093.0284664268825,12579
2094.9445928756973,12563
2096.86026160678,12517
2098.775472892446,12750
2100.690227005088,12996
2102.604524217178,12880
2104.5183648012676,12643
2106.431749029985,12945
2108.34467717604,12826
2110.2571495122206,12914
2112.169166311393,12682
2114.080727846503,12882
2115.9918343905747,12823
2117.902486216711,13000
2119.8126835980956,12797
2121.722426807987,12746
2123.6317161197285,12782
2125.5405518067364,13028
2127.448934142509,13012
2129.356863400624,12898
2131.264339854737,13020
2133.1713637785815,13130
2135.077935445972,13022
2136.9840551308002,12958
2138.889723107037,13004
2140.7949396487334,12986
2142.699705030018,13042
2144.6040195250994,13131
2146.507883408264,13106
2148.4112969538774,13206
2150.3142604363848,13079
2152.2167741303097,13101
2154.1188383102535,13220
2156.0204532508997,13202
2157.9216192270064,13176
2159.822336513414,13292
2161.7226053850413,13145
2163.622426116884,13252
2165.5217989840185,13312
2167.4207242616,13248
2169.319202224862,13139
2171.2172331491165,13134
2173.1148173097563,13168
2175.0119549822507,13192
2176.90864644215,13117
2178.8048919650823,13266
2180.7006918267534,13192
2182.596046302952,13379
2184.4909556695407,13294
2186.3854202024645,13230
2188.279440177746,13189
2190.173015871487,13319
2192.066147559868,13327
2193.958835519149,13202
2195.851080025667,13394
2197.7428813558417,13193
2199.6342397861667,13279
2201.5251555932186,13342
2203.415629053651,13265
2205.3056604441986,13190
2207.19525004167,13505
2209.084398122958,13680
2210.9731049650327,13509
2212.861370844941,13435
2214.749196039812,13382
2216.636580826851,13524
2218.523525483344,13457
2220.410030286655,13444
2222.296095514226,13442
2224.1817214435805,13333
2226.066908352319,13498
2227.951656518121,13601
2229.835966218746,13519
2231.71983773203,13686
2233.6032713358913,13466
2235.486267308324,13526
2237.3688259274036,13589
2239.2509474712824,13495
2241.132632218193,13321
2243.013880446447,13272
2244.8946924344323,13643
2246.7750684606203,13566
2248.6550088035574,13442
2250.534513741871,13496
2252.413583554265,13258
2254.292218519526,13342
2256.170418916517,13484
2258.0481850241786,13410
2259.925517121534,13323
2261.8024154876825,13447
2263.678880401803,13253
2265.5549121431536,13433
2267.430510991071,13382
2269.305677224971,13400
2271.180411124348,13425
2273.0547129687766,13513
2274.9285830379076,13524
2276.8020216114737,13187
2278.6750289692845,13319
2280.5476053912294,13561
2282.4197511572766,13314
2284.2914665474727,13421
2286.162751841943,13342
2288.0336073208937,13446
2289.904033264608,13461
2291.774029953448,13395
2293.6435976678554,13355
2295.5127366883517,13515
2297.381447295534,13378
2299.2497297700825,13364
2301.1175843927526,13435
2302.9850114443825,13416
2304.852011205885,13295
2306.7185839582553,13219
2308.5847299825664,13267
2310.4504495599676,13314
2312.3157429716925,13283
2314.1806104990483,13420
2316.0450524234247,13355
2317.9090690262888,13465
2319.772660589186,13408
2321.635827393742,13303
2323.498569721661,13272
2325.3608878547248,13249
2327.2227820747967,13531
2329.0842526638157,13342
2330.945299903803,13300
2332.805924076857,13334
2334.6661254651535,13452
2336.525904350951,13551
2338.3852610165827,13412
2340.244195744464,13567
2342.102708817088,13451
2343.9608005170253,13419
2345.8184711269287,13643
2347.675720929526,13680
2349.532550207628,13241
2351.38895924412,13265
2353.24494832197,13440
2355.100517724223,13288
2356.955667734004,13406
2358.810398634514,13606
2360.664710709037,13401
2362.5186042409337,13418
2364.3720795136437,13437
2366.225136810686,13493
2368.0777764156583,13460
2369.929998612237,13437
2371.7818036841777,13618
2373.633191915315,13283
2375.484163589562,13320
2377.3347189909114,13513
2379.184858403434,13454
2381.03458211128,13501
2382.8838903986775,13339
2384.732783549936,13502
2386.5812618494406,13502
2388.4293255816588,13530
2390.2769750311327,13548
2392.1242104824883,13459
2393.971032220427,13549
2395.8174405297295,13577
2397.6634356952563,13524
2399.509018001947,13630
2401.3541877348193,13490
2403.1989451789705,13347
2405.043290619576,13353
2406.8872243418905,13474
2408.730746631247,13511
2410.5738577730594,13585
2412.4165580528183,13551
2414.258847756095,13254
2416.100727168537,13540
2417.9421965758734,13383
2419.783256263912,13555
2421.623906518538,13586
2423.4641476257157,13438
2425.303979871491,13664
2427.143403541984,13530
2428.9824189233977,13538
2430.821026302012,13532
2432.6592259641866,13309
2434.497018196361,13510
2436.33440328505,13574
2438.171381516851,13460
2440.00795317844,13495
2441.844118556569,13500
2443.6798779380724,13629
2445.5152316098606,13716
2447.3501798589255,13714
2449.1847229723357,13430
2451.0188612372403,13714
2452.8525949408663,13554
2454.6859243705203,13666
2456.518849813587,13824
2458.3513715575314,13842
2460.183489889895,13590
2462.015205098301,13806
2463.8465174704493,13627
2465.67742729412,13808
2467.5079348571717,13905
2469.338040447542,13734
2471.1677443532476,13806
2472.9970468623833,13799
2474.825948263123,13645
2476.6544488437207,13663
2478.482548892508,13593
2480.310248697896,13690
2482.137548548374,13771
2483.9644487325118,13815
2485.790949538956,13796
2487.617051256433,13964
2489.44275417375,13793
2491.26805857979,13831
2493.0929647635157,13814
2494.917473013971,13741
2496.741583620276,13809
2498.5652968716304,13834
2500.3886130573137,13933
2502.2115324666834,13869
2504.0340553891765,13736
2505.856182114308,13669
2507.6779129316733,14228
2509.499248130945,13847
2511.3201880018764,13947
2513.140732834298,13957
2514.9608829181198,13762
2516.780638543331,13573
2518.6,13725
2520.418967578273,13822
2522.237541568376,13791
2524.0557222606144,13745
2525.8735099453706,13765
2527.6909049131086,13555
2529.507907454368,13659
2531.32451785977,13765
2533.140736420014,14076
2534.9565634258774,13890
2536.771999168218,14017
2538.5870439379714,14162
2540.4016980261526,13930
2542.2159617238544,14053
2544.02983532225,13795
2545.8433191125914,13979
2547.656413386209,14036
2549.4691184345115,14195
2551.2814345489874,14094
2553.093362021204,13844
2554.904901142808,14036
2556.716052205523,13892
2558.526815501153,13969
2560.3371913215824,14030
2562.147179958771,14056
2563.956781704761,13978
2565.7659968516705,14037
2567.5748256916986,13877
2569.3832685171224,13783
2571.1913256202984,13778
2572.9989972936614,14063
2574.806283829725,14087
2576.613185521084,14044
2578.4197026604074,14052
2580.2258355404483,14043
2582.031584454035,14062
2583.836949694077,14058
2585.6419315535613,13780
2587.4465303255533,14140
2589.2507463032002,13840
2591.0545797797245,13940
2592.8580310484303,14129
2594.6611004026995,14010
2596.463788135992,14072
2598.266094541849,14003
2600.0680199138874,14050
2601.869564545807,14219
2603.670728731383,14192
2605.4715127644704,13849
2607.2719169390048,14017
2609.071941548998,13823
2610.8715868885433,14186
2612.670853251811,14158
2614.469740933052,13982
2616.268250226594,14376
2618.0663814268455,13953
2619.864134828292,13812
2621.6615107255006,13918
2623.458509413115,14022
2625.2551311858597,14143
2627.0513763385347,13937
2628.8472451660223,14116
2630.6427379632833,13950
2632.4378550253564,13981
2634.232596647359,13769
2636.026963124488,13886
2637.8209547520187,14074
2639.6145718253065,14100
2641.407814639785,13837
2643.200683490966,14057
2644.9931786744414,14053
2646.7853004858807,14110
2648.577049221034,14166
2650.3684251757277,13807
2652.1594286458712,13939
2653.9500599274484,13926
2655.740319316525,14035
2657.5302071092437,13969
2659.3197236018286,14026
2661.10886909058,14070
2662.8976438718782,14083
2664.686048242183,14057
2666.4740824980327,14138
2668.2617469360443,14067
2670.0490418529134,14369
2671.8359675454153,14036
2673.622524310403,14274
2675.408712444811,14279
2677.1945322456495,14126
2678.979984010009,14171
2680.76506803506,14031
2682.5497846180497,14008
2684.334134056306,14161
2686.1181166472343,14055
2687.9017326883213,14172
2689.6849824771293,14117
2691.4678663113013,14104
2693.2503844885596,14113
2695.032537306705,13984
2696.8143250636167,14286
2698.5957480572542,14139
2700.3768065856534,14020
2702.1575009469316,14062
2703.937831439283,14172
2705.717798360982,14075
2707.4974020103837,14192
2709.276642685917,14290
2711.055520686095,14075
2712.834036309506,14185
2714.612189854819,14206
2716.389981620782,14126
2718.1674119062204,13980
2719.944481010041,14110
2721.721189231226,13861
2723.4975368688415,14032
2725.273524222027,14064
2727.0491515900053,13979
2728.824419272075,13921
2730.5993275676146,14227
2732.3738767760838,14091
2734.148067197016,13887
2735.921899130031,14023
2737.6953728748194,13981
2739.468488731156,14067
2741.2412469988926,13957
2743.0136479779617,14232
2744.785691968372,14214
2746.5573792702116,14097
2748.3287101836504,14224
2750.099685008934,14141
2751.870304046388,14203
2753.640567596418,14297
2755.4104759595057,14137
2757.1800294362156,14254
2758.949228327187,14236
2760.7180729331412,14008
2762.486563554877,14307
2764.254700493272,14370
2766.022484049284,14175
2767.789914523947,13976
2769.5569922183786,14008
2771.3237174337705,14032
2773.090090471394,14095
2774.8561116326036,14382
2776.6217812188274,14244
2778.3870995315756,14021
2780.1520668724356,14193
2781.9166835430747,14307
2783.6809498452394,14099
2785.444866080754,14262
2787.2084325515225,14207
2788.971649559527,14108
2790.73451740683,14272
2792.4970363955713,14279
2794.2592068279705,14276
2796.0210290063264,14218
2797.7825032330147,14188
2799.543629810493,14190
2801.304409041296,14469
2803.0648412280366,14488
2804.8249266734088,14184
2806.5846656801846,14523
2808.344058551212,14259
2810.1031055894246,14235
2811.8618070978273,14363
2813.6201633795085,14451
2815.378174737636,14320
2817.1358414754536,14471
2818.893163896285,14580
2820.6501423035334,14606
2822.4067770006814,14300
2824.1630682912883,14352
2825.9190164789957,14582
2827.6746218675207,14484
2829.429884760661,14576
2831.184805462294,14502
2832.9393842763743,14439
2834.693621506936,14449
2836.4475174580916,14523
2838.201072434034,14416
2839.954286739034,14616
2841.707160677441,14333
2843.459694553685,14229
2845.2118886722724,14435
2846.96374333779,14615
2848.7152588549034,14490
2850.4664355283567,14690
2852.217273662973,14390
2853.9677735636546,14587
2855.7179355353833,14726
2857.4677598832186,14663
2859.217246912299,14353
2860.9663969278427,14357
2862.715210235146,14625
2864.4636871395846,14589
2866.211827946614,14598
2867.9596329617652,14640
2869.7071024906536,14536
2871.4542368389684,14362
2873.20103631248,14485
2874.947501217038,14413
2876.6936318585695,14459
2878.4394285430812,14380
2880.1848915766604,14528
2881.9300212654707,14521
2883.6748179157553,14685
2885.4192818338374,14404
2887.1634133261173,14658
2888.907212699077,14608
2890.6506802592744,14708
2892.393816313348,14419
2894.1366211680142,14535
2895.8790951300693,14599
2897.621238506388,14790
2899.363051603925,14682
2901.1045347297118,14539
2902.8456881908596,14583
2904.58651229456,14568
2906.327007348081,14659
2908.067173658772,14292
2909.8070115340597,14384
2911.5465212814497,14390
2913.285703208527,14458
2915.0245576229563,14186
2916.7630848324807,14306
2918.5012851449196,14382
2920.2391588681758,14442
2921.976706310227,14819
2923.7139277791334,14654
2925.4508235830313,14307
2927.187394030137,14450
2928.923639428745,14532
2930.6595600872306,14632
2932.395156314046,14695
2934.1304284177218,14760
2935.8653767068713,14823
2937.6000014901815,14650
2939.3343030764227,14829
2941.068281774442,14780
2942.8019378931644,14882
2944.5352717415976,14901
2946.2682836288236,15034
2948.0009738640065,14807
2949.7333427563885,14722
2951.465390615289,14698
2953.1971177501086,14976
2954.9285244703265,14649
2956.6596110855,14528
2958.3903779052657,14422
2960.1208252393385,14659
2961.8509533975125,14750
2963.5807626896617,14901
2965.3102534257378,14648
2967.0394259157715,14751
2968.768280469873,14765
2970.496817398232,14553
2972.2250370111146,14691
2973.952939618869,14702
2975.6805255319196,14933
2977.4077950607707,15129
2979.134748516006,14898
2980.861386208289,14814
2982.587708448359,15142
2984.313715547037,15046
2986.039407815222,15019
2987.764785563891,14835
2989.489849104102,14885
2991.2145987469908,15090
2992.9390348037705,14974
2994.6631575857346,15056
2996.3869674042576,14811
2998.1104645707887,14925
2999.83364939686,14937
3001.5565221940783,15059
3003.2790832741334,15005
3005.0013329487924,14801
3006.7232715298996,14984
3008.4448993293804,14871
3010.166216659239,14854
3011.887223831558,14918
3013.607921158498,14813
3015.3283089522993,14805
3017.0483875252826,14922
3018.7681571898443,14916
3020.4876182584626,14672
3022.2067710436927,14900
3023.9256158581707,14825
3025.644153014609,14749
3027.362382825801,14988
3029.0803056046193,15028
3030.797921664012,14950
3032.5152313170106,14990
3034.2322348767225,14921
3035.9489326563353,14935
3037.665324969115,15072
3039.3814121284063,15099
3041.097194447633,14735
3042.812672240299,14971
3044.5278458199855,15056
3046.2427155003525,15125
3047.9572815951406,14935
3049.671544418167,14864
3051.38550428333,14979
3053.0991615046073,14888
3054.812516396051,14943
3056.5255692717974,14833
3058.2383204460575,14941
3059.9507702331257,14730
3061.662918947372,14836
3063.3747669032446,15068
3065.0863144152736,14954
3066.7975617980674,15165
3068.508509366309,15220
3070.219157434767,14955
3071.9295063182844,14974
3073.639556331785,15156
3075.3493077902704,15319
3077.058761008821,15136
3078.7679163025964,15307
3080.476773986837,15030
3082.1853343768594,15211
3083.89359778806,15117
3085.6015645359153,15118
3087.3092349359786,15252
3089.016609303884,15051
3090.7236879553434,15030
3092.4304712061476,15080
3094.136959372166,15204
3095.843152769349,15098
3097.5490517137237,15132
3099.2546565213966,15121
3100.959967508554,15218
3102.66498499146,15127
3104.3697092864577,15320
3106.0741407099695,15356
3107.778279578498,15304
3109.482126208622,15048
3111.1856809170004,15319
3112.8889440203716,15329
3114.5919158355528,15249
3116.294596679439,15371
3117.996986869006,15346
3119.6990867213062,15496
3121.4008965534726,15504
3123.102416682717,15368
3124.803647426329,15450
3126.5045891016784,15410
3128.205242026213,15506
3129.90560651746,15415
3131.605682893025,15705
3133.3054714705922,15620
3135.0049725679282,15520
3136.7041865028714,15515
3138.4031135933465,15627
3140.101754157353,15480
3141.800108512971,15379
3143.498176978357,15371
3145.1959598717494,15104
3146.8934575114636,14961
3148.5906702158954,15213
3150.2875983035183,15139
3151.9842420928853,15214
3153.680601902627,15229
3155.376678051456,15120
3157.07247085816,15144
3158.767980641609,15303
3160.463207720748,15466
3162.158152414606,15563
3163.8528150422862,15498
3165.5471959229726,15310
3167.2412953759303,15377
3168.9351137204976,15703
3170.628651276098,15452
3172.3219083622307,15579
3174.014885298474,15576
3175.707582404485,15638
3177.4000000000005,15727
3179.092138404835,15878
3180.7839979388846,15559
3182.47557892212,15715
3184.166881674594,15727
3185.8579065164386,15512
3187.5486537678626,15846
3189.2391237491547,15660
3190.9293167806827,15696
3192.6192331828934,15687
3194.3088732763117,15549
3195.998237381542,15561
3197.687325819268,15709
3199.376138910251,15705
3201.064676975334,15608
3202.7529403354347,15659
3204.4409293115523,15588
3206.1286442247647,15392
3207.816085396229,15501
3209.5032531471825,15463
3211.190147798936,15558
3212.8767696728846,15256
3214.5631190905015,15321
3216.2491963733373,15189
3217.9350018430214,15388
3219.6205358212637,15307
3221.305798629851,15351
3222.990790590651,15430
3224.6755120256103,15278
3226.359963256751,15249
3228.0441446061795,15156
3229.7280563960758,15475
3231.411698948703,15444
3233.0950725863995,15693
3234.778177631587,15472
3236.461014406761,15558
3238.1435832345005,15969
3239.8258844374595,15569
3241.507918338374,15801
3243.1896852600576,15782
3244.8711855254023,15622
3246.552419457381,15851
3248.233387379042,15600
3249.914089613516,15808
3251.59452648401,15743
3253.274698313813,15596
3254.95460542629,15533
3256.6342481448855,15688
3258.313626793125,15392
3259.9927416946084,15530
3261.6715931730196,15431
3263.3501815521176,15397
3265.0285071557437,15443
3266.706570307815,15404
3268.3843713323286,15339
3270.0619105533615,15633
3271.739188295068,15721
3273.4162048816834,15758
3275.0929606375184,15816
3276.769455886966,15856
3278.445690954498,15850
3280.1216661646613,15799
3281.797381842087,15933
3283.4728383114807,15645
3285.1480358976296,15755
3286.8229749253996,15555
3288.4976557197333,15629
3290.172078605655,15632
3291.846243908266,15533
3293.5201519527463,15305
3295.193803064357,15409
3296.8671975684374,15287
3298.5403357904024,15649
3300.21321805575,15406
3301.8858446900567,15499
3303.558216018975,15646
3305.23033236824,15739
3306.9021940636603,16041
3308.57380143113,15788
3310.2451547966184,15715
3311.916254486174,15812
3313.5871008259246,15797
3315.2576941420766,15653
3316.9280347609147,15625
3318.5981230088046,15541
3320.2679592121895,15606
3321.9375436975924,15325
3323.606876791612,15463
3325.27595882093,15560
3326.944790112305,15632
3328.6133709925753,15455
3330.2817017886573,15679
3331.949782827547,15543
3333.617614436319,15863
3335.2851969421245,15890
3336.952530672199,15810
3338.619615953853,15960
3340.286453114475,16139
3341.9530424815357,16023
3343.619384382583,16101
3345.2854791452437,16061
3346.951327097224,15850
3348.6169285663073,16094
3350.2822838803577,16090
3351.947393367319,16157
3353.61225735521,15960
3355.2768761721345,15915
3356.9412501462693,15939
3358.605379605873,16359
3360.2692648792827,16029
3361.9329062949146,15971
3363.596304181263,15509
