CollectionTime,7/9/2024 4:59:28 PM
ExposureUsed,3
CalibratedSpectrum
-962.7078968117929,2203
-959.9714848408522,2325
-957.2358232597828,2364
-954.5009119013725,2338
-951.7667505983302,2342
-949.0333391832855,2302
-946.3006774887896,2424
-943.5687653473143,2279
-940.837602591253,2417
-938.1071890529199,2440
-935.3775245645503,2375
-932.6486089583007,2410
-929.9204420662485,2350
-927.1930237203925,2335
-924.4663537526524,2397
-921.7404319948689,2415
-919.0152582788041,2424
-916.2908324361409,2421
-913.5671542984834,2372
-910.8442236973568,2351
-908.1220404642074,2330
-905.4006044304027,2412
-902.679915427231,2415
-899.959973285902,2378
-897.2407778375464,2494
-894.5223289132158,2418
-891.8046263438832,2492
-889.0876699604426,2480
-886.3714595937089,2460
-883.6559950744183,2465
-880.9412762332282,2560
-878.2273029007168,2482
-875.5140749073835,2360
-872.8015920836489,2440
-870.0898542598545,2482
-867.3788612662631,2469
-864.6686129330585,2464
-861.9591090903457,2493
-859.2503495681506,2490
-856.5423341964203,2567
-853.8350628050229,2479
-851.1285352237478,2522
-848.4227512823054,2519
-845.7177108103272,2545
-843.0134136373656,2567
-840.3098595928943,2528
-837.6070485063082,2641
-834.9049802069229,2557
-832.2036545239757,2615
-829.5030712866244,2610
-826.8032303239481,2659
-824.1041314649472,2566
-821.4057745385428,2660
-818.7081593735775,2594
-816.0112857988148,2645
-813.3151536429393,2598
-810.6197627345566,2533
-807.9251129021936,2637
-805.2312039742981,2709
-802.5380357792392,2659
-799.8456081453069,2626
-797.1539209007124,2689
-794.462973873588,2691
-791.772766891987,2706
-789.083299783884,2694
-786.3945723771743,2688
-783.7065844996748,2671
-781.0193359791231,2710
-778.3328266431781,2823
-775.6470563194197,2728
-772.9620248353489,2627
-770.2777320183878,2752
-767.5941776958798,2657
-764.9113616950891,2708
-762.2292838432011,2661
-759.5479439673222,2745
-756.8673418944801,2699
-754.1874774516235,2735
-751.5083504656222,2691
-748.8299607632671,2661
-746.15230817127,2731
-743.475392516264,2713
-740.7992136248035,2857
-738.1237713233636,2732
-735.4490654383407,2845
-732.7750957960521,2755
-730.1018622227365,2859
-727.4293645445534,2826
-724.7576025875837,2817
-722.0865761778291,2867
-719.4162851412126,2826
-716.7467293035781,2930
-714.0779084906909,2856
-711.409822528237,2892
-708.7424712418238,2813
-706.0758544569796,2883
-703.4099719991541,2822
-700.7448236937178,2854
-698.0804093659622,2868
-695.4167288411002,2827
-692.7537819442656,2836
-690.0915685005134,2919
-687.4300883348199,2839
-684.7693412720819,2976
-682.1093271371178,2896
-679.4500457546669,3023
-676.7914969493897,2964
-674.1336805458676,2936
-671.4765963686034,2980
-668.8202442420206,2997
-666.1646239904642,2989
-663.5097354382001,2921
-660.8555784094151,3008
-658.2021527282176,2982
-655.5494582186366,2980
-652.8974947046223,2988
-650.2462620100463,2965
-647.5957599587009,3003
-644.9459883742998,3068
-642.2969470804776,3061
-639.6486359007902,2987
-637.0010546587141,3136
-634.3542031776476,3083
-631.7080812809096,2997
-629.0626887917401,3017
-626.4180255333008,3039
-623.7740913286734,3063
-621.1308860008619,3124
-618.4884093727904,3084
-615.8466612673046,3067
-613.2056415071715,3110
-610.5653499150785,3140
-607.9257863136347,3074
-605.28695052537,3144
-602.6488423727357,3219
-600.0114616781036,3196
-597.3748082637674,3080
-594.7388819519412,3135
-592.1036825647604,3189
-589.4692099242818,3329
-586.8354638524829,3286
-584.2024441712624,3278
-581.5701507024403,3216
-578.9385832677575,3276
-576.3077416888759,3209
-573.6776257873787,3230
-571.0482353847704,3254
-568.4195703024757,3275
-565.7916303618415,3316
-563.164415384135,3361
-560.5379251905453,3263
-557.9121596021815,3313
-555.2871184400748,3374
-552.6628015251767,3375
-550.0392086783606,3289
-547.4163397204204,3286
-544.794194472071,3426
-542.1727727539491,3313
-539.5520743866118,3325
-536.9320991905377,3373
-534.3128469861261,3496
-531.6943175936979,3448
-529.0765108334947,3462
-526.4594265256793,3590
-523.8430644903358,3533
-521.2274245474689,3658
-518.612506517005,3744
-515.9983102187913,3740
-513.3848354725959,3682
-510.77208209810846,3763
-508.16004991493924,3699
-505.5487387426199,3704
-502.9381484006032,3759
-500.3282787082628,3875
-497.71912948489364,3953
-495.1107005497117,3851
-492.5029917218539,3690
-489.8960028203786,3629
-487.28973366426493,3718
-484.68418407241325,3667
-482.07935386364494,3586
-479.47524285670266,3536
-476.87185087025,3575
-474.2691777228715,3608
-471.66722323307334,3595
-469.0659872192821,3659
-466.4654694998459,3696
-463.86566989303384,3622
-461.26658821703614,3687
-458.66822428996414,3734
-456.07057792985,3677
-453.4736489546475,3771
-450.877437182231,3615
-448.28194243039627,3673
-445.68716451686,3690
-443.09310325926003,3614
-440.49975847515555,3528
-437.9071299820263,3513
-435.31521759727354,3494
-432.72402113821954,3549
-430.13354042210767,3595
-427.5437752661022,3604
-424.95472548728867,3704
-422.36639090267386,3658
-419.7787713291855,3650
-417.1918665836721,3701
-414.60567648290385,3768
-412.0202008435715,3741
-409.4354394822874,3780
-406.8513922155845,3788
-404.26805885991723,3784
-401.685439231661,3654
-399.103533147112,3711
-396.522340422488,3736
-393.9418608739278,3686
-391.3620943174908,3601
-388.7830405691583,3546
-386.2046994448317,3309
-383.6270707603344,3162
-381.05015433141045,2926
-378.473949973725,2611
-375.8984575028645,2337
-373.32367673433623,2101
-370.74960748356875,1730
-368.1762495659117,1534
-365.60360279663576,1244
-363.03166699093265,1021
-360.4604419639154,859
-357.8899275306178,717
-355.32012350599507,639
-352.7510297049233,572
-350.1826459421999,553
-347.61497203254316,505
-345.04800779059235,475
-342.4817530309082,470
-339.91620756797226,492
-337.35137121618743,470
-334.7872437898774,493
-332.22382510328725,514
-329.66111497058273,450
-327.09911320585127,486
-324.53781962310075,487
-321.9772340362607,463
-319.4173562591816,434
-316.8581861056348,448
-314.2997233893127,444
-311.7419679238294,454
-309.1849195227194,437
-306.62857799943856,457
-304.0729431673641,465
-301.51801483979375,469
-298.963792829947,452
-296.41027695096386,470
-293.85746701590574,517
-291.3053628377552,496
-288.7539642294155,523
-286.2032710037115,535
-283.65328297338897,513
-281.1039999511146,545
-278.5554217494762,530
-276.007548180983,493
-273.4603790580651,472
-270.9139141930734,476
-268.3681533982807,476
-265.8230964858798,513
-263.27874326798565,524
-260.7350935566336,548
-258.1921471637804,548
-255.6499039013039,532
-253.10836358100266,550
-250.56752601459698,554
-248.02739101372765,570
-245.48795838995704,569
-242.94922795476816,566
-240.41119951956557,525
-237.8738728956746,559
-235.33724789434166,557
-232.80132432673452,545
-230.2661020039418,531
-227.73158073697357,544
-225.19776033676033,573
-222.66464061415422,642
-220.1322213799284,606
-217.60050244477725,564
-215.06948361931552,528
-212.53916471408013,653
-210.00954553952818,666
-207.48062590603843,602
-204.9524056239104,611
-202.4248845033651,656
-199.8980623545441,644
-197.37193898751036,722
-194.84651421224817,702
-192.32178783866232,657
-189.79775967657952,679
-187.27442953574644,762
-184.7517972258321,716
-182.2298625564256,725
-179.7086253370378,751
-177.18808537710026,650
-174.66824248596583,727
-172.14909647290835,797
-169.6306471471229,757
-167.11289431772548,697
-164.59583779375328,676
-162.07947738416453,739
-159.5638128978386,797
-157.04884414357605,1005
-154.53457093009854,1076
-152.02099306604828,1005
-149.50811035998936,775
-146.99592262040665,671
-144.48442965570587,749
-141.97363127421409,849
-139.46352728417958,1114
-136.95411749377126,1303
-134.44540171107985,1146
-131.93737974411636,848
-129.43005140081357,788
-126.92341648902493,980
-124.41747481652521,1118
-121.91222619101006,1283
-119.40767042009657,1696
-116.90380731132257,2029
-114.40063667214702,1692
-111.8981583099503,1321
-109.3963720320337,1123
-106.89527764561933,1332
-104.39487495785067,1545
-101.89516377579241,2105
-99.39614390642998,3195
-96.89781515667039,3811
-94.40017733334128,4129
-91.90323024319173,3592
-89.40697369289148,2846
-86.91140748903172,2568
-84.41653143812482,2797
-81.92234534660395,2743
-79.42884902082358,3556
-76.93604226705907,6324
-74.4439248915071,10954
-71.95249670028534,14361
-69.46175749943245,15434
-66.97170709490854,14604
-64.48234529259423,11751
-61.99367189829195,8488
-59.50568671772464,7167
-57.01838955653636,7563
-54.53178022029283,7620
-52.045858514480074,7174
-49.560624244506016,7543
-47.07607721569923,8356
-44.59221723330904,8274
-42.10904410250669,7489
-39.62655762838392,6298
-37.14475761595372,5539
-34.66364387015028,4960
-32.18321619582866,5206
-29.70347439776515,6236
-27.224418280657005,7094
-24.74604764912317,8634
-22.26836230770266,14436
-19.7913620608565,31242
-17.315046712966478,61285
-14.83941606833514,65040
-12.36446993118659,65040
-9.89020810566592,65040
-7.416630395839093,65040
-4.94373660569363,65040
-2.471526539137585,65040
-6.821210263296962E-13,65040
2.47084320796705,65040
4.941003281093458,65040
7.410480415786196,65040
9.879274808531363,65040
12.347386655893956,65040
14.814816154518212,65040
17.28156350112681,65040
19.74762889252179,65040
22.21301252558385,20051
24.67771459727237,3158
27.141735304626195,1851
29.605074844762612,1434
32.06773341487792,1336
34.52971121224755,1535
36.99100843422559,1483
39.45162527824516,1384
41.91156194181792,1255
44.370818622535126,1160
46.82939551806646,1166
49.287292826160524,1176
51.74451074464503,1235
54.201049471426245,1164
56.65690920448981,992
59.112090141899785,981
61.56659248179983,987
64.02041642241159,948
66.4735621620365,975
68.92602989905402,1020
71.37781983192338,1086
73.82893215918205,1096
76.27936707944684,1016
78.72912479141326,924
81.17820549385567,1002
83.62660938562783,1088
86.07433666566146,992
88.5213875329681,808
90.96776218663751,837
93.41346082583925,894
95.85848364982041,952
98.30283085790859,926
100.7465026495089,802
103.18949922410604,782
105.63182078126385,776
108.07346752062438,808
110.51443964190923,880
112.95473734491827,724
115.39436082953114,752
117.83331029570547,736
120.27158594347827,733
122.7091879729652,751
125.1461165843615,759
127.58237197794062,699
130.01795435405518,665
132.4528639131364,768
134.88710085569494,793
137.32066538231982,761
139.75355769367923,817
142.1857779905207,800
144.61732647366978,729
147.04820334403132,780
149.47840880258934,855
151.90794305040674,977
154.33680628862487,1157
156.76499871846443,1384
159.19252054122433,1757
161.61937195828352,2077
164.04555317109896,2534
166.47106438120693,2937
168.89590579022217,3320
171.320077599839,3588
173.7435800118302,3891
176.16641322804742,4142
178.58857745042144,4248
181.01007288096173,4636
183.43089972175687,4713
185.85105817497413,5004
188.27054844285988,5233
190.6893707277394,5359
193.10752523201643,5843
195.5250121581745,6012
197.9418317087751,6102
200.3579840864594,6180
202.7734694939469,6300
205.18828813403627,6339
207.6024402096051,6394
210.01592592360964,6529
212.42874547908548,6531
214.84089907914665,6507
217.2523869269868,6600
219.66320922587727,6561
222.0733661791695,6547
224.48285799029293,6780
226.8916848627572,6662
229.29984700014882,6737
231.7073446061355,6802
234.11417788446204,6840
236.520347038953,6865
238.92585227351185,7023
241.33069379212054,6815
243.73487179884035,6802
246.1383864978112,6896
248.541238093252,6974
250.9434267894609,6895
253.34495279081432,6822
255.74581630176783,6940
258.1460175268563,6773
260.54555667069314,6744
262.9444339379703,6845
265.3426495334594,6784
267.7402036620107,6975
270.1370965285529,6937
272.53332833809407,6874
274.9288992957214,6893
277.32380960660055,6936
279.718059475976,6924
282.1116491091717,6904
284.5045787115897,6844
286.89684848871195,6962
289.2884586460981,6951
291.67940938938807,6889
294.0697009242996,6976
296.4593334566299,7008
298.84830719225477,6986
301.23662233712923,6978
303.6242790972866,7074
306.01127767884,6929
308.39761828798066,6982
310.78330113097934,6951
313.16832641418534,6993
315.5526943440269,6926
317.9364051270112,6945
320.3194589697242,7046
322.70185607883093,7054
325.0835966610754,6971
327.4646809232805,6744
329.8451090723478,6799
332.2248813152577,6866
334.6039978590701,6878
336.9824589109231,7051
339.36026467803447,6935
341.7374153677,6899
344.113911187295,6874
346.48975234427337,6825
348.8649390461686,6823
351.2394715005918,6830
353.61334991523415,6995
355.9865744978655,6938
358.35914545633375,6904
360.73106299856715,6773
363.10232733257146,7063
365.47293866643247,7073
367.84289720831396,6970
370.2122031664593,7183
372.5808567491905,7061
374.9488581649083,7085
377.31620762209275,7008
379.6829053293021,7054
382.0489514951745,6895
384.4143463284262,7009
386.7790900378528,6908
389.14318283232853,7035
391.50662492080653,7017
393.86941651231916,7036
396.23155781597745,6979
398.5930490409713,7108
400.9538903965696,6984
403.3140820921202,6944
405.6736243370498,6954
408.03251734086336,7102
410.3907613131465,7007
412.74835646356166,7064
415.10530300185144,7133
417.4616011378372,7215
419.81725108141893,6975
422.1722530425758,7056
424.5266072313656,7115
426.880313857925,7161
429.2333731324701,7074
431.58578526529516,7159
433.9375504667738,7127
436.2886689473588,7148
438.63914091758113,7080
440.9889665880513,6958
443.33814616945835,6882
445.68667987257015,6866
448.03456790823395,7115
450.3818104873759,6985
452.72840782100013,7007
455.07436012019105,7076
457.41966759611057,7186
459.7643304600007,7107
462.10834892318155,7204
464.4517231970525,7204
466.79445349309174,7355
469.1365400228566,7280
471.4779829979826,7154
473.81878263018564,7100
476.15893913125876,6934
478.4984527130747,7077
480.8373235875855,7198
483.17555196682144,7327
485.5131380628919,7364
487.8500820879857,7470
490.1863842543697,7373
492.52204477439034,7403
494.8570638604725,7554
497.1914417251204,7733
499.52517858091653,7879
501.85827464052306,8036
504.19073011668036,8024
506.5225452222086,8252
508.85372017000566,8282
511.18425517304956,8262
513.514150444396,8578
515.8434061971808,9271
518.1720226446176,9865
520.4999999999999,10253
522.8273384766991,10008
525.1540382881666,9565
527.480099647932,9029
529.8055227696037,8515
532.1303078668694,8140
534.454455153496,7618
536.777964843328,7618
539.1008371502907,7484
541.4230722883866,7545
543.744670471698,7594
546.0656319143858,7355
548.3859568306899,7501
550.7056454349294,7351
553.0246979415016,7468
555.3431145648834,7542
557.6608955196306,7397
559.978041020377,7499
562.2945512818363,7386
564.6104265188006,7371
566.9256669461412,7527
569.2402727788082,7525
571.5542442318302,7485
573.8675815203156,7489
576.1802848594508,7555
578.4923544645015,7558
580.8037905508126,7552
583.114593333807,7627
585.4247630289875,7617
587.7342998519354,7597
590.0432040183106,7615
592.3514757438526,7645
594.6591152443794,7727
596.9661227357875,7688
599.2724984340531,7646
601.578242555231,7636
603.8833553154542,7710
606.1878369309362,7761
608.4916876179676,7554
610.7949075929192,7625
613.0974970722403,7561
615.3994562724587,7672
617.7007854101818,7680
620.0014847020951,7605
622.3015543649641,7733
624.6009946156324,7785
626.8998056710224,7533
629.1979877481361,7640
631.4955410640538,7660
633.7924658359349,7690
636.0887622810175,7772
638.3844306166192,7789
640.6794710601358,7801
642.9738838290426,7805
645.2676691408932,7844
647.5608272133207,7727
649.853358264037,7697
652.1452625108324,7805
654.4365401715764,7775
656.7271914642178,7841
659.0172166067838,7949
661.3066158173809,7844
663.5953893141935,7762
665.8835373154867,7971
668.1710600396028,7924
670.4579577049639,8032
672.7442305300709,7814
675.0298787335033,7866
677.3149025339197,8025
679.599302150058,8041
681.8830778007342,7898
684.1662297048437,7822
686.4487580813608,8010
688.7306631493387,8028
691.0119451279091,8035
693.2926042362834,7916
695.5726406937516,8069
697.8520547196814,8033
700.1308465335215,8041
702.4090163547982,8099
704.6865644031171,7989
706.9634908981619,8011
709.2397960596965,8000
711.5154801075631,7943
713.7905432616823,8095
716.0649857420548,8183
718.3388077687592,8219
720.612009561953,8021
722.8845913418733,8044
725.1565533288352,8102
727.427895743234,7999
729.6986188055427,8175
731.9687227363137,8055
734.238207756178,8126
736.5070740858458,8050
738.7753219461066,7998
741.0429515578281,8179
743.3099631419569,8160
745.5763569195191,8129
747.8421331116193,8319
750.1072919394409,8281
752.3718336242467,8334
754.6357583873777,8228
756.8990664502545,8218
759.1617580343765,8160
761.423833361321,8201
763.6852926527457,8157
765.9461361303862,8250
768.206364016058,8190
770.4659765316536,8222
772.7249738991469,8280
774.9833563405886,8327
777.2411240781092,8247
779.4982773339183,8260
781.7548163303044,8194
784.010741289634,8336
786.2660524343538,8452
788.5207499869881,8402
790.7748341701416,8289
793.0283052064964,8360
795.2811633188143,8455
797.5334087299362,8367
799.7850416627813,8398
802.0360623403484,8417
804.2864709857143,8444
806.5362678220353,8462
808.7854530725468,8540
811.0340269605625,8426
813.2819897094754,8419
815.5293415427581,8554
817.77608268396,8445
820.0222133567116,8445
822.2677337847211,8475
824.5126441917765,8382
826.7569448017433,8417
829.0006358385675,8500
831.2437175262731,8452
833.4861900889629,8491
835.7280537508192,8497
837.9693087361026,8422
840.2099552691533,8566
842.4499935743896,8597
844.689423876309,8408
846.9282463994886,8507
849.1664613685833,8489
851.4040690083276,8497
853.6410695435349,8452
855.877463199097,8392
858.1132501999847,8275
860.3484307712487,8470
862.5830051380175,8549
864.8169735254988,8420
867.0503361589791,8574
869.2830932638243,8571
871.5152450654786,8852
873.7467917894654,8695
875.9777336613873,8572
878.2080709069252,8558
880.4378037518389,8604
882.666932421968,8510
884.8954571432301,8621
887.1233781416219,8619
889.3506956432192,8594
891.5774098741766,8610
893.803521060728,8691
896.0290294291852,8722
898.2539352059397,8613
900.4782386174619,8601
902.7019398903011,8699
904.925039251085,8665
907.147536926521,8545
909.3694331433943,8585
911.59072812857,8619
913.8114221089921,8631
916.0315153116827,8651
918.2510079637437,8544
920.4699002923547,8588
922.6881925247761,8699
924.905884888345,8694
927.1229776104793,8507
929.3394709186747,8699
931.555365040506,8619
933.7706602036275,8677
935.9853566357709,8766
938.1994545647489,8586
940.4129542184515,8697
942.6258558248488,8667
944.8381596119883,8648
947.0498658079974,8899
949.2609746410825,8784
951.4714863395287,8741
953.6814011316998,8820
955.8907192460387,8625
958.0994409110671,8718
960.3075663553858,8693
962.5150958076741,8695
964.7220294966913,8701
966.928367651274,8757
969.1341105003388,8685
971.3392582728806,8751
973.5438111979742,8738
975.747769504772,8803
977.9511334225061,8849
980.153903180487,8881
982.3560790081052,8965
984.5576611348289,8807
986.7586497902058,8672
988.9590452038618,8898
991.158847605503,8835
993.3580572249133,8668
995.5566742919558,8757
997.7546990365728,8815
999.952131688785,8691
1002.1489724786926,8704
1004.3452216364743,8740
1006.5408793923874,8639
1008.7359459767691,8701
1010.9304216200343,8678
1013.1243065526781,8597
1015.3176010052733,8525
1017.510305208472,8745
1019.7024193930064,8527
1021.8939437896848,8628
1024.0848786293977,8618
1026.2752241431122,8558
1028.4649805618747,8622
1030.6541481168115,8705
1032.842727039127,8857
1035.0307175601051,8632
1037.2181199111074,8526
1039.4049343235752,8672
1041.591161029029,8655
1043.7768002590683,8811
1045.9618522453698,8810
1048.1463172196918,8772
1050.3301954138697,8822
1052.513487059818,8805
1054.69619238953,8769
1056.8783116350783,8887
1059.0598450286152,8868
1061.2407928023704,8927
1063.4211551886528,8995
1065.6009324198508,8797
1067.780124728432,8862
1069.9587323469414,8847
1072.1367555080046,8782
1074.314194444325,8849
1076.4910493886855,8814
1078.667320573947,8863
1080.843008233051,8926
1083.0181125990161,8684
1085.1926339049414,8764
1087.3665723840027,8849
1089.5399282694575,8922
1091.7127017946405,8738
1093.8848931929647,8753
1096.0565026979243,8622
1098.2275305430899,8843
1100.3979769621128,8709
1102.567842188722,8677
1104.737126456726,8703
1106.9058300000124,8854
1109.0739530525475,8851
1111.2414958483764,8664
1113.4084586216231,8774
1115.5748416064907,8716
1117.7406450372605,8835
1119.9058691482942,8802
1122.0705141740304,8758
1124.2345803489884,8897
1126.3980679077658,8725
1128.5609770850388,8775
1130.7233081155623,8968
1132.8850612341707,8733
1135.0462366757774,8787
1137.2068346753745,8874
1139.3668554680326,8856
1141.526299288901,9032
1143.68516637321,9084
1145.8434569562655,8888
1148.001171273455,8871
1150.158309560244,8955
1152.3148720521767,8991
1154.470858984876,9006
1156.626270594044,8937
1158.7811071154629,8915
1160.9353687849912,9004
1163.089055838569,9047
1165.242168512213,8954
1167.3947070420209,8822
1169.5466716641677,8951
1171.6980626149075,9009
1173.8488801305748,8831
1175.9991244475814,8943
1178.1487958024186,8752
1180.2978944316555,8861
1182.4464205719428,8807
1184.5943744600072,8918
1186.7417563326567,9063
1188.8885664267755,8967
1191.0348049793297,8911
1193.1804722273619,8945
1195.325568407995,8796
1197.4700937584303,8992
1199.614048515948,8986
1201.7574329179074,9027
1203.900247201746,9030
1206.042491604982,9111
1208.1841663652099,9090
1210.3252717201053,9121
1212.465807907422,8922
1214.6057751649923,9154
1216.7451737307279,9084
1218.8840038426192,9176
1221.0222657387353,9073
1223.1599596572241,9144
1225.2970858363137,9191
1227.4336445143094,9208
1229.5696359295966,9113
1231.705060320639,9209
1233.8399179259786,9249
1235.9742089842384,9176
1238.107933734118,9336
1240.2410924143974,9206
1242.373685263935,9332
1244.5057125216676,9197
1246.6371744266116,9337
1248.7680712178621,9220
1250.898403134593,9168
1253.028170416058,9272
1255.1573733015875,9061
1257.2860120305932,9247
1259.4140868425648,9017
1261.54159797707,9057
1263.6685456737569,9179
1265.7949301723515,9300
1267.9207517126597,9154
1270.046010534565,9197
1272.1707068780306,9309
1274.2948409830983,9151
1276.4184130898889,9303
1278.541423438603,9270
1280.6638722695184,9329
1282.785759822993,9277
1284.9070863394636,9307
1287.0278520594447,9203
1289.1480572235314,9407
1291.2677020723963,9250
1293.3867868467923,9449
1295.5053117875495,9337
1297.623277135579,9414
1299.740683131868,9431
1301.8575300174857,9515
1303.973818033578,9493
1306.0895474213703,9654
1308.2047184221678,9574
1310.3193312773528,9567
1312.4333862283888,9405
1314.5468835168163,9764
1316.659823384255,9683
1318.7722060724045,9695
1320.8840318230418,9683
1322.9953008780249,9500
1325.1060134792888,9635
1327.2161698688478,9617
1329.3257702887959,9612
1331.4348149813054,9428
1333.5433041886276,9653
1335.6512381530933,9652
1337.7586171171101,9609
1339.8654413231675,9603
1341.9717110138317,9544
1344.0774264317488,9701
1346.1825878196432,9643
1348.2871954203192,9479
1350.3912494766587,9761
1352.4947502316231,9619
1354.5976979282532,9521
1356.7000928096686,9726
1358.8019351190665,9416
1360.9032250997243,9564
1363.0039629949988,9564
1365.1041490483235,9517
1367.2037835032133,9573
1369.3028666032606,9612
1371.401398592137,9598
1373.4993797135926,9717
1375.5968102114575,9659
1377.6936903296396,9688
1379.7900203121262,9766
1381.8858004029835,9758
1383.9810308463561,9838
1386.075711886469,9777
1388.1698437676241,9707
1390.2634267342032,9771
1392.356461030667,9716
1394.4489469015557,9740
1396.5408845914872,9877
1398.6322743451592,9701
1400.7231164073469,9843
1402.813411022907,9948
1404.903158436773,9668
1406.9923588939578,9778
1409.0810126395531,9721
1411.1691199187303,9814
1413.2566809767386,9807
1415.343696058907,9745
1417.4301654106425,9870
1419.5160892774315,9725
1421.6014679048399,9805
1423.6863015385125,9763
1425.7705904241707,9463
1427.8543348076178,9783
1429.9375349347342,9876
1432.0201910514802,9804
1434.102303403894,9584
1436.1838722380944,9772
1438.2648978002767,9751
1440.3453803367174,9809
1442.4253200937692,9769
1444.5047173178677,9748
1446.5835722555234,9671
1448.6618851533285,9869
1450.739656257952,9760
1452.8168858161434,9916
1454.8935740747306,9920
1456.96972128062,9936
1459.045327680797,9909
1461.120393522327,10046
1463.1949190523528,10065
1465.2689045180973,10109
1467.3423501668608,9991
1469.415256246024,10034
1471.4876230030463,10028
1473.559450685465,10009
1475.6307395408976,10096
1477.7014898170391,10212
1479.771701761665,10225
1481.8413756226287,10105
1483.9105116478618,10133
1485.9791100853772,10229
1488.0471711832643,10169
1490.1146951896926,10153
1492.1816823529098,10035
1494.2481329212433,10236
1496.3140471430984,10315
1498.3794252669609,10210
1500.4442675413939,10225
1502.5085742150404,10310
1504.572345536622,10295
1506.6355817549388,10407
1508.6982831188702,10303
1510.7604498773744,10313
1512.8220822794883,10260
1514.8831805743293,10413
1516.9437450110909,10269
1519.003775839048,10300
1521.0632733075522,10479
1523.1222376660367,10521
1525.1806691640113,10342
1527.2385680510652,10465
1529.2959345768668,10424
1531.3527689911643,10582
1533.4090715437833,10398
1535.4648424846291,10394
1537.5200820636855,10533
1539.5747905310159,10688
1541.6289681367616,10570
1543.6826151311434,10649
1545.7357317644614,10732
1547.7883182870937,10584
1549.8403749494987,10725
1551.8919020022113,10715
1553.9428996958477,10609
1555.9933682811015,10793
1558.0433080087469,10660
1560.0927191296346,10712
1562.1416018946961,10759
1564.1899565549415,10897
1566.2377833614592,10784
1568.2850825654164,10701
1570.3318544180606,10889
1572.3780991707158,10751
1574.423817074788,10776
1576.4690083817595,10574
1578.5136733431923,10475
1580.5578122107272,10493
1582.601425236085,10631
1584.6445126710646,10361
1586.6870747675434,10283
1588.7291117774776,10471
1590.7706239529034,10565
1592.8116115459347,10347
1594.8520748087658,10322
1596.8920139936686,10278
1598.9314293529933,10186
1600.9703211391711,10092
1603.008689604711,10169
1605.0465350022005,10265
1607.0838575843068,10129
1609.1206576037753,10116
1611.1569353134305,10087
1613.1926909661765,10153
1615.2279248149953,9956
1617.2626371129481,10103
1619.2968281131757,10000
1621.3304980688963,10142
1623.3636472334088,10174
1625.39627586009,10115
1627.428384202396,10082
1629.459972513861,10241
1631.4910410480993,10012
1633.5215900588028,9957
1635.551619799744,9913
1637.5811305247717,10093
1639.6101224878166,9893
1641.6385959428862,10020
1643.6665511440683,9981
1645.693988345528,10014
1647.7209078015112,10104
1649.7473097663405,10028
1651.7731944944203,9972
1653.7985622402307,9917
1655.823413258333,10124
1657.847747803366,9864
1659.8715661300494,9903
1661.8948684931793,10007
1663.9176551476316,10060
1665.9399263483624,9930
1667.9616823504057,9879
1669.982923408873,9895
1672.0036497789574,9846
1674.0238617159293,9757
1676.043559475138,9955
1678.0627433120121,9990
1680.081413482059,9979
1682.0995702408654,9783
1684.117213844096,9855
1686.134344547495,9854
1688.1509626068864,9894
1690.1670682781705,9900
1692.182661817329,9732
1694.1977434804217,9895
1696.2123135235875,9960
1698.226372203043,9934
1700.2399197750851,9952
1702.2529564960905,9865
1704.2654826225112,9945
1706.277498410882,9991
1708.2890041178139,9990
1710.2999999999988,10080
1712.3104863142066,9959
1714.3204633172854,9867
1716.329931266163,10044
1718.3388904178469,10059
1720.3473410294214,10033
1722.3552833580516,9954
1724.3627176609807,9978
1726.3696441955308,10058
1728.3760632191033,9912
1730.3819749891782,10053
1732.3873797633146,9842
1734.3922777991502,10065
1736.3966693544012,10070
1738.4005546868639,9979
1740.4039340544127,9990
1742.406807715001,9902
1744.4091759266616,9921
1746.4110389475054,9851
1748.4123970357223,10107
1750.413250449582,10042
1752.4135994474318,10012
1754.4134442876993,9887
1756.4127852288902,9910
1758.4116225295893,9966
1760.4099564484595,9899
1762.407787244244,10014
1764.405115175764,9831
1766.4019405019203,10021
1768.3982634816916,10007
1770.3940843741357,10013
1772.3894034383907,10023
1774.3842209336717,9822
1776.378537119274,10033
1778.372352254571,9800
1780.3656665990156,9912
1782.3584804121397,9881
1784.3507939535534,9941
1786.3426074829463,9957
1788.3339212600863,10022
1790.3247355448211,9952
1792.3150505970766,10023
1794.3048666768573,9791
1796.2941840442477,10021
1798.2830029594106,9866
1800.2713236825884,10017
1802.2591464741004,9964
1804.2464715943465,9944
1806.2332993038058,9934
1808.2196298630352,9909
1810.2054635326708,10056
1812.190800573428,10001
1814.175641246101,10096
1816.1599858115628,10179
1818.1438345307652,10073
1820.127187664738,10178
1822.1100454745924,10061
1824.092408221516,10129
1826.0742761667766,10018
1828.055649571721,10184
1830.0365286977735,10161
1832.0169138064398,10027
1833.9968051593014,10061
1835.9762030180214,10116
1837.9551076443408,10031
1839.9335193000788,10020
1841.9114382471344,9982
1843.888864747485,10092
1845.8657990631878,10022
1847.842241456378,10001
1849.8181921892697,9847
1851.7936515241558,9866
1853.7686197234098,10232
1855.7430970494815,10094
1857.7170837649014,10129
1859.6905801322787,10094
1861.6635864143004,10054
1863.6361028737338,10070
1865.608129773424,10090
1867.5796673762961,10113
1869.5507159453537,10113
1871.521275743678,10187
1873.4913470344313,10173
1875.4609300808534,10072
1877.4300251462632,10195
1879.3986324940588,10229
1881.366752387717,10167
1883.3343850907936,10113
1885.3015308669228,10248
1887.268189979819,10276
1889.2343626932739,10152
1891.2000492711595,10186
1893.1652499774254,10300
1895.1299650761011,10269
1897.0941948312952,10268
1899.0579395071945,10311
1901.0211993680641,10362
1902.98397467825,10259
1904.9462657021745,10257
1906.9080727043415,10222
1908.869395949332,10115
1910.8302357018065,10559
1912.790592226504,10161
1914.7504657882428,10301
1916.7098566519212,10252
1918.6687650825133,10414
1920.6271913450764,10180
1922.5851357047422,10324
1924.5425984267245,10391
1926.499579776314,10405
1928.4560800188833,10223
1930.4120994198802,10187
1932.367638244833,10148
1934.32269675935,10157
1936.2772752291175,10341
1938.231373919899,10287
1940.1849930975404,10129
1942.1381330279637,10422
1944.0907939771696,10253
1946.0429762112412,10351
1947.9946799963363,10354
1949.9459055986945,10151
1951.896653284633,10151
1953.8469233205478,10380
1955.7967159729142,10366
1957.7460315082863,10091
1959.6948701932974,10289
1961.6432322946594,10314
1963.5911180791632,10483
1965.5385278136787,10360
1967.4854617651545,10119
1969.4319202006182,10270
1971.377903387176,10241
1973.3234115920136,10324
1975.268445082395,10216
1977.2130041256642,10410
1979.1570889892423,10343
1981.1006999406304,10301
1983.04383724741,10357
1984.986501177238,10294
1986.928691997853,10515
1988.8704099770712,10326
1990.811655382789,10411
1992.7524284829801,10295
1994.692729545698,10456
1996.6325588390755,10392
1998.5719166313224,10479
2000.5108031907307,10234
2002.4492187856677,10379
2004.387163684583,10408
2006.3246381560011,10362
2008.2616424685298,10603
2010.1981768908527,10307
2012.1342416917332,10415
2014.069837140014,10209
2016.0049635046162,10427
2017.9396210545406,10391
2019.8738100588666,10471
2021.8075307867502,10386
2023.740783507431,10333
2025.6735684902228,10238
2027.6058860045214,10508
2029.5377363198004,10316
2031.4691197056118,10463
2033.4000364315875,10484
2035.3304867674374,10515
2037.260470982952,10419
2039.189989347998,10553
2041.1190421325232,10381
2043.047629606554,10602
2044.9757520401945,10554
2046.9034097036288,10425
2048.8306028671195,10631
2050.7573318010086,10437
2052.683596775716,10541
2054.609398061742,10485
2056.5347359296647,10519
2058.4596106501403,10514
2060.384022493906,10619
2062.3079717317764,10599
2064.231458634646,10604
2066.1544834734873,10698
2068.077046519352,10780
2069.99914804337,10825
2071.9207883167524,10636
2073.8419676107865,10709
2075.7626861968406,10681
2077.6829443463607,10805
2079.6027423308715,10816
2081.522080421977,10828
2083.440958891362,10729
2085.359378010786,10643
2087.2773380520907,10756
2089.194839287196,10536
2091.111881988101,10583
2093.0284664268825,10741
2094.9445928756973,10696
2096.86026160678,10655
2098.775472892446,10805
2100.690227005088,10688
2102.604524217178,10711
2104.5183648012676,10775
2106.431749029985,10641
2108.34467717604,10801
2110.2571495122206,10901
2112.169166311393,10769
2114.080727846503,10832
2115.9918343905747,10675
2117.902486216711,10759
2119.8126835980956,10754
2121.722426807987,10995
2123.6317161197285,10951
2125.5405518067364,10983
2127.448934142509,10892
2129.356863400624,10921
2131.264339854737,10947
2133.1713637785815,10953
2135.077935445972,10967
2136.9840551308002,10952
2138.889723107037,10979
2140.7949396487334,10848
2142.699705030018,10994
2144.6040195250994,11040
2146.507883408264,11329
2148.4112969538774,10972
2150.3142604363848,11006
2152.2167741303097,10986
2154.1188383102535,11270
2156.0204532508997,11185
2157.9216192270064,11032
2159.822336513414,11018
2161.7226053850413,11003
2163.622426116884,11031
2165.5217989840185,11310
2167.4207242616,11057
2169.319202224862,10967
2171.2172331491165,11100
2173.1148173097563,10902
2175.0119549822507,11121
2176.90864644215,11172
2178.8048919650823,11073
2180.7006918267534,11152
2182.596046302952,11148
2184.4909556695407,11254
2186.3854202024645,11042
2188.279440177746,11425
2190.173015871487,11233
2192.066147559868,11159
2193.958835519149,11389
2195.851080025667,11438
2197.7428813558417,11177
2199.6342397861667,11275
2201.5251555932186,11265
2203.415629053651,11228
2205.3056604441986,11339
2207.19525004167,11402
2209.084398122958,11309
2210.9731049650327,11091
2212.861370844941,11150
2214.749196039812,11317
2216.636580826851,11434
2218.523525483344,11245
2220.410030286655,11300
2222.296095514226,11385
2224.1817214435805,11491
2226.066908352319,11403
2227.951656518121,11471
2229.835966218746,11559
2231.71983773203,11236
2233.6032713358913,11160
2235.486267308324,11681
2237.3688259274036,11727
2239.2509474712824,11374
2241.132632218193,11473
2243.013880446447,11495
2244.8946924344323,11403
2246.7750684606203,11313
2248.6550088035574,11324
2250.534513741871,11434
2252.413583554265,11357
2254.292218519526,11383
2256.170418916517,11457
2258.0481850241786,11331
2259.925517121534,11325
2261.8024154876825,11087
2263.678880401803,11203
2265.5549121431536,11227
2267.430510991071,11360
2269.305677224971,11398
2271.180411124348,11317
2273.0547129687766,11364
2274.9285830379076,11085
2276.8020216114737,11262
2278.6750289692845,11278
2280.5476053912294,11255
2282.4197511572766,11375
2284.2914665474727,11159
2286.162751841943,11257
2288.0336073208937,11424
2289.904033264608,11214
2291.774029953448,11394
2293.6435976678554,11421
2295.5127366883517,11168
2297.381447295534,11526
2299.2497297700825,11383
2301.1175843927526,11270
2302.9850114443825,11512
2304.852011205885,11252
2306.7185839582553,10990
2308.5847299825664,11237
2310.4504495599676,11509
2312.3157429716925,11381
2314.1806104990483,11249
2316.0450524234247,11384
2317.9090690262888,11235
2319.772660589186,11315
2321.635827393742,11175
2323.498569721661,11350
2325.3608878547248,11281
2327.2227820747967,11521
2329.0842526638157,11487
2330.945299903803,11364
2332.805924076857,11347
2334.6661254651535,11375
2336.525904350951,11364
2338.3852610165827,11363
2340.244195744464,11265
2342.102708817088,11391
2343.9608005170253,11422
2345.8184711269287,11429
2347.675720929526,11379
2349.532550207628,11263
2351.38895924412,11295
2353.24494832197,11354
2355.100517724223,11430
2356.955667734004,11322
2358.810398634514,11351
2360.664710709037,11407
2362.5186042409337,11311
2364.3720795136437,11310
2366.225136810686,11447
2368.0777764156583,11525
2369.929998612237,11473
2371.7818036841777,11437
2373.633191915315,11534
2375.484163589562,11301
2377.3347189909114,11391
2379.184858403434,11381
2381.03458211128,11361
2382.8838903986775,11371
2384.732783549936,11523
2386.5812618494406,11373
2388.4293255816588,11457
2390.2769750311327,11435
2392.1242104824883,11479
2393.971032220427,11457
2395.8174405297295,11379
2397.6634356952563,11409
2399.509018001947,11438
2401.3541877348193,11528
2403.1989451789705,11439
2405.043290619576,11385
2406.8872243418905,11410
2408.730746631247,11341
2410.5738577730594,11433
2412.4165580528183,11631
2414.258847756095,11563
2416.100727168537,11497
2417.9421965758734,11566
2419.783256263912,11414
2421.623906518538,11533
2423.4641476257157,11562
2425.303979871491,11633
2427.143403541984,11521
2428.9824189233977,11581
2430.821026302012,11458
2432.6592259641866,11595
2434.497018196361,11381
2436.33440328505,11493
2438.171381516851,11476
2440.00795317844,11567
2441.844118556569,11367
2443.6798779380724,11502
2445.5152316098606,11631
2447.3501798589255,11727
2449.1847229723357,11633
2451.0188612372403,11681
2452.8525949408663,11708
2454.6859243705203,11458
2456.518849813587,11506
2458.3513715575314,11733
2460.183489889895,11696
2462.015205098301,11564
2463.8465174704493,11617
2465.67742729412,11702
2467.5079348571717,11764
2469.338040447542,11655
2471.1677443532476,11712
2472.9970468623833,11573
2474.825948263123,11711
2476.6544488437207,11736
2478.482548892508,11649
2480.310248697896,11597
2482.137548548374,11763
2483.9644487325118,11738
2485.790949538956,11727
2487.617051256433,11907
2489.44275417375,11539
2491.26805857979,11767
2493.0929647635157,11663
2494.917473013971,11615
2496.741583620276,11947
2498.5652968716304,11821
2500.3886130573137,11713
2502.2115324666834,11877
2504.0340553891765,11722
2505.856182114308,11819
2507.6779129316733,11884
2509.499248130945,11796
2511.3201880018764,11915
2513.140732834298,11850
2514.9608829181198,11826
2516.780638543331,11735
2518.6,11796
2520.418967578273,11640
2522.237541568376,11654
2524.0557222606144,11756
2525.8735099453706,11646
2527.6909049131086,11711
2529.507907454368,11712
2531.32451785977,11676
2533.140736420014,11633
2534.9565634258774,11741
2536.771999168218,11947
2538.5870439379714,11771
2540.4016980261526,12009
2542.2159617238544,11911
2544.02983532225,11982
2545.8433191125914,11853
2547.656413386209,11856
2549.4691184345115,11873
2551.2814345489874,11926
2553.093362021204,11804
2554.904901142808,11958
2556.716052205523,11929
2558.526815501153,11921
2560.3371913215824,12031
2562.147179958771,11908
2563.956781704761,11898
2565.7659968516705,11977
2567.5748256916986,12126
2569.3832685171224,11763
2571.1913256202984,11868
2572.9989972936614,11830
2574.806283829725,12070
2576.613185521084,12009
2578.4197026604074,11917
2580.2258355404483,11946
2582.031584454035,12040
2583.836949694077,11935
2585.6419315535613,12008
2587.4465303255533,11931
2589.2507463032002,12009
2591.0545797797245,11825
2592.8580310484303,11877
2594.6611004026995,11960
2596.463788135992,11983
2598.266094541849,11908
2600.0680199138874,11905
2601.869564545807,12028
2603.670728731383,11832
2605.4715127644704,11903
2607.2719169390048,12072
2609.071941548998,11936
2610.8715868885433,12091
2612.670853251811,12160
2614.469740933052,12167
2616.268250226594,11935
2618.0663814268455,11938
2619.864134828292,12199
2621.6615107255006,11922
2623.458509413115,12139
2625.2551311858597,11927
2627.0513763385347,11931
2628.8472451660223,11839
2630.6427379632833,11884
2632.4378550253564,11988
2634.232596647359,12095
2636.026963124488,12038
2637.8209547520187,12034
2639.6145718253065,12099
2641.407814639785,11879
2643.200683490966,12117
2644.9931786744414,11940
2646.7853004858807,11927
2648.577049221034,11891
2650.3684251757277,11951
2652.1594286458712,11905
2653.9500599274484,11889
2655.740319316525,11878
2657.5302071092437,12125
2659.3197236018286,12076
2661.10886909058,12176
2662.8976438718782,12024
2664.686048242183,12221
2666.4740824980327,12200
2668.2617469360443,11994
2670.0490418529134,11994
2671.8359675454153,12241
2673.622524310403,12147
2675.408712444811,12250
2677.1945322456495,12153
2678.979984010009,12153
2680.76506803506,11886
2682.5497846180497,12271
2684.334134056306,12062
2686.1181166472343,11966
2687.9017326883213,12139
2689.6849824771293,12090
2691.4678663113013,12097
2693.2503844885596,12099
2695.032537306705,12120
2696.8143250636167,12203
2698.5957480572542,12089
2700.3768065856534,11979
2702.1575009469316,12019
2703.937831439283,12069
2705.717798360982,11895
2707.4974020103837,12061
2709.276642685917,11861
2711.055520686095,12087
2712.834036309506,12081
2714.612189854819,12217
2716.389981620782,12080
2718.1674119062204,11858
2719.944481010041,12032
2721.721189231226,11972
2723.4975368688415,11945
2725.273524222027,11970
2727.0491515900053,11868
2728.824419272075,11950
2730.5993275676146,11874
2732.3738767760838,11982
2734.148067197016,11997
2735.921899130031,11925
2737.6953728748194,12007
2739.468488731156,11899
2741.2412469988926,12128
2743.0136479779617,12004
2744.785691968372,12114
2746.5573792702116,12104
2748.3287101836504,12195
2750.099685008934,12162
2751.870304046388,12180
2753.640567596418,12132
2755.4104759595057,12074
2757.1800294362156,12203
2758.949228327187,12150
2760.7180729331412,12160
2762.486563554877,11972
2764.254700493272,12217
2766.022484049284,12172
2767.789914523947,12215
2769.5569922183786,12081
2771.3237174337705,12091
2773.090090471394,12113
2774.8561116326036,12129
2776.6217812188274,12105
2778.3870995315756,12325
2780.1520668724356,12110
2781.9166835430747,12143
2783.6809498452394,12161
2785.444866080754,12149
2787.2084325515225,12281
2788.971649559527,12456
2790.73451740683,12334
2792.4970363955713,12158
2794.2592068279705,12017
2796.0210290063264,12055
2797.7825032330147,12221
2799.543629810493,12195
2801.304409041296,12251
2803.0648412280366,12190
2804.8249266734088,12317
2806.5846656801846,12301
2808.344058551212,12236
2810.1031055894246,12254
2811.8618070978273,12347
2813.6201633795085,12292
2815.378174737636,12333
2817.1358414754536,12455
2818.893163896285,12511
2820.6501423035334,12347
2822.4067770006814,12417
2824.1630682912883,12488
2825.9190164789957,12635
2827.6746218675207,12507
2829.429884760661,12261
2831.184805462294,12625
2832.9393842763743,12494
2834.693621506936,12446
2836.4475174580916,12509
2838.201072434034,12494
2839.954286739034,12590
2841.707160677441,12516
2843.459694553685,12281
2845.2118886722724,12524
2846.96374333779,12478
2848.7152588549034,12391
2850.4664355283567,12454
2852.217273662973,12451
2853.9677735636546,12321
2855.7179355353833,12353
2857.4677598832186,12423
2859.217246912299,12592
2860.9663969278427,12424
2862.715210235146,12535
2864.4636871395846,12473
2866.211827946614,12434
2867.9596329617652,12385
2869.7071024906536,12610
2871.4542368389684,12552
2873.20103631248,12298
2874.947501217038,12427
2876.6936318585695,12295
2878.4394285430812,12416
2880.1848915766604,12430
2881.9300212654707,12534
2883.6748179157553,12403
2885.4192818338374,12365
2887.1634133261173,12518
2888.907212699077,12453
2890.6506802592744,12641
2892.393816313348,12573
2894.1366211680142,12388
2895.8790951300693,12324
2897.621238506388,12465
2899.363051603925,12509
2901.1045347297118,12548
2902.8456881908596,12582
2904.58651229456,12485
2906.327007348081,12449
2908.067173658772,12450
2909.8070115340597,12303
2911.5465212814497,12354
2913.285703208527,12297
2915.0245576229563,12437
2916.7630848324807,12353
2918.5012851449196,12345
2920.2391588681758,12457
2921.976706310227,12501
2923.7139277791334,12511
2925.4508235830313,12704
2927.187394030137,12595
2928.923639428745,12671
2930.6595600872306,12651
2932.395156314046,12823
2934.1304284177218,12745
2935.8653767068713,12672
2937.6000014901815,12839
2939.3343030764227,12803
2941.068281774442,12711
2942.8019378931644,12610
2944.5352717415976,12774
2946.2682836288236,12716
2948.0009738640065,12630
2949.7333427563885,12907
2951.465390615289,12904
2953.1971177501086,12687
2954.9285244703265,12660
2956.6596110855,12690
2958.3903779052657,12707
2960.1208252393385,12684
2961.8509533975125,12717
2963.5807626896617,12478
2965.3102534257378,12552
2967.0394259157715,12470
2968.768280469873,12722
2970.496817398232,12821
2972.2250370111146,12688
2973.952939618869,12693
2975.6805255319196,12781
2977.4077950607707,12792
2979.134748516006,12753
2980.861386208289,12973
2982.587708448359,12972
2984.313715547037,13014
2986.039407815222,13142
2987.764785563891,12940
2989.489849104102,13099
2991.2145987469908,12744
2992.9390348037705,12891
2994.6631575857346,12649
2996.3869674042576,12695
2998.1104645707887,12812
2999.83364939686,12735
3001.5565221940783,12831
3003.2790832741334,12785
3005.0013329487924,12716
3006.7232715298996,12827
3008.4448993293804,12596
3010.166216659239,13114
3011.887223831558,12873
3013.607921158498,12921
3015.3283089522993,12775
3017.0483875252826,12780
3018.7681571898443,12771
3020.4876182584626,12907
3022.2067710436927,12856
3023.9256158581707,12987
3025.644153014609,12864
3027.362382825801,12937
3029.0803056046193,12889
3030.797921664012,12982
3032.5152313170106,12941
3034.2322348767225,12780
3035.9489326563353,12985
3037.665324969115,12937
3039.3814121284063,13020
3041.097194447633,13033
3042.812672240299,12907
3044.5278458199855,12919
3046.2427155003525,12985
3047.9572815951406,12850
3049.671544418167,13016
3051.38550428333,12951
3053.0991615046073,12677
3054.812516396051,13007
3056.5255692717974,13112
3058.2383204460575,12885
3059.9507702331257,12737
3061.662918947372,12900
3063.3747669032446,12894
3065.0863144152736,12921
3066.7975617980674,12989
3068.508509366309,13077
3070.219157434767,13285
3071.9295063182844,13142
3073.639556331785,12979
3075.3493077902704,13069
3077.058761008821,13203
3078.7679163025964,13106
3080.476773986837,12984
3082.1853343768594,13186
3083.89359778806,13136
3085.6015645359153,13036
3087.3092349359786,13231
3089.016609303884,12891
3090.7236879553434,13189
3092.4304712061476,13118
3094.136959372166,13013
3095.843152769349,12910
3097.5490517137237,13137
3099.2546565213966,13081
3100.959967508554,13210
3102.66498499146,13157
3104.3697092864577,13053
3106.0741407099695,13003
3107.778279578498,13163
3109.482126208622,12859
3111.1856809170004,13161
3112.8889440203716,13172
3114.5919158355528,13248
3116.294596679439,13215
3117.996986869006,13327
3119.6990867213062,13193
3121.4008965534726,13350
3123.102416682717,13496
3124.803647426329,13404
3126.5045891016784,13428
3128.205242026213,13376
3129.90560651746,13554
3131.605682893025,13402
3133.3054714705922,13617
3135.0049725679282,13333
3136.7041865028714,13401
3138.4031135933465,13333
3140.101754157353,13618
3141.800108512971,13295
3143.498176978357,13422
3145.1959598717494,13342
3146.8934575114636,13114
3148.5906702158954,13114
3150.2875983035183,13068
3151.9842420928853,13190
3153.680601902627,13245
3155.376678051456,13271
3157.07247085816,13406
3158.767980641609,13272
3160.463207720748,13300
3162.158152414606,13358
3163.8528150422862,13466
3165.5471959229726,13291
3167.2412953759303,13371
3168.9351137204976,13430
3170.628651276098,13626
3172.3219083622307,13649
3174.014885298474,13410
3175.707582404485,13460
3177.4000000000005,13653
3179.092138404835,13467
3180.7839979388846,13600
3182.47557892212,13596
3184.166881674594,13611
3185.8579065164386,13538
3187.5486537678626,13494
3189.2391237491547,13310
3190.9293167806827,13425
3192.6192331828934,13547
3194.3088732763117,13568
3195.998237381542,13711
3197.687325819268,13528
3199.376138910251,13512
3201.064676975334,13485
3202.7529403354347,13401
3204.4409293115523,13544
3206.1286442247647,13253
3207.816085396229,13408
3209.5032531471825,13474
3211.190147798936,13315
3212.8767696728846,13339
3214.5631190905015,13324
3216.2491963733373,13382
3217.9350018430214,13214
3219.6205358212637,13263
3221.305798629851,13197
3222.990790590651,13169
3224.6755120256103,13098
3226.359963256751,13218
3228.0441446061795,13294
3229.7280563960758,13474
3231.411698948703,13347
3233.0950725863995,13485
3234.778177631587,13457
3236.461014406761,13492
3238.1435832345005,13413
3239.8258844374595,13656
3241.507918338374,13546
3243.1896852600576,13643
3244.8711855254023,13503
3246.552419457381,13632
3248.233387379042,13579
3249.914089613516,13641
3251.59452648401,13613
3253.274698313813,13679
3254.95460542629,13465
3256.6342481448855,13601
3258.313626793125,13482
3259.9927416946084,13447
3261.6715931730196,13424
3263.3501815521176,13217
3265.0285071557437,13452
3266.706570307815,13470
3268.3843713323286,13554
3270.0619105533615,13332
3271.739188295068,13374
3273.4162048816834,13714
3275.0929606375184,13664
3276.769455886966,13672
3278.445690954498,13700
3280.1216661646613,13743
3281.797381842087,13779
3283.4728383114807,13593
3285.1480358976296,13499
3286.8229749253996,13636
3288.4976557197333,13597
3290.172078605655,13478
3291.846243908266,13398
3293.5201519527463,13378
3295.193803064357,13460
3296.8671975684374,13319
3298.5403357904024,13506
3300.21321805575,13553
3301.8858446900567,13677
3303.558216018975,13519
3305.23033236824,13635
3306.9021940636603,13869
3308.57380143113,13670
3310.2451547966184,13805
3311.916254486174,13873
3313.5871008259246,13603
3315.2576941420766,13699
3316.9280347609147,13668
3318.5981230088046,13459
3320.2679592121895,13351
3321.9375436975924,13528
3323.606876791612,13602
3325.27595882093,13393
3326.944790112305,13606
3328.6133709925753,13572
3330.2817017886573,13453
3331.949782827547,13627
3333.617614436319,13847
3335.2851969421245,13678
3336.952530672199,13930
3338.619615953853,13723
3340.286453114475,13828
3341.9530424815357,13856
3343.619384382583,13923
3345.2854791452437,13917
3346.951327097224,13948
3348.6169285663073,13873
3350.2822838803577,13988
3351.947393367319,14011
3353.61225735521,13819
3355.2768761721345,14019
3356.9412501462693,13866
3358.605379605873,13953
3360.2692648792827,13956
3361.9329062949146,14012
3363.596304181263,13759
