CollectionTime,7/9/2024 4:56:20 PM
ExposureUsed,3
CalibratedSpectrum
-962.7078968117929,735
-959.9714848408522,757
-957.2358232597828,808
-954.5009119013725,811
-951.7667505983302,812
-949.0333391832855,810
-946.3006774887896,796
-943.5687653473143,807
-940.837602591253,777
-938.1071890529199,764
-935.3775245645503,783
-932.6486089583007,794
-929.9204420662485,783
-927.1930237203925,802
-924.4663537526524,783
-921.7404319948689,813
-919.0152582788041,831
-916.2908324361409,869
-913.5671542984834,861
-910.8442236973568,772
-908.1220404642074,813
-905.4006044304027,828
-902.679915427231,831
-899.959973285902,803
-897.2407778375464,795
-894.5223289132158,810
-891.8046263438832,807
-889.0876699604426,744
-886.3714595937089,815
-883.6559950744183,800
-880.9412762332282,816
-878.2273029007168,802
-875.5140749073835,808
-872.8015920836489,779
-870.0898542598545,800
-867.3788612662631,824
-864.6686129330585,807
-861.9591090903457,799
-859.2503495681506,852
-856.5423341964203,782
-853.8350628050229,767
-851.1285352237478,806
-848.4227512823054,833
-845.7177108103272,803
-843.0134136373656,790
-840.3098595928943,814
-837.6070485063082,855
-834.9049802069229,838
-832.2036545239757,822
-829.5030712866244,858
-826.8032303239481,832
-824.1041314649472,856
-821.4057745385428,850
-818.7081593735775,853
-816.0112857988148,794
-813.3151536429393,843
-810.6197627345566,888
-807.9251129021936,838
-805.2312039742981,856
-802.5380357792392,853
-799.8456081453069,840
-797.1539209007124,872
-794.462973873588,905
-791.772766891987,879
-789.083299783884,915
-786.3945723771743,862
-783.7065844996748,849
-781.0193359791231,882
-778.3328266431781,883
-775.6470563194197,853
-772.9620248353489,838
-770.2777320183878,848
-767.5941776958798,858
-764.9113616950891,889
-762.2292838432011,830
-759.5479439673222,859
-756.8673418944801,875
-754.1874774516235,886
-751.5083504656222,887
-748.8299607632671,883
-746.15230817127,868
-743.475392516264,865
-740.7992136248035,876
-738.1237713233636,882
-735.4490654383407,860
-732.7750957960521,866
-730.1018622227365,887
-727.4293645445534,883
-724.7576025875837,892
-722.0865761778291,913
-719.4162851412126,913
-716.7467293035781,944
-714.0779084906909,926
-711.409822528237,859
-708.7424712418238,911
-706.0758544569796,918
-703.4099719991541,897
-700.7448236937178,901
-698.0804093659622,926
-695.4167288411002,960
-692.7537819442656,895
-690.0915685005134,931
-687.4300883348199,904
-684.7693412720819,947
-682.1093271371178,943
-679.4500457546669,920
-676.7914969493897,894
-674.1336805458676,935
-671.4765963686034,934
-668.8202442420206,934
-666.1646239904642,933
-663.5097354382001,919
-660.8555784094151,917
-658.2021527282176,911
-655.5494582186366,961
-652.8974947046223,939
-650.2462620100463,940
-647.5957599587009,994
-644.9459883742998,961
-642.2969470804776,993
-639.6486359007902,997
-637.0010546587141,993
-634.3542031776476,953
-631.7080812809096,987
-629.0626887917401,959
-626.4180255333008,1019
-623.7740913286734,1063
-621.1308860008619,1048
-618.4884093727904,969
-615.8466612673046,1026
-613.2056415071715,944
-610.5653499150785,987
-607.9257863136347,1013
-605.28695052537,987
-602.6488423727357,986
-600.0114616781036,1005
-597.3748082637674,1009
-594.7388819519412,1008
-592.1036825647604,1011
-589.4692099242818,1025
-586.8354638524829,1075
-584.2024441712624,1064
-581.5701507024403,1051
-578.9385832677575,1059
-576.3077416888759,1043
-573.6776257873787,1022
-571.0482353847704,1040
-568.4195703024757,1082
-565.7916303618415,1049
-563.164415384135,1056
-560.5379251905453,1061
-557.9121596021815,1055
-555.2871184400748,1037
-552.6628015251767,1050
-550.0392086783606,1032
-547.4163397204204,1057
-544.794194472071,1103
-542.1727727539491,1051
-539.5520743866118,1126
-536.9320991905377,1078
-534.3128469861261,1137
-531.6943175936979,1099
-529.0765108334947,1172
-526.4594265256793,1209
-523.8430644903358,1339
-521.2274245474689,1444
-518.612506517005,1445
-515.9983102187913,1467
-513.3848354725959,1499
-510.77208209810846,1487
-508.16004991493924,1592
-505.5487387426199,1707
-502.9381484006032,1833
-500.3282787082628,1916
-497.71912948489364,1875
-495.1107005497117,1727
-492.5029917218539,1656
-489.8960028203786,1451
-487.28973366426493,1359
-484.68418407241325,1314
-482.07935386364494,1292
-479.47524285670266,1327
-476.87185087025,1280
-474.2691777228715,1236
-471.66722323307334,1249
-469.0659872192821,1257
-466.4654694998459,1275
-463.86566989303384,1268
-461.26658821703614,1221
-458.66822428996414,1296
-456.07057792985,1252
-453.4736489546475,1254
-450.877437182231,1246
-448.28194243039627,1213
-445.68716451686,1236
-443.09310325926003,1266
-440.49975847515555,1228
-437.9071299820263,1250
-435.31521759727354,1269
-432.72402113821954,1271
-430.13354042210767,1297
-427.5437752661022,1258
-424.95472548728867,1264
-422.36639090267386,1234
-419.7787713291855,1264
-417.1918665836721,1302
-414.60567648290385,1283
-412.0202008435715,1337
-409.4354394822874,1339
-406.8513922155845,1377
-404.26805885991723,1355
-401.685439231661,1382
-399.103533147112,1278
-396.522340422488,1334
-393.9418608739278,1356
-391.3620943174908,1237
-388.7830405691583,1242
-386.2046994448317,1223
-383.6270707603344,1149
-381.05015433141045,1062
-378.473949973725,1028
-375.8984575028645,975
-373.32367673433623,866
-370.74960748356875,833
-368.1762495659117,744
-365.60360279663576,678
-363.03166699093265,592
-360.4604419639154,565
-357.8899275306178,539
-355.32012350599507,496
-352.7510297049233,479
-350.1826459421999,468
-347.61497203254316,480
-345.04800779059235,455
-342.4817530309082,484
-339.91620756797226,482
-337.35137121618743,477
-334.7872437898774,437
-332.22382510328725,451
-329.66111497058273,466
-327.09911320585127,497
-324.53781962310075,528
-321.9772340362607,496
-319.4173562591816,475
-316.8581861056348,476
-314.2997233893127,448
-311.7419679238294,451
-309.1849195227194,471
-306.62857799943856,487
-304.0729431673641,490
-301.51801483979375,528
-298.963792829947,518
-296.41027695096386,513
-293.85746701590574,547
-291.3053628377552,573
-288.7539642294155,601
-286.2032710037115,536
-283.65328297338897,523
-281.1039999511146,535
-278.5554217494762,579
-276.007548180983,558
-273.4603790580651,607
-270.9139141930734,541
-268.3681533982807,512
-265.8230964858798,519
-263.27874326798565,558
-260.7350935566336,542
-258.1921471637804,545
-255.6499039013039,533
-253.10836358100266,532
-250.56752601459698,550
-248.02739101372765,589
-245.48795838995704,587
-242.94922795476816,575
-240.41119951956557,581
-237.8738728956746,645
-235.33724789434166,713
-232.80132432673452,624
-230.2661020039418,615
-227.73158073697357,665
-225.19776033676033,711
-222.66464061415422,709
-220.1322213799284,675
-217.60050244477725,574
-215.06948361931552,585
-212.53916471408013,631
-210.00954553952818,642
-207.48062590603843,652
-204.9524056239104,646
-202.4248845033651,731
-199.8980623545441,697
-197.37193898751036,681
-194.84651421224817,674
-192.32178783866232,651
-189.79775967657952,667
-187.27442953574644,774
-184.7517972258321,777
-182.2298625564256,722
-179.7086253370378,733
-177.18808537710026,675
-174.66824248596583,690
-172.14909647290835,724
-169.6306471471229,756
-167.11289431772548,802
-164.59583779375328,745
-162.07947738416453,776
-159.5638128978386,737
-157.04884414357605,853
-154.53457093009854,951
-152.02099306604828,865
-149.50811035998936,781
-146.99592262040665,775
-144.48442965570587,822
-141.97363127421409,889
-139.46352728417958,1019
-136.95411749377126,1134
-134.44540171107985,1271
-131.93737974411636,969
-129.43005140081357,848
-126.92341648902493,1009
-124.41747481652521,1324
-121.91222619101006,1992
-119.40767042009657,2796
-116.90380731132257,3062
-114.40063667214702,3006
-111.8981583099503,2864
-109.3963720320337,3304
-106.89527764561933,3563
-104.39487495785067,3158
-101.89516377579241,3066
-99.39614390642998,3419
-96.89781515667039,4338
-94.40017733334128,5141
-91.90323024319173,5196
-89.40697369289148,4778
-86.91140748903172,5396
-84.41653143812482,6215
-81.92234534660395,5470
-79.42884902082358,3737
-76.93604226705907,3587
-74.4439248915071,6416
-71.95249670028534,9999
-69.46175749943245,12780
-66.97170709490854,14208
-64.48234529259423,13740
-61.99367189829195,12073
-59.50568671772464,9443
-57.01838955653636,8425
-54.53178022029283,8061
-52.045858514480074,7857
-49.560624244506016,9077
-47.07607721569923,10884
-44.59221723330904,12396
-42.10904410250669,12059
-39.62655762838392,11598
-37.14475761595372,10689
-34.66364387015028,8226
-32.18321619582866,7317
-29.70347439776515,7262
-27.224418280657005,7211
-24.74604764912317,8579
-22.26836230770266,12433
-19.7913620608565,23465
-17.315046712966478,40995
-14.83941606833514,57863
-12.36446993118659,65037
-9.89020810566592,65037
-7.416630395839093,65037
-4.94373660569363,65037
-2.471526539137585,65037
-6.821210263296962E-13,65037
2.47084320796705,65037
4.941003281093458,65037
7.410480415786196,65037
9.879274808531363,65037
12.347386655893956,65037
14.814816154518212,65037
17.28156350112681,65037
19.74762889252179,65037
22.21301252558385,65037
24.67771459727237,20569
27.141735304626195,3699
29.605074844762612,2161
32.06773341487792,1688
34.52971121224755,1756
36.99100843422559,1776
39.45162527824516,1806
41.91156194181792,1617
44.370818622535126,1564
46.82939551806646,1312
49.287292826160524,1235
51.74451074464503,1237
54.201049471426245,1207
56.65690920448981,1263
59.112090141899785,1177
61.56659248179983,1106
64.02041642241159,986
66.4735621620365,1045
68.92602989905402,1018
71.37781983192338,981
73.82893215918205,929
76.27936707944684,964
78.72912479141326,1127
81.17820549385567,1039
83.62660938562783,1049
86.07433666566146,1082
88.5213875329681,950
90.96776218663751,977
93.41346082583925,939
95.85848364982041,873
98.30283085790859,920
100.7465026495089,1025
103.18949922410604,990
105.63182078126385,1014
108.07346752062438,993
110.51443964190923,843
112.95473734491827,793
115.39436082953114,842
117.83331029570547,896
120.27158594347827,809
122.7091879729652,987
125.1461165843615,1001
127.58237197794062,912
130.01795435405518,836
132.4528639131364,798
134.88710085569494,877
137.32066538231982,810
139.75355769367923,807
142.1857779905207,768
144.61732647366978,780
147.04820334403132,905
149.47840880258934,929
151.90794305040674,901
154.33680628862487,1030
156.76499871846443,1199
159.19252054122433,1435
161.61937195828352,1490
164.04555317109896,1665
166.47106438120693,1919
168.89590579022217,2011
171.320077599839,2154
173.7435800118302,2209
176.16641322804742,2179
178.58857745042144,2360
181.01007288096173,2475
183.43089972175687,2542
185.85105817497413,2584
188.27054844285988,2597
190.6893707277394,2630
193.10752523201643,2847
195.5250121581745,2882
197.9418317087751,2836
200.3579840864594,2817
202.7734694939469,2940
205.18828813403627,2886
207.6024402096051,3101
210.01592592360964,2966
212.42874547908548,3153
214.84089907914665,3092
217.2523869269868,3026
219.66320922587727,3138
222.0733661791695,3159
224.48285799029293,3013
226.8916848627572,3075
229.29984700014882,3088
231.7073446061355,3172
234.11417788446204,3058
236.520347038953,3140
238.92585227351185,3138
241.33069379212054,3166
243.73487179884035,3259
246.1383864978112,3322
248.541238093252,3151
250.9434267894609,3301
253.34495279081432,3187
255.74581630176783,3152
258.1460175268563,3292
260.54555667069314,3189
262.9444339379703,3294
265.3426495334594,3138
267.7402036620107,3212
270.1370965285529,3277
272.53332833809407,3029
274.9288992957214,3051
277.32380960660055,3120
279.718059475976,3039
282.1116491091717,2999
284.5045787115897,3025
286.89684848871195,3030
289.2884586460981,3037
291.67940938938807,2939
294.0697009242996,3065
296.4593334566299,3175
298.84830719225477,3050
301.23662233712923,3059
303.6242790972866,3013
306.01127767884,2965
308.39761828798066,3053
310.78330113097934,2926
313.16832641418534,2936
315.5526943440269,2892
317.9364051270112,2901
320.3194589697242,2903
322.70185607883093,2922
325.0835966610754,2924
327.4646809232805,2805
329.8451090723478,2838
332.2248813152577,2825
334.6039978590701,2830
336.9824589109231,2837
339.36026467803447,2777
341.7374153677,2824
344.113911187295,2791
346.48975234427337,2818
348.8649390461686,2743
351.2394715005918,2779
353.61334991523415,2748
355.9865744978655,2795
358.35914545633375,2822
360.73106299856715,2750
363.10232733257146,2729
365.47293866643247,2804
367.84289720831396,2745
370.2122031664593,2736
372.5808567491905,2741
374.9488581649083,2743
377.31620762209275,2744
379.6829053293021,2715
382.0489514951745,2743
384.4143463284262,2672
386.7790900378528,2632
389.14318283232853,2589
391.50662492080653,2659
393.86941651231916,2680
396.23155781597745,2672
398.5930490409713,2723
400.9538903965696,2716
403.3140820921202,2641
405.6736243370498,2623
408.03251734086336,2694
410.3907613131465,2672
412.74835646356166,2608
415.10530300185144,2742
417.4616011378372,2639
419.81725108141893,2555
422.1722530425758,2585
424.5266072313656,2638
426.880313857925,2624
429.2333731324701,2607
431.58578526529516,2572
433.9375504667738,2636
436.2886689473588,2565
438.63914091758113,2625
440.9889665880513,2617
443.33814616945835,2610
445.68667987257015,2571
448.03456790823395,2581
450.3818104873759,2523
452.72840782100013,2503
455.07436012019105,2595
457.41966759611057,2550
459.7643304600007,2692
462.10834892318155,2521
464.4517231970525,2539
466.79445349309174,2560
469.1365400228566,2645
471.4779829979826,2583
473.81878263018564,2598
476.15893913125876,2616
478.4984527130747,2628
480.8373235875855,2709
483.17555196682144,2753
485.5131380628919,2793
487.8500820879857,2762
490.1863842543697,2916
492.52204477439034,3058
494.8570638604725,3230
497.1914417251204,3528
499.52517858091653,3877
501.85827464052306,4046
504.19073011668036,4173
506.5225452222086,4169
508.85372017000566,4195
511.18425517304956,3986
513.514150444396,4168
515.8434061971808,4884
518.1720226446176,5686
520.4999999999999,5965
522.8273384766991,5598
525.1540382881666,5089
527.480099647932,4615
529.8055227696037,3877
532.1303078668694,3317
534.454455153496,2961
536.777964843328,2891
539.1008371502907,2805
541.4230722883866,2667
543.744670471698,2717
546.0656319143858,2757
548.3859568306899,2783
550.7056454349294,2643
553.0246979415016,2629
555.3431145648834,2593
557.6608955196306,2521
559.978041020377,2620
562.2945512818363,2689
564.6104265188006,2652
566.9256669461412,2697
569.2402727788082,2716
571.5542442318302,2659
573.8675815203156,2666
576.1802848594508,2615
578.4923544645015,2738
580.8037905508126,2701
583.114593333807,2773
585.4247630289875,2738
587.7342998519354,2688
590.0432040183106,2739
592.3514757438526,2708
594.6591152443794,2681
596.9661227357875,2653
599.2724984340531,2735
601.578242555231,2670
603.8833553154542,2700
606.1878369309362,2709
608.4916876179676,2753
610.7949075929192,2672
613.0974970722403,2758
615.3994562724587,2733
617.7007854101818,2698
620.0014847020951,2778
622.3015543649641,2671
624.6009946156324,2638
626.8998056710224,2708
629.1979877481361,2703
631.4955410640538,2661
633.7924658359349,2745
636.0887622810175,2647
638.3844306166192,2706
640.6794710601358,2713
642.9738838290426,2672
645.2676691408932,2748
647.5608272133207,2784
649.853358264037,2719
652.1452625108324,2775
654.4365401715764,2747
656.7271914642178,2803
659.0172166067838,2853
661.3066158173809,2750
663.5953893141935,2785
665.8835373154867,2731
668.1710600396028,2795
670.4579577049639,2754
672.7442305300709,2823
675.0298787335033,2804
677.3149025339197,2721
679.599302150058,2749
681.8830778007342,2815
684.1662297048437,2727
686.4487580813608,2784
688.7306631493387,2820
691.0119451279091,2733
693.2926042362834,2769
695.5726406937516,2785
697.8520547196814,2857
700.1308465335215,2802
702.4090163547982,2821
704.6865644031171,2740
706.9634908981619,2742
709.2397960596965,2725
711.5154801075631,2778
713.7905432616823,2832
716.0649857420548,2770
718.3388077687592,2792
720.612009561953,2782
722.8845913418733,2675
725.1565533288352,2776
727.427895743234,2753
729.6986188055427,2719
731.9687227363137,2776
734.238207756178,2829
736.5070740858458,2786
738.7753219461066,2797
741.0429515578281,2814
743.3099631419569,2757
745.5763569195191,2828
747.8421331116193,2833
750.1072919394409,2756
752.3718336242467,2719
754.6357583873777,2705
756.8990664502545,2859
759.1617580343765,2824
761.423833361321,2807
763.6852926527457,2796
765.9461361303862,2911
768.206364016058,2905
770.4659765316536,2890
772.7249738991469,2821
774.9833563405886,2888
777.2411240781092,2877
779.4982773339183,2845
781.7548163303044,2757
784.010741289634,2828
786.2660524343538,2950
788.5207499869881,2875
790.7748341701416,2940
793.0283052064964,2845
795.2811633188143,2881
797.5334087299362,2904
799.7850416627813,2903
802.0360623403484,2802
804.2864709857143,2833
806.5362678220353,2785
808.7854530725468,2889
811.0340269605625,2856
813.2819897094754,2828
815.5293415427581,2764
817.77608268396,2801
820.0222133567116,2834
822.2677337847211,2922
824.5126441917765,2899
826.7569448017433,2879
829.0006358385675,2831
831.2437175262731,2857
833.4861900889629,2775
835.7280537508192,2856
837.9693087361026,2814
840.2099552691533,2783
842.4499935743896,2875
844.689423876309,2906
846.9282463994886,2817
849.1664613685833,2844
851.4040690083276,2763
853.6410695435349,2796
855.877463199097,2842
858.1132501999847,2884
860.3484307712487,2885
862.5830051380175,2858
864.8169735254988,2958
867.0503361589791,2899
869.2830932638243,2844
871.5152450654786,2815
873.7467917894654,2898
875.9777336613873,2821
878.2080709069252,2867
880.4378037518389,2962
882.666932421968,2901
884.8954571432301,2906
887.1233781416219,2972
889.3506956432192,2912
891.5774098741766,2941
893.803521060728,2842
896.0290294291852,2851
898.2539352059397,2855
900.4782386174619,2929
902.7019398903011,2913
904.925039251085,2855
907.147536926521,2886
909.3694331433943,2959
911.59072812857,2975
913.8114221089921,2882
916.0315153116827,2857
918.2510079637437,2862
920.4699002923547,2842
922.6881925247761,2815
924.905884888345,2827
927.1229776104793,2890
929.3394709186747,2822
931.555365040506,2814
933.7706602036275,2801
935.9853566357709,2822
938.1994545647489,2880
940.4129542184515,2906
942.6258558248488,2818
944.8381596119883,2865
947.0498658079974,2775
949.2609746410825,2859
951.4714863395287,2930
953.6814011316998,2786
955.8907192460387,2771
958.0994409110671,2809
960.3075663553858,2807
962.5150958076741,2870
964.7220294966913,2799
966.928367651274,2725
969.1341105003388,2808
971.3392582728806,2767
973.5438111979742,2714
975.747769504772,2825
977.9511334225061,2773
980.153903180487,2729
982.3560790081052,2763
984.5576611348289,2790
986.7586497902058,2731
988.9590452038618,2757
991.158847605503,2721
993.3580572249133,2645
995.5566742919558,2707
997.7546990365728,2639
999.952131688785,2622
1002.1489724786926,2677
1004.3452216364743,2676
1006.5408793923874,2705
1008.7359459767691,2553
1010.9304216200343,2576
1013.1243065526781,2567
1015.3176010052733,2521
1017.510305208472,2548
1019.7024193930064,2549
1021.8939437896848,2554
1024.0848786293977,2541
1026.2752241431122,2501
1028.4649805618747,2498
1030.6541481168115,2526
1032.842727039127,2589
1035.0307175601051,2488
1037.2181199111074,2532
1039.4049343235752,2485
1041.591161029029,2479
1043.7768002590683,2478
1045.9618522453698,2507
1048.1463172196918,2500
1050.3301954138697,2427
1052.513487059818,2527
1054.69619238953,2481
1056.8783116350783,2498
1059.0598450286152,2450
1061.2407928023704,2508
1063.4211551886528,2504
1065.6009324198508,2470
1067.780124728432,2522
1069.9587323469414,2476
1072.1367555080046,2492
1074.314194444325,2435
1076.4910493886855,2426
1078.667320573947,2346
1080.843008233051,2450
1083.0181125990161,2444
1085.1926339049414,2464
1087.3665723840027,2393
1089.5399282694575,2416
1091.7127017946405,2418
1093.8848931929647,2441
1096.0565026979243,2403
1098.2275305430899,2407
1100.3979769621128,2470
1102.567842188722,2426
1104.737126456726,2432
1106.9058300000124,2416
1109.0739530525475,2436
1111.2414958483764,2405
1113.4084586216231,2470
1115.5748416064907,2435
1117.7406450372605,2415
1119.9058691482942,2452
1122.0705141740304,2488
1124.2345803489884,2448
1126.3980679077658,2384
1128.5609770850388,2410
1130.7233081155623,2438
1132.8850612341707,2424
1135.0462366757774,2390
1137.2068346753745,2407
1139.3668554680326,2410
1141.526299288901,2440
1143.68516637321,2473
1145.8434569562655,2429
1148.001171273455,2431
1150.158309560244,2359
1152.3148720521767,2319
1154.470858984876,2430
1156.626270594044,2411
1158.7811071154629,2360
1160.9353687849912,2359
1163.089055838569,2295
1165.242168512213,2349
1167.3947070420209,2424
1169.5466716641677,2336
1171.6980626149075,2375
1173.8488801305748,2332
1175.9991244475814,2329
1178.1487958024186,2313
1180.2978944316555,2346
1182.4464205719428,2366
1184.5943744600072,2338
1186.7417563326567,2343
1188.8885664267755,2289
1191.0348049793297,2282
1193.1804722273619,2389
1195.325568407995,2414
1197.4700937584303,2345
1199.614048515948,2395
1201.7574329179074,2350
1203.900247201746,2361
1206.042491604982,2370
1208.1841663652099,2344
1210.3252717201053,2408
1212.465807907422,2391
1214.6057751649923,2368
1216.7451737307279,2336
1218.8840038426192,2368
1221.0222657387353,2474
1223.1599596572241,2342
1225.2970858363137,2460
1227.4336445143094,2476
1229.5696359295966,2444
1231.705060320639,2372
1233.8399179259786,2468
1235.9742089842384,2410
1238.107933734118,2418
1240.2410924143974,2412
1242.373685263935,2453
1244.5057125216676,2404
1246.6371744266116,2325
1248.7680712178621,2472
1250.898403134593,2404
1253.028170416058,2445
1255.1573733015875,2376
1257.2860120305932,2420
1259.4140868425648,2391
1261.54159797707,2333
1263.6685456737569,2453
1265.7949301723515,2471
1267.9207517126597,2406
1270.046010534565,2484
1272.1707068780306,2451
1274.2948409830983,2470
1276.4184130898889,2405
1278.541423438603,2439
1280.6638722695184,2447
1282.785759822993,2429
1284.9070863394636,2446
1287.0278520594447,2504
1289.1480572235314,2480
1291.2677020723963,2429
1293.3867868467923,2490
1295.5053117875495,2570
1297.623277135579,2574
1299.740683131868,2498
1301.8575300174857,2566
1303.973818033578,2581
1306.0895474213703,2509
1308.2047184221678,2563
1310.3193312773528,2455
1312.4333862283888,2561
1314.5468835168163,2606
1316.659823384255,2609
1318.7722060724045,2516
1320.8840318230418,2488
1322.9953008780249,2472
1325.1060134792888,2455
1327.2161698688478,2515
1329.3257702887959,2525
1331.4348149813054,2531
1333.5433041886276,2569
1335.6512381530933,2518
1337.7586171171101,2573
1339.8654413231675,2474
1341.9717110138317,2529
1344.0774264317488,2647
1346.1825878196432,2611
1348.2871954203192,2558
1350.3912494766587,2543
1352.4947502316231,2572
1354.5976979282532,2499
1356.7000928096686,2476
1358.8019351190665,2566
1360.9032250997243,2521
1363.0039629949988,2579
1365.1041490483235,2518
1367.2037835032133,2546
1369.3028666032606,2533
1371.401398592137,2603
1373.4993797135926,2553
1375.5968102114575,2521
1377.6936903296396,2562
1379.7900203121262,2566
1381.8858004029835,2529
1383.9810308463561,2514
1386.075711886469,2555
1388.1698437676241,2475
1390.2634267342032,2539
1392.356461030667,2558
1394.4489469015557,2612
1396.5408845914872,2640
1398.6322743451592,2612
1400.7231164073469,2555
1402.813411022907,2620
1404.903158436773,2577
1406.9923588939578,2603
1409.0810126395531,2686
1411.1691199187303,2599
1413.2566809767386,2534
1415.343696058907,2623
1417.4301654106425,2536
1419.5160892774315,2593
1421.6014679048399,2685
1423.6863015385125,2561
1425.7705904241707,2602
1427.8543348076178,2649
1429.9375349347342,2582
1432.0201910514802,2692
1434.102303403894,2669
1436.1838722380944,2686
1438.2648978002767,2739
1440.3453803367174,2678
1442.4253200937692,2666
1444.5047173178677,2626
1446.5835722555234,2614
1448.6618851533285,2687
1450.739656257952,2692
1452.8168858161434,2793
1454.8935740747306,2695
1456.96972128062,2741
1459.045327680797,2806
1461.120393522327,2851
1463.1949190523528,2837
1465.2689045180973,2807
1467.3423501668608,2795
1469.415256246024,2817
1471.4876230030463,2891
1473.559450685465,2838
1475.6307395408976,2853
1477.7014898170391,2933
1479.771701761665,3013
1481.8413756226287,2976
1483.9105116478618,3000
1485.9791100853772,2994
1488.0471711832643,2922
1490.1146951896926,2978
1492.1816823529098,2993
1494.2481329212433,3020
1496.3140471430984,3110
1498.3794252669609,3147
1500.4442675413939,3008
1502.5085742150404,3053
1504.572345536622,3107
1506.6355817549388,3088
1508.6982831188702,3141
1510.7604498773744,3109
1512.8220822794883,3046
1514.8831805743293,3141
1516.9437450110909,3136
1519.003775839048,3233
1521.0632733075522,3169
1523.1222376660367,3216
1525.1806691640113,3236
1527.2385680510652,3296
1529.2959345768668,3243
1531.3527689911643,3236
1533.4090715437833,3264
1535.4648424846291,3313
1537.5200820636855,3323
1539.5747905310159,3345
1541.6289681367616,3433
1543.6826151311434,3455
1545.7357317644614,3460
1547.7883182870937,3449
1549.8403749494987,3494
1551.8919020022113,3497
1553.9428996958477,3464
1555.9933682811015,3614
1558.0433080087469,3587
1560.0927191296346,3658
1562.1416018946961,3726
1564.1899565549415,3603
1566.2377833614592,3713
1568.2850825654164,3662
1570.3318544180606,3677
1572.3780991707158,3590
1574.423817074788,3520
1576.4690083817595,3488
1578.5136733431923,3357
1580.5578122107272,3407
1582.601425236085,3259
1584.6445126710646,3232
1586.6870747675434,3138
1588.7291117774776,3065
1590.7706239529034,2954
1592.8116115459347,2981
1594.8520748087658,2976
1596.8920139936686,2822
1598.9314293529933,2901
1600.9703211391711,2817
1603.008689604711,2720
1605.0465350022005,2807
1607.0838575843068,2791
1609.1206576037753,2769
1611.1569353134305,2626
1613.1926909661765,2654
1615.2279248149953,2659
1617.2626371129481,2611
1619.2968281131757,2700
1621.3304980688963,2646
1623.3636472334088,2700
1625.39627586009,2613
1627.428384202396,2581
1629.459972513861,2589
1631.4910410480993,2574
1633.5215900588028,2514
1635.551619799744,2565
1637.5811305247717,2524
1639.6101224878166,2476
1641.6385959428862,2473
1643.6665511440683,2532
1645.693988345528,2570
1647.7209078015112,2458
1649.7473097663405,2442
1651.7731944944203,2494
1653.7985622402307,2595
1655.823413258333,2509
1657.847747803366,2502
1659.8715661300494,2440
1661.8948684931793,2492
1663.9176551476316,2483
1665.9399263483624,2451
1667.9616823504057,2493
1669.982923408873,2511
1672.0036497789574,2468
1674.0238617159293,2548
1676.043559475138,2453
1678.0627433120121,2408
1680.081413482059,2508
1682.0995702408654,2527
1684.117213844096,2503
1686.134344547495,2433
1688.1509626068864,2538
1690.1670682781705,2471
1692.182661817329,2477
1694.1977434804217,2431
1696.2123135235875,2442
1698.226372203043,2542
1700.2399197750851,2504
1702.2529564960905,2428
1704.2654826225112,2564
1706.277498410882,2419
1708.2890041178139,2422
1710.2999999999988,2538
1712.3104863142066,2503
1714.3204633172854,2443
1716.329931266163,2522
1718.3388904178469,2446
1720.3473410294214,2525
1722.3552833580516,2410
1724.3627176609807,2438
1726.3696441955308,2498
1728.3760632191033,2428
1730.3819749891782,2396
1732.3873797633146,2415
1734.3922777991502,2502
1736.3966693544012,2432
1738.4005546868639,2483
1740.4039340544127,2385
1742.406807715001,2442
1744.4091759266616,2377
1746.4110389475054,2455
1748.4123970357223,2431
1750.413250449582,2417
1752.4135994474318,2423
1754.4134442876993,2445
1756.4127852288902,2500
1758.4116225295893,2445
1760.4099564484595,2368
1762.407787244244,2380
1764.405115175764,2356
1766.4019405019203,2442
1768.3982634816916,2393
1770.3940843741357,2475
1772.3894034383907,2431
1774.3842209336717,2392
1776.378537119274,2324
1778.372352254571,2370
1780.3656665990156,2478
1782.3584804121397,2380
1784.3507939535534,2422
1786.3426074829463,2388
1788.3339212600863,2449
1790.3247355448211,2427
1792.3150505970766,2395
1794.3048666768573,2362
1796.2941840442477,2381
1798.2830029594106,2427
1800.2713236825884,2435
1802.2591464741004,2417
1804.2464715943465,2431
1806.2332993038058,2459
1808.2196298630352,2460
1810.2054635326708,2391
1812.190800573428,2501
1814.175641246101,2390
1816.1599858115628,2397
1818.1438345307652,2339
1820.127187664738,2367
1822.1100454745924,2441
1824.092408221516,2439
1826.0742761667766,2329
1828.055649571721,2344
1830.0365286977735,2448
1832.0169138064398,2423
1833.9968051593014,2470
1835.9762030180214,2350
1837.9551076443408,2343
1839.9335193000788,2422
1841.9114382471344,2429
1843.888864747485,2407
1845.8657990631878,2402
1847.842241456378,2385
1849.8181921892697,2355
1851.7936515241558,2409
1853.7686197234098,2382
1855.7430970494815,2295
1857.7170837649014,2352
1859.6905801322787,2395
1861.6635864143004,2351
1863.6361028737338,2297
1865.608129773424,2451
1867.5796673762961,2377
1869.5507159453537,2399
1871.521275743678,2346
1873.4913470344313,2329
1875.4609300808534,2346
1877.4300251462632,2401
1879.3986324940588,2385
1881.366752387717,2349
1883.3343850907936,2340
1885.3015308669228,2380
1887.268189979819,2400
1889.2343626932739,2358
1891.2000492711595,2446
1893.1652499774254,2485
1895.1299650761011,2423
1897.0941948312952,2400
1899.0579395071945,2366
1901.0211993680641,2417
1902.98397467825,2351
1904.9462657021745,2319
1906.9080727043415,2461
1908.869395949332,2420
1910.8302357018065,2383
1912.790592226504,2462
1914.7504657882428,2406
1916.7098566519212,2415
1918.6687650825133,2369
1920.6271913450764,2409
1922.5851357047422,2484
1924.5425984267245,2437
1926.499579776314,2396
1928.4560800188833,2359
1930.4120994198802,2472
1932.367638244833,2372
1934.32269675935,2392
1936.2772752291175,2312
1938.231373919899,2428
1940.1849930975404,2469
1942.1381330279637,2407
1944.0907939771696,2447
1946.0429762112412,2364
1947.9946799963363,2429
1949.9459055986945,2413
1951.896653284633,2420
1953.8469233205478,2462
1955.7967159729142,2409
1957.7460315082863,2333
1959.6948701932974,2442
1961.6432322946594,2394
1963.5911180791632,2375
1965.5385278136787,2398
1967.4854617651545,2437
1969.4319202006182,2401
1971.377903387176,2475
1973.3234115920136,2457
1975.268445082395,2371
1977.2130041256642,2475
1979.1570889892423,2319
1981.1006999406304,2405
1983.04383724741,2425
1984.986501177238,2331
1986.928691997853,2441
1988.8704099770712,2433
1990.811655382789,2422
1992.7524284829801,2442
1994.692729545698,2363
1996.6325588390755,2412
1998.5719166313224,2449
2000.5108031907307,2392
2002.4492187856677,2408
2004.387163684583,2467
2006.3246381560011,2344
2008.2616424685298,2362
2010.1981768908527,2484
2012.1342416917332,2432
2014.069837140014,2360
2016.0049635046162,2417
2017.9396210545406,2424
2019.8738100588666,2411
2021.8075307867502,2414
2023.740783507431,2352
2025.6735684902228,2411
2027.6058860045214,2421
2029.5377363198004,2489
2031.4691197056118,2409
2033.4000364315875,2423
2035.3304867674374,2426
2037.260470982952,2342
2039.189989347998,2423
2041.1190421325232,2414
2043.047629606554,2450
2044.9757520401945,2445
2046.9034097036288,2357
2048.8306028671195,2387
2050.7573318010086,2431
2052.683596775716,2327
2054.609398061742,2457
2056.5347359296647,2427
2058.4596106501403,2446
2060.384022493906,2459
2062.3079717317764,2388
2064.231458634646,2398
2066.1544834734873,2481
2068.077046519352,2429
2069.99914804337,2390
2071.9207883167524,2505
2073.8419676107865,2427
2075.7626861968406,2406
2077.6829443463607,2408
2079.6027423308715,2433
2081.522080421977,2471
2083.440958891362,2466
2085.359378010786,2447
2087.2773380520907,2399
2089.194839287196,2424
2091.111881988101,2426
2093.0284664268825,2436
2094.9445928756973,2402
2096.86026160678,2483
2098.775472892446,2417
2100.690227005088,2466
2102.604524217178,2406
2104.5183648012676,2439
2106.431749029985,2481
2108.34467717604,2461
2110.2571495122206,2409
2112.169166311393,2451
2114.080727846503,2497
2115.9918343905747,2448
2117.902486216711,2456
2119.8126835980956,2473
2121.722426807987,2456
2123.6317161197285,2467
2125.5405518067364,2502
2127.448934142509,2543
2129.356863400624,2435
2131.264339854737,2464
2133.1713637785815,2477
2135.077935445972,2489
2136.9840551308002,2516
2138.889723107037,2503
2140.7949396487334,2524
2142.699705030018,2495
2144.6040195250994,2465
2146.507883408264,2425
2148.4112969538774,2501
2150.3142604363848,2498
2152.2167741303097,2502
2154.1188383102535,2519
2156.0204532508997,2559
2157.9216192270064,2557
2159.822336513414,2517
2161.7226053850413,2564
2163.622426116884,2557
2165.5217989840185,2498
2167.4207242616,2539
2169.319202224862,2587
2171.2172331491165,2560
2173.1148173097563,2459
2175.0119549822507,2487
2176.90864644215,2488
2178.8048919650823,2583
2180.7006918267534,2586
2182.596046302952,2592
2184.4909556695407,2532
2186.3854202024645,2525
2188.279440177746,2591
2190.173015871487,2545
2192.066147559868,2511
2193.958835519149,2566
2195.851080025667,2547
2197.7428813558417,2499
2199.6342397861667,2510
2201.5251555932186,2581
2203.415629053651,2638
2205.3056604441986,2550
2207.19525004167,2627
2209.084398122958,2687
2210.9731049650327,2519
2212.861370844941,2659
2214.749196039812,2572
2216.636580826851,2618
2218.523525483344,2555
2220.410030286655,2622
2222.296095514226,2571
2224.1817214435805,2584
2226.066908352319,2593
2227.951656518121,2638
2229.835966218746,2650
2231.71983773203,2574
2233.6032713358913,2621
2235.486267308324,2518
2237.3688259274036,2685
2239.2509474712824,2615
2241.132632218193,2540
2243.013880446447,2585
2244.8946924344323,2603
2246.7750684606203,2574
2248.6550088035574,2552
2250.534513741871,2641
2252.413583554265,2571
2254.292218519526,2606
2256.170418916517,2642
2258.0481850241786,2470
2259.925517121534,2529
2261.8024154876825,2586
2263.678880401803,2558
2265.5549121431536,2625
2267.430510991071,2497
2269.305677224971,2643
2271.180411124348,2607
2273.0547129687766,2572
2274.9285830379076,2569
2276.8020216114737,2579
2278.6750289692845,2582
2280.5476053912294,2596
2282.4197511572766,2630
2284.2914665474727,2575
2286.162751841943,2705
2288.0336073208937,2736
2289.904033264608,2648
2291.774029953448,2615
2293.6435976678554,2670
2295.5127366883517,2619
2297.381447295534,2570
2299.2497297700825,2461
2301.1175843927526,2522
2302.9850114443825,2549
2304.852011205885,2496
2306.7185839582553,2431
2308.5847299825664,2416
2310.4504495599676,2526
2312.3157429716925,2460
2314.1806104990483,2450
2316.0450524234247,2410
2317.9090690262888,2403
2319.772660589186,2396
2321.635827393742,2439
2323.498569721661,2467
2325.3608878547248,2371
2327.2227820747967,2412
2329.0842526638157,2402
2330.945299903803,2414
2332.805924076857,2390
2334.6661254651535,2312
2336.525904350951,2340
2338.3852610165827,2372
2340.244195744464,2432
2342.102708817088,2426
2343.9608005170253,2410
2345.8184711269287,2422
2347.675720929526,2429
2349.532550207628,2381
2351.38895924412,2403
2353.24494832197,2412
2355.100517724223,2404
2356.955667734004,2400
2358.810398634514,2446
2360.664710709037,2385
2362.5186042409337,2398
2364.3720795136437,2393
2366.225136810686,2358
2368.0777764156583,2446
2369.929998612237,2389
2371.7818036841777,2378
2373.633191915315,2474
2375.484163589562,2443
2377.3347189909114,2427
2379.184858403434,2465
2381.03458211128,2452
2382.8838903986775,2426
2384.732783549936,2433
2386.5812618494406,2424
2388.4293255816588,2406
2390.2769750311327,2424
2392.1242104824883,2492
2393.971032220427,2488
2395.8174405297295,2416
2397.6634356952563,2440
2399.509018001947,2455
2401.3541877348193,2398
2403.1989451789705,2425
2405.043290619576,2421
2406.8872243418905,2393
2408.730746631247,2430
2410.5738577730594,2477
2412.4165580528183,2431
2414.258847756095,2503
2416.100727168537,2453
2417.9421965758734,2416
2419.783256263912,2428
2421.623906518538,2546
2423.4641476257157,2483
2425.303979871491,2432
2427.143403541984,2465
2428.9824189233977,2422
2430.821026302012,2416
2432.6592259641866,2535
2434.497018196361,2446
2436.33440328505,2467
2438.171381516851,2438
2440.00795317844,2432
2441.844118556569,2521
2443.6798779380724,2485
2445.5152316098606,2453
2447.3501798589255,2446
2449.1847229723357,2411
2451.0188612372403,2476
2452.8525949408663,2444
2454.6859243705203,2456
2456.518849813587,2463
2458.3513715575314,2421
2460.183489889895,2383
2462.015205098301,2493
2463.8465174704493,2480
2465.67742729412,2390
2467.5079348571717,2507
2469.338040447542,2515
2471.1677443532476,2503
2472.9970468623833,2435
2474.825948263123,2387
2476.6544488437207,2527
2478.482548892508,2396
2480.310248697896,2508
2482.137548548374,2488
2483.9644487325118,2456
2485.790949538956,2494
2487.617051256433,2548
2489.44275417375,2461
2491.26805857979,2506
2493.0929647635157,2492
2494.917473013971,2455
2496.741583620276,2486
2498.5652968716304,2489
2500.3886130573137,2463
2502.2115324666834,2530
2504.0340553891765,2593
2505.856182114308,2585
2507.6779129316733,2489
2509.499248130945,2565
2511.3201880018764,2410
2513.140732834298,2443
2514.9608829181198,2514
2516.780638543331,2509
2518.6,2591
2520.418967578273,2437
2522.237541568376,2441
2524.0557222606144,2459
2525.8735099453706,2464
2527.6909049131086,2405
2529.507907454368,2478
2531.32451785977,2502
2533.140736420014,2519
2534.9565634258774,2572
2536.771999168218,2520
2538.5870439379714,2558
2540.4016980261526,2471
2542.2159617238544,2602
2544.02983532225,2545
2545.8433191125914,2585
2547.656413386209,2538
2549.4691184345115,2573
2551.2814345489874,2594
2553.093362021204,2592
2554.904901142808,2636
2556.716052205523,2615
2558.526815501153,2640
2560.3371913215824,2569
2562.147179958771,2511
2563.956781704761,2612
2565.7659968516705,2631
2567.5748256916986,2564
2569.3832685171224,2601
2571.1913256202984,2613
2572.9989972936614,2645
2574.806283829725,2613
2576.613185521084,2635
2578.4197026604074,2653
2580.2258355404483,2584
2582.031584454035,2606
2583.836949694077,2633
2585.6419315535613,2677
2587.4465303255533,2653
2589.2507463032002,2687
2591.0545797797245,2637
2592.8580310484303,2641
2594.6611004026995,2614
2596.463788135992,2666
2598.266094541849,2698
2600.0680199138874,2710
2601.869564545807,2676
2603.670728731383,2671
2605.4715127644704,2686
2607.2719169390048,2616
2609.071941548998,2666
2610.8715868885433,2716
2612.670853251811,2696
2614.469740933052,2668
2616.268250226594,2643
2618.0663814268455,2654
2619.864134828292,2703
2621.6615107255006,2634
2623.458509413115,2651
2625.2551311858597,2613
2627.0513763385347,2601
2628.8472451660223,2630
2630.6427379632833,2622
2632.4378550253564,2623
2634.232596647359,2607
2636.026963124488,2684
2637.8209547520187,2699
2639.6145718253065,2690
2641.407814639785,2682
2643.200683490966,2626
2644.9931786744414,2614
2646.7853004858807,2582
2648.577049221034,2659
2650.3684251757277,2620
2652.1594286458712,2648
2653.9500599274484,2592
2655.740319316525,2645
2657.5302071092437,2556
2659.3197236018286,2575
2661.10886909058,2577
2662.8976438718782,2581
2664.686048242183,2597
2666.4740824980327,2590
2668.2617469360443,2562
2670.0490418529134,2614
2671.8359675454153,2568
2673.622524310403,2497
2675.408712444811,2506
2677.1945322456495,2610
2678.979984010009,2560
2680.76506803506,2554
2682.5497846180497,2535
2684.334134056306,2528
2686.1181166472343,2521
2687.9017326883213,2503
2689.6849824771293,2538
2691.4678663113013,2573
2693.2503844885596,2467
2695.032537306705,2481
2696.8143250636167,2521
2698.5957480572542,2530
2700.3768065856534,2511
2702.1575009469316,2622
2703.937831439283,2486
2705.717798360982,2455
2707.4974020103837,2474
2709.276642685917,2529
2711.055520686095,2411
2712.834036309506,2575
2714.612189854819,2529
2716.389981620782,2471
2718.1674119062204,2521
2719.944481010041,2435
2721.721189231226,2488
2723.4975368688415,2480
2725.273524222027,2472
2727.0491515900053,2489
2728.824419272075,2555
2730.5993275676146,2353
2732.3738767760838,2507
2734.148067197016,2481
2735.921899130031,2474
2737.6953728748194,2482
2739.468488731156,2447
2741.2412469988926,2494
2743.0136479779617,2467
2744.785691968372,2404
2746.5573792702116,2483
2748.3287101836504,2518
2750.099685008934,2415
2751.870304046388,2472
2753.640567596418,2520
2755.4104759595057,2428
2757.1800294362156,2456
2758.949228327187,2487
2760.7180729331412,2466
2762.486563554877,2462
2764.254700493272,2406
2766.022484049284,2422
2767.789914523947,2469
2769.5569922183786,2502
2771.3237174337705,2469
2773.090090471394,2488
2774.8561116326036,2507
2776.6217812188274,2396
2778.3870995315756,2465
2780.1520668724356,2509
2781.9166835430747,2498
2783.6809498452394,2535
2785.444866080754,2507
2787.2084325515225,2532
2788.971649559527,2512
2790.73451740683,2438
2792.4970363955713,2525
2794.2592068279705,2428
2796.0210290063264,2490
2797.7825032330147,2448
2799.543629810493,2404
2801.304409041296,2493
2803.0648412280366,2429
2804.8249266734088,2470
2806.5846656801846,2421
2808.344058551212,2484
2810.1031055894246,2565
2811.8618070978273,2498
2813.6201633795085,2578
2815.378174737636,2511
2817.1358414754536,2542
2818.893163896285,2516
2820.6501423035334,2463
2822.4067770006814,2567
2824.1630682912883,2497
2825.9190164789957,2567
2827.6746218675207,2517
2829.429884760661,2481
2831.184805462294,2565
2832.9393842763743,2515
2834.693621506936,2589
2836.4475174580916,2478
2838.201072434034,2467
2839.954286739034,2521
2841.707160677441,2554
2843.459694553685,2547
2845.2118886722724,2503
2846.96374333779,2567
2848.7152588549034,2521
2850.4664355283567,2497
2852.217273662973,2558
2853.9677735636546,2461
2855.7179355353833,2548
2857.4677598832186,2526
2859.217246912299,2494
2860.9663969278427,2440
2862.715210235146,2573
2864.4636871395846,2528
2866.211827946614,2449
2867.9596329617652,2465
2869.7071024906536,2527
2871.4542368389684,2516
2873.20103631248,2508
2874.947501217038,2517
2876.6936318585695,2518
2878.4394285430812,2523
2880.1848915766604,2498
2881.9300212654707,2497
2883.6748179157553,2410
2885.4192818338374,2490
2887.1634133261173,2466
2888.907212699077,2526
2890.6506802592744,2531
2892.393816313348,2546
2894.1366211680142,2514
2895.8790951300693,2546
2897.621238506388,2507
2899.363051603925,2559
2901.1045347297118,2521
2902.8456881908596,2498
2904.58651229456,2507
2906.327007348081,2534
2908.067173658772,2540
2909.8070115340597,2465
2911.5465212814497,2499
2913.285703208527,2548
2915.0245576229563,2487
2916.7630848324807,2549
2918.5012851449196,2533
2920.2391588681758,2500
2921.976706310227,2553
2923.7139277791334,2498
2925.4508235830313,2522
2927.187394030137,2508
2928.923639428745,2541
2930.6595600872306,2554
2932.395156314046,2487
2934.1304284177218,2510
2935.8653767068713,2553
2937.6000014901815,2548
2939.3343030764227,2550
2941.068281774442,2547
2942.8019378931644,2556
2944.5352717415976,2583
2946.2682836288236,2573
2948.0009738640065,2537
2949.7333427563885,2501
2951.465390615289,2516
2953.1971177501086,2544
2954.9285244703265,2544
2956.6596110855,2616
2958.3903779052657,2576
2960.1208252393385,2595
2961.8509533975125,2546
2963.5807626896617,2515
2965.3102534257378,2471
2967.0394259157715,2501
2968.768280469873,2485
2970.496817398232,2485
2972.2250370111146,2584
2973.952939618869,2420
2975.6805255319196,2501
2977.4077950607707,2567
2979.134748516006,2651
2980.861386208289,2585
2982.587708448359,2598
2984.313715547037,2595
2986.039407815222,2609
2987.764785563891,2568
2989.489849104102,2556
2991.2145987469908,2557
2992.9390348037705,2578
2994.6631575857346,2569
2996.3869674042576,2559
2998.1104645707887,2518
2999.83364939686,2524
3001.5565221940783,2539
3003.2790832741334,2527
3005.0013329487924,2572
3006.7232715298996,2497
3008.4448993293804,2500
3010.166216659239,2545
3011.887223831558,2573
3013.607921158498,2542
3015.3283089522993,2518
3017.0483875252826,2436
3018.7681571898443,2574
3020.4876182584626,2552
3022.2067710436927,2579
3023.9256158581707,2499
3025.644153014609,2567
3027.362382825801,2520
3029.0803056046193,2491
3030.797921664012,2549
3032.5152313170106,2552
3034.2322348767225,2566
3035.9489326563353,2582
3037.665324969115,2538
3039.3814121284063,2563
3041.097194447633,2572
3042.812672240299,2575
3044.5278458199855,2648
3046.2427155003525,2613
3047.9572815951406,2441
3049.671544418167,2473
3051.38550428333,2514
3053.0991615046073,2537
3054.812516396051,2503
3056.5255692717974,2453
3058.2383204460575,2527
3059.9507702331257,2575
3061.662918947372,2453
3063.3747669032446,2527
3065.0863144152736,2558
3066.7975617980674,2598
3068.508509366309,2534
3070.219157434767,2549
3071.9295063182844,2564
3073.639556331785,2623
3075.3493077902704,2647
3077.058761008821,2520
3078.7679163025964,2601
3080.476773986837,2599
3082.1853343768594,2545
3083.89359778806,2511
3085.6015645359153,2607
3087.3092349359786,2626
3089.016609303884,2605
3090.7236879553434,2633
3092.4304712061476,2499
3094.136959372166,2567
3095.843152769349,2541
3097.5490517137237,2580
3099.2546565213966,2551
3100.959967508554,2514
3102.66498499146,2602
3104.3697092864577,2570
3106.0741407099695,2647
3107.778279578498,2573
3109.482126208622,2505
3111.1856809170004,2617
3112.8889440203716,2616
3114.5919158355528,2607
3116.294596679439,2568
3117.996986869006,2583
3119.6990867213062,2568
3121.4008965534726,2623
3123.102416682717,2597
3124.803647426329,2641
3126.5045891016784,2641
3128.205242026213,2546
3129.90560651746,2565
3131.605682893025,2617
3133.3054714705922,2609
3135.0049725679282,2548
3136.7041865028714,2612
3138.4031135933465,2625
3140.101754157353,2631
3141.800108512971,2576
3143.498176978357,2603
3145.1959598717494,2614
3146.8934575114636,2581
3148.5906702158954,2490
3150.2875983035183,2591
3151.9842420928853,2571
3153.680601902627,2609
3155.376678051456,2531
3157.07247085816,2583
3158.767980641609,2629
3160.463207720748,2581
3162.158152414606,2671
3163.8528150422862,2618
3165.5471959229726,2524
3167.2412953759303,2560
3168.9351137204976,2608
3170.628651276098,2601
3172.3219083622307,2639
3174.014885298474,2574
3175.707582404485,2671
3177.4000000000005,2626
3179.092138404835,2555
3180.7839979388846,2559
3182.47557892212,2632
3184.166881674594,2612
3185.8579065164386,2594
3187.5486537678626,2655
3189.2391237491547,2645
3190.9293167806827,2640
3192.6192331828934,2675
3194.3088732763117,2631
3195.998237381542,2532
3197.687325819268,2613
3199.376138910251,2612
3201.064676975334,2542
3202.7529403354347,2643
3204.4409293115523,2474
3206.1286442247647,2597
3207.816085396229,2590
3209.5032531471825,2538
3211.190147798936,2557
3212.8767696728846,2473
3214.5631190905015,2540
3216.2491963733373,2600
3217.9350018430214,2542
3219.6205358212637,2608
3221.305798629851,2495
3222.990790590651,2571
3224.6755120256103,2476
3226.359963256751,2576
3228.0441446061795,2581
3229.7280563960758,2578
3231.411698948703,2495
3233.0950725863995,2597
3234.778177631587,2560
3236.461014406761,2529
3238.1435832345005,2547
3239.8258844374595,2585
3241.507918338374,2591
3243.1896852600576,2653
3244.8711855254023,2583
3246.552419457381,2610
3248.233387379042,2689
3249.914089613516,2622
3251.59452648401,2634
3253.274698313813,2590
3254.95460542629,2643
3256.6342481448855,2676
3258.313626793125,2537
3259.9927416946084,2484
3261.6715931730196,2552
3263.3501815521176,2561
3265.0285071557437,2558
3266.706570307815,2592
3268.3843713323286,2555
3270.0619105533615,2564
3271.739188295068,2603
3273.4162048816834,2559
3275.0929606375184,2627
3276.769455886966,2630
3278.445690954498,2632
3280.1216661646613,2647
3281.797381842087,2551
3283.4728383114807,2691
3285.1480358976296,2615
3286.8229749253996,2534
3288.4976557197333,2552
3290.172078605655,2583
3291.846243908266,2556
3293.5201519527463,2501
3295.193803064357,2529
3296.8671975684374,2563
3298.5403357904024,2596
3300.21321805575,2632
3301.8858446900567,2582
3303.558216018975,2636
3305.23033236824,2629
3306.9021940636603,2682
3308.57380143113,2568
3310.2451547966184,2558
3311.916254486174,2520
3313.5871008259246,2579
3315.2576941420766,2668
3316.9280347609147,2602
3318.5981230088046,2561
3320.2679592121895,2500
3321.9375436975924,2544
3323.606876791612,2543
3325.27595882093,2536
3326.944790112305,2501
3328.6133709925753,2618
3330.2817017886573,2579
3331.949782827547,2562
3333.617614436319,2621
3335.2851969421245,2679
3336.952530672199,2657
3338.619615953853,2603
3340.286453114475,2671
3341.9530424815357,2613
3343.619384382583,2590
3345.2854791452437,2646
3346.951327097224,2550
3348.6169285663073,2614
3350.2822838803577,2711
3351.947393367319,2577
3353.61225735521,2585
3355.2768761721345,2577
3356.9412501462693,2574
3358.605379605873,2579
3360.2692648792827,2548
3361.9329062949146,2632
3363.596304181263,2656
