CollectionTime,7/11/2024 12:08:01 PM
ExposureUsed,3
CalibratedSpectrum
-962.7078968117929,875
-959.9714848408522,962
-957.2358232597828,969
-954.5009119013725,993
-951.7667505983302,1025
-949.0333391832855,1004
-946.3006774887896,1034
-943.5687653473143,1049
-940.837602591253,964
-938.1071890529199,1004
-935.3775245645503,1016
-932.6486089583007,992
-929.9204420662485,1032
-927.1930237203925,981
-924.4663537526524,1023
-921.7404319948689,944
-919.0152582788041,1020
-916.2908324361409,1035
-913.5671542984834,1025
-910.8442236973568,993
-908.1220404642074,976
-905.4006044304027,989
-902.679915427231,1043
-899.959973285902,1009
-897.2407778375464,1006
-894.5223289132158,1011
-891.8046263438832,1026
-889.0876699604426,1004
-886.3714595937089,988
-883.6559950744183,998
-880.9412762332282,1011
-878.2273029007168,960
-875.5140749073835,966
-872.8015920836489,989
-870.0898542598545,956
-867.3788612662631,1007
-864.6686129330585,999
-861.9591090903457,1006
-859.2503495681506,1038
-856.5423341964203,986
-853.8350628050229,1016
-851.1285352237478,1023
-848.4227512823054,1049
-845.7177108103272,1063
-843.0134136373656,1040
-840.3098595928943,1095
-837.6070485063082,1082
-834.9049802069229,1035
-832.2036545239757,1056
-829.5030712866244,1035
-826.8032303239481,1054
-824.1041314649472,1060
-821.4057745385428,1033
-818.7081593735775,1129
-816.0112857988148,1097
-813.3151536429393,1100
-810.6197627345566,1115
-807.9251129021936,1071
-805.2312039742981,1040
-802.5380357792392,1035
-799.8456081453069,1067
-797.1539209007124,1100
-794.462973873588,1095
-791.772766891987,1153
-789.083299783884,1080
-786.3945723771743,1077
-783.7065844996748,1039
-781.0193359791231,1074
-778.3328266431781,1093
-775.6470563194197,1095
-772.9620248353489,1056
-770.2777320183878,1073
-767.5941776958798,1116
-764.9113616950891,1101
-762.2292838432011,1102
-759.5479439673222,1040
-756.8673418944801,1080
-754.1874774516235,1098
-751.5083504656222,1116
-748.8299607632671,1134
-746.15230817127,1114
-743.475392516264,1072
-740.7992136248035,1076
-738.1237713233636,1098
-735.4490654383407,1112
-732.7750957960521,1083
-730.1018622227365,1168
-727.4293645445534,1142
-724.7576025875837,1125
-722.0865761778291,1192
-719.4162851412126,1120
-716.7467293035781,1128
-714.0779084906909,1115
-711.409822528237,1155
-708.7424712418238,1158
-706.0758544569796,1202
-703.4099719991541,1119
-700.7448236937178,1200
-698.0804093659622,1162
-695.4167288411002,1162
-692.7537819442656,1138
-690.0915685005134,1193
-687.4300883348199,1194
-684.7693412720819,1165
-682.1093271371178,1174
-679.4500457546669,1235
-676.7914969493897,1176
-674.1336805458676,1179
-671.4765963686034,1202
-668.8202442420206,1202
-666.1646239904642,1221
-663.5097354382001,1232
-660.8555784094151,1248
-658.2021527282176,1163
-655.5494582186366,1162
-652.8974947046223,1233
-650.2462620100463,1236
-647.5957599587009,1245
-644.9459883742998,1210
-642.2969470804776,1240
-639.6486359007902,1227
-637.0010546587141,1255
-634.3542031776476,1254
-631.7080812809096,1202
-629.0626887917401,1266
-626.4180255333008,1236
-623.7740913286734,1274
-621.1308860008619,1317
-618.4884093727904,1318
-615.8466612673046,1231
-613.2056415071715,1253
-610.5653499150785,1321
-607.9257863136347,1312
-605.28695052537,1290
-602.6488423727357,1268
-600.0114616781036,1289
-597.3748082637674,1232
-594.7388819519412,1281
-592.1036825647604,1319
-589.4692099242818,1334
-586.8354638524829,1274
-584.2024441712624,1298
-581.5701507024403,1258
-578.9385832677575,1307
-576.3077416888759,1360
-573.6776257873787,1308
-571.0482353847704,1319
-568.4195703024757,1285
-565.7916303618415,1314
-563.164415384135,1359
-560.5379251905453,1304
-557.9121596021815,1299
-555.2871184400748,1288
-552.6628015251767,1294
-550.0392086783606,1329
-547.4163397204204,1333
-544.794194472071,1292
-542.1727727539491,1377
-539.5520743866118,1395
-536.9320991905377,1324
-534.3128469861261,1341
-531.6943175936979,1369
-529.0765108334947,1475
-526.4594265256793,1455
-523.8430644903358,1579
-521.2274245474689,1686
-518.612506517005,1677
-515.9983102187913,1712
-513.3848354725959,1638
-510.77208209810846,1699
-508.16004991493924,1767
-505.5487387426199,1766
-502.9381484006032,1840
-500.3282787082628,1891
-497.71912948489364,1837
-495.1107005497117,1774
-492.5029917218539,1721
-489.8960028203786,1590
-487.28973366426493,1533
-484.68418407241325,1506
-482.07935386364494,1501
-479.47524285670266,1484
-476.87185087025,1467
-474.2691777228715,1479
-471.66722323307334,1531
-469.0659872192821,1477
-466.4654694998459,1476
-463.86566989303384,1565
-461.26658821703614,1549
-458.66822428996414,1544
-456.07057792985,1481
-453.4736489546475,1507
-450.877437182231,1538
-448.28194243039627,1499
-445.68716451686,1546
-443.09310325926003,1481
-440.49975847515555,1523
-437.9071299820263,1446
-435.31521759727354,1448
-432.72402113821954,1505
-430.13354042210767,1480
-427.5437752661022,1551
-424.95472548728867,1539
-422.36639090267386,1545
-419.7787713291855,1604
-417.1918665836721,1660
-414.60567648290385,1619
-412.0202008435715,1487
-409.4354394822874,1584
-406.8513922155845,1645
-404.26805885991723,1663
-401.685439231661,1551
-399.103533147112,1563
-396.522340422488,1596
-393.9418608739278,1524
-391.3620943174908,1486
-388.7830405691583,1487
-386.2046994448317,1399
-383.6270707603344,1362
-381.05015433141045,1331
-378.473949973725,1165
-375.8984575028645,1115
-373.32367673433623,1013
-370.74960748356875,848
-368.1762495659117,872
-365.60360279663576,798
-363.03166699093265,691
-360.4604419639154,619
-357.8899275306178,547
-355.32012350599507,562
-352.7510297049233,557
-350.1826459421999,502
-347.61497203254316,522
-345.04800779059235,490
-342.4817530309082,442
-339.91620756797226,467
-337.35137121618743,545
-334.7872437898774,563
-332.22382510328725,555
-329.66111497058273,501
-327.09911320585127,525
-324.53781962310075,531
-321.9772340362607,535
-319.4173562591816,452
-316.8581861056348,451
-314.2997233893127,496
-311.7419679238294,495
-309.1849195227194,542
-306.62857799943856,588
-304.0729431673641,696
-301.51801483979375,590
-298.963792829947,571
-296.41027695096386,600
-293.85746701590574,590
-291.3053628377552,632
-288.7539642294155,555
-286.2032710037115,548
-283.65328297338897,576
-281.1039999511146,503
-278.5554217494762,558
-276.007548180983,600
-273.4603790580651,561
-270.9139141930734,608
-268.3681533982807,599
-265.8230964858798,629
-263.27874326798565,648
-260.7350935566336,641
-258.1921471637804,670
-255.6499039013039,672
-253.10836358100266,674
-250.56752601459698,683
-248.02739101372765,645
-245.48795838995704,736
-242.94922795476816,794
-240.41119951956557,749
-237.8738728956746,806
-235.33724789434166,687
-232.80132432673452,652
-230.2661020039418,659
-227.73158073697357,675
-225.19776033676033,723
-222.66464061415422,730
-220.1322213799284,698
-217.60050244477725,712
-215.06948361931552,657
-212.53916471408013,723
-210.00954553952818,791
-207.48062590603843,779
-204.9524056239104,791
-202.4248845033651,763
-199.8980623545441,783
-197.37193898751036,831
-194.84651421224817,774
-192.32178783866232,856
-189.79775967657952,738
-187.27442953574644,820
-184.7517972258321,920
-182.2298625564256,933
-179.7086253370378,820
-177.18808537710026,780
-174.66824248596583,791
-172.14909647290835,785
-169.6306471471229,858
-167.11289431772548,827
-164.59583779375328,875
-162.07947738416453,997
-159.5638128978386,930
-157.04884414357605,972
-154.53457093009854,1225
-152.02099306604828,1050
-149.50811035998936,916
-146.99592262040665,924
-144.48442965570587,1062
-141.97363127421409,1221
-139.46352728417958,1311
-136.95411749377126,1164
-134.44540171107985,1050
-131.93737974411636,1067
-129.43005140081357,1092
-126.92341648902493,1499
-124.41747481652521,1681
-121.91222619101006,1712
-119.40767042009657,1402
-116.90380731132257,1646
-114.40063667214702,1441
-111.8981583099503,2141
-109.3963720320337,4047
-106.89527764561933,6625
-104.39487495785067,7835
-101.89516377579241,7710
-99.39614390642998,7413
-96.89781515667039,10776
-94.40017733334128,15627
-91.90323024319173,17110
-89.40697369289148,15633
-86.91140748903172,12032
-84.41653143812482,6708
-81.92234534660395,5813
-79.42884902082358,9287
-76.93604226705907,15946
-74.4439248915071,21077
-71.95249670028534,25536
-69.46175749943245,27506
-66.97170709490854,25567
-64.48234529259423,20405
-61.99367189829195,15819
-59.50568671772464,12958
-57.01838955653636,8869
-54.53178022029283,7228
-52.045858514480074,9880
-49.560624244506016,11274
-47.07607721569923,13586
-44.59221723330904,14675
-42.10904410250669,13092
-39.62655762838392,11937
-37.14475761595372,11362
-34.66364387015028,11163
-32.18321619582866,10328
-29.70347439776515,9854
-27.224418280657005,8547
-24.74604764912317,8903
-22.26836230770266,14202
-19.7913620608565,26373
-17.315046712966478,43764
-14.83941606833514,56325
-12.36446993118659,65039
-9.89020810566592,65039
-7.416630395839093,65039
-4.94373660569363,65039
-2.471526539137585,65039
-6.821210263296962E-13,65039
2.47084320796705,65039
4.941003281093458,65039
7.410480415786196,65039
9.879274808531363,65039
12.347386655893956,65039
14.814816154518212,65039
17.28156350112681,65039
19.74762889252179,65039
22.21301252558385,65039
24.67771459727237,21030
27.141735304626195,4513
29.605074844762612,3515
32.06773341487792,3854
34.52971121224755,2802
36.99100843422559,2025
39.45162527824516,2235
41.91156194181792,2353
44.370818622535126,1848
46.82939551806646,1785
49.287292826160524,2167
51.74451074464503,3132
54.201049471426245,2994
56.65690920448981,2063
59.112090141899785,1657
61.56659248179983,1396
64.02041642241159,1594
66.4735621620365,1436
68.92602989905402,1620
71.37781983192338,1809
73.82893215918205,1629
76.27936707944684,1574
78.72912479141326,1440
81.17820549385567,1695
83.62660938562783,1473
86.07433666566146,1113
88.5213875329681,958
90.96776218663751,1090
93.41346082583925,1265
95.85848364982041,1655
98.30283085790859,1867
100.7465026495089,1617
103.18949922410604,1517
105.63182078126385,1595
108.07346752062438,1267
110.51443964190923,1366
112.95473734491827,1135
115.39436082953114,1415
117.83331029570547,1272
120.27158594347827,1326
122.7091879729652,1437
125.1461165843615,1523
127.58237197794062,1195
130.01795435405518,1061
132.4528639131364,1042
134.88710085569494,1071
137.32066538231982,1122
139.75355769367923,1103
142.1857779905207,1069
144.61732647366978,1012
147.04820334403132,938
149.47840880258934,975
151.90794305040674,1098
154.33680628862487,1320
156.76499871846443,1441
159.19252054122433,1465
161.61937195828352,1483
164.04555317109896,1637
166.47106438120693,1847
168.89590579022217,2024
171.320077599839,2186
173.7435800118302,2180
176.16641322804742,2280
178.58857745042144,2398
181.01007288096173,2364
183.43089972175687,2432
185.85105817497413,2484
188.27054844285988,2561
190.6893707277394,2646
193.10752523201643,2831
195.5250121581745,2847
197.9418317087751,2887
200.3579840864594,2912
202.7734694939469,2927
205.18828813403627,3051
207.6024402096051,3112
210.01592592360964,2994
212.42874547908548,2849
214.84089907914665,3036
217.2523869269868,2962
219.66320922587727,3027
222.0733661791695,3083
224.48285799029293,3086
226.8916848627572,3011
229.29984700014882,3078
231.7073446061355,3068
234.11417788446204,3039
236.520347038953,3186
238.92585227351185,3098
241.33069379212054,3107
243.73487179884035,3233
246.1383864978112,3161
248.541238093252,3157
250.9434267894609,3292
253.34495279081432,3182
255.74581630176783,3198
258.1460175268563,3078
260.54555667069314,3140
262.9444339379703,3021
265.3426495334594,3038
267.7402036620107,3040
270.1370965285529,3075
272.53332833809407,3141
274.9288992957214,2990
277.32380960660055,2855
279.718059475976,2980
282.1116491091717,3009
284.5045787115897,2851
286.89684848871195,2896
289.2884586460981,2946
291.67940938938807,2914
294.0697009242996,3117
296.4593334566299,2959
298.84830719225477,2941
301.23662233712923,2919
303.6242790972866,2878
306.01127767884,2806
308.39761828798066,2802
310.78330113097934,2867
313.16832641418534,2864
315.5526943440269,2714
317.9364051270112,2833
320.3194589697242,2803
322.70185607883093,2828
325.0835966610754,2823
327.4646809232805,2677
329.8451090723478,2646
332.2248813152577,2668
334.6039978590701,2748
336.9824589109231,2757
339.36026467803447,2734
341.7374153677,2634
344.113911187295,2617
346.48975234427337,2671
348.8649390461686,2613
351.2394715005918,2634
353.61334991523415,2521
355.9865744978655,2602
358.35914545633375,2633
360.73106299856715,2637
363.10232733257146,2621
365.47293866643247,2606
367.84289720831396,2668
370.2122031664593,2591
372.5808567491905,2674
374.9488581649083,2630
377.31620762209275,2524
379.6829053293021,2560
382.0489514951745,2630
384.4143463284262,2578
386.7790900378528,2574
389.14318283232853,2584
391.50662492080653,2634
393.86941651231916,2646
396.23155781597745,2594
398.5930490409713,2670
400.9538903965696,2597
403.3140820921202,2575
405.6736243370498,2549
408.03251734086336,2574
410.3907613131465,2521
412.74835646356166,2551
415.10530300185144,2481
417.4616011378372,2536
419.81725108141893,2464
422.1722530425758,2501
424.5266072313656,2567
426.880313857925,2528
429.2333731324701,2517
431.58578526529516,2456
433.9375504667738,2587
436.2886689473588,2571
438.63914091758113,2542
440.9889665880513,2458
443.33814616945835,2457
445.68667987257015,2502
448.03456790823395,2516
450.3818104873759,2579
452.72840782100013,2399
455.07436012019105,2454
457.41966759611057,2410
459.7643304600007,2510
462.10834892318155,2507
464.4517231970525,2553
466.79445349309174,2453
469.1365400228566,2483
471.4779829979826,2466
473.81878263018564,2426
476.15893913125876,2489
478.4984527130747,2521
480.8373235875855,2538
483.17555196682144,2675
485.5131380628919,2600
487.8500820879857,2595
490.1863842543697,2712
492.52204477439034,2838
494.8570638604725,2902
497.1914417251204,2988
499.52517858091653,3208
501.85827464052306,3402
504.19073011668036,3515
506.5225452222086,3427
508.85372017000566,3460
511.18425517304956,3589
513.514150444396,3651
515.8434061971808,4190
518.1720226446176,4915
520.4999999999999,4842
522.8273384766991,4650
525.1540382881666,4501
527.480099647932,4056
529.8055227696037,3577
532.1303078668694,3128
534.454455153496,2898
536.777964843328,2811
539.1008371502907,2647
541.4230722883866,2580
543.744670471698,2609
546.0656319143858,2627
548.3859568306899,2640
550.7056454349294,2599
553.0246979415016,2573
555.3431145648834,2643
557.6608955196306,2624
559.978041020377,2628
562.2945512818363,2643
564.6104265188006,2654
566.9256669461412,2636
569.2402727788082,2603
571.5542442318302,2507
573.8675815203156,2645
576.1802848594508,2613
578.4923544645015,2646
580.8037905508126,2653
583.114593333807,2679
585.4247630289875,2639
587.7342998519354,2671
590.0432040183106,2722
592.3514757438526,2689
594.6591152443794,2653
596.9661227357875,2661
599.2724984340531,2619
601.578242555231,2609
603.8833553154542,2704
606.1878369309362,2707
608.4916876179676,2598
610.7949075929192,2676
613.0974970722403,2676
615.3994562724587,2540
617.7007854101818,2631
620.0014847020951,2723
622.3015543649641,2684
624.6009946156324,2702
626.8998056710224,2596
629.1979877481361,2630
631.4955410640538,2640
633.7924658359349,2601
636.0887622810175,2646
638.3844306166192,2629
640.6794710601358,2718
642.9738838290426,2671
645.2676691408932,2533
647.5608272133207,2623
649.853358264037,2701
652.1452625108324,2711
654.4365401715764,2699
656.7271914642178,2723
659.0172166067838,2723
661.3066158173809,2673
663.5953893141935,2673
665.8835373154867,2740
668.1710600396028,2722
670.4579577049639,2742
672.7442305300709,2684
675.0298787335033,2672
677.3149025339197,2711
679.599302150058,2710
681.8830778007342,2715
684.1662297048437,2622
686.4487580813608,2751
688.7306631493387,2740
691.0119451279091,2686
693.2926042362834,2730
695.5726406937516,2742
697.8520547196814,2811
700.1308465335215,2720
702.4090163547982,2778
704.6865644031171,2650
706.9634908981619,2695
709.2397960596965,2706
711.5154801075631,2744
713.7905432616823,2739
716.0649857420548,2778
718.3388077687592,2633
720.612009561953,2750
722.8845913418733,2695
725.1565533288352,2675
727.427895743234,2673
729.6986188055427,2710
731.9687227363137,2676
734.238207756178,2738
736.5070740858458,2691
738.7753219461066,2807
741.0429515578281,2804
743.3099631419569,2740
745.5763569195191,2755
747.8421331116193,2627
750.1072919394409,2726
752.3718336242467,2819
754.6357583873777,2770
756.8990664502545,2755
759.1617580343765,2729
761.423833361321,2715
763.6852926527457,2787
765.9461361303862,2746
768.206364016058,2757
770.4659765316536,2803
772.7249738991469,2789
774.9833563405886,2826
777.2411240781092,2737
779.4982773339183,2726
781.7548163303044,2833
784.010741289634,2725
786.2660524343538,2892
788.5207499869881,2839
790.7748341701416,2804
793.0283052064964,2840
795.2811633188143,2836
797.5334087299362,2892
799.7850416627813,2820
802.0360623403484,2787
804.2864709857143,2833
806.5362678220353,2811
808.7854530725468,2810
811.0340269605625,2728
813.2819897094754,2746
815.5293415427581,2813
817.77608268396,2836
820.0222133567116,2842
822.2677337847211,2800
824.5126441917765,2798
826.7569448017433,2837
829.0006358385675,2770
831.2437175262731,2760
833.4861900889629,2782
835.7280537508192,2780
837.9693087361026,2950
840.2099552691533,2899
842.4499935743896,2899
844.689423876309,2782
846.9282463994886,2762
849.1664613685833,2752
851.4040690083276,2881
853.6410695435349,2849
855.877463199097,2866
858.1132501999847,2918
860.3484307712487,2832
862.5830051380175,2944
864.8169735254988,2803
867.0503361589791,2840
869.2830932638243,2819
871.5152450654786,2858
873.7467917894654,2746
875.9777336613873,2749
878.2080709069252,2906
880.4378037518389,2844
882.666932421968,2852
884.8954571432301,2893
887.1233781416219,2860
889.3506956432192,2891
891.5774098741766,2912
893.803521060728,2940
896.0290294291852,2864
898.2539352059397,2873
900.4782386174619,2944
902.7019398903011,2810
904.925039251085,2823
907.147536926521,2899
909.3694331433943,2881
911.59072812857,2919
913.8114221089921,2732
916.0315153116827,2926
918.2510079637437,2820
920.4699002923547,2909
922.6881925247761,2768
924.905884888345,2757
927.1229776104793,2724
929.3394709186747,2805
931.555365040506,2790
933.7706602036275,2753
935.9853566357709,2827
938.1994545647489,2844
940.4129542184515,2884
942.6258558248488,2814
944.8381596119883,2753
947.0498658079974,2793
949.2609746410825,2723
951.4714863395287,2677
953.6814011316998,2793
955.8907192460387,2804
958.0994409110671,2829
960.3075663553858,2753
962.5150958076741,2794
964.7220294966913,2828
966.928367651274,2830
969.1341105003388,2797
971.3392582728806,2872
973.5438111979742,2838
975.747769504772,2831
977.9511334225061,2686
980.153903180487,2645
982.3560790081052,2747
984.5576611348289,2831
986.7586497902058,2718
988.9590452038618,2828
991.158847605503,2725
993.3580572249133,2708
995.5566742919558,2778
997.7546990365728,2682
999.952131688785,2701
1002.1489724786926,2674
1004.3452216364743,2614
1006.5408793923874,2551
1008.7359459767691,2610
1010.9304216200343,2588
1013.1243065526781,2605
1015.3176010052733,2596
1017.510305208472,2558
1019.7024193930064,2524
1021.8939437896848,2584
1024.0848786293977,2568
1026.2752241431122,2646
1028.4649805618747,2597
1030.6541481168115,2554
1032.842727039127,2618
1035.0307175601051,2566
1037.2181199111074,2591
1039.4049343235752,2589
1041.591161029029,2605
1043.7768002590683,2591
1045.9618522453698,2560
1048.1463172196918,2569
1050.3301954138697,2568
1052.513487059818,2514
1054.69619238953,2599
1056.8783116350783,2548
1059.0598450286152,2537
1061.2407928023704,2548
1063.4211551886528,2607
1065.6009324198508,2574
1067.780124728432,2659
1069.9587323469414,2581
1072.1367555080046,2621
1074.314194444325,2550
1076.4910493886855,2496
1078.667320573947,2457
1080.843008233051,2507
1083.0181125990161,2548
1085.1926339049414,2581
1087.3665723840027,2465
1089.5399282694575,2550
1091.7127017946405,2521
1093.8848931929647,2549
1096.0565026979243,2498
1098.2275305430899,2470
1100.3979769621128,2581
1102.567842188722,2470
1104.737126456726,2391
1106.9058300000124,2442
1109.0739530525475,2495
1111.2414958483764,2466
1113.4084586216231,2463
1115.5748416064907,2482
1117.7406450372605,2543
1119.9058691482942,2581
1122.0705141740304,2490
1124.2345803489884,2503
1126.3980679077658,2501
1128.5609770850388,2452
1130.7233081155623,2530
1132.8850612341707,2546
1135.0462366757774,2475
1137.2068346753745,2411
1139.3668554680326,2478
1141.526299288901,2512
1143.68516637321,2418
1145.8434569562655,2465
1148.001171273455,2465
1150.158309560244,2538
1152.3148720521767,2506
1154.470858984876,2449
1156.626270594044,2511
1158.7811071154629,2471
1160.9353687849912,2516
1163.089055838569,2467
1165.242168512213,2423
1167.3947070420209,2533
1169.5466716641677,2505
1171.6980626149075,2497
1173.8488801305748,2483
1175.9991244475814,2465
1178.1487958024186,2577
1180.2978944316555,2515
1182.4464205719428,2528
1184.5943744600072,2390
1186.7417563326567,2409
1188.8885664267755,2414
1191.0348049793297,2430
1193.1804722273619,2471
1195.325568407995,2433
1197.4700937584303,2392
1199.614048515948,2425
1201.7574329179074,2433
1203.900247201746,2412
1206.042491604982,2471
1208.1841663652099,2484
1210.3252717201053,2411
1212.465807907422,2480
1214.6057751649923,2554
1216.7451737307279,2574
1218.8840038426192,2501
1221.0222657387353,2421
1223.1599596572241,2486
1225.2970858363137,2507
1227.4336445143094,2424
1229.5696359295966,2485
1231.705060320639,2493
1233.8399179259786,2562
1235.9742089842384,2563
1238.107933734118,2624
1240.2410924143974,2482
1242.373685263935,2520
1244.5057125216676,2501
1246.6371744266116,2545
1248.7680712178621,2523
1250.898403134593,2486
1253.028170416058,2556
1255.1573733015875,2481
1257.2860120305932,2508
1259.4140868425648,2446
1261.54159797707,2509
1263.6685456737569,2549
1265.7949301723515,2545
1267.9207517126597,2496
1270.046010534565,2546
1272.1707068780306,2525
1274.2948409830983,2542
1276.4184130898889,2539
1278.541423438603,2547
1280.6638722695184,2528
1282.785759822993,2496
1284.9070863394636,2532
1287.0278520594447,2559
1289.1480572235314,2556
1291.2677020723963,2557
1293.3867868467923,2619
1295.5053117875495,2588
1297.623277135579,2603
1299.740683131868,2648
1301.8575300174857,2642
1303.973818033578,2717
1306.0895474213703,2698
1308.2047184221678,2714
1310.3193312773528,2736
1312.4333862283888,2697
1314.5468835168163,2593
1316.659823384255,2571
1318.7722060724045,2672
1320.8840318230418,2673
1322.9953008780249,2705
1325.1060134792888,2614
1327.2161698688478,2672
1329.3257702887959,2610
1331.4348149813054,2648
1333.5433041886276,2603
1335.6512381530933,2576
1337.7586171171101,2639
1339.8654413231675,2566
1341.9717110138317,2623
1344.0774264317488,2674
1346.1825878196432,2635
1348.2871954203192,2611
1350.3912494766587,2580
1352.4947502316231,2574
1354.5976979282532,2553
1356.7000928096686,2621
1358.8019351190665,2575
1360.9032250997243,2566
1363.0039629949988,2532
1365.1041490483235,2682
1367.2037835032133,2603
1369.3028666032606,2553
1371.401398592137,2532
1373.4993797135926,2536
1375.5968102114575,2519
1377.6936903296396,2606
1379.7900203121262,2551
1381.8858004029835,2629
1383.9810308463561,2553
1386.075711886469,2583
1388.1698437676241,2529
1390.2634267342032,2531
1392.356461030667,2655
1394.4489469015557,2643
1396.5408845914872,2624
1398.6322743451592,2647
1400.7231164073469,2603
1402.813411022907,2626
1404.903158436773,2651
1406.9923588939578,2589
1409.0810126395531,2556
1411.1691199187303,2531
1413.2566809767386,2576
1415.343696058907,2593
1417.4301654106425,2631
1419.5160892774315,2631
1421.6014679048399,2528
1423.6863015385125,2556
1425.7705904241707,2678
1427.8543348076178,2702
1429.9375349347342,2657
1432.0201910514802,2700
1434.102303403894,2623
1436.1838722380944,2649
1438.2648978002767,2691
1440.3453803367174,2659
1442.4253200937692,2690
1444.5047173178677,2632
1446.5835722555234,2717
1448.6618851533285,2804
1450.739656257952,2724
1452.8168858161434,2699
1454.8935740747306,2795
1456.96972128062,2762
1459.045327680797,2781
1461.120393522327,2829
1463.1949190523528,2838
1465.2689045180973,2885
1467.3423501668608,2825
1469.415256246024,2895
1471.4876230030463,2814
1473.559450685465,2924
1475.6307395408976,3024
1477.7014898170391,2971
1479.771701761665,3000
1481.8413756226287,2918
1483.9105116478618,2945
1485.9791100853772,2978
1488.0471711832643,3017
1490.1146951896926,2985
1492.1816823529098,3066
1494.2481329212433,3064
1496.3140471430984,3008
1498.3794252669609,3024
1500.4442675413939,3014
1502.5085742150404,3179
1504.572345536622,3077
1506.6355817549388,3081
1508.6982831188702,3111
1510.7604498773744,3086
1512.8220822794883,3179
1514.8831805743293,3164
1516.9437450110909,3252
1519.003775839048,3255
1521.0632733075522,3205
1523.1222376660367,3282
1525.1806691640113,3397
1527.2385680510652,3266
1529.2959345768668,3287
1531.3527689911643,3303
1533.4090715437833,3348
1535.4648424846291,3315
1537.5200820636855,3412
1539.5747905310159,3403
1541.6289681367616,3443
1543.6826151311434,3454
1545.7357317644614,3537
1547.7883182870937,3467
1549.8403749494987,3508
1551.8919020022113,3548
1553.9428996958477,3600
1555.9933682811015,3596
1558.0433080087469,3577
1560.0927191296346,3645
1562.1416018946961,3626
1564.1899565549415,3626
1566.2377833614592,3633
1568.2850825654164,3567
1570.3318544180606,3588
1572.3780991707158,3494
1574.423817074788,3553
1576.4690083817595,3480
1578.5136733431923,3282
1580.5578122107272,3258
1582.601425236085,3257
1584.6445126710646,3080
1586.6870747675434,3152
1588.7291117774776,3021
1590.7706239529034,3027
1592.8116115459347,2923
1594.8520748087658,2958
1596.8920139936686,2859
1598.9314293529933,2743
1600.9703211391711,2728
1603.008689604711,2789
1605.0465350022005,2805
1607.0838575843068,2770
1609.1206576037753,2790
1611.1569353134305,2653
1613.1926909661765,2602
1615.2279248149953,2540
1617.2626371129481,2556
1619.2968281131757,2608
1621.3304980688963,2542
1623.3636472334088,2636
1625.39627586009,2613
1627.428384202396,2460
1629.459972513861,2604
1631.4910410480993,2589
1633.5215900588028,2563
1635.551619799744,2563
1637.5811305247717,2577
1639.6101224878166,2516
1641.6385959428862,2551
1643.6665511440683,2581
1645.693988345528,2507
1647.7209078015112,2519
1649.7473097663405,2508
1651.7731944944203,2508
1653.7985622402307,2396
1655.823413258333,2474
1657.847747803366,2400
1659.8715661300494,2462
1661.8948684931793,2358
1663.9176551476316,2547
1665.9399263483624,2479
1667.9616823504057,2515
1669.982923408873,2458
1672.0036497789574,2432
1674.0238617159293,2459
1676.043559475138,2548
1678.0627433120121,2514
1680.081413482059,2430
1682.0995702408654,2528
1684.117213844096,2450
1686.134344547495,2464
1688.1509626068864,2444
1690.1670682781705,2527
1692.182661817329,2471
1694.1977434804217,2422
1696.2123135235875,2413
1698.226372203043,2431
1700.2399197750851,2453
1702.2529564960905,2425
1704.2654826225112,2429
1706.277498410882,2437
1708.2890041178139,2484
1710.2999999999988,2483
1712.3104863142066,2449
1714.3204633172854,2453
1716.329931266163,2448
1718.3388904178469,2497
1720.3473410294214,2436
1722.3552833580516,2466
1724.3627176609807,2417
1726.3696441955308,2518
1728.3760632191033,2479
1730.3819749891782,2512
1732.3873797633146,2499
1734.3922777991502,2452
1736.3966693544012,2456
1738.4005546868639,2449
1740.4039340544127,2385
1742.406807715001,2405
1744.4091759266616,2355
1746.4110389475054,2355
1748.4123970357223,2416
1750.413250449582,2426
1752.4135994474318,2419
1754.4134442876993,2469
1756.4127852288902,2394
1758.4116225295893,2362
1760.4099564484595,2451
1762.407787244244,2459
1764.405115175764,2362
1766.4019405019203,2367
1768.3982634816916,2381
1770.3940843741357,2409
1772.3894034383907,2342
1774.3842209336717,2417
1776.378537119274,2399
1778.372352254571,2445
1780.3656665990156,2396
1782.3584804121397,2443
1784.3507939535534,2422
1786.3426074829463,2333
1788.3339212600863,2442
1790.3247355448211,2482
1792.3150505970766,2391
1794.3048666768573,2409
1796.2941840442477,2428
1798.2830029594106,2420
1800.2713236825884,2396
1802.2591464741004,2390
1804.2464715943465,2437
1806.2332993038058,2367
1808.2196298630352,2329
1810.2054635326708,2369
1812.190800573428,2459
1814.175641246101,2448
1816.1599858115628,2440
1818.1438345307652,2468
1820.127187664738,2454
1822.1100454745924,2411
1824.092408221516,2428
1826.0742761667766,2416
1828.055649571721,2445
1830.0365286977735,2419
1832.0169138064398,2411
1833.9968051593014,2408
1835.9762030180214,2437
1837.9551076443408,2494
1839.9335193000788,2416
1841.9114382471344,2467
1843.888864747485,2389
1845.8657990631878,2383
1847.842241456378,2449
1849.8181921892697,2380
1851.7936515241558,2457
1853.7686197234098,2372
1855.7430970494815,2338
1857.7170837649014,2371
1859.6905801322787,2387
1861.6635864143004,2482
1863.6361028737338,2417
1865.608129773424,2413
1867.5796673762961,2427
1869.5507159453537,2420
1871.521275743678,2435
1873.4913470344313,2413
1875.4609300808534,2465
1877.4300251462632,2429
1879.3986324940588,2446
1881.366752387717,2481
1883.3343850907936,2467
1885.3015308669228,2443
1887.268189979819,2472
1889.2343626932739,2421
1891.2000492711595,2413
1893.1652499774254,2458
1895.1299650761011,2454
1897.0941948312952,2440
1899.0579395071945,2462
1901.0211993680641,2508
1902.98397467825,2489
1904.9462657021745,2500
1906.9080727043415,2409
1908.869395949332,2524
1910.8302357018065,2406
1912.790592226504,2499
1914.7504657882428,2458
1916.7098566519212,2413
1918.6687650825133,2386
1920.6271913450764,2457
1922.5851357047422,2420
1924.5425984267245,2421
1926.499579776314,2468
1928.4560800188833,2438
1930.4120994198802,2492
1932.367638244833,2506
1934.32269675935,2417
1936.2772752291175,2507
1938.231373919899,2476
1940.1849930975404,2520
1942.1381330279637,2402
1944.0907939771696,2502
1946.0429762112412,2456
1947.9946799963363,2484
1949.9459055986945,2392
1951.896653284633,2441
1953.8469233205478,2387
1955.7967159729142,2379
1957.7460315082863,2488
1959.6948701932974,2492
1961.6432322946594,2443
1963.5911180791632,2477
1965.5385278136787,2446
1967.4854617651545,2519
1969.4319202006182,2472
1971.377903387176,2437
1973.3234115920136,2452
1975.268445082395,2478
1977.2130041256642,2455
1979.1570889892423,2499
1981.1006999406304,2403
1983.04383724741,2447
1984.986501177238,2511
1986.928691997853,2539
1988.8704099770712,2468
1990.811655382789,2450
1992.7524284829801,2468
1994.692729545698,2488
1996.6325588390755,2453
1998.5719166313224,2457
2000.5108031907307,2476
2002.4492187856677,2550
2004.387163684583,2428
2006.3246381560011,2468
2008.2616424685298,2512
2010.1981768908527,2473
2012.1342416917332,2477
2014.069837140014,2403
2016.0049635046162,2499
2017.9396210545406,2413
2019.8738100588666,2414
2021.8075307867502,2387
2023.740783507431,2534
2025.6735684902228,2394
2027.6058860045214,2416
2029.5377363198004,2524
2031.4691197056118,2468
2033.4000364315875,2451
2035.3304867674374,2512
2037.260470982952,2435
2039.189989347998,2388
2041.1190421325232,2463
2043.047629606554,2526
2044.9757520401945,2435
2046.9034097036288,2467
2048.8306028671195,2534
2050.7573318010086,2518
2052.683596775716,2485
2054.609398061742,2467
2056.5347359296647,2514
2058.4596106501403,2546
2060.384022493906,2472
2062.3079717317764,2463
2064.231458634646,2455
2066.1544834734873,2492
2068.077046519352,2504
2069.99914804337,2513
2071.9207883167524,2492
2073.8419676107865,2501
2075.7626861968406,2544
2077.6829443463607,2495
2079.6027423308715,2560
2081.522080421977,2547
2083.440958891362,2510
2085.359378010786,2524
2087.2773380520907,2543
2089.194839287196,2476
2091.111881988101,2562
2093.0284664268825,2460
2094.9445928756973,2535
2096.86026160678,2575
2098.775472892446,2466
2100.690227005088,2470
2102.604524217178,2554
2104.5183648012676,2483
2106.431749029985,2495
2108.34467717604,2453
2110.2571495122206,2592
2112.169166311393,2468
2114.080727846503,2520
2115.9918343905747,2551
2117.902486216711,2495
2119.8126835980956,2490
2121.722426807987,2551
2123.6317161197285,2483
2125.5405518067364,2608
2127.448934142509,2556
2129.356863400624,2471
2131.264339854737,2555
2133.1713637785815,2563
2135.077935445972,2552
2136.9840551308002,2551
2138.889723107037,2522
2140.7949396487334,2514
2142.699705030018,2483
2144.6040195250994,2562
2146.507883408264,2541
2148.4112969538774,2574
2150.3142604363848,2505
2152.2167741303097,2514
2154.1188383102535,2538
2156.0204532508997,2535
2157.9216192270064,2605
2159.822336513414,2522
2161.7226053850413,2496
2163.622426116884,2565
2165.5217989840185,2547
2167.4207242616,2634
2169.319202224862,2593
2171.2172331491165,2530
2173.1148173097563,2618
2175.0119549822507,2520
2176.90864644215,2544
2178.8048919650823,2558
2180.7006918267534,2563
2182.596046302952,2543
2184.4909556695407,2589
2186.3854202024645,2546
2188.279440177746,2623
2190.173015871487,2668
2192.066147559868,2643
2193.958835519149,2560
2195.851080025667,2574
2197.7428813558417,2662
2199.6342397861667,2538
2201.5251555932186,2561
2203.415629053651,2688
2205.3056604441986,2683
2207.19525004167,2681
2209.084398122958,2547
2210.9731049650327,2643
2212.861370844941,2572
2214.749196039812,2629
2216.636580826851,2631
2218.523525483344,2624
2220.410030286655,2713
2222.296095514226,2579
2224.1817214435805,2624
2226.066908352319,2666
2227.951656518121,2678
2229.835966218746,2627
2231.71983773203,2638
2233.6032713358913,2720
2235.486267308324,2711
2237.3688259274036,2703
2239.2509474712824,2692
2241.132632218193,2602
2243.013880446447,2659
2244.8946924344323,2590
2246.7750684606203,2665
2248.6550088035574,2644
2250.534513741871,2668
2252.413583554265,2682
2254.292218519526,2622
2256.170418916517,2652
2258.0481850241786,2691
2259.925517121534,2627
2261.8024154876825,2656
2263.678880401803,2620
2265.5549121431536,2610
2267.430510991071,2613
2269.305677224971,2661
2271.180411124348,2646
2273.0547129687766,2611
2274.9285830379076,2606
2276.8020216114737,2611
2278.6750289692845,2627
2280.5476053912294,2727
2282.4197511572766,2661
2284.2914665474727,2743
2286.162751841943,2740
2288.0336073208937,2819
2289.904033264608,2800
2291.774029953448,2720
2293.6435976678554,2702
2295.5127366883517,2755
2297.381447295534,2760
2299.2497297700825,2722
2301.1175843927526,2613
2302.9850114443825,2623
2304.852011205885,2685
2306.7185839582553,2592
2308.5847299825664,2552
2310.4504495599676,2638
2312.3157429716925,2563
2314.1806104990483,2547
2316.0450524234247,2591
2317.9090690262888,2527
2319.772660589186,2612
2321.635827393742,2613
2323.498569721661,2631
2325.3608878547248,2617
2327.2227820747967,2608
2329.0842526638157,2618
2330.945299903803,2583
2332.805924076857,2575
2334.6661254651535,2537
2336.525904350951,2510
2338.3852610165827,2534
2340.244195744464,2548
2342.102708817088,2503
2343.9608005170253,2538
2345.8184711269287,2638
2347.675720929526,2632
2349.532550207628,2681
2351.38895924412,2563
2353.24494832197,2546
2355.100517724223,2655
2356.955667734004,2662
2358.810398634514,2615
2360.664710709037,2641
2362.5186042409337,2555
2364.3720795136437,2631
2366.225136810686,2615
2368.0777764156583,2663
2369.929998612237,2533
2371.7818036841777,2602
2373.633191915315,2637
2375.484163589562,2571
2377.3347189909114,2619
2379.184858403434,2551
2381.03458211128,2642
2382.8838903986775,2564
2384.732783549936,2673
2386.5812618494406,2539
2388.4293255816588,2603
2390.2769750311327,2656
2392.1242104824883,2637
2393.971032220427,2627
2395.8174405297295,2542
2397.6634356952563,2660
2399.509018001947,2676
2401.3541877348193,2630
2403.1989451789705,2651
2405.043290619576,2570
2406.8872243418905,2600
2408.730746631247,2551
2410.5738577730594,2589
2412.4165580528183,2656
2414.258847756095,2719
2416.100727168537,2701
2417.9421965758734,2489
2419.783256263912,2548
2421.623906518538,2727
2423.4641476257157,2604
2425.303979871491,2614
2427.143403541984,2549
2428.9824189233977,2573
2430.821026302012,2660
2432.6592259641866,2576
2434.497018196361,2605
2436.33440328505,2576
2438.171381516851,2589
2440.00795317844,2567
2441.844118556569,2604
2443.6798779380724,2600
2445.5152316098606,2664
2447.3501798589255,2686
2449.1847229723357,2584
2451.0188612372403,2671
2452.8525949408663,2651
2454.6859243705203,2640
2456.518849813587,2629
2458.3513715575314,2647
2460.183489889895,2627
2462.015205098301,2656
2463.8465174704493,2679
2465.67742729412,2586
2467.5079348571717,2629
2469.338040447542,2673
2471.1677443532476,2634
2472.9970468623833,2667
2474.825948263123,2630
2476.6544488437207,2720
2478.482548892508,2669
2480.310248697896,2721
2482.137548548374,2745
2483.9644487325118,2628
2485.790949538956,2631
2487.617051256433,2730
2489.44275417375,2623
2491.26805857979,2687
2493.0929647635157,2665
2494.917473013971,2606
2496.741583620276,2707
2498.5652968716304,2578
2500.3886130573137,2681
2502.2115324666834,2680
2504.0340553891765,2725
2505.856182114308,2646
2507.6779129316733,2647
2509.499248130945,2779
2511.3201880018764,2715
2513.140732834298,2679
2514.9608829181198,2746
2516.780638543331,2719
2518.6,2767
2520.418967578273,2695
2522.237541568376,2741
2524.0557222606144,2747
2525.8735099453706,2766
2527.6909049131086,2662
2529.507907454368,2679
2531.32451785977,2747
2533.140736420014,2819
2534.9565634258774,2752
2536.771999168218,2816
2538.5870439379714,2763
2540.4016980261526,2756
2542.2159617238544,2747
2544.02983532225,2809
2545.8433191125914,2740
2547.656413386209,2740
2549.4691184345115,2785
2551.2814345489874,2852
2553.093362021204,2806
2554.904901142808,2820
2556.716052205523,2807
2558.526815501153,2788
2560.3371913215824,2910
2562.147179958771,2811
2563.956781704761,2733
2565.7659968516705,2814
2567.5748256916986,2812
2569.3832685171224,2858
2571.1913256202984,2929
2572.9989972936614,2845
2574.806283829725,2859
2576.613185521084,2814
2578.4197026604074,2845
2580.2258355404483,2875
2582.031584454035,2850
2583.836949694077,2846
2585.6419315535613,2978
2587.4465303255533,2879
2589.2507463032002,2760
2591.0545797797245,2870
2592.8580310484303,2846
2594.6611004026995,2928
2596.463788135992,2832
2598.266094541849,2855
2600.0680199138874,2895
2601.869564545807,2883
2603.670728731383,2920
2605.4715127644704,2800
2607.2719169390048,2902
2609.071941548998,2827
2610.8715868885433,2880
2612.670853251811,2954
2614.469740933052,2994
2616.268250226594,2898
2618.0663814268455,2805
2619.864134828292,2888
2621.6615107255006,2891
2623.458509413115,2825
2625.2551311858597,2829
2627.0513763385347,2857
2628.8472451660223,2961
2630.6427379632833,2948
2632.4378550253564,2807
2634.232596647359,2860
2636.026963124488,2868
2637.8209547520187,2923
2639.6145718253065,2863
2641.407814639785,2845
2643.200683490966,2710
2644.9931786744414,2796
2646.7853004858807,2746
2648.577049221034,2726
2650.3684251757277,2784
2652.1594286458712,2777
2653.9500599274484,2886
2655.740319316525,2891
2657.5302071092437,2760
2659.3197236018286,2871
2661.10886909058,2789
2662.8976438718782,2726
2664.686048242183,2848
2666.4740824980327,2748
2668.2617469360443,2788
2670.0490418529134,2825
2671.8359675454153,2859
2673.622524310403,2801
2675.408712444811,2742
2677.1945322456495,2770
2678.979984010009,2821
2680.76506803506,2724
2682.5497846180497,2752
2684.334134056306,2726
2686.1181166472343,2819
2687.9017326883213,2758
2689.6849824771293,2785
2691.4678663113013,2722
2693.2503844885596,2819
2695.032537306705,2744
2696.8143250636167,2760
2698.5957480572542,2620
2700.3768065856534,2728
2702.1575009469316,2764
2703.937831439283,2725
2705.717798360982,2720
2707.4974020103837,2763
2709.276642685917,2735
2711.055520686095,2752
2712.834036309506,2746
2714.612189854819,2801
2716.389981620782,2783
2718.1674119062204,2744
2719.944481010041,2727
2721.721189231226,2737
2723.4975368688415,2756
2725.273524222027,2646
2727.0491515900053,2708
2728.824419272075,2735
2730.5993275676146,2774
2732.3738767760838,2676
2734.148067197016,2667
2735.921899130031,2637
2737.6953728748194,2726
2739.468488731156,2753
2741.2412469988926,2742
2743.0136479779617,2644
2744.785691968372,2729
2746.5573792702116,2665
2748.3287101836504,2636
2750.099685008934,2708
2751.870304046388,2721
2753.640567596418,2723
2755.4104759595057,2739
2757.1800294362156,2681
2758.949228327187,2709
2760.7180729331412,2704
2762.486563554877,2767
2764.254700493272,2643
2766.022484049284,2688
2767.789914523947,2678
2769.5569922183786,2748
2771.3237174337705,2693
2773.090090471394,2740
2774.8561116326036,2688
2776.6217812188274,2629
2778.3870995315756,2668
2780.1520668724356,2768
2781.9166835430747,2783
2783.6809498452394,2671
2785.444866080754,2665
2787.2084325515225,2637
2788.971649559527,2677
2790.73451740683,2653
2792.4970363955713,2735
2794.2592068279705,2694
2796.0210290063264,2727
2797.7825032330147,2783
2799.543629810493,2741
2801.304409041296,2745
2803.0648412280366,2776
2804.8249266734088,2685
2806.5846656801846,2719
2808.344058551212,2698
2810.1031055894246,2734
2811.8618070978273,2684
2813.6201633795085,2772
2815.378174737636,2759
2817.1358414754536,2758
2818.893163896285,2724
2820.6501423035334,2699
2822.4067770006814,2730
2824.1630682912883,2695
2825.9190164789957,2751
2827.6746218675207,2739
2829.429884760661,2770
2831.184805462294,2710
2832.9393842763743,2802
2834.693621506936,2747
2836.4475174580916,2747
2838.201072434034,2734
2839.954286739034,2714
2841.707160677441,2805
2843.459694553685,2721
2845.2118886722724,2759
2846.96374333779,2816
2848.7152588549034,2713
2850.4664355283567,2789
2852.217273662973,2778
2853.9677735636546,2789
2855.7179355353833,2633
2857.4677598832186,2634
2859.217246912299,2721
2860.9663969278427,2717
2862.715210235146,2762
2864.4636871395846,2762
2866.211827946614,2705
2867.9596329617652,2778
2869.7071024906536,2789
2871.4542368389684,2791
2873.20103631248,2712
2874.947501217038,2747
2876.6936318585695,2718
2878.4394285430812,2819
2880.1848915766604,2743
2881.9300212654707,2732
2883.6748179157553,2758
2885.4192818338374,2695
2887.1634133261173,2663
2888.907212699077,2811
2890.6506802592744,2720
2892.393816313348,2736
2894.1366211680142,2702
2895.8790951300693,2673
2897.621238506388,2675
2899.363051603925,2717
2901.1045347297118,2729
2902.8456881908596,2651
2904.58651229456,2691
2906.327007348081,2703
2908.067173658772,2786
2909.8070115340597,2703
2911.5465212814497,2702
2913.285703208527,2725
2915.0245576229563,2640
2916.7630848324807,2692
2918.5012851449196,2671
2920.2391588681758,2718
2921.976706310227,2764
2923.7139277791334,2723
2925.4508235830313,2723
2927.187394030137,2750
2928.923639428745,2754
2930.6595600872306,2777
2932.395156314046,2789
2934.1304284177218,2779
2935.8653767068713,2773
2937.6000014901815,2728
2939.3343030764227,2793
2941.068281774442,2811
2942.8019378931644,2722
2944.5352717415976,2704
2946.2682836288236,2781
2948.0009738640065,2794
2949.7333427563885,2682
2951.465390615289,2748
2953.1971177501086,2737
2954.9285244703265,2668
2956.6596110855,2722
2958.3903779052657,2784
2960.1208252393385,2762
2961.8509533975125,2712
2963.5807626896617,2770
2965.3102534257378,2674
2967.0394259157715,2702
2968.768280469873,2696
2970.496817398232,2741
2972.2250370111146,2753
2973.952939618869,2703
2975.6805255319196,2851
2977.4077950607707,2745
2979.134748516006,2714
2980.861386208289,2825
2982.587708448359,2839
2984.313715547037,2784
2986.039407815222,2750
2987.764785563891,2843
2989.489849104102,2799
2991.2145987469908,2803
2992.9390348037705,2770
2994.6631575857346,2800
2996.3869674042576,2740
2998.1104645707887,2730
2999.83364939686,2746
3001.5565221940783,2670
3003.2790832741334,2760
3005.0013329487924,2680
3006.7232715298996,2774
3008.4448993293804,2769
3010.166216659239,2728
3011.887223831558,2784
3013.607921158498,2767
3015.3283089522993,2648
3017.0483875252826,2721
3018.7681571898443,2743
3020.4876182584626,2688
3022.2067710436927,2743
3023.9256158581707,2729
3025.644153014609,2732
3027.362382825801,2765
3029.0803056046193,2764
3030.797921664012,2765
3032.5152313170106,2759
3034.2322348767225,2689
3035.9489326563353,2731
3037.665324969115,2852
3039.3814121284063,2742
3041.097194447633,2746
3042.812672240299,2774
3044.5278458199855,2732
3046.2427155003525,2769
3047.9572815951406,2828
3049.671544418167,2821
3051.38550428333,2795
3053.0991615046073,2838
3054.812516396051,2744
3056.5255692717974,2734
3058.2383204460575,2782
3059.9507702331257,2746
3061.662918947372,2680
3063.3747669032446,2755
3065.0863144152736,2731
3066.7975617980674,2715
3068.508509366309,2791
3070.219157434767,2693
3071.9295063182844,2755
3073.639556331785,2699
3075.3493077902704,2722
3077.058761008821,2759
3078.7679163025964,2752
3080.476773986837,2856
3082.1853343768594,2823
3083.89359778806,2711
3085.6015645359153,2723
3087.3092349359786,2723
3089.016609303884,2776
3090.7236879553434,2812
3092.4304712061476,2735
3094.136959372166,2829
3095.843152769349,2755
3097.5490517137237,2799
3099.2546565213966,2771
3100.959967508554,2807
3102.66498499146,2743
3104.3697092864577,2719
3106.0741407099695,2810
3107.778279578498,2857
3109.482126208622,2748
3111.1856809170004,2800
3112.8889440203716,2903
3114.5919158355528,2815
3116.294596679439,2763
3117.996986869006,2786
3119.6990867213062,2817
3121.4008965534726,2837
3123.102416682717,2900
3124.803647426329,2815
3126.5045891016784,2818
3128.205242026213,2682
3129.90560651746,2845
3131.605682893025,2946
3133.3054714705922,2782
3135.0049725679282,2800
3136.7041865028714,2799
3138.4031135933465,2746
3140.101754157353,2929
3141.800108512971,2834
3143.498176978357,2895
3145.1959598717494,2812
3146.8934575114636,2752
3148.5906702158954,2794
3150.2875983035183,2712
3151.9842420928853,2752
3153.680601902627,2656
3155.376678051456,2803
3157.07247085816,2737
3158.767980641609,2854
3160.463207720748,2770
3162.158152414606,2766
3163.8528150422862,2773
3165.5471959229726,2767
3167.2412953759303,2814
3168.9351137204976,2865
3170.628651276098,2883
3172.3219083622307,2864
3174.014885298474,2838
3175.707582404485,2825
3177.4000000000005,2785
3179.092138404835,2787
3180.7839979388846,2837
3182.47557892212,2843
3184.166881674594,2801
3185.8579065164386,2856
3187.5486537678626,2836
3189.2391237491547,2846
3190.9293167806827,2761
3192.6192331828934,2810
3194.3088732763117,2837
3195.998237381542,2829
3197.687325819268,2840
3199.376138910251,2803
3201.064676975334,2824
3202.7529403354347,2780
3204.4409293115523,2796
3206.1286442247647,2920
3207.816085396229,2862
3209.5032531471825,2794
3211.190147798936,2754
3212.8767696728846,2820
3214.5631190905015,2794
3216.2491963733373,2761
3217.9350018430214,2773
3219.6205358212637,2742
3221.305798629851,2816
3222.990790590651,2793
3224.6755120256103,2711
3226.359963256751,2758
3228.0441446061795,2798
3229.7280563960758,2766
3231.411698948703,2815
3233.0950725863995,2762
3234.778177631587,2823
3236.461014406761,2765
3238.1435832345005,2838
3239.8258844374595,2765
3241.507918338374,2792
3243.1896852600576,2879
3244.8711855254023,2836
3246.552419457381,2823
3248.233387379042,2912
3249.914089613516,2811
3251.59452648401,2877
3253.274698313813,2826
3254.95460542629,2819
3256.6342481448855,2820
3258.313626793125,2728
3259.9927416946084,2702
3261.6715931730196,2757
3263.3501815521176,2757
3265.0285071557437,2828
3266.706570307815,2724
3268.3843713323286,2780
3270.0619105533615,2821
3271.739188295068,2828
3273.4162048816834,2780
3275.0929606375184,2821
3276.769455886966,2867
3278.445690954498,2784
3280.1216661646613,2919
3281.797381842087,2912
3283.4728383114807,2885
3285.1480358976296,2888
3286.8229749253996,2880
3288.4976557197333,2841
3290.172078605655,2792
3291.846243908266,2813
3293.5201519527463,2829
3295.193803064357,2732
3296.8671975684374,2762
3298.5403357904024,2762
3300.21321805575,2799
3301.8858446900567,2783
3303.558216018975,2853
3305.23033236824,2822
3306.9021940636603,2857
3308.57380143113,2904
3310.2451547966184,2942
3311.916254486174,2888
3313.5871008259246,2895
3315.2576941420766,2781
3316.9280347609147,2768
3318.5981230088046,2767
3320.2679592121895,2839
3321.9375436975924,2776
3323.606876791612,2831
3325.27595882093,2844
3326.944790112305,2748
3328.6133709925753,2788
3330.2817017886573,2828
3331.949782827547,2793
3333.617614436319,2826
3335.2851969421245,2854
3336.952530672199,2750
3338.619615953853,2903
3340.286453114475,2866
3341.9530424815357,2875
3343.619384382583,2860
3345.2854791452437,2788
3346.951327097224,2832
3348.6169285663073,2913
3350.2822838803577,2849
3351.947393367319,2869
3353.61225735521,2855
3355.2768761721345,2854
3356.9412501462693,2769
3358.605379605873,2922
3360.2692648792827,2921
3361.9329062949146,2784
3363.596304181263,2858
