CollectionTime,7/11/2024 12:03:18 PM
ExposureUsed,3
CalibratedSpectrum
-962.7078968117929,498
-959.9714848408522,543
-957.2358232597828,521
-954.5009119013725,508
-951.7667505983302,488
-949.0333391832855,539
-946.3006774887896,518
-943.5687653473143,535
-940.837602591253,547
-938.1071890529199,491
-935.3775245645503,505
-932.6486089583007,540
-929.9204420662485,575
-927.1930237203925,520
-924.4663537526524,539
-921.7404319948689,530
-919.0152582788041,528
-916.2908324361409,586
-913.5671542984834,537
-910.8442236973568,514
-908.1220404642074,503
-905.4006044304027,561
-902.679915427231,542
-899.959973285902,531
-897.2407778375464,513
-894.5223289132158,474
-891.8046263438832,509
-889.0876699604426,505
-886.3714595937089,510
-883.6559950744183,537
-880.9412762332282,514
-878.2273029007168,472
-875.5140749073835,504
-872.8015920836489,499
-870.0898542598545,505
-867.3788612662631,526
-864.6686129330585,520
-861.9591090903457,550
-859.2503495681506,496
-856.5423341964203,493
-853.8350628050229,486
-851.1285352237478,464
-848.4227512823054,492
-845.7177108103272,506
-843.0134136373656,501
-840.3098595928943,527
-837.6070485063082,526
-834.9049802069229,542
-832.2036545239757,553
-829.5030712866244,528
-826.8032303239481,579
-824.1041314649472,545
-821.4057745385428,554
-818.7081593735775,552
-816.0112857988148,553
-813.3151536429393,510
-810.6197627345566,493
-807.9251129021936,506
-805.2312039742981,534
-802.5380357792392,533
-799.8456081453069,561
-797.1539209007124,574
-794.462973873588,600
-791.772766891987,574
-789.083299783884,541
-786.3945723771743,536
-783.7065844996748,496
-781.0193359791231,511
-778.3328266431781,494
-775.6470563194197,494
-772.9620248353489,487
-770.2777320183878,518
-767.5941776958798,515
-764.9113616950891,529
-762.2292838432011,526
-759.5479439673222,541
-756.8673418944801,536
-754.1874774516235,552
-751.5083504656222,524
-748.8299607632671,576
-746.15230817127,531
-743.475392516264,563
-740.7992136248035,512
-738.1237713233636,517
-735.4490654383407,549
-732.7750957960521,582
-730.1018622227365,586
-727.4293645445534,545
-724.7576025875837,555
-722.0865761778291,537
-719.4162851412126,571
-716.7467293035781,575
-714.0779084906909,535
-711.409822528237,544
-708.7424712418238,543
-706.0758544569796,551
-703.4099719991541,560
-700.7448236937178,619
-698.0804093659622,608
-695.4167288411002,554
-692.7537819442656,589
-690.0915685005134,571
-687.4300883348199,557
-684.7693412720819,569
-682.1093271371178,567
-679.4500457546669,568
-676.7914969493897,584
-674.1336805458676,559
-671.4765963686034,585
-668.8202442420206,582
-666.1646239904642,574
-663.5097354382001,539
-660.8555784094151,555
-658.2021527282176,551
-655.5494582186366,590
-652.8974947046223,607
-650.2462620100463,638
-647.5957599587009,588
-644.9459883742998,591
-642.2969470804776,565
-639.6486359007902,592
-637.0010546587141,597
-634.3542031776476,632
-631.7080812809096,626
-629.0626887917401,617
-626.4180255333008,637
-623.7740913286734,614
-621.1308860008619,664
-618.4884093727904,649
-615.8466612673046,598
-613.2056415071715,618
-610.5653499150785,639
-607.9257863136347,638
-605.28695052537,624
-602.6488423727357,618
-600.0114616781036,650
-597.3748082637674,629
-594.7388819519412,673
-592.1036825647604,726
-589.4692099242818,783
-586.8354638524829,740
-584.2024441712624,647
-581.5701507024403,647
-578.9385832677575,633
-576.3077416888759,662
-573.6776257873787,728
-571.0482353847704,656
-568.4195703024757,618
-565.7916303618415,670
-563.164415384135,736
-560.5379251905453,688
-557.9121596021815,675
-555.2871184400748,637
-552.6628015251767,631
-550.0392086783606,651
-547.4163397204204,652
-544.794194472071,706
-542.1727727539491,695
-539.5520743866118,721
-536.9320991905377,804
-534.3128469861261,806
-531.6943175936979,783
-529.0765108334947,831
-526.4594265256793,895
-523.8430644903358,962
-521.2274245474689,1100
-518.612506517005,1175
-515.9983102187913,1209
-513.3848354725959,1257
-510.77208209810846,1388
-508.16004991493924,1602
-505.5487387426199,1912
-502.9381484006032,1946
-500.3282787082628,1829
-497.71912948489364,1767
-495.1107005497117,1538
-492.5029917218539,1312
-489.8960028203786,1082
-487.28973366426493,970
-484.68418407241325,883
-482.07935386364494,888
-479.47524285670266,832
-476.87185087025,859
-474.2691777228715,904
-471.66722323307334,899
-469.0659872192821,865
-466.4654694998459,876
-463.86566989303384,846
-461.26658821703614,902
-458.66822428996414,838
-456.07057792985,791
-453.4736489546475,814
-450.877437182231,750
-448.28194243039627,762
-445.68716451686,797
-443.09310325926003,803
-440.49975847515555,828
-437.9071299820263,797
-435.31521759727354,813
-432.72402113821954,886
-430.13354042210767,853
-427.5437752661022,851
-424.95472548728867,853
-422.36639090267386,856
-419.7787713291855,1007
-417.1918665836721,1112
-414.60567648290385,1047
-412.0202008435715,945
-409.4354394822874,923
-406.8513922155845,988
-404.26805885991723,948
-401.685439231661,939
-399.103533147112,893
-396.522340422488,873
-393.9418608739278,907
-391.3620943174908,911
-388.7830405691583,844
-386.2046994448317,787
-383.6270707603344,805
-381.05015433141045,843
-378.473949973725,766
-375.8984575028645,723
-373.32367673433623,654
-370.74960748356875,690
-368.1762495659117,769
-365.60360279663576,684
-363.03166699093265,603
-360.4604419639154,550
-357.8899275306178,539
-355.32012350599507,521
-352.7510297049233,547
-350.1826459421999,537
-347.61497203254316,526
-345.04800779059235,536
-342.4817530309082,567
-339.91620756797226,578
-337.35137121618743,558
-334.7872437898774,689
-332.22382510328725,747
-329.66111497058273,618
-327.09911320585127,587
-324.53781962310075,673
-321.9772340362607,618
-319.4173562591816,545
-316.8581861056348,511
-314.2997233893127,549
-311.7419679238294,559
-309.1849195227194,641
-306.62857799943856,795
-304.0729431673641,753
-301.51801483979375,690
-298.963792829947,709
-296.41027695096386,696
-293.85746701590574,780
-291.3053628377552,871
-288.7539642294155,751
-286.2032710037115,659
-283.65328297338897,700
-281.1039999511146,679
-278.5554217494762,788
-276.007548180983,732
-273.4603790580651,722
-270.9139141930734,771
-268.3681533982807,842
-265.8230964858798,925
-263.27874326798565,918
-260.7350935566336,850
-258.1921471637804,879
-255.6499039013039,812
-253.10836358100266,790
-250.56752601459698,713
-248.02739101372765,690
-245.48795838995704,767
-242.94922795476816,879
-240.41119951956557,950
-237.8738728956746,1006
-235.33724789434166,933
-232.80132432673452,866
-230.2661020039418,834
-227.73158073697357,842
-225.19776033676033,789
-222.66464061415422,866
-220.1322213799284,850
-217.60050244477725,817
-215.06948361931552,786
-212.53916471408013,908
-210.00954553952818,975
-207.48062590603843,994
-204.9524056239104,998
-202.4248845033651,1101
-199.8980623545441,1077
-197.37193898751036,1104
-194.84651421224817,1152
-192.32178783866232,1105
-189.79775967657952,980
-187.27442953574644,1185
-184.7517972258321,1370
-182.2298625564256,1222
-179.7086253370378,1119
-177.18808537710026,1018
-174.66824248596583,1053
-172.14909647290835,1066
-169.6306471471229,1178
-167.11289431772548,1198
-164.59583779375328,1310
-162.07947738416453,1254
-159.5638128978386,1093
-157.04884414357605,1249
-154.53457093009854,1407
-152.02099306604828,1339
-149.50811035998936,1385
-146.99592262040665,1346
-144.48442965570587,1342
-141.97363127421409,1300
-139.46352728417958,1507
-136.95411749377126,1379
-134.44540171107985,1401
-131.93737974411636,1298
-129.43005140081357,1341
-126.92341648902493,1675
-124.41747481652521,1915
-121.91222619101006,1887
-119.40767042009657,2081
-116.90380731132257,2464
-114.40063667214702,2952
-111.8981583099503,3234
-109.3963720320337,2965
-106.89527764561933,2856
-104.39487495785067,2799
-101.89516377579241,3117
-99.39614390642998,3944
-96.89781515667039,3481
-94.40017733334128,2987
-91.90323024319173,3991
-89.40697369289148,7676
-86.91140748903172,10139
-84.41653143812482,12263
-81.92234534660395,10487
-79.42884902082358,8561
-76.93604226705907,12064
-74.4439248915071,24189
-71.95249670028534,36433
-69.46175749943245,44167
-66.97170709490854,44169
-64.48234529259423,38138
-61.99367189829195,26135
-59.50568671772464,16179
-57.01838955653636,12180
-54.53178022029283,11388
-52.045858514480074,9770
-49.560624244506016,10453
-47.07607721569923,12335
-44.59221723330904,12007
-42.10904410250669,12518
-39.62655762838392,12454
-37.14475761595372,11517
-34.66364387015028,10777
-32.18321619582866,10676
-29.70347439776515,10197
-27.224418280657005,9560
-24.74604764912317,11648
-22.26836230770266,20724
-19.7913620608565,43679
-17.315046712966478,65038
-14.83941606833514,65038
-12.36446993118659,65038
-9.89020810566592,65038
-7.416630395839093,65038
-4.94373660569363,65038
-2.471526539137585,65038
-6.821210263296962E-13,65038
2.47084320796705,65038
4.941003281093458,65038
7.410480415786196,65038
9.879274808531363,65038
12.347386655893956,65038
14.814816154518212,65038
17.28156350112681,65038
19.74762889252179,65038
22.21301252558385,65038
24.67771459727237,22103
27.141735304626195,5862
29.605074844762612,3998
32.06773341487792,4825
34.52971121224755,4719
36.99100843422559,3932
39.45162527824516,3451
41.91156194181792,3313
44.370818622535126,2929
46.82939551806646,2534
49.287292826160524,2578
51.74451074464503,3186
54.201049471426245,4180
56.65690920448981,3285
59.112090141899785,2450
61.56659248179983,2133
64.02041642241159,1822
66.4735621620365,1609
68.92602989905402,1553
71.37781983192338,1858
73.82893215918205,1977
76.27936707944684,2296
78.72912479141326,2165
81.17820549385567,2155
83.62660938562783,2133
86.07433666566146,1708
88.5213875329681,1416
90.96776218663751,1313
93.41346082583925,1667
95.85848364982041,2196
98.30283085790859,2344
100.7465026495089,2256
103.18949922410604,2067
105.63182078126385,1861
108.07346752062438,1837
110.51443964190923,1623
112.95473734491827,1518
115.39436082953114,1385
117.83331029570547,1548
120.27158594347827,1972
122.7091879729652,2519
125.1461165843615,2313
127.58237197794062,1666
130.01795435405518,1506
132.4528639131364,1484
134.88710085569494,1338
137.32066538231982,1257
139.75355769367923,1276
142.1857779905207,1282
144.61732647366978,1309
147.04820334403132,1195
149.47840880258934,1082
151.90794305040674,1249
154.33680628862487,1675
156.76499871846443,1915
159.19252054122433,1815
161.61937195828352,1692
164.04555317109896,1777
166.47106438120693,1879
168.89590579022217,2039
171.320077599839,2126
173.7435800118302,2249
176.16641322804742,2253
178.58857745042144,2326
181.01007288096173,2431
183.43089972175687,2321
185.85105817497413,2312
188.27054844285988,2312
190.6893707277394,2262
193.10752523201643,2450
195.5250121581745,2522
197.9418317087751,2593
200.3579840864594,2411
202.7734694939469,2339
205.18828813403627,2487
207.6024402096051,2628
210.01592592360964,2619
212.42874547908548,2626
214.84089907914665,2492
217.2523869269868,2448
219.66320922587727,2482
222.0733661791695,2448
224.48285799029293,2477
226.8916848627572,2414
229.29984700014882,2504
231.7073446061355,2412
234.11417788446204,2357
236.520347038953,2417
238.92585227351185,2324
241.33069379212054,2535
243.73487179884035,2458
246.1383864978112,2463
248.541238093252,2401
250.9434267894609,2459
253.34495279081432,2409
255.74581630176783,2389
258.1460175268563,2314
260.54555667069314,2320
262.9444339379703,2349
265.3426495334594,2319
267.7402036620107,2479
270.1370965285529,2568
272.53332833809407,2523
274.9288992957214,2355
277.32380960660055,2369
279.718059475976,2454
282.1116491091717,2473
284.5045787115897,2285
286.89684848871195,2468
289.2884586460981,2456
291.67940938938807,2497
294.0697009242996,2470
296.4593334566299,2455
298.84830719225477,2443
301.23662233712923,2445
303.6242790972866,2346
306.01127767884,2369
308.39761828798066,2342
310.78330113097934,2337
313.16832641418534,2393
315.5526943440269,2175
317.9364051270112,2211
320.3194589697242,2225
322.70185607883093,2269
325.0835966610754,2205
327.4646809232805,2093
329.8451090723478,2097
332.2248813152577,2199
334.6039978590701,2111
336.9824589109231,2029
339.36026467803447,2092
341.7374153677,2097
344.113911187295,2214
346.48975234427337,2162
348.8649390461686,2072
351.2394715005918,2044
353.61334991523415,2025
355.9865744978655,2033
358.35914545633375,2043
360.73106299856715,2097
363.10232733257146,2071
365.47293866643247,2020
367.84289720831396,1949
370.2122031664593,2002
372.5808567491905,1988
374.9488581649083,1968
377.31620762209275,1819
379.6829053293021,1896
382.0489514951745,1957
384.4143463284262,1891
386.7790900378528,1950
389.14318283232853,1931
391.50662492080653,1919
393.86941651231916,2031
396.23155781597745,2019
398.5930490409713,2002
400.9538903965696,1857
403.3140820921202,1899
405.6736243370498,2042
408.03251734086336,1913
410.3907613131465,1851
412.74835646356166,1853
415.10530300185144,1849
417.4616011378372,1844
419.81725108141893,1862
422.1722530425758,1872
424.5266072313656,1824
426.880313857925,1851
429.2333731324701,1865
431.58578526529516,1843
433.9375504667738,1823
436.2886689473588,1814
438.63914091758113,1858
440.9889665880513,1779
443.33814616945835,1788
445.68667987257015,1801
448.03456790823395,1895
450.3818104873759,1858
452.72840782100013,1739
455.07436012019105,1762
457.41966759611057,1761
459.7643304600007,1763
462.10834892318155,1735
464.4517231970525,1768
466.79445349309174,1747
469.1365400228566,1802
471.4779829979826,1803
473.81878263018564,1808
476.15893913125876,1872
478.4984527130747,1905
480.8373235875855,1860
483.17555196682144,1960
485.5131380628919,2057
487.8500820879857,2111
490.1863842543697,2176
492.52204477439034,2324
494.8570638604725,2609
497.1914417251204,2895
499.52517858091653,3549
501.85827464052306,3990
504.19073011668036,4241
506.5225452222086,4258
508.85372017000566,4127
511.18425517304956,4149
513.514150444396,3951
515.8434061971808,4338
518.1720226446176,4917
520.4999999999999,4971
522.8273384766991,4613
525.1540382881666,4359
527.480099647932,3766
529.8055227696037,3178
532.1303078668694,2462
534.454455153496,2135
536.777964843328,2089
539.1008371502907,2032
541.4230722883866,1950
543.744670471698,1840
546.0656319143858,1847
548.3859568306899,1882
550.7056454349294,1863
553.0246979415016,1862
555.3431145648834,1873
557.6608955196306,1915
559.978041020377,1913
562.2945512818363,1891
564.6104265188006,1948
566.9256669461412,1787
569.2402727788082,1850
571.5542442318302,1855
573.8675815203156,1815
576.1802848594508,1794
578.4923544645015,1796
580.8037905508126,1879
583.114593333807,1787
585.4247630289875,1779
587.7342998519354,1815
590.0432040183106,1959
592.3514757438526,1911
594.6591152443794,1977
596.9661227357875,1828
599.2724984340531,1838
601.578242555231,1955
603.8833553154542,1858
606.1878369309362,1932
608.4916876179676,1870
610.7949075929192,1782
613.0974970722403,1816
615.3994562724587,1811
617.7007854101818,1830
620.0014847020951,1824
622.3015543649641,1829
624.6009946156324,1921
626.8998056710224,1819
629.1979877481361,1851
631.4955410640538,1790
633.7924658359349,1841
636.0887622810175,1871
638.3844306166192,1854
640.6794710601358,1910
642.9738838290426,1768
645.2676691408932,1896
647.5608272133207,1862
649.853358264037,1853
652.1452625108324,1826
654.4365401715764,1845
656.7271914642178,1824
659.0172166067838,1856
661.3066158173809,1810
663.5953893141935,1858
665.8835373154867,1819
668.1710600396028,1864
670.4579577049639,1835
672.7442305300709,1811
675.0298787335033,1766
677.3149025339197,1763
679.599302150058,1838
681.8830778007342,1812
684.1662297048437,1759
686.4487580813608,1808
688.7306631493387,1850
691.0119451279091,1906
693.2926042362834,1844
695.5726406937516,1867
697.8520547196814,1877
700.1308465335215,1858
702.4090163547982,1750
704.6865644031171,1808
706.9634908981619,1811
709.2397960596965,1803
711.5154801075631,1803
713.7905432616823,1856
716.0649857420548,1800
718.3388077687592,1845
720.612009561953,1750
722.8845913418733,1782
725.1565533288352,1802
727.427895743234,1788
729.6986188055427,1857
731.9687227363137,1893
734.238207756178,1846
736.5070740858458,1798
738.7753219461066,1861
741.0429515578281,1818
743.3099631419569,1894
745.5763569195191,1815
747.8421331116193,1803
750.1072919394409,1839
752.3718336242467,1831
754.6357583873777,1878
756.8990664502545,1846
759.1617580343765,1895
761.423833361321,1806
763.6852926527457,1864
765.9461361303862,1921
768.206364016058,1894
770.4659765316536,1965
772.7249738991469,1936
774.9833563405886,1948
777.2411240781092,1881
779.4982773339183,1879
781.7548163303044,1909
784.010741289634,1943
786.2660524343538,2041
788.5207499869881,1902
790.7748341701416,1891
793.0283052064964,1826
795.2811633188143,1906
797.5334087299362,1947
799.7850416627813,1916
802.0360623403484,1877
804.2864709857143,1851
806.5362678220353,1849
808.7854530725468,1884
811.0340269605625,1872
813.2819897094754,1926
815.5293415427581,1937
817.77608268396,1906
820.0222133567116,1849
822.2677337847211,1813
824.5126441917765,1804
826.7569448017433,1871
829.0006358385675,1846
831.2437175262731,1891
833.4861900889629,1862
835.7280537508192,1823
837.9693087361026,1907
840.2099552691533,1845
842.4499935743896,1844
844.689423876309,1845
846.9282463994886,1825
849.1664613685833,1921
851.4040690083276,1970
853.6410695435349,1810
855.877463199097,1906
858.1132501999847,1951
860.3484307712487,1941
862.5830051380175,1922
864.8169735254988,1848
867.0503361589791,1984
869.2830932638243,1920
871.5152450654786,1972
873.7467917894654,1947
875.9777336613873,1983
878.2080709069252,1917
880.4378037518389,1981
882.666932421968,1933
884.8954571432301,1866
887.1233781416219,1929
889.3506956432192,1892
891.5774098741766,1943
893.803521060728,1927
896.0290294291852,1924
898.2539352059397,1888
900.4782386174619,1954
902.7019398903011,1910
904.925039251085,2018
907.147536926521,1981
909.3694331433943,1924
911.59072812857,1890
913.8114221089921,1906
916.0315153116827,1954
918.2510079637437,1932
920.4699002923547,1933
922.6881925247761,1872
924.905884888345,1883
927.1229776104793,1972
929.3394709186747,1837
931.555365040506,1910
933.7706602036275,1860
935.9853566357709,1880
938.1994545647489,1908
940.4129542184515,1951
942.6258558248488,1940
944.8381596119883,1827
947.0498658079974,1880
949.2609746410825,1864
951.4714863395287,1787
953.6814011316998,1813
955.8907192460387,1808
958.0994409110671,1820
960.3075663553858,1768
962.5150958076741,1776
964.7220294966913,1785
966.928367651274,1822
969.1341105003388,1798
971.3392582728806,1827
973.5438111979742,1801
975.747769504772,1703
977.9511334225061,1787
980.153903180487,1819
982.3560790081052,1811
984.5576611348289,1738
986.7586497902058,1748
988.9590452038618,1733
991.158847605503,1767
993.3580572249133,1671
995.5566742919558,1671
997.7546990365728,1615
999.952131688785,1644
1002.1489724786926,1714
1004.3452216364743,1711
1006.5408793923874,1559
1008.7359459767691,1525
1010.9304216200343,1613
1013.1243065526781,1627
1015.3176010052733,1528
1017.510305208472,1513
1019.7024193930064,1531
1021.8939437896848,1542
1024.0848786293977,1562
1026.2752241431122,1522
1028.4649805618747,1492
1030.6541481168115,1508
1032.842727039127,1453
1035.0307175601051,1461
1037.2181199111074,1483
1039.4049343235752,1448
1041.591161029029,1452
1043.7768002590683,1483
1045.9618522453698,1464
1048.1463172196918,1462
1050.3301954138697,1527
1052.513487059818,1438
1054.69619238953,1496
1056.8783116350783,1471
1059.0598450286152,1499
1061.2407928023704,1515
1063.4211551886528,1454
1065.6009324198508,1515
1067.780124728432,1396
1069.9587323469414,1483
1072.1367555080046,1437
1074.314194444325,1480
1076.4910493886855,1450
1078.667320573947,1437
1080.843008233051,1373
1083.0181125990161,1413
1085.1926339049414,1407
1087.3665723840027,1431
1089.5399282694575,1392
1091.7127017946405,1391
1093.8848931929647,1398
1096.0565026979243,1419
1098.2275305430899,1407
1100.3979769621128,1380
1102.567842188722,1363
1104.737126456726,1404
1106.9058300000124,1417
1109.0739530525475,1412
1111.2414958483764,1419
1113.4084586216231,1397
1115.5748416064907,1391
1117.7406450372605,1375
1119.9058691482942,1420
1122.0705141740304,1343
1124.2345803489884,1394
1126.3980679077658,1393
1128.5609770850388,1396
1130.7233081155623,1406
1132.8850612341707,1328
1135.0462366757774,1303
1137.2068346753745,1375
1139.3668554680326,1309
1141.526299288901,1384
1143.68516637321,1344
1145.8434569562655,1369
1148.001171273455,1360
1150.158309560244,1287
1152.3148720521767,1352
1154.470858984876,1381
1156.626270594044,1353
1158.7811071154629,1366
1160.9353687849912,1371
1163.089055838569,1374
1165.242168512213,1325
1167.3947070420209,1323
1169.5466716641677,1305
1171.6980626149075,1273
1173.8488801305748,1344
1175.9991244475814,1287
1178.1487958024186,1410
1180.2978944316555,1372
1182.4464205719428,1312
1184.5943744600072,1288
1186.7417563326567,1341
1188.8885664267755,1319
1191.0348049793297,1330
1193.1804722273619,1331
1195.325568407995,1349
1197.4700937584303,1314
1199.614048515948,1318
1201.7574329179074,1322
1203.900247201746,1273
1206.042491604982,1326
1208.1841663652099,1323
1210.3252717201053,1327
1212.465807907422,1290
1214.6057751649923,1326
1216.7451737307279,1330
1218.8840038426192,1317
1221.0222657387353,1334
1223.1599596572241,1283
1225.2970858363137,1316
1227.4336445143094,1350
1229.5696359295966,1315
1231.705060320639,1378
1233.8399179259786,1370
1235.9742089842384,1345
1238.107933734118,1341
1240.2410924143974,1357
1242.373685263935,1393
1244.5057125216676,1297
1246.6371744266116,1280
1248.7680712178621,1309
1250.898403134593,1319
1253.028170416058,1289
1255.1573733015875,1322
1257.2860120305932,1308
1259.4140868425648,1331
1261.54159797707,1345
1263.6685456737569,1312
1265.7949301723515,1344
1267.9207517126597,1356
1270.046010534565,1383
1272.1707068780306,1332
1274.2948409830983,1286
1276.4184130898889,1304
1278.541423438603,1277
1280.6638722695184,1326
1282.785759822993,1371
1284.9070863394636,1270
1287.0278520594447,1342
1289.1480572235314,1346
1291.2677020723963,1341
1293.3867868467923,1342
1295.5053117875495,1341
1297.623277135579,1381
1299.740683131868,1368
1301.8575300174857,1341
1303.973818033578,1386
1306.0895474213703,1351
1308.2047184221678,1350
1310.3193312773528,1378
1312.4333862283888,1346
1314.5468835168163,1341
1316.659823384255,1359
1318.7722060724045,1355
1320.8840318230418,1327
1322.9953008780249,1326
1325.1060134792888,1338
1327.2161698688478,1309
1329.3257702887959,1364
1331.4348149813054,1359
1333.5433041886276,1312
1335.6512381530933,1354
1337.7586171171101,1328
1339.8654413231675,1347
1341.9717110138317,1346
1344.0774264317488,1379
1346.1825878196432,1368
1348.2871954203192,1341
1350.3912494766587,1359
1352.4947502316231,1356
1354.5976979282532,1459
1356.7000928096686,1302
1358.8019351190665,1354
1360.9032250997243,1306
1363.0039629949988,1352
1365.1041490483235,1376
1367.2037835032133,1365
1369.3028666032606,1355
1371.401398592137,1359
1373.4993797135926,1270
1375.5968102114575,1398
1377.6936903296396,1395
1379.7900203121262,1412
1381.8858004029835,1378
1383.9810308463561,1381
1386.075711886469,1359
1388.1698437676241,1418
1390.2634267342032,1349
1392.356461030667,1357
1394.4489469015557,1332
1396.5408845914872,1404
1398.6322743451592,1330
1400.7231164073469,1356
1402.813411022907,1331
1404.903158436773,1394
1406.9923588939578,1370
1409.0810126395531,1410
1411.1691199187303,1361
1413.2566809767386,1380
1415.343696058907,1407
1417.4301654106425,1442
1419.5160892774315,1358
1421.6014679048399,1365
1423.6863015385125,1394
1425.7705904241707,1422
1427.8543348076178,1315
1429.9375349347342,1395
1432.0201910514802,1346
1434.102303403894,1377
1436.1838722380944,1384
1438.2648978002767,1379
1440.3453803367174,1373
1442.4253200937692,1393
1444.5047173178677,1427
1446.5835722555234,1425
1448.6618851533285,1496
1450.739656257952,1386
1452.8168858161434,1367
1454.8935740747306,1368
1456.96972128062,1397
1459.045327680797,1405
1461.120393522327,1385
1463.1949190523528,1362
1465.2689045180973,1381
1467.3423501668608,1398
1469.415256246024,1388
1471.4876230030463,1404
1473.559450685465,1407
1475.6307395408976,1380
1477.7014898170391,1359
1479.771701761665,1460
1481.8413756226287,1401
1483.9105116478618,1405
1485.9791100853772,1419
1488.0471711832643,1389
1490.1146951896926,1379
1492.1816823529098,1409
1494.2481329212433,1437
1496.3140471430984,1409
1498.3794252669609,1454
1500.4442675413939,1362
1502.5085742150404,1421
1504.572345536622,1444
1506.6355817549388,1375
1508.6982831188702,1439
1510.7604498773744,1432
1512.8220822794883,1439
1514.8831805743293,1433
1516.9437450110909,1446
1519.003775839048,1441
1521.0632733075522,1420
1523.1222376660367,1410
1525.1806691640113,1505
1527.2385680510652,1381
1529.2959345768668,1419
1531.3527689911643,1435
1533.4090715437833,1422
1535.4648424846291,1386
1537.5200820636855,1456
1539.5747905310159,1413
1541.6289681367616,1445
1543.6826151311434,1396
1545.7357317644614,1433
1547.7883182870937,1482
1549.8403749494987,1443
1551.8919020022113,1430
1553.9428996958477,1478
1555.9933682811015,1465
1558.0433080087469,1487
1560.0927191296346,1474
1562.1416018946961,1556
1564.1899565549415,1534
1566.2377833614592,1499
1568.2850825654164,1457
1570.3318544180606,1463
1572.3780991707158,1512
1574.423817074788,1479
1576.4690083817595,1540
1578.5136733431923,1462
1580.5578122107272,1435
1582.601425236085,1460
1584.6445126710646,1437
1586.6870747675434,1401
1588.7291117774776,1437
1590.7706239529034,1456
1592.8116115459347,1373
1594.8520748087658,1422
1596.8920139936686,1430
1598.9314293529933,1446
1600.9703211391711,1430
1603.008689604711,1408
1605.0465350022005,1402
1607.0838575843068,1372
1609.1206576037753,1405
1611.1569353134305,1380
1613.1926909661765,1375
1615.2279248149953,1338
1617.2626371129481,1397
1619.2968281131757,1393
1621.3304980688963,1369
1623.3636472334088,1413
1625.39627586009,1409
1627.428384202396,1336
1629.459972513861,1426
1631.4910410480993,1451
1633.5215900588028,1386
1635.551619799744,1330
1637.5811305247717,1359
1639.6101224878166,1391
1641.6385959428862,1404
1643.6665511440683,1344
1645.693988345528,1351
1647.7209078015112,1346
1649.7473097663405,1357
1651.7731944944203,1378
1653.7985622402307,1324
1655.823413258333,1323
1657.847747803366,1307
1659.8715661300494,1356
1661.8948684931793,1346
1663.9176551476316,1367
1665.9399263483624,1360
1667.9616823504057,1403
1669.982923408873,1399
1672.0036497789574,1369
1674.0238617159293,1344
1676.043559475138,1388
1678.0627433120121,1361
1680.081413482059,1338
1682.0995702408654,1346
1684.117213844096,1349
1686.134344547495,1398
1688.1509626068864,1351
1690.1670682781705,1353
1692.182661817329,1347
1694.1977434804217,1468
1696.2123135235875,1356
1698.226372203043,1412
1700.2399197750851,1351
1702.2529564960905,1393
1704.2654826225112,1392
1706.277498410882,1411
1708.2890041178139,1345
1710.2999999999988,1392
1712.3104863142066,1336
1714.3204633172854,1360
1716.329931266163,1370
1718.3388904178469,1370
1720.3473410294214,1332
1722.3552833580516,1381
1724.3627176609807,1413
1726.3696441955308,1337
1728.3760632191033,1430
1730.3819749891782,1363
1732.3873797633146,1345
1734.3922777991502,1411
1736.3966693544012,1362
1738.4005546868639,1347
1740.4039340544127,1340
1742.406807715001,1356
1744.4091759266616,1335
1746.4110389475054,1411
1748.4123970357223,1325
1750.413250449582,1385
1752.4135994474318,1353
1754.4134442876993,1330
1756.4127852288902,1338
1758.4116225295893,1350
1760.4099564484595,1425
1762.407787244244,1345
1764.405115175764,1365
1766.4019405019203,1369
1768.3982634816916,1389
1770.3940843741357,1356
1772.3894034383907,1449
1774.3842209336717,1342
1776.378537119274,1318
1778.372352254571,1377
1780.3656665990156,1401
1782.3584804121397,1363
1784.3507939535534,1335
1786.3426074829463,1348
1788.3339212600863,1398
1790.3247355448211,1368
1792.3150505970766,1393
1794.3048666768573,1405
1796.2941840442477,1360
1798.2830029594106,1362
1800.2713236825884,1373
1802.2591464741004,1410
1804.2464715943465,1382
1806.2332993038058,1398
1808.2196298630352,1365
1810.2054635326708,1373
1812.190800573428,1325
1814.175641246101,1388
1816.1599858115628,1450
1818.1438345307652,1415
1820.127187664738,1400
1822.1100454745924,1370
1824.092408221516,1397
1826.0742761667766,1389
1828.055649571721,1333
1830.0365286977735,1401
1832.0169138064398,1402
1833.9968051593014,1356
1835.9762030180214,1336
1837.9551076443408,1446
1839.9335193000788,1359
1841.9114382471344,1343
1843.888864747485,1399
1845.8657990631878,1349
1847.842241456378,1378
1849.8181921892697,1440
1851.7936515241558,1369
1853.7686197234098,1389
1855.7430970494815,1335
1857.7170837649014,1353
1859.6905801322787,1327
1861.6635864143004,1375
1863.6361028737338,1337
1865.608129773424,1391
1867.5796673762961,1326
1869.5507159453537,1373
1871.521275743678,1409
1873.4913470344313,1359
1875.4609300808534,1394
1877.4300251462632,1402
1879.3986324940588,1380
1881.366752387717,1413
1883.3343850907936,1417
1885.3015308669228,1369
1887.268189979819,1342
1889.2343626932739,1384
1891.2000492711595,1377
1893.1652499774254,1373
1895.1299650761011,1440
1897.0941948312952,1355
1899.0579395071945,1350
1901.0211993680641,1357
1902.98397467825,1448
1904.9462657021745,1371
1906.9080727043415,1352
1908.869395949332,1393
1910.8302357018065,1334
1912.790592226504,1338
1914.7504657882428,1336
1916.7098566519212,1422
1918.6687650825133,1324
1920.6271913450764,1396
1922.5851357047422,1346
1924.5425984267245,1367
1926.499579776314,1390
1928.4560800188833,1387
1930.4120994198802,1376
1932.367638244833,1394
1934.32269675935,1422
1936.2772752291175,1368
1938.231373919899,1409
1940.1849930975404,1374
1942.1381330279637,1267
1944.0907939771696,1337
1946.0429762112412,1382
1947.9946799963363,1403
1949.9459055986945,1391
1951.896653284633,1411
1953.8469233205478,1402
1955.7967159729142,1405
1957.7460315082863,1376
1959.6948701932974,1334
1961.6432322946594,1377
1963.5911180791632,1346
1965.5385278136787,1364
1967.4854617651545,1352
1969.4319202006182,1376
1971.377903387176,1323
1973.3234115920136,1417
1975.268445082395,1397
1977.2130041256642,1418
1979.1570889892423,1400
1981.1006999406304,1362
1983.04383724741,1385
1984.986501177238,1340
1986.928691997853,1370
1988.8704099770712,1415
1990.811655382789,1367
1992.7524284829801,1402
1994.692729545698,1394
1996.6325588390755,1346
1998.5719166313224,1387
2000.5108031907307,1379
2002.4492187856677,1371
2004.387163684583,1449
2006.3246381560011,1384
2008.2616424685298,1303
2010.1981768908527,1373
2012.1342416917332,1326
2014.069837140014,1323
2016.0049635046162,1327
2017.9396210545406,1387
2019.8738100588666,1338
2021.8075307867502,1383
2023.740783507431,1395
2025.6735684902228,1371
2027.6058860045214,1377
2029.5377363198004,1402
2031.4691197056118,1337
2033.4000364315875,1356
2035.3304867674374,1333
2037.260470982952,1344
2039.189989347998,1354
2041.1190421325232,1381
2043.047629606554,1376
2044.9757520401945,1355
2046.9034097036288,1315
2048.8306028671195,1386
2050.7573318010086,1349
2052.683596775716,1353
2054.609398061742,1325
2056.5347359296647,1356
2058.4596106501403,1340
2060.384022493906,1362
2062.3079717317764,1305
2064.231458634646,1378
2066.1544834734873,1367
2068.077046519352,1344
2069.99914804337,1305
2071.9207883167524,1341
2073.8419676107865,1325
2075.7626861968406,1364
2077.6829443463607,1414
2079.6027423308715,1332
2081.522080421977,1321
2083.440958891362,1347
2085.359378010786,1335
2087.2773380520907,1373
2089.194839287196,1359
2091.111881988101,1343
2093.0284664268825,1354
2094.9445928756973,1326
2096.86026160678,1360
2098.775472892446,1373
2100.690227005088,1337
2102.604524217178,1391
2104.5183648012676,1363
2106.431749029985,1412
2108.34467717604,1349
2110.2571495122206,1348
2112.169166311393,1371
2114.080727846503,1342
2115.9918343905747,1424
2117.902486216711,1337
2119.8126835980956,1379
2121.722426807987,1375
2123.6317161197285,1373
2125.5405518067364,1363
2127.448934142509,1382
2129.356863400624,1340
2131.264339854737,1362
2133.1713637785815,1423
2135.077935445972,1414
2136.9840551308002,1411
2138.889723107037,1419
2140.7949396487334,1348
2142.699705030018,1369
2144.6040195250994,1360
2146.507883408264,1337
2148.4112969538774,1407
2150.3142604363848,1391
2152.2167741303097,1373
2154.1188383102535,1377
2156.0204532508997,1425
2157.9216192270064,1413
2159.822336513414,1383
2161.7226053850413,1333
2163.622426116884,1358
2165.5217989840185,1434
2167.4207242616,1356
2169.319202224862,1480
2171.2172331491165,1443
2173.1148173097563,1442
2175.0119549822507,1443
2176.90864644215,1455
2178.8048919650823,1440
2180.7006918267534,1400
2182.596046302952,1450
2184.4909556695407,1473
2186.3854202024645,1402
2188.279440177746,1466
2190.173015871487,1441
2192.066147559868,1454
2193.958835519149,1536
2195.851080025667,1475
2197.7428813558417,1474
2199.6342397861667,1431
2201.5251555932186,1520
2203.415629053651,1448
2205.3056604441986,1447
2207.19525004167,1463
2209.084398122958,1466
2210.9731049650327,1516
2212.861370844941,1490
2214.749196039812,1450
2216.636580826851,1456
2218.523525483344,1506
2220.410030286655,1468
2222.296095514226,1484
2224.1817214435805,1477
2226.066908352319,1497
2227.951656518121,1480
2229.835966218746,1498
2231.71983773203,1501
2233.6032713358913,1494
2235.486267308324,1447
2237.3688259274036,1550
2239.2509474712824,1550
2241.132632218193,1540
2243.013880446447,1535
2244.8946924344323,1501
2246.7750684606203,1517
2248.6550088035574,1550
2250.534513741871,1545
2252.413583554265,1547
2254.292218519526,1553
2256.170418916517,1497
2258.0481850241786,1542
2259.925517121534,1550
2261.8024154876825,1508
2263.678880401803,1536
2265.5549121431536,1445
2267.430510991071,1561
2269.305677224971,1438
2271.180411124348,1482
2273.0547129687766,1395
2274.9285830379076,1432
2276.8020216114737,1517
2278.6750289692845,1478
2280.5476053912294,1548
2282.4197511572766,1533
2284.2914665474727,1594
2286.162751841943,1594
2288.0336073208937,1622
2289.904033264608,1513
2291.774029953448,1553
2293.6435976678554,1494
2295.5127366883517,1537
2297.381447295534,1463
2299.2497297700825,1402
2301.1175843927526,1344
2302.9850114443825,1315
2304.852011205885,1319
2306.7185839582553,1235
2308.5847299825664,1276
2310.4504495599676,1241
2312.3157429716925,1244
2314.1806104990483,1239
2316.0450524234247,1220
2317.9090690262888,1266
2319.772660589186,1209
2321.635827393742,1195
2323.498569721661,1200
2325.3608878547248,1235
2327.2227820747967,1185
2329.0842526638157,1225
2330.945299903803,1240
2332.805924076857,1213
2334.6661254651535,1233
2336.525904350951,1166
2338.3852610165827,1202
2340.244195744464,1214
2342.102708817088,1207
2343.9608005170253,1228
2345.8184711269287,1178
2347.675720929526,1211
2349.532550207628,1213
2351.38895924412,1166
2353.24494832197,1209
2355.100517724223,1172
2356.955667734004,1197
2358.810398634514,1275
2360.664710709037,1301
2362.5186042409337,1178
2364.3720795136437,1219
2366.225136810686,1213
2368.0777764156583,1218
2369.929998612237,1196
2371.7818036841777,1258
2373.633191915315,1180
2375.484163589562,1182
2377.3347189909114,1158
2379.184858403434,1193
2381.03458211128,1248
2382.8838903986775,1180
2384.732783549936,1264
2386.5812618494406,1217
2388.4293255816588,1218
2390.2769750311327,1208
2392.1242104824883,1255
2393.971032220427,1186
2395.8174405297295,1252
2397.6634356952563,1267
2399.509018001947,1215
2401.3541877348193,1218
2403.1989451789705,1223
2405.043290619576,1278
2406.8872243418905,1215
2408.730746631247,1270
2410.5738577730594,1203
2412.4165580528183,1220
2414.258847756095,1172
2416.100727168537,1177
2417.9421965758734,1176
2419.783256263912,1186
2421.623906518538,1246
2423.4641476257157,1236
2425.303979871491,1246
2427.143403541984,1184
2428.9824189233977,1237
2430.821026302012,1179
2432.6592259641866,1143
2434.497018196361,1245
2436.33440328505,1191
2438.171381516851,1221
2440.00795317844,1269
2441.844118556569,1287
2443.6798779380724,1205
2445.5152316098606,1182
2447.3501798589255,1231
2449.1847229723357,1176
2451.0188612372403,1224
2452.8525949408663,1234
2454.6859243705203,1208
2456.518849813587,1254
2458.3513715575314,1262
2460.183489889895,1193
2462.015205098301,1204
2463.8465174704493,1204
2465.67742729412,1162
2467.5079348571717,1220
2469.338040447542,1156
2471.1677443532476,1191
2472.9970468623833,1184
2474.825948263123,1223
2476.6544488437207,1223
2478.482548892508,1226
2480.310248697896,1236
2482.137548548374,1228
2483.9644487325118,1234
2485.790949538956,1219
2487.617051256433,1204
2489.44275417375,1234
2491.26805857979,1243
2493.0929647635157,1214
2494.917473013971,1215
2496.741583620276,1182
2498.5652968716304,1187
2500.3886130573137,1269
2502.2115324666834,1203
2504.0340553891765,1279
2505.856182114308,1197
2507.6779129316733,1228
2509.499248130945,1191
2511.3201880018764,1196
2513.140732834298,1263
2514.9608829181198,1269
2516.780638543331,1179
2518.6,1192
2520.418967578273,1199
2522.237541568376,1249
2524.0557222606144,1221
2525.8735099453706,1193
2527.6909049131086,1201
2529.507907454368,1229
2531.32451785977,1224
2533.140736420014,1187
2534.9565634258774,1206
2536.771999168218,1222
2538.5870439379714,1215
2540.4016980261526,1260
2542.2159617238544,1250
2544.02983532225,1165
2545.8433191125914,1254
2547.656413386209,1220
2549.4691184345115,1183
2551.2814345489874,1250
2553.093362021204,1210
2554.904901142808,1200
2556.716052205523,1235
2558.526815501153,1218
2560.3371913215824,1238
2562.147179958771,1282
2563.956781704761,1261
2565.7659968516705,1242
2567.5748256916986,1288
2569.3832685171224,1218
2571.1913256202984,1238
2572.9989972936614,1278
2574.806283829725,1268
2576.613185521084,1193
2578.4197026604074,1250
2580.2258355404483,1241
2582.031584454035,1251
2583.836949694077,1261
2585.6419315535613,1200
2587.4465303255533,1284
2589.2507463032002,1272
2591.0545797797245,1270
2592.8580310484303,1273
2594.6611004026995,1252
2596.463788135992,1292
2598.266094541849,1282
2600.0680199138874,1226
2601.869564545807,1280
2603.670728731383,1217
2605.4715127644704,1199
2607.2719169390048,1224
2609.071941548998,1223
2610.8715868885433,1239
2612.670853251811,1239
2614.469740933052,1201
2616.268250226594,1224
2618.0663814268455,1222
2619.864134828292,1248
2621.6615107255006,1226
2623.458509413115,1252
2625.2551311858597,1207
2627.0513763385347,1315
2628.8472451660223,1261
2630.6427379632833,1232
2632.4378550253564,1239
2634.232596647359,1271
2636.026963124488,1249
2637.8209547520187,1207
2639.6145718253065,1203
2641.407814639785,1229
2643.200683490966,1243
2644.9931786744414,1293
2646.7853004858807,1232
2648.577049221034,1198
2650.3684251757277,1273
2652.1594286458712,1231
2653.9500599274484,1251
2655.740319316525,1189
2657.5302071092437,1201
2659.3197236018286,1251
2661.10886909058,1208
2662.8976438718782,1214
2664.686048242183,1244
2666.4740824980327,1257
2668.2617469360443,1263
2670.0490418529134,1210
2671.8359675454153,1183
2673.622524310403,1221
2675.408712444811,1226
2677.1945322456495,1251
2678.979984010009,1189
2680.76506803506,1192
2682.5497846180497,1222
2684.334134056306,1205
2686.1181166472343,1267
2687.9017326883213,1242
2689.6849824771293,1251
2691.4678663113013,1210
2693.2503844885596,1203
2695.032537306705,1177
2696.8143250636167,1206
2698.5957480572542,1206
2700.3768065856534,1231
2702.1575009469316,1200
2703.937831439283,1177
2705.717798360982,1201
2707.4974020103837,1249
2709.276642685917,1206
2711.055520686095,1250
2712.834036309506,1267
2714.612189854819,1208
2716.389981620782,1183
2718.1674119062204,1216
2719.944481010041,1213
2721.721189231226,1217
2723.4975368688415,1224
2725.273524222027,1270
2727.0491515900053,1243
2728.824419272075,1235
2730.5993275676146,1218
2732.3738767760838,1203
2734.148067197016,1191
2735.921899130031,1177
2737.6953728748194,1237
2739.468488731156,1206
2741.2412469988926,1207
2743.0136479779617,1180
2744.785691968372,1226
2746.5573792702116,1207
2748.3287101836504,1220
2750.099685008934,1205
2751.870304046388,1186
2753.640567596418,1222
2755.4104759595057,1225
2757.1800294362156,1196
2758.949228327187,1137
2760.7180729331412,1255
2762.486563554877,1226
2764.254700493272,1184
2766.022484049284,1230
2767.789914523947,1236
2769.5569922183786,1184
2771.3237174337705,1157
2773.090090471394,1182
2774.8561116326036,1184
2776.6217812188274,1193
2778.3870995315756,1232
2780.1520668724356,1227
2781.9166835430747,1184
2783.6809498452394,1215
2785.444866080754,1235
2787.2084325515225,1216
2788.971649559527,1178
2790.73451740683,1228
2792.4970363955713,1265
2794.2592068279705,1206
2796.0210290063264,1195
2797.7825032330147,1189
2799.543629810493,1252
2801.304409041296,1193
2803.0648412280366,1221
2804.8249266734088,1175
2806.5846656801846,1224
2808.344058551212,1233
2810.1031055894246,1190
2811.8618070978273,1197
2813.6201633795085,1210
2815.378174737636,1208
2817.1358414754536,1213
2818.893163896285,1267
2820.6501423035334,1194
2822.4067770006814,1233
2824.1630682912883,1207
2825.9190164789957,1225
2827.6746218675207,1267
2829.429884760661,1243
2831.184805462294,1301
2832.9393842763743,1234
2834.693621506936,1258
2836.4475174580916,1210
2838.201072434034,1233
2839.954286739034,1219
2841.707160677441,1272
2843.459694553685,1220
2845.2118886722724,1229
2846.96374333779,1245
2848.7152588549034,1270
2850.4664355283567,1271
2852.217273662973,1288
2853.9677735636546,1223
2855.7179355353833,1205
2857.4677598832186,1282
2859.217246912299,1244
2860.9663969278427,1215
2862.715210235146,1237
2864.4636871395846,1246
2866.211827946614,1239
2867.9596329617652,1259
2869.7071024906536,1269
2871.4542368389684,1175
2873.20103631248,1271
2874.947501217038,1197
2876.6936318585695,1192
2878.4394285430812,1244
2880.1848915766604,1287
2881.9300212654707,1183
2883.6748179157553,1304
2885.4192818338374,1183
2887.1634133261173,1226
2888.907212699077,1248
2890.6506802592744,1234
2892.393816313348,1312
2894.1366211680142,1201
2895.8790951300693,1205
2897.621238506388,1228
2899.363051603925,1232
2901.1045347297118,1257
2902.8456881908596,1286
2904.58651229456,1202
2906.327007348081,1224
2908.067173658772,1199
2909.8070115340597,1197
2911.5465212814497,1239
2913.285703208527,1270
2915.0245576229563,1235
2916.7630848324807,1220
2918.5012851449196,1224
2920.2391588681758,1212
2921.976706310227,1207
2923.7139277791334,1223
2925.4508235830313,1261
2927.187394030137,1204
2928.923639428745,1207
2930.6595600872306,1237
2932.395156314046,1281
2934.1304284177218,1183
2935.8653767068713,1227
2937.6000014901815,1221
2939.3343030764227,1166
2941.068281774442,1191
2942.8019378931644,1240
2944.5352717415976,1239
2946.2682836288236,1253
2948.0009738640065,1282
2949.7333427563885,1275
2951.465390615289,1236
2953.1971177501086,1246
2954.9285244703265,1232
2956.6596110855,1233
2958.3903779052657,1229
2960.1208252393385,1256
2961.8509533975125,1218
2963.5807626896617,1191
2965.3102534257378,1245
2967.0394259157715,1208
2968.768280469873,1217
2970.496817398232,1215
2972.2250370111146,1233
2973.952939618869,1276
2975.6805255319196,1250
2977.4077950607707,1309
2979.134748516006,1247
2980.861386208289,1243
2982.587708448359,1283
2984.313715547037,1225
2986.039407815222,1219
2987.764785563891,1221
2989.489849104102,1217
2991.2145987469908,1216
2992.9390348037705,1218
2994.6631575857346,1241
2996.3869674042576,1160
2998.1104645707887,1224
2999.83364939686,1208
3001.5565221940783,1207
3003.2790832741334,1200
3005.0013329487924,1205
3006.7232715298996,1231
3008.4448993293804,1214
3010.166216659239,1208
3011.887223831558,1219
3013.607921158498,1215
3015.3283089522993,1195
3017.0483875252826,1215
3018.7681571898443,1185
3020.4876182584626,1216
3022.2067710436927,1192
3023.9256158581707,1223
3025.644153014609,1261
3027.362382825801,1274
3029.0803056046193,1234
3030.797921664012,1138
3032.5152313170106,1191
3034.2322348767225,1214
3035.9489326563353,1146
3037.665324969115,1225
3039.3814121284063,1219
3041.097194447633,1184
3042.812672240299,1212
3044.5278458199855,1263
3046.2427155003525,1222
3047.9572815951406,1219
3049.671544418167,1203
3051.38550428333,1237
3053.0991615046073,1208
3054.812516396051,1242
3056.5255692717974,1212
3058.2383204460575,1171
3059.9507702331257,1249
3061.662918947372,1208
3063.3747669032446,1250
3065.0863144152736,1282
3066.7975617980674,1192
3068.508509366309,1252
3070.219157434767,1186
3071.9295063182844,1210
3073.639556331785,1206
3075.3493077902704,1194
3077.058761008821,1214
3078.7679163025964,1228
3080.476773986837,1208
3082.1853343768594,1207
3083.89359778806,1201
3085.6015645359153,1250
3087.3092349359786,1261
3089.016609303884,1210
3090.7236879553434,1178
3092.4304712061476,1172
3094.136959372166,1213
3095.843152769349,1224
3097.5490517137237,1224
3099.2546565213966,1216
3100.959967508554,1225
3102.66498499146,1217
3104.3697092864577,1223
3106.0741407099695,1234
3107.778279578498,1247
3109.482126208622,1207
3111.1856809170004,1243
3112.8889440203716,1176
3114.5919158355528,1204
3116.294596679439,1212
3117.996986869006,1222
3119.6990867213062,1234
3121.4008965534726,1206
3123.102416682717,1311
3124.803647426329,1280
3126.5045891016784,1229
3128.205242026213,1281
3129.90560651746,1265
3131.605682893025,1191
3133.3054714705922,1245
3135.0049725679282,1223
3136.7041865028714,1255
3138.4031135933465,1219
3140.101754157353,1197
3141.800108512971,1211
3143.498176978357,1243
3145.1959598717494,1294
3146.8934575114636,1220
3148.5906702158954,1189
3150.2875983035183,1166
3151.9842420928853,1153
3153.680601902627,1238
3155.376678051456,1165
3157.07247085816,1168
3158.767980641609,1245
3160.463207720748,1234
3162.158152414606,1250
3163.8528150422862,1270
3165.5471959229726,1212
3167.2412953759303,1182
3168.9351137204976,1179
3170.628651276098,1201
3172.3219083622307,1233
3174.014885298474,1203
3175.707582404485,1186
3177.4000000000005,1242
3179.092138404835,1226
3180.7839979388846,1206
3182.47557892212,1211
3184.166881674594,1220
3185.8579065164386,1250
3187.5486537678626,1234
3189.2391237491547,1302
3190.9293167806827,1229
3192.6192331828934,1165
3194.3088732763117,1218
3195.998237381542,1184
3197.687325819268,1131
3199.376138910251,1206
3201.064676975334,1190
3202.7529403354347,1204
3204.4409293115523,1162
3206.1286442247647,1236
3207.816085396229,1251
3209.5032531471825,1199
3211.190147798936,1194
3212.8767696728846,1226
3214.5631190905015,1150
3216.2491963733373,1125
3217.9350018430214,1196
3219.6205358212637,1176
3221.305798629851,1196
3222.990790590651,1218
3224.6755120256103,1212
3226.359963256751,1192
3228.0441446061795,1171
3229.7280563960758,1202
3231.411698948703,1250
3233.0950725863995,1217
3234.778177631587,1215
3236.461014406761,1203
3238.1435832345005,1242
3239.8258844374595,1285
3241.507918338374,1234
3243.1896852600576,1202
3244.8711855254023,1211
3246.552419457381,1199
3248.233387379042,1184
3249.914089613516,1268
3251.59452648401,1231
3253.274698313813,1194
3254.95460542629,1205
3256.6342481448855,1180
3258.313626793125,1164
3259.9927416946084,1167
3261.6715931730196,1166
3263.3501815521176,1220
3265.0285071557437,1180
3266.706570307815,1206
3268.3843713323286,1199
3270.0619105533615,1185
3271.739188295068,1219
3273.4162048816834,1174
3275.0929606375184,1171
3276.769455886966,1206
3278.445690954498,1171
3280.1216661646613,1278
3281.797381842087,1202
3283.4728383114807,1180
3285.1480358976296,1207
3286.8229749253996,1201
3288.4976557197333,1232
3290.172078605655,1216
3291.846243908266,1245
3293.5201519527463,1194
3295.193803064357,1203
3296.8671975684374,1228
3298.5403357904024,1188
3300.21321805575,1186
3301.8858446900567,1195
3303.558216018975,1187
3305.23033236824,1205
3306.9021940636603,1178
3308.57380143113,1179
3310.2451547966184,1268
3311.916254486174,1248
3313.5871008259246,1235
3315.2576941420766,1236
3316.9280347609147,1216
3318.5981230088046,1195
3320.2679592121895,1193
3321.9375436975924,1194
3323.606876791612,1191
3325.27595882093,1174
3326.944790112305,1157
3328.6133709925753,1184
3330.2817017886573,1201
3331.949782827547,1133
3333.617614436319,1181
3335.2851969421245,1197
3336.952530672199,1229
3338.619615953853,1233
3340.286453114475,1222
3341.9530424815357,1205
3343.619384382583,1273
3345.2854791452437,1198
3346.951327097224,1258
3348.6169285663073,1188
3350.2822838803577,1200
3351.947393367319,1160
3353.61225735521,1182
3355.2768761721345,1202
3356.9412501462693,1203
3358.605379605873,1218
3360.2692648792827,1200
3361.9329062949146,1193
3363.596304181263,1173
