CollectionTime,9/26/2024 8:13:52 AM
ExposureUsed,3
CalibratedSpectrum
-962.7078968117929,559
-959.9714848408522,583
-957.2358232597828,602
-954.5009119013725,634
-951.7667505983302,617
-949.0333391832855,531
-946.3006774887896,621
-943.5687653473143,642
-940.837602591253,603
-938.1071890529199,578
-935.3775245645503,627
-932.6486089583007,641
-929.9204420662485,636
-927.1930237203925,692
-924.4663537526524,644
-921.7404319948689,602
-919.0152582788041,645
-916.2908324361409,758
-913.5671542984834,673
-910.8442236973568,632
-908.1220404642074,598
-905.4006044304027,567
-902.679915427231,628
-899.959973285902,596
-897.2407778375464,678
-894.5223289132158,641
-891.8046263438832,632
-889.0876699604426,590
-886.3714595937089,608
-883.6559950744183,645
-880.9412762332282,623
-878.2273029007168,594
-875.5140749073835,611
-872.8015920836489,589
-870.0898542598545,629
-867.3788612662631,597
-864.6686129330585,578
-861.9591090903457,563
-859.2503495681506,515
-856.5423341964203,537
-853.8350628050229,596
-851.1285352237478,624
-848.4227512823054,654
-845.7177108103272,635
-843.0134136373656,649
-840.3098595928943,635
-837.6070485063082,645
-834.9049802069229,643
-832.2036545239757,652
-829.5030712866244,702
-826.8032303239481,636
-824.1041314649472,583
-821.4057745385428,594
-818.7081593735775,580
-816.0112857988148,622
-813.3151536429393,632
-810.6197627345566,632
-807.9251129021936,637
-805.2312039742981,648
-802.5380357792392,624
-799.8456081453069,629
-797.1539209007124,599
-794.462973873588,627
-791.772766891987,619
-789.083299783884,642
-786.3945723771743,625
-783.7065844996748,661
-781.0193359791231,683
-778.3328266431781,710
-775.6470563194197,640
-772.9620248353489,664
-770.2777320183878,633
-767.5941776958798,568
-764.9113616950891,567
-762.2292838432011,560
-759.5479439673222,613
-756.8673418944801,664
-754.1874774516235,637
-751.5083504656222,599
-748.8299607632671,623
-746.15230817127,659
-743.475392516264,635
-740.7992136248035,605
-738.1237713233636,595
-735.4490654383407,629
-732.7750957960521,637
-730.1018622227365,622
-727.4293645445534,618
-724.7576025875837,599
-722.0865761778291,620
-719.4162851412126,650
-716.7467293035781,734
-714.0779084906909,808
-711.409822528237,647
-708.7424712418238,629
-706.0758544569796,658
-703.4099719991541,711
-700.7448236937178,667
-698.0804093659622,708
-695.4167288411002,763
-692.7537819442656,697
-690.0915685005134,707
-687.4300883348199,699
-684.7693412720819,712
-682.1093271371178,665
-679.4500457546669,702
-676.7914969493897,692
-674.1336805458676,673
-671.4765963686034,659
-668.8202442420206,654
-666.1646239904642,675
-663.5097354382001,678
-660.8555784094151,677
-658.2021527282176,654
-655.5494582186366,655
-652.8974947046223,716
-650.2462620100463,737
-647.5957599587009,730
-644.9459883742998,742
-642.2969470804776,698
-639.6486359007902,684
-637.0010546587141,656
-634.3542031776476,687
-631.7080812809096,680
-629.0626887917401,796
-626.4180255333008,852
-623.7740913286734,785
-621.1308860008619,721
-618.4884093727904,662
-615.8466612673046,679
-613.2056415071715,696
-610.5653499150785,743
-607.9257863136347,705
-605.28695052537,711
-602.6488423727357,765
-600.0114616781036,843
-597.3748082637674,830
-594.7388819519412,875
-592.1036825647604,853
-589.4692099242818,879
-586.8354638524829,928
-584.2024441712624,868
-581.5701507024403,866
-578.9385832677575,878
-576.3077416888759,824
-573.6776257873787,851
-571.0482353847704,837
-568.4195703024757,846
-565.7916303618415,817
-563.164415384135,741
-560.5379251905453,725
-557.9121596021815,722
-555.2871184400748,777
-552.6628015251767,776
-550.0392086783606,770
-547.4163397204204,794
-544.794194472071,747
-542.1727727539491,801
-539.5520743866118,877
-536.9320991905377,914
-534.3128469861261,920
-531.6943175936979,922
-529.0765108334947,977
-526.4594265256793,1115
-523.8430644903358,1377
-521.2274245474689,1399
-518.612506517005,1503
-515.9983102187913,1514
-513.3848354725959,1665
-510.77208209810846,1720
-508.16004991493924,1774
-505.5487387426199,1805
-502.9381484006032,1735
-500.3282787082628,1604
-497.71912948489364,1488
-495.1107005497117,1285
-492.5029917218539,1280
-489.8960028203786,1063
-487.28973366426493,946
-484.68418407241325,962
-482.07935386364494,944
-479.47524285670266,928
-476.87185087025,944
-474.2691777228715,1008
-471.66722323307334,961
-469.0659872192821,937
-466.4654694998459,986
-463.86566989303384,909
-461.26658821703614,973
-458.66822428996414,976
-456.07057792985,980
-453.4736489546475,1052
-450.877437182231,971
-448.28194243039627,856
-445.68716451686,835
-443.09310325926003,842
-440.49975847515555,887
-437.9071299820263,967
-435.31521759727354,1059
-432.72402113821954,1191
-430.13354042210767,1079
-427.5437752661022,970
-424.95472548728867,993
-422.36639090267386,1064
-419.7787713291855,1064
-417.1918665836721,1104
-414.60567648290385,1122
-412.0202008435715,1060
-409.4354394822874,1085
-406.8513922155845,1149
-404.26805885991723,1060
-401.685439231661,950
-399.103533147112,1031
-396.522340422488,1054
-393.9418608739278,1045
-391.3620943174908,1008
-388.7830405691583,1080
-386.2046994448317,949
-383.6270707603344,986
-381.05015433141045,969
-378.473949973725,844
-375.8984575028645,761
-373.32367673433623,767
-370.74960748356875,720
-368.1762495659117,700
-365.60360279663576,785
-363.03166699093265,791
-360.4604419639154,732
-357.8899275306178,652
-355.32012350599507,649
-352.7510297049233,601
-350.1826459421999,602
-347.61497203254316,621
-345.04800779059235,640
-342.4817530309082,723
-339.91620756797226,701
-337.35137121618743,745
-334.7872437898774,730
-332.22382510328725,842
-329.66111497058273,817
-327.09911320585127,679
-324.53781962310075,622
-321.9772340362607,598
-319.4173562591816,677
-316.8581861056348,670
-314.2997233893127,695
-311.7419679238294,720
-309.1849195227194,692
-306.62857799943856,721
-304.0729431673641,871
-301.51801483979375,1048
-298.963792829947,911
-296.41027695096386,867
-293.85746701590574,769
-291.3053628377552,842
-288.7539642294155,933
-286.2032710037115,1039
-283.65328297338897,1039
-281.1039999511146,1402
-278.5554217494762,1561
-276.007548180983,1242
-273.4603790580651,970
-270.9139141930734,1079
-268.3681533982807,1165
-265.8230964858798,1237
-263.27874326798565,992
-260.7350935566336,961
-258.1921471637804,1157
-255.6499039013039,1298
-253.10836358100266,1086
-250.56752601459698,1056
-248.02739101372765,1194
-245.48795838995704,1321
-242.94922795476816,1205
-240.41119951956557,1065
-237.8738728956746,984
-235.33724789434166,1264
-232.80132432673452,1182
-230.2661020039418,1041
-227.73158073697357,1055
-225.19776033676033,1266
-222.66464061415422,1350
-220.1322213799284,1139
-217.60050244477725,1022
-215.06948361931552,1343
-212.53916471408013,1645
-210.00954553952818,1878
-207.48062590603843,1373
-204.9524056239104,1075
-202.4248845033651,1226
-199.8980623545441,1588
-197.37193898751036,1610
-194.84651421224817,1322
-192.32178783866232,1318
-189.79775967657952,1402
-187.27442953574644,1593
-184.7517972258321,1598
-182.2298625564256,1503
-179.7086253370378,1401
-177.18808537710026,1648
-174.66824248596583,2060
-172.14909647290835,2243
-169.6306471471229,1657
-167.11289431772548,1385
-164.59583779375328,1571
-162.07947738416453,2213
-159.5638128978386,2453
-157.04884414357605,2546
-154.53457093009854,1969
-152.02099306604828,1851
-149.50811035998936,1686
-146.99592262040665,1919
-144.48442965570587,2464
-141.97363127421409,3099
-139.46352728417958,2726
-136.95411749377126,2576
-134.44540171107985,2395
-131.93737974411636,1937
-129.43005140081357,2401
-126.92341648902493,3591
-124.41747481652521,4889
-121.91222619101006,4792
-119.40767042009657,4366
-116.90380731132257,3624
-114.40063667214702,2829
-111.8981583099503,2546
-109.3963720320337,3542
-106.89527764561933,5434
-104.39487495785067,7916
-101.89516377579241,9673
-99.39614390642998,9914
-96.89781515667039,10435
-94.40017733334128,10579
-91.90323024319173,10045
-89.40697369289148,12289
-86.91140748903172,16137
-84.41653143812482,20084
-81.92234534660395,20640
-79.42884902082358,16946
-76.93604226705907,14573
-74.4439248915071,22311
-71.95249670028534,37037
-69.46175749943245,54323
-66.97170709490854,62492
-64.48234529259423,57310
-61.99367189829195,41667
-59.50568671772464,28480
-57.01838955653636,26493
-54.53178022029283,24189
-52.045858514480074,22892
-49.560624244506016,21049
-47.07607721569923,19556
-44.59221723330904,16392
-42.10904410250669,18365
-39.62655762838392,18913
-37.14475761595372,26956
-34.66364387015028,29894
-32.18321619582866,39613
-29.70347439776515,51194
-27.224418280657005,60127
-24.74604764912317,65025
-22.26836230770266,65025
-19.7913620608565,65025
-17.315046712966478,65025
-14.83941606833514,65025
-12.36446993118659,65025
-9.89020810566592,65025
-7.416630395839093,65025
-4.94373660569363,65025
-2.471526539137585,65025
-6.821210263296962E-13,65025
2.47084320796705,65025
4.941003281093458,65025
7.410480415786196,65025
9.879274808531363,65025
12.347386655893956,65025
14.814816154518212,65025
17.28156350112681,65025
19.74762889252179,65025
22.21301252558385,25068
24.67771459727237,8121
27.141735304626195,9501
29.605074844762612,9998
32.06773341487792,7933
34.52971121224755,6550
36.99100843422559,7143
39.45162527824516,7094
41.91156194181792,6001
44.370818622535126,4800
46.82939551806646,4534
49.287292826160524,4747
51.74451074464503,5553
54.201049471426245,5341
56.65690920448981,5146
59.112090141899785,4872
61.56659248179983,4082
64.02041642241159,3605
66.4735621620365,4493
68.92602989905402,6371
71.37781983192338,6067
73.82893215918205,5273
76.27936707944684,3768
78.72912479141326,3312
81.17820549385567,3515
83.62660938562783,3562
86.07433666566146,3741
88.5213875329681,2919
90.96776218663751,2604
93.41346082583925,2237
95.85848364982041,2416
98.30283085790859,3429
100.7465026495089,3411
103.18949922410604,2591
105.63182078126385,2062
108.07346752062438,2301
110.51443964190923,2215
112.95473734491827,2149
115.39436082953114,2737
117.83331029570547,2954
120.27158594347827,2383
122.7091879729652,2200
125.1461165843615,3098
127.58237197794062,3660
130.01795435405518,2602
132.4528639131364,2363
134.88710085569494,3142
137.32066538231982,2461
139.75355769367923,1842
142.1857779905207,2010
144.61732647366978,2320
147.04820334403132,2090
149.47840880258934,1916
151.90794305040674,1873
154.33680628862487,1857
156.76499871846443,1854
159.19252054122433,2030
161.61937195828352,2075
164.04555317109896,2256
166.47106438120693,2247
168.89590579022217,2418
171.320077599839,2938
173.7435800118302,3142
176.16641322804742,3180
178.58857745042144,2726
181.01007288096173,2527
183.43089972175687,2756
185.85105817497413,2502
188.27054844285988,2569
190.6893707277394,2774
193.10752523201643,2891
195.5250121581745,2667
197.9418317087751,2446
200.3579840864594,2763
202.7734694939469,2850
205.18828813403627,2787
207.6024402096051,2725
210.01592592360964,2738
212.42874547908548,2623
214.84089907914665,2693
217.2523869269868,2717
219.66320922587727,2736
222.0733661791695,2510
224.48285799029293,2646
226.8916848627572,2775
229.29984700014882,2747
231.7073446061355,2692
234.11417788446204,2664
236.520347038953,2738
238.92585227351185,2878
241.33069379212054,2879
243.73487179884035,2781
246.1383864978112,2792
248.541238093252,2872
250.9434267894609,3072
253.34495279081432,3018
255.74581630176783,2923
258.1460175268563,2993
260.54555667069314,3113
262.9444339379703,3344
265.3426495334594,2997
267.7402036620107,2951
270.1370965285529,2984
272.53332833809407,2746
274.9288992957214,2577
277.32380960660055,2694
279.718059475976,2550
282.1116491091717,2410
284.5045787115897,2497
286.89684848871195,2486
289.2884586460981,2510
291.67940938938807,2517
294.0697009242996,2576
296.4593334566299,2808
298.84830719225477,2776
301.23662233712923,2656
303.6242790972866,2475
306.01127767884,2483
308.39761828798066,2411
310.78330113097934,2377
313.16832641418534,2233
315.5526943440269,2253
317.9364051270112,2280
320.3194589697242,2346
322.70185607883093,2300
325.0835966610754,2238
327.4646809232805,2194
329.8451090723478,2282
332.2248813152577,2236
334.6039978590701,2271
336.9824589109231,2092
339.36026467803447,2132
341.7374153677,2170
344.113911187295,2217
346.48975234427337,2227
348.8649390461686,2080
351.2394715005918,2013
353.61334991523415,2107
355.9865744978655,2031
358.35914545633375,2162
360.73106299856715,2053
363.10232733257146,2130
365.47293866643247,2089
367.84289720831396,2041
370.2122031664593,2002
372.5808567491905,2039
374.9488581649083,1910
377.31620762209275,1964
379.6829053293021,2008
382.0489514951745,2062
384.4143463284262,2011
386.7790900378528,1937
389.14318283232853,2023
391.50662492080653,2148
393.86941651231916,2034
396.23155781597745,1992
398.5930490409713,1911
400.9538903965696,1928
403.3140820921202,2055
405.6736243370498,2012
408.03251734086336,1918
410.3907613131465,1968
412.74835646356166,1968
415.10530300185144,1939
417.4616011378372,1908
419.81725108141893,1913
422.1722530425758,1870
424.5266072313656,1955
426.880313857925,1909
429.2333731324701,1852
431.58578526529516,1818
433.9375504667738,1799
436.2886689473588,1814
438.63914091758113,1816
440.9889665880513,1747
443.33814616945835,1776
445.68667987257015,1871
448.03456790823395,1866
450.3818104873759,1742
452.72840782100013,1796
455.07436012019105,1766
457.41966759611057,1791
459.7643304600007,1761
462.10834892318155,1847
464.4517231970525,1838
466.79445349309174,1825
469.1365400228566,1776
471.4779829979826,1875
473.81878263018564,1906
476.15893913125876,1891
478.4984527130747,2105
480.8373235875855,2094
483.17555196682144,2075
485.5131380628919,2071
487.8500820879857,2192
490.1863842543697,2195
492.52204477439034,2362
494.8570638604725,2666
497.1914417251204,3015
499.52517858091653,3280
501.85827464052306,3645
504.19073011668036,3824
506.5225452222086,3730
508.85372017000566,3764
511.18425517304956,4251
513.514150444396,5791
515.8434061971808,7358
518.1720226446176,7917
520.4999999999999,7591
522.8273384766991,6967
525.1540382881666,6454
527.480099647932,4847
529.8055227696037,3341
532.1303078668694,2664
534.454455153496,2322
536.777964843328,2053
539.1008371502907,2015
541.4230722883866,1943
543.744670471698,1910
546.0656319143858,1925
548.3859568306899,2045
550.7056454349294,1971
553.0246979415016,1945
555.3431145648834,1946
557.6608955196306,1885
559.978041020377,1962
562.2945512818363,1978
564.6104265188006,1838
566.9256669461412,1925
569.2402727788082,1985
571.5542442318302,1978
573.8675815203156,1879
576.1802848594508,1847
578.4923544645015,1818
580.8037905508126,1753
583.114593333807,1793
585.4247630289875,1769
587.7342998519354,1760
590.0432040183106,1862
592.3514757438526,1782
594.6591152443794,1910
596.9661227357875,2009
599.2724984340531,1809
601.578242555231,1837
603.8833553154542,1823
606.1878369309362,1858
608.4916876179676,1961
610.7949075929192,1895
613.0974970722403,1853
615.3994562724587,1842
617.7007854101818,1846
620.0014847020951,1785
622.3015543649641,1856
624.6009946156324,1792
626.8998056710224,1885
629.1979877481361,1767
631.4955410640538,1855
633.7924658359349,1893
636.0887622810175,1867
638.3844306166192,1797
640.6794710601358,1890
642.9738838290426,1960
645.2676691408932,1834
647.5608272133207,1858
649.853358264037,1904
652.1452625108324,1898
654.4365401715764,1987
656.7271914642178,2057
659.0172166067838,2055
661.3066158173809,1945
663.5953893141935,1923
665.8835373154867,1819
668.1710600396028,1926
670.4579577049639,1876
672.7442305300709,1899
675.0298787335033,1863
677.3149025339197,1833
679.599302150058,1905
681.8830778007342,1859
684.1662297048437,1950
686.4487580813608,1912
688.7306631493387,1835
691.0119451279091,1913
693.2926042362834,1876
695.5726406937516,1791
697.8520547196814,1873
700.1308465335215,1820
702.4090163547982,1804
704.6865644031171,1793
706.9634908981619,1898
709.2397960596965,1891
711.5154801075631,1904
713.7905432616823,1952
716.0649857420548,1918
718.3388077687592,1900
720.612009561953,1905
722.8845913418733,1857
725.1565533288352,1883
727.427895743234,1758
729.6986188055427,1815
731.9687227363137,1868
734.238207756178,1840
736.5070740858458,1860
738.7753219461066,1913
741.0429515578281,1865
743.3099631419569,1883
745.5763569195191,1765
747.8421331116193,1773
750.1072919394409,1851
752.3718336242467,1905
754.6357583873777,1888
756.8990664502545,1872
759.1617580343765,1865
761.423833361321,1868
763.6852926527457,1871
765.9461361303862,1859
768.206364016058,1928
770.4659765316536,1975
772.7249738991469,1861
774.9833563405886,1893
777.2411240781092,1961
779.4982773339183,1840
781.7548163303044,1854
784.010741289634,1867
786.2660524343538,1978
788.5207499869881,1972
790.7748341701416,2011
793.0283052064964,1959
795.2811633188143,1929
797.5334087299362,1926
799.7850416627813,1955
802.0360623403484,1822
804.2864709857143,1912
806.5362678220353,1918
808.7854530725468,1847
811.0340269605625,1870
813.2819897094754,1981
815.5293415427581,1885
817.77608268396,1870
820.0222133567116,1864
822.2677337847211,1976
824.5126441917765,2071
826.7569448017433,1892
829.0006358385675,1833
831.2437175262731,1794
833.4861900889629,1830
835.7280537508192,1800
837.9693087361026,1891
840.2099552691533,1842
842.4499935743896,1848
844.689423876309,1858
846.9282463994886,1788
849.1664613685833,1842
851.4040690083276,1854
853.6410695435349,1890
855.877463199097,1817
858.1132501999847,1929
860.3484307712487,1896
862.5830051380175,1919
864.8169735254988,1889
867.0503361589791,1840
869.2830932638243,1949
871.5152450654786,1876
873.7467917894654,1928
875.9777336613873,1938
878.2080709069252,1902
880.4378037518389,1949
882.666932421968,1957
884.8954571432301,1960
887.1233781416219,1958
889.3506956432192,1829
891.5774098741766,1848
893.803521060728,1791
896.0290294291852,1878
898.2539352059397,1919
900.4782386174619,1844
902.7019398903011,1884
904.925039251085,1915
907.147536926521,1902
909.3694331433943,1842
911.59072812857,1988
913.8114221089921,1869
916.0315153116827,1833
918.2510079637437,1795
920.4699002923547,1847
922.6881925247761,1839
924.905884888345,1848
927.1229776104793,1862
929.3394709186747,1826
931.555365040506,1858
933.7706602036275,1856
935.9853566357709,1941
938.1994545647489,1977
940.4129542184515,1967
942.6258558248488,1930
944.8381596119883,1929
947.0498658079974,2012
949.2609746410825,1909
951.4714863395287,1945
953.6814011316998,1982
955.8907192460387,1905
958.0994409110671,1931
960.3075663553858,1988
962.5150958076741,1984
964.7220294966913,2007
966.928367651274,2009
969.1341105003388,1885
971.3392582728806,1894
973.5438111979742,1865
975.747769504772,1911
977.9511334225061,1945
980.153903180487,1852
982.3560790081052,1920
984.5576611348289,1982
986.7586497902058,1809
988.9590452038618,1755
991.158847605503,1736
993.3580572249133,1790
995.5566742919558,1803
997.7546990365728,1701
999.952131688785,1699
1002.1489724786926,1594
1004.3452216364743,1612
1006.5408793923874,1613
1008.7359459767691,1568
1010.9304216200343,1554
1013.1243065526781,1563
1015.3176010052733,1592
1017.510305208472,1631
1019.7024193930064,1624
1021.8939437896848,1612
1024.0848786293977,1554
1026.2752241431122,1501
1028.4649805618747,1606
1030.6541481168115,1548
1032.842727039127,1543
1035.0307175601051,1554
1037.2181199111074,1532
1039.4049343235752,1471
1041.591161029029,1519
1043.7768002590683,1529
1045.9618522453698,1503
1048.1463172196918,1482
1050.3301954138697,1512
1052.513487059818,1430
1054.69619238953,1523
1056.8783116350783,1451
1059.0598450286152,1514
1061.2407928023704,1441
1063.4211551886528,1425
1065.6009324198508,1418
1067.780124728432,1470
1069.9587323469414,1409
1072.1367555080046,1442
1074.314194444325,1472
1076.4910493886855,1543
1078.667320573947,1437
1080.843008233051,1446
1083.0181125990161,1447
1085.1926339049414,1446
1087.3665723840027,1395
1089.5399282694575,1478
1091.7127017946405,1440
1093.8848931929647,1436
1096.0565026979243,1380
1098.2275305430899,1358
1100.3979769621128,1415
1102.567842188722,1400
1104.737126456726,1396
1106.9058300000124,1438
1109.0739530525475,1421
1111.2414958483764,1375
1113.4084586216231,1397
1115.5748416064907,1474
1117.7406450372605,1354
1119.9058691482942,1427
1122.0705141740304,1410
1124.2345803489884,1342
1126.3980679077658,1369
1128.5609770850388,1440
1130.7233081155623,1388
1132.8850612341707,1387
1135.0462366757774,1392
1137.2068346753745,1425
1139.3668554680326,1413
1141.526299288901,1356
1143.68516637321,1483
1145.8434569562655,1389
1148.001171273455,1462
1150.158309560244,1405
1152.3148720521767,1401
1154.470858984876,1419
1156.626270594044,1403
1158.7811071154629,1434
1160.9353687849912,1449
1163.089055838569,1440
1165.242168512213,1442
1167.3947070420209,1392
1169.5466716641677,1347
1171.6980626149075,1419
1173.8488801305748,1414
1175.9991244475814,1387
1178.1487958024186,1393
1180.2978944316555,1426
1182.4464205719428,1459
1184.5943744600072,1351
1186.7417563326567,1334
1188.8885664267755,1362
1191.0348049793297,1364
1193.1804722273619,1376
1195.325568407995,1395
1197.4700937584303,1468
1199.614048515948,1432
1201.7574329179074,1411
1203.900247201746,1366
1206.042491604982,1413
1208.1841663652099,1412
1210.3252717201053,1395
1212.465807907422,1422
1214.6057751649923,1435
1216.7451737307279,1377
1218.8840038426192,1501
1221.0222657387353,1472
1223.1599596572241,1445
1225.2970858363137,1427
1227.4336445143094,1466
1229.5696359295966,1428
1231.705060320639,1469
1233.8399179259786,1443
1235.9742089842384,1478
1238.107933734118,1487
1240.2410924143974,1490
1242.373685263935,1523
1244.5057125216676,1541
1246.6371744266116,1466
1248.7680712178621,1475
1250.898403134593,1451
1253.028170416058,1482
1255.1573733015875,1465
1257.2860120305932,1466
1259.4140868425648,1486
1261.54159797707,1482
1263.6685456737569,1429
1265.7949301723515,1455
1267.9207517126597,1578
1270.046010534565,1557
1272.1707068780306,1548
1274.2948409830983,1463
1276.4184130898889,1581
1278.541423438603,1567
1280.6638722695184,1556
1282.785759822993,1541
1284.9070863394636,1546
1287.0278520594447,1575
1289.1480572235314,1601
1291.2677020723963,1595
1293.3867868467923,1600
1295.5053117875495,1573
1297.623277135579,1601
1299.740683131868,1665
1301.8575300174857,1691
1303.973818033578,1687
1306.0895474213703,1721
1308.2047184221678,1709
1310.3193312773528,1681
1312.4333862283888,1687
1314.5468835168163,1692
1316.659823384255,1663
1318.7722060724045,1598
1320.8840318230418,1667
1322.9953008780249,1691
1325.1060134792888,1704
1327.2161698688478,1660
1329.3257702887959,1707
1331.4348149813054,1705
1333.5433041886276,1625
1335.6512381530933,1664
1337.7586171171101,1583
1339.8654413231675,1628
1341.9717110138317,1620
1344.0774264317488,1719
1346.1825878196432,1599
1348.2871954203192,1652
1350.3912494766587,1554
1352.4947502316231,1579
1354.5976979282532,1563
1356.7000928096686,1559
1358.8019351190665,1597
1360.9032250997243,1562
1363.0039629949988,1532
1365.1041490483235,1546
1367.2037835032133,1520
1369.3028666032606,1566
1371.401398592137,1600
1373.4993797135926,1571
1375.5968102114575,1544
1377.6936903296396,1550
1379.7900203121262,1586
1381.8858004029835,1548
1383.9810308463561,1573
1386.075711886469,1510
1388.1698437676241,1556
1390.2634267342032,1577
1392.356461030667,1601
1394.4489469015557,1553
1396.5408845914872,1476
1398.6322743451592,1538
1400.7231164073469,1512
1402.813411022907,1520
1404.903158436773,1543
1406.9923588939578,1592
1409.0810126395531,1621
1411.1691199187303,1593
1413.2566809767386,1585
1415.343696058907,1549
1417.4301654106425,1588
1419.5160892774315,1620
1421.6014679048399,1618
1423.6863015385125,1570
1425.7705904241707,1598
1427.8543348076178,1532
1429.9375349347342,1539
1432.0201910514802,1596
1434.102303403894,1568
1436.1838722380944,1567
1438.2648978002767,1588
1440.3453803367174,1609
1442.4253200937692,1658
1444.5047173178677,1673
1446.5835722555234,1661
1448.6618851533285,1623
1450.739656257952,1609
1452.8168858161434,1669
1454.8935740747306,1680
1456.96972128062,1731
1459.045327680797,1716
1461.120393522327,1640
1463.1949190523528,1739
1465.2689045180973,1716
1467.3423501668608,1824
1469.415256246024,1765
1471.4876230030463,1750
1473.559450685465,1814
1475.6307395408976,1840
1477.7014898170391,1728
1479.771701761665,1813
1481.8413756226287,1803
1483.9105116478618,1791
1485.9791100853772,1821
1488.0471711832643,1854
1490.1146951896926,1837
1492.1816823529098,1873
1494.2481329212433,1868
1496.3140471430984,1857
1498.3794252669609,1851
1500.4442675413939,1901
1502.5085742150404,1862
1504.572345536622,1916
1506.6355817549388,1963
1508.6982831188702,1874
1510.7604498773744,2036
1512.8220822794883,2000
1514.8831805743293,1963
1516.9437450110909,2003
1519.003775839048,1991
1521.0632733075522,2010
1523.1222376660367,2008
1525.1806691640113,2088
1527.2385680510652,2056
1529.2959345768668,2120
1531.3527689911643,2169
1533.4090715437833,2187
1535.4648424846291,2189
1537.5200820636855,2191
1539.5747905310159,2261
1541.6289681367616,2237
1543.6826151311434,2244
1545.7357317644614,2302
1547.7883182870937,2278
1549.8403749494987,2347
1551.8919020022113,2326
1553.9428996958477,2389
1555.9933682811015,2516
1558.0433080087469,2435
1560.0927191296346,2493
1562.1416018946961,2525
1564.1899565549415,2439
1566.2377833614592,2417
1568.2850825654164,2433
1570.3318544180606,2383
1572.3780991707158,2335
1574.423817074788,2267
1576.4690083817595,2292
1578.5136733431923,2184
1580.5578122107272,2156
1582.601425236085,2055
1584.6445126710646,2025
1586.6870747675434,1970
1588.7291117774776,1961
1590.7706239529034,1931
1592.8116115459347,1825
1594.8520748087658,1788
1596.8920139936686,1851
1598.9314293529933,1791
1600.9703211391711,1723
1603.008689604711,1663
1605.0465350022005,1708
1607.0838575843068,1686
1609.1206576037753,1710
1611.1569353134305,1614
1613.1926909661765,1610
1615.2279248149953,1639
1617.2626371129481,1597
1619.2968281131757,1593
1621.3304980688963,1556
1623.3636472334088,1511
1625.39627586009,1512
1627.428384202396,1460
1629.459972513861,1502
1631.4910410480993,1532
1633.5215900588028,1499
1635.551619799744,1428
1637.5811305247717,1507
1639.6101224878166,1504
1641.6385959428862,1434
1643.6665511440683,1387
1645.693988345528,1438
1647.7209078015112,1392
1649.7473097663405,1395
1651.7731944944203,1479
1653.7985622402307,1445
1655.823413258333,1378
1657.847747803366,1394
1659.8715661300494,1426
1661.8948684931793,1398
1663.9176551476316,1413
1665.9399263483624,1431
1667.9616823504057,1433
1669.982923408873,1378
1672.0036497789574,1405
1674.0238617159293,1467
1676.043559475138,1351
1678.0627433120121,1366
1680.081413482059,1375
1682.0995702408654,1408
1684.117213844096,1328
1686.134344547495,1437
1688.1509626068864,1383
1690.1670682781705,1389
1692.182661817329,1371
1694.1977434804217,1391
1696.2123135235875,1379
1698.226372203043,1448
1700.2399197750851,1432
1702.2529564960905,1449
1704.2654826225112,1422
1706.277498410882,1422
1708.2890041178139,1371
1710.2999999999988,1417
1712.3104863142066,1339
1714.3204633172854,1350
1716.329931266163,1387
1718.3388904178469,1345
1720.3473410294214,1370
1722.3552833580516,1341
1724.3627176609807,1346
1726.3696441955308,1344
1728.3760632191033,1371
1730.3819749891782,1333
1732.3873797633146,1324
1734.3922777991502,1305
1736.3966693544012,1350
1738.4005546868639,1326
1740.4039340544127,1333
1742.406807715001,1343
1744.4091759266616,1337
1746.4110389475054,1331
1748.4123970357223,1298
1750.413250449582,1337
1752.4135994474318,1332
1754.4134442876993,1311
1756.4127852288902,1305
1758.4116225295893,1321
1760.4099564484595,1328
1762.407787244244,1398
1764.405115175764,1333
1766.4019405019203,1359
1768.3982634816916,1364
1770.3940843741357,1348
1772.3894034383907,1236
1774.3842209336717,1259
1776.378537119274,1293
1778.372352254571,1341
1780.3656665990156,1280
1782.3584804121397,1295
1784.3507939535534,1317
1786.3426074829463,1282
1788.3339212600863,1342
1790.3247355448211,1335
1792.3150505970766,1357
1794.3048666768573,1325
1796.2941840442477,1346
1798.2830029594106,1384
1800.2713236825884,1316
1802.2591464741004,1326
1804.2464715943465,1325
1806.2332993038058,1327
1808.2196298630352,1277
1810.2054635326708,1368
1812.190800573428,1343
1814.175641246101,1376
1816.1599858115628,1330
1818.1438345307652,1374
1820.127187664738,1319
1822.1100454745924,1321
1824.092408221516,1314
1826.0742761667766,1302
1828.055649571721,1289
1830.0365286977735,1286
1832.0169138064398,1275
1833.9968051593014,1329
1835.9762030180214,1393
1837.9551076443408,1360
1839.9335193000788,1349
1841.9114382471344,1278
1843.888864747485,1285
1845.8657990631878,1275
1847.842241456378,1313
1849.8181921892697,1310
1851.7936515241558,1310
1853.7686197234098,1309
1855.7430970494815,1296
1857.7170837649014,1284
1859.6905801322787,1283
1861.6635864143004,1275
1863.6361028737338,1364
1865.608129773424,1368
1867.5796673762961,1315
1869.5507159453537,1343
1871.521275743678,1291
1873.4913470344313,1299
1875.4609300808534,1318
1877.4300251462632,1337
1879.3986324940588,1362
1881.366752387717,1320
1883.3343850907936,1363
1885.3015308669228,1340
1887.268189979819,1359
1889.2343626932739,1340
1891.2000492711595,1392
1893.1652499774254,1356
1895.1299650761011,1263
1897.0941948312952,1291
1899.0579395071945,1304
1901.0211993680641,1325
1902.98397467825,1346
1904.9462657021745,1374
1906.9080727043415,1385
1908.869395949332,1391
1910.8302357018065,1337
1912.790592226504,1313
1914.7504657882428,1295
1916.7098566519212,1342
1918.6687650825133,1346
1920.6271913450764,1326
1922.5851357047422,1378
1924.5425984267245,1376
1926.499579776314,1316
1928.4560800188833,1311
1930.4120994198802,1328
1932.367638244833,1307
1934.32269675935,1340
1936.2772752291175,1272
1938.231373919899,1333
1940.1849930975404,1363
1942.1381330279637,1365
1944.0907939771696,1285
1946.0429762112412,1295
1947.9946799963363,1317
1949.9459055986945,1361
1951.896653284633,1369
1953.8469233205478,1314
1955.7967159729142,1359
1957.7460315082863,1301
1959.6948701932974,1311
1961.6432322946594,1336
1963.5911180791632,1348
1965.5385278136787,1334
1967.4854617651545,1362
1969.4319202006182,1277
1971.377903387176,1276
1973.3234115920136,1320
1975.268445082395,1311
1977.2130041256642,1325
1979.1570889892423,1283
1981.1006999406304,1283
1983.04383724741,1354
1984.986501177238,1335
1986.928691997853,1318
1988.8704099770712,1325
1990.811655382789,1346
1992.7524284829801,1288
1994.692729545698,1267
1996.6325588390755,1277
1998.5719166313224,1348
2000.5108031907307,1267
2002.4492187856677,1299
2004.387163684583,1282
2006.3246381560011,1311
2008.2616424685298,1368
2010.1981768908527,1309
2012.1342416917332,1296
2014.069837140014,1242
2016.0049635046162,1267
2017.9396210545406,1301
2019.8738100588666,1267
2021.8075307867502,1287
2023.740783507431,1284
2025.6735684902228,1299
2027.6058860045214,1244
2029.5377363198004,1277
2031.4691197056118,1295
2033.4000364315875,1297
2035.3304867674374,1275
2037.260470982952,1312
2039.189989347998,1261
2041.1190421325232,1359
2043.047629606554,1325
2044.9757520401945,1271
2046.9034097036288,1285
2048.8306028671195,1291
2050.7573318010086,1334
2052.683596775716,1289
2054.609398061742,1201
2056.5347359296647,1253
2058.4596106501403,1320
2060.384022493906,1295
2062.3079717317764,1252
2064.231458634646,1313
2066.1544834734873,1291
2068.077046519352,1296
2069.99914804337,1301
2071.9207883167524,1269
2073.8419676107865,1288
2075.7626861968406,1251
2077.6829443463607,1253
2079.6027423308715,1287
2081.522080421977,1285
2083.440958891362,1259
2085.359378010786,1300
2087.2773380520907,1277
2089.194839287196,1291
2091.111881988101,1247
2093.0284664268825,1266
2094.9445928756973,1290
2096.86026160678,1288
2098.775472892446,1312
2100.690227005088,1287
2102.604524217178,1270
2104.5183648012676,1265
2106.431749029985,1333
2108.34467717604,1275
2110.2571495122206,1291
2112.169166311393,1271
2114.080727846503,1259
2115.9918343905747,1252
2117.902486216711,1276
2119.8126835980956,1296
2121.722426807987,1288
2123.6317161197285,1263
2125.5405518067364,1299
2127.448934142509,1370
2129.356863400624,1258
2131.264339854737,1301
2133.1713637785815,1300
2135.077935445972,1295
2136.9840551308002,1286
2138.889723107037,1296
2140.7949396487334,1338
2142.699705030018,1331
2144.6040195250994,1266
2146.507883408264,1263
2148.4112969538774,1304
2150.3142604363848,1325
2152.2167741303097,1330
2154.1188383102535,1298
2156.0204532508997,1300
2157.9216192270064,1255
2159.822336513414,1259
2161.7226053850413,1312
2163.622426116884,1339
2165.5217989840185,1335
2167.4207242616,1315
2169.319202224862,1311
2171.2172331491165,1302
2173.1148173097563,1318
2175.0119549822507,1266
2176.90864644215,1310
2178.8048919650823,1298
2180.7006918267534,1345
2182.596046302952,1270
2184.4909556695407,1331
2186.3854202024645,1309
2188.279440177746,1257
2190.173015871487,1278
2192.066147559868,1283
2193.958835519149,1313
2195.851080025667,1255
2197.7428813558417,1313
2199.6342397861667,1306
2201.5251555932186,1304
2203.415629053651,1331
2205.3056604441986,1312
2207.19525004167,1345
2209.084398122958,1261
2210.9731049650327,1333
2212.861370844941,1339
2214.749196039812,1269
2216.636580826851,1321
2218.523525483344,1331
2220.410030286655,1328
2222.296095514226,1292
2224.1817214435805,1304
2226.066908352319,1361
2227.951656518121,1353
2229.835966218746,1317
2231.71983773203,1369
2233.6032713358913,1299
2235.486267308324,1294
2237.3688259274036,1319
2239.2509474712824,1350
2241.132632218193,1353
2243.013880446447,1303
2244.8946924344323,1313
2246.7750684606203,1299
2248.6550088035574,1312
2250.534513741871,1299
2252.413583554265,1305
2254.292218519526,1364
2256.170418916517,1341
2258.0481850241786,1378
2259.925517121534,1365
2261.8024154876825,1346
2263.678880401803,1353
2265.5549121431536,1320
2267.430510991071,1321
2269.305677224971,1311
2271.180411124348,1289
2273.0547129687766,1294
2274.9285830379076,1333
2276.8020216114737,1365
2278.6750289692845,1375
2280.5476053912294,1379
2282.4197511572766,1312
2284.2914665474727,1345
2286.162751841943,1370
2288.0336073208937,1405
2289.904033264608,1397
2291.774029953448,1246
2293.6435976678554,1325
2295.5127366883517,1281
2297.381447295534,1318
2299.2497297700825,1282
2301.1175843927526,1289
2302.9850114443825,1267
2304.852011205885,1208
2306.7185839582553,1255
2308.5847299825664,1241
2310.4504495599676,1260
2312.3157429716925,1304
2314.1806104990483,1200
2316.0450524234247,1171
2317.9090690262888,1193
2319.772660589186,1203
2321.635827393742,1195
2323.498569721661,1222
2325.3608878547248,1173
2327.2227820747967,1235
2329.0842526638157,1186
2330.945299903803,1214
2332.805924076857,1204
2334.6661254651535,1153
2336.525904350951,1132
2338.3852610165827,1183
2340.244195744464,1183
2342.102708817088,1209
2343.9608005170253,1229
2345.8184711269287,1172
2347.675720929526,1173
2349.532550207628,1219
2351.38895924412,1218
2353.24494832197,1255
2355.100517724223,1232
2356.955667734004,1183
2358.810398634514,1295
2360.664710709037,1235
2362.5186042409337,1208
2364.3720795136437,1212
2366.225136810686,1207
2368.0777764156583,1172
2369.929998612237,1221
2371.7818036841777,1244
2373.633191915315,1228
2375.484163589562,1219
2377.3347189909114,1247
2379.184858403434,1227
2381.03458211128,1191
2382.8838903986775,1236
2384.732783549936,1276
2386.5812618494406,1208
2388.4293255816588,1198
2390.2769750311327,1190
2392.1242104824883,1187
2393.971032220427,1162
2395.8174405297295,1200
2397.6634356952563,1186
2399.509018001947,1201
2401.3541877348193,1244
2403.1989451789705,1184
2405.043290619576,1181
2406.8872243418905,1279
2408.730746631247,1247
2410.5738577730594,1215
2412.4165580528183,1200
2414.258847756095,1150
2416.100727168537,1202
2417.9421965758734,1237
2419.783256263912,1224
2421.623906518538,1201
2423.4641476257157,1270
2425.303979871491,1255
2427.143403541984,1239
2428.9824189233977,1237
2430.821026302012,1261
2432.6592259641866,1154
2434.497018196361,1256
2436.33440328505,1189
2438.171381516851,1199
2440.00795317844,1228
2441.844118556569,1277
2443.6798779380724,1239
2445.5152316098606,1223
2447.3501798589255,1258
2449.1847229723357,1218
2451.0188612372403,1223
2452.8525949408663,1194
2454.6859243705203,1195
2456.518849813587,1263
2458.3513715575314,1182
2460.183489889895,1253
2462.015205098301,1253
2463.8465174704493,1188
2465.67742729412,1248
2467.5079348571717,1210
2469.338040447542,1246
2471.1677443532476,1226
2472.9970468623833,1262
2474.825948263123,1221
2476.6544488437207,1238
2478.482548892508,1224
2480.310248697896,1226
2482.137548548374,1214
2483.9644487325118,1235
2485.790949538956,1241
2487.617051256433,1232
2489.44275417375,1256
2491.26805857979,1246
2493.0929647635157,1294
2494.917473013971,1275
2496.741583620276,1307
2498.5652968716304,1250
2500.3886130573137,1289
2502.2115324666834,1264
2504.0340553891765,1263
2505.856182114308,1239
2507.6779129316733,1291
2509.499248130945,1332
2511.3201880018764,1283
2513.140732834298,1205
2514.9608829181198,1264
2516.780638543331,1219
2518.6,1263
2520.418967578273,1266
2522.237541568376,1254
2524.0557222606144,1284
2525.8735099453706,1315
2527.6909049131086,1245
2529.507907454368,1300
2531.32451785977,1294
2533.140736420014,1267
2534.9565634258774,1294
2536.771999168218,1293
2538.5870439379714,1310
2540.4016980261526,1325
2542.2159617238544,1278
2544.02983532225,1276
2545.8433191125914,1328
2547.656413386209,1335
2549.4691184345115,1345
2551.2814345489874,1385
2553.093362021204,1327
2554.904901142808,1414
2556.716052205523,1335
2558.526815501153,1377
2560.3371913215824,1401
2562.147179958771,1382
2563.956781704761,1347
2565.7659968516705,1373
2567.5748256916986,1370
2569.3832685171224,1369
2571.1913256202984,1416
2572.9989972936614,1376
2574.806283829725,1361
2576.613185521084,1315
2578.4197026604074,1327
2580.2258355404483,1418
2582.031584454035,1370
2583.836949694077,1362
2585.6419315535613,1393
2587.4465303255533,1378
2589.2507463032002,1417
2591.0545797797245,1401
2592.8580310484303,1367
2594.6611004026995,1376
2596.463788135992,1353
2598.266094541849,1327
2600.0680199138874,1425
2601.869564545807,1453
2603.670728731383,1433
2605.4715127644704,1397
2607.2719169390048,1406
2609.071941548998,1415
2610.8715868885433,1435
2612.670853251811,1473
2614.469740933052,1394
2616.268250226594,1399
2618.0663814268455,1371
2619.864134828292,1367
2621.6615107255006,1348
2623.458509413115,1419
2625.2551311858597,1356
2627.0513763385347,1379
2628.8472451660223,1350
2630.6427379632833,1332
2632.4378550253564,1340
2634.232596647359,1321
2636.026963124488,1432
2637.8209547520187,1392
2639.6145718253065,1341
2641.407814639785,1344
2643.200683490966,1337
2644.9931786744414,1376
2646.7853004858807,1361
2648.577049221034,1328
2650.3684251757277,1367
2652.1594286458712,1335
2653.9500599274484,1321
2655.740319316525,1365
2657.5302071092437,1336
2659.3197236018286,1295
2661.10886909058,1344
2662.8976438718782,1357
2664.686048242183,1305
2666.4740824980327,1299
2668.2617469360443,1319
2670.0490418529134,1278
2671.8359675454153,1265
2673.622524310403,1255
2675.408712444811,1266
2677.1945322456495,1324
2678.979984010009,1275
2680.76506803506,1272
2682.5497846180497,1238
2684.334134056306,1277
2686.1181166472343,1228
2687.9017326883213,1293
2689.6849824771293,1270
2691.4678663113013,1279
2693.2503844885596,1279
2695.032537306705,1226
2696.8143250636167,1260
2698.5957480572542,1224
2700.3768065856534,1233
2702.1575009469316,1239
2703.937831439283,1214
2705.717798360982,1253
2707.4974020103837,1193
2709.276642685917,1224
2711.055520686095,1238
2712.834036309506,1182
2714.612189854819,1267
2716.389981620782,1255
2718.1674119062204,1222
2719.944481010041,1248
2721.721189231226,1197
2723.4975368688415,1209
2725.273524222027,1208
2727.0491515900053,1201
2728.824419272075,1170
2730.5993275676146,1209
2732.3738767760838,1241
2734.148067197016,1200
2735.921899130031,1218
2737.6953728748194,1222
2739.468488731156,1222
2741.2412469988926,1163
2743.0136479779617,1231
2744.785691968372,1202
2746.5573792702116,1242
2748.3287101836504,1168
2750.099685008934,1225
2751.870304046388,1186
2753.640567596418,1183
2755.4104759595057,1175
2757.1800294362156,1194
2758.949228327187,1167
2760.7180729331412,1218
2762.486563554877,1177
2764.254700493272,1204
2766.022484049284,1173
2767.789914523947,1188
2769.5569922183786,1161
2771.3237174337705,1121
2773.090090471394,1191
2774.8561116326036,1148
2776.6217812188274,1132
2778.3870995315756,1181
2780.1520668724356,1168
2781.9166835430747,1167
2783.6809498452394,1195
2785.444866080754,1232
2787.2084325515225,1151
2788.971649559527,1229
2790.73451740683,1188
2792.4970363955713,1176
2794.2592068279705,1203
2796.0210290063264,1182
2797.7825032330147,1154
2799.543629810493,1219
2801.304409041296,1196
2803.0648412280366,1153
2804.8249266734088,1211
2806.5846656801846,1220
2808.344058551212,1210
2810.1031055894246,1211
2811.8618070978273,1132
2813.6201633795085,1132
2815.378174737636,1194
2817.1358414754536,1164
2818.893163896285,1218
2820.6501423035334,1213
2822.4067770006814,1179
2824.1630682912883,1184
2825.9190164789957,1200
2827.6746218675207,1220
2829.429884760661,1190
2831.184805462294,1240
2832.9393842763743,1204
2834.693621506936,1194
2836.4475174580916,1165
2838.201072434034,1178
2839.954286739034,1171
2841.707160677441,1243
2843.459694553685,1186
2845.2118886722724,1200
2846.96374333779,1211
2848.7152588549034,1153
2850.4664355283567,1195
2852.217273662973,1215
2853.9677735636546,1184
2855.7179355353833,1204
2857.4677598832186,1218
2859.217246912299,1133
2860.9663969278427,1172
2862.715210235146,1226
2864.4636871395846,1135
2866.211827946614,1200
2867.9596329617652,1203
2869.7071024906536,1225
2871.4542368389684,1216
2873.20103631248,1173
2874.947501217038,1169
2876.6936318585695,1185
2878.4394285430812,1215
2880.1848915766604,1209
2881.9300212654707,1173
2883.6748179157553,1167
2885.4192818338374,1189
2887.1634133261173,1208
2888.907212699077,1167
2890.6506802592744,1189
2892.393816313348,1177
2894.1366211680142,1168
2895.8790951300693,1175
2897.621238506388,1174
2899.363051603925,1190
2901.1045347297118,1182
2902.8456881908596,1136
2904.58651229456,1140
2906.327007348081,1170
2908.067173658772,1178
2909.8070115340597,1204
2911.5465212814497,1172
2913.285703208527,1186
2915.0245576229563,1193
2916.7630848324807,1167
2918.5012851449196,1175
2920.2391588681758,1179
2921.976706310227,1165
2923.7139277791334,1196
2925.4508235830313,1140
2927.187394030137,1205
2928.923639428745,1187
2930.6595600872306,1156
2932.395156314046,1182
2934.1304284177218,1161
2935.8653767068713,1156
2937.6000014901815,1208
2939.3343030764227,1192
2941.068281774442,1216
2942.8019378931644,1187
2944.5352717415976,1163
2946.2682836288236,1207
2948.0009738640065,1220
2949.7333427563885,1219
2951.465390615289,1158
2953.1971177501086,1159
2954.9285244703265,1170
2956.6596110855,1199
2958.3903779052657,1114
2960.1208252393385,1182
2961.8509533975125,1183
2963.5807626896617,1152
2965.3102534257378,1197
2967.0394259157715,1200
2968.768280469873,1175
2970.496817398232,1214
2972.2250370111146,1198
2973.952939618869,1189
2975.6805255319196,1186
2977.4077950607707,1207
2979.134748516006,1188
2980.861386208289,1179
2982.587708448359,1153
2984.313715547037,1176
2986.039407815222,1200
2987.764785563891,1224
2989.489849104102,1212
2991.2145987469908,1182
2992.9390348037705,1183
2994.6631575857346,1140
2996.3869674042576,1248
2998.1104645707887,1214
2999.83364939686,1162
3001.5565221940783,1172
3003.2790832741334,1158
3005.0013329487924,1159
3006.7232715298996,1163
3008.4448993293804,1145
3010.166216659239,1183
3011.887223831558,1191
3013.607921158498,1165
3015.3283089522993,1223
3017.0483875252826,1170
3018.7681571898443,1133
3020.4876182584626,1166
3022.2067710436927,1180
3023.9256158581707,1153
3025.644153014609,1175
3027.362382825801,1153
3029.0803056046193,1158
3030.797921664012,1167
3032.5152313170106,1160
3034.2322348767225,1146
3035.9489326563353,1141
3037.665324969115,1132
3039.3814121284063,1161
3041.097194447633,1165
3042.812672240299,1117
3044.5278458199855,1158
3046.2427155003525,1143
3047.9572815951406,1171
3049.671544418167,1142
3051.38550428333,1136
3053.0991615046073,1160
3054.812516396051,1152
3056.5255692717974,1190
3058.2383204460575,1197
3059.9507702331257,1175
3061.662918947372,1133
3063.3747669032446,1141
3065.0863144152736,1143
3066.7975617980674,1247
3068.508509366309,1103
3070.219157434767,1150
3071.9295063182844,1208
3073.639556331785,1119
3075.3493077902704,1187
3077.058761008821,1181
3078.7679163025964,1144
3080.476773986837,1133
3082.1853343768594,1189
3083.89359778806,1186
3085.6015645359153,1177
3087.3092349359786,1199
3089.016609303884,1122
3090.7236879553434,1156
3092.4304712061476,1126
3094.136959372166,1153
3095.843152769349,1158
3097.5490517137237,1154
3099.2546565213966,1133
3100.959967508554,1156
3102.66498499146,1188
3104.3697092864577,1159
3106.0741407099695,1141
3107.778279578498,1179
3109.482126208622,1128
3111.1856809170004,1161
3112.8889440203716,1175
3114.5919158355528,1127
3116.294596679439,1151
3117.996986869006,1160
3119.6990867213062,1206
3121.4008965534726,1177
3123.102416682717,1206
3124.803647426329,1166
3126.5045891016784,1168
3128.205242026213,1159
3129.90560651746,1137
3131.605682893025,1160
3133.3054714705922,1141
3135.0049725679282,1186
3136.7041865028714,1220
3138.4031135933465,1203
3140.101754157353,1202
3141.800108512971,1156
3143.498176978357,1168
3145.1959598717494,1167
3146.8934575114636,1146
3148.5906702158954,1138
3150.2875983035183,1141
3151.9842420928853,1124
3153.680601902627,1130
3155.376678051456,1174
3157.07247085816,1138
3158.767980641609,1105
3160.463207720748,1162
3162.158152414606,1127
3163.8528150422862,1147
3165.5471959229726,1160
3167.2412953759303,1151
3168.9351137204976,1201
3170.628651276098,1144
3172.3219083622307,1142
3174.014885298474,1147
3175.707582404485,1151
3177.4000000000005,1167
3179.092138404835,1129
3180.7839979388846,1185
3182.47557892212,1169
3184.166881674594,1111
3185.8579065164386,1149
3187.5486537678626,1159
3189.2391237491547,1146
3190.9293167806827,1202
3192.6192331828934,1127
3194.3088732763117,1136
3195.998237381542,1138
3197.687325819268,1218
3199.376138910251,1118
3201.064676975334,1182
3202.7529403354347,1128
3204.4409293115523,1127
3206.1286442247647,1195
3207.816085396229,1140
3209.5032531471825,1100
3211.190147798936,1096
3212.8767696728846,1163
3214.5631190905015,1082
3216.2491963733373,1145
3217.9350018430214,1177
3219.6205358212637,1078
3221.305798629851,1085
3222.990790590651,1101
3224.6755120256103,1156
3226.359963256751,1075
3228.0441446061795,1154
3229.7280563960758,1126
3231.411698948703,1157
3233.0950725863995,1126
3234.778177631587,1154
3236.461014406761,1129
3238.1435832345005,1165
3239.8258844374595,1166
3241.507918338374,1153
3243.1896852600576,1120
3244.8711855254023,1152
3246.552419457381,1106
3248.233387379042,1111
3249.914089613516,1161
3251.59452648401,1104
3253.274698313813,1128
3254.95460542629,1119
3256.6342481448855,1168
3258.313626793125,1151
3259.9927416946084,1111
3261.6715931730196,1144
3263.3501815521176,1119
3265.0285071557437,1105
3266.706570307815,1093
3268.3843713323286,1111
3270.0619105533615,1125
3271.739188295068,1151
3273.4162048816834,1116
3275.0929606375184,1126
3276.769455886966,1158
3278.445690954498,1178
3280.1216661646613,1158
3281.797381842087,1157
3283.4728383114807,1157
3285.1480358976296,1170
3286.8229749253996,1114
3288.4976557197333,1162
3290.172078605655,1129
3291.846243908266,1163
3293.5201519527463,1099
3295.193803064357,1097
3296.8671975684374,1079
3298.5403357904024,1103
3300.21321805575,1091
3301.8858446900567,1130
3303.558216018975,1142
3305.23033236824,1161
3306.9021940636603,1165
3308.57380143113,1118
3310.2451547966184,1123
3311.916254486174,1170
3313.5871008259246,1116
3315.2576941420766,1157
3316.9280347609147,1166
3318.5981230088046,1147
3320.2679592121895,1164
3321.9375436975924,1127
3323.606876791612,1139
3325.27595882093,1106
3326.944790112305,1117
3328.6133709925753,1135
3330.2817017886573,1121
3331.949782827547,1110
3333.617614436319,1155
3335.2851969421245,1094
3336.952530672199,1090
3338.619615953853,1153
3340.286453114475,1157
3341.9530424815357,1123
3343.619384382583,1110
3345.2854791452437,1133
3346.951327097224,1134
3348.6169285663073,1165
3350.2822838803577,1097
3351.947393367319,1118
3353.61225735521,1167
3355.2768761721345,1105
3356.9412501462693,1144
3358.605379605873,1136
3360.2692648792827,1156
3361.9329062949146,1145
3363.596304181263,1105
