CollectionTime,9/26/2024 8:13:19 AM
ExposureUsed,3
CalibratedSpectrum
-962.7078968117929,509
-959.9714848408522,534
-957.2358232597828,564
-954.5009119013725,532
-951.7667505983302,559
-949.0333391832855,541
-946.3006774887896,581
-943.5687653473143,580
-940.837602591253,587
-938.1071890529199,570
-935.3775245645503,571
-932.6486089583007,580
-929.9204420662485,628
-927.1930237203925,691
-924.4663537526524,565
-921.7404319948689,548
-919.0152582788041,612
-916.2908324361409,712
-913.5671542984834,636
-910.8442236973568,565
-908.1220404642074,575
-905.4006044304027,577
-902.679915427231,559
-899.959973285902,574
-897.2407778375464,560
-894.5223289132158,556
-891.8046263438832,543
-889.0876699604426,550
-886.3714595937089,537
-883.6559950744183,575
-880.9412762332282,601
-878.2273029007168,596
-875.5140749073835,570
-872.8015920836489,551
-870.0898542598545,606
-867.3788612662631,582
-864.6686129330585,569
-861.9591090903457,569
-859.2503495681506,524
-856.5423341964203,519
-853.8350628050229,540
-851.1285352237478,565
-848.4227512823054,592
-845.7177108103272,583
-843.0134136373656,611
-840.3098595928943,555
-837.6070485063082,624
-834.9049802069229,590
-832.2036545239757,587
-829.5030712866244,629
-826.8032303239481,582
-824.1041314649472,563
-821.4057745385428,563
-818.7081593735775,581
-816.0112857988148,531
-813.3151536429393,562
-810.6197627345566,591
-807.9251129021936,582
-805.2312039742981,617
-802.5380357792392,589
-799.8456081453069,577
-797.1539209007124,577
-794.462973873588,600
-791.772766891987,601
-789.083299783884,565
-786.3945723771743,656
-783.7065844996748,641
-781.0193359791231,612
-778.3328266431781,688
-775.6470563194197,591
-772.9620248353489,603
-770.2777320183878,555
-767.5941776958798,536
-764.9113616950891,563
-762.2292838432011,543
-759.5479439673222,573
-756.8673418944801,630
-754.1874774516235,577
-751.5083504656222,564
-748.8299607632671,616
-746.15230817127,616
-743.475392516264,590
-740.7992136248035,586
-738.1237713233636,553
-735.4490654383407,580
-732.7750957960521,574
-730.1018622227365,579
-727.4293645445534,632
-724.7576025875837,643
-722.0865761778291,604
-719.4162851412126,578
-716.7467293035781,695
-714.0779084906909,723
-711.409822528237,642
-708.7424712418238,626
-706.0758544569796,603
-703.4099719991541,637
-700.7448236937178,640
-698.0804093659622,616
-695.4167288411002,682
-692.7537819442656,668
-690.0915685005134,646
-687.4300883348199,668
-684.7693412720819,671
-682.1093271371178,614
-679.4500457546669,647
-676.7914969493897,617
-674.1336805458676,632
-671.4765963686034,616
-668.8202442420206,626
-666.1646239904642,592
-663.5097354382001,608
-660.8555784094151,616
-658.2021527282176,625
-655.5494582186366,633
-652.8974947046223,650
-650.2462620100463,674
-647.5957599587009,727
-644.9459883742998,674
-642.2969470804776,657
-639.6486359007902,671
-637.0010546587141,598
-634.3542031776476,617
-631.7080812809096,634
-629.0626887917401,692
-626.4180255333008,800
-623.7740913286734,745
-621.1308860008619,648
-618.4884093727904,665
-615.8466612673046,667
-613.2056415071715,678
-610.5653499150785,634
-607.9257863136347,686
-605.28695052537,682
-602.6488423727357,721
-600.0114616781036,799
-597.3748082637674,827
-594.7388819519412,790
-592.1036825647604,755
-589.4692099242818,816
-586.8354638524829,824
-584.2024441712624,796
-581.5701507024403,802
-578.9385832677575,783
-576.3077416888759,749
-573.6776257873787,768
-571.0482353847704,760
-568.4195703024757,793
-565.7916303618415,742
-563.164415384135,684
-560.5379251905453,673
-557.9121596021815,696
-555.2871184400748,703
-552.6628015251767,713
-550.0392086783606,699
-547.4163397204204,747
-544.794194472071,747
-542.1727727539491,735
-539.5520743866118,779
-536.9320991905377,851
-534.3128469861261,852
-531.6943175936979,858
-529.0765108334947,875
-526.4594265256793,1019
-523.8430644903358,1218
-521.2274245474689,1318
-518.612506517005,1409
-515.9983102187913,1462
-513.3848354725959,1703
-510.77208209810846,1837
-508.16004991493924,1906
-505.5487387426199,1786
-502.9381484006032,1652
-500.3282787082628,1404
-497.71912948489364,1290
-495.1107005497117,1067
-492.5029917218539,1072
-489.8960028203786,973
-487.28973366426493,837
-484.68418407241325,861
-482.07935386364494,872
-479.47524285670266,844
-476.87185087025,893
-474.2691777228715,898
-471.66722323307334,867
-469.0659872192821,865
-466.4654694998459,858
-463.86566989303384,831
-461.26658821703614,900
-458.66822428996414,907
-456.07057792985,943
-453.4736489546475,927
-450.877437182231,860
-448.28194243039627,873
-445.68716451686,789
-443.09310325926003,824
-440.49975847515555,841
-437.9071299820263,892
-435.31521759727354,945
-432.72402113821954,1066
-430.13354042210767,938
-427.5437752661022,843
-424.95472548728867,910
-422.36639090267386,953
-419.7787713291855,929
-417.1918665836721,990
-414.60567648290385,1026
-412.0202008435715,1046
-409.4354394822874,1002
-406.8513922155845,1038
-404.26805885991723,1056
-401.685439231661,925
-399.103533147112,928
-396.522340422488,990
-393.9418608739278,918
-391.3620943174908,948
-388.7830405691583,948
-386.2046994448317,879
-383.6270707603344,859
-381.05015433141045,902
-378.473949973725,761
-375.8984575028645,700
-373.32367673433623,718
-370.74960748356875,720
-368.1762495659117,650
-365.60360279663576,730
-363.03166699093265,764
-360.4604419639154,722
-357.8899275306178,599
-355.32012350599507,611
-352.7510297049233,560
-350.1826459421999,584
-347.61497203254316,584
-345.04800779059235,599
-342.4817530309082,624
-339.91620756797226,675
-337.35137121618743,685
-334.7872437898774,696
-332.22382510328725,797
-329.66111497058273,859
-327.09911320585127,685
-324.53781962310075,564
-321.9772340362607,561
-319.4173562591816,649
-316.8581861056348,645
-314.2997233893127,657
-311.7419679238294,717
-309.1849195227194,720
-306.62857799943856,626
-304.0729431673641,743
-301.51801483979375,960
-298.963792829947,809
-296.41027695096386,756
-293.85746701590574,775
-291.3053628377552,795
-288.7539642294155,859
-286.2032710037115,971
-283.65328297338897,920
-281.1039999511146,1128
-278.5554217494762,1454
-276.007548180983,1129
-273.4603790580651,935
-270.9139141930734,994
-268.3681533982807,1022
-265.8230964858798,1052
-263.27874326798565,891
-260.7350935566336,915
-258.1921471637804,1045
-255.6499039013039,1155
-253.10836358100266,969
-250.56752601459698,942
-248.02739101372765,1094
-245.48795838995704,1200
-242.94922795476816,1085
-240.41119951956557,999
-237.8738728956746,889
-235.33724789434166,1105
-232.80132432673452,1086
-230.2661020039418,1026
-227.73158073697357,1052
-225.19776033676033,1249
-222.66464061415422,1325
-220.1322213799284,1108
-217.60050244477725,991
-215.06948361931552,1228
-212.53916471408013,1647
-210.00954553952818,1762
-207.48062590603843,1199
-204.9524056239104,967
-202.4248845033651,1179
-199.8980623545441,1493
-197.37193898751036,1512
-194.84651421224817,1181
-192.32178783866232,1175
-189.79775967657952,1328
-187.27442953574644,1500
-184.7517972258321,1421
-182.2298625564256,1282
-179.7086253370378,1284
-177.18808537710026,1492
-174.66824248596583,1949
-172.14909647290835,2227
-169.6306471471229,1652
-167.11289431772548,1316
-164.59583779375328,1417
-162.07947738416453,1963
-159.5638128978386,2110
-157.04884414357605,2102
-154.53457093009854,1752
-152.02099306604828,1667
-149.50811035998936,1549
-146.99592262040665,1690
-144.48442965570587,2140
-141.97363127421409,2826
-139.46352728417958,2632
-136.95411749377126,2450
-134.44540171107985,2187
-131.93737974411636,1823
-129.43005140081357,2377
-126.92341648902493,3406
-124.41747481652521,4580
-121.91222619101006,4755
-119.40767042009657,4099
-116.90380731132257,3370
-114.40063667214702,2480
-111.8981583099503,2254
-109.3963720320337,3375
-106.89527764561933,5348
-104.39487495785067,8763
-101.89516377579241,10940
-99.39614390642998,10948
-96.89781515667039,10440
-94.40017733334128,10444
-91.90323024319173,9546
-89.40697369289148,10952
-86.91140748903172,14062
-84.41653143812482,18533
-81.92234534660395,19993
-79.42884902082358,16350
-76.93604226705907,12643
-74.4439248915071,15750
-71.95249670028534,26689
-69.46175749943245,41119
-66.97170709490854,50237
-64.48234529259423,47863
-61.99367189829195,37271
-59.50568671772464,26309
-57.01838955653636,24538
-54.53178022029283,22717
-52.045858514480074,20402
-49.560624244506016,18436
-47.07607721569923,15844
-44.59221723330904,14024
-42.10904410250669,16947
-39.62655762838392,20003
-37.14475761595372,28264
-34.66364387015028,28385
-32.18321619582866,36180
-29.70347439776515,47011
-27.224418280657005,54067
-24.74604764912317,65026
-22.26836230770266,65026
-19.7913620608565,65026
-17.315046712966478,65026
-14.83941606833514,65026
-12.36446993118659,65026
-9.89020810566592,65026
-7.416630395839093,65026
-4.94373660569363,65026
-2.471526539137585,65026
-6.821210263296962E-13,65026
2.47084320796705,65026
4.941003281093458,65026
7.410480415786196,65026
9.879274808531363,65026
12.347386655893956,65026
14.814816154518212,65026
17.28156350112681,65026
19.74762889252179,65026
22.21301252558385,25157
24.67771459727237,8034
27.141735304626195,8520
29.605074844762612,8034
32.06773341487792,6717
34.52971121224755,5780
36.99100843422559,6304
39.45162527824516,6085
41.91156194181792,5445
44.370818622535126,4419
46.82939551806646,4251
49.287292826160524,4505
51.74451074464503,4931
54.201049471426245,4880
56.65690920448981,4513
59.112090141899785,4197
61.56659248179983,3526
64.02041642241159,3502
66.4735621620365,4266
68.92602989905402,6021
71.37781983192338,5716
73.82893215918205,4835
76.27936707944684,3436
78.72912479141326,3128
81.17820549385567,3278
83.62660938562783,3280
86.07433666566146,3470
88.5213875329681,2686
90.96776218663751,2606
93.41346082583925,2298
95.85848364982041,2169
98.30283085790859,2842
100.7465026495089,2894
103.18949922410604,2372
105.63182078126385,1997
108.07346752062438,2291
110.51443964190923,1905
112.95473734491827,1817
115.39436082953114,2476
117.83331029570547,2743
120.27158594347827,2209
122.7091879729652,1924
125.1461165843615,2650
127.58237197794062,3095
130.01795435405518,2256
132.4528639131364,2227
134.88710085569494,2847
137.32066538231982,2263
139.75355769367923,1743
142.1857779905207,1774
144.61732647366978,1927
147.04820334403132,1873
149.47840880258934,1704
151.90794305040674,1642
154.33680628862487,1715
156.76499871846443,1691
159.19252054122433,1790
161.61937195828352,1844
164.04555317109896,2160
166.47106438120693,2036
168.89590579022217,2245
171.320077599839,2764
173.7435800118302,3062
176.16641322804742,3169
178.58857745042144,2655
181.01007288096173,2351
183.43089972175687,2580
185.85105817497413,2414
188.27054844285988,2219
190.6893707277394,2460
193.10752523201643,2735
195.5250121581745,2619
197.9418317087751,2284
200.3579840864594,2507
202.7734694939469,2743
205.18828813403627,2513
207.6024402096051,2465
210.01592592360964,2602
212.42874547908548,2448
214.84089907914665,2497
217.2523869269868,2528
219.66320922587727,2492
222.0733661791695,2403
224.48285799029293,2539
226.8916848627572,2673
229.29984700014882,2499
231.7073446061355,2467
234.11417788446204,2517
236.520347038953,2619
238.92585227351185,2683
241.33069379212054,2729
243.73487179884035,2710
246.1383864978112,2582
248.541238093252,2655
250.9434267894609,2671
253.34495279081432,2724
255.74581630176783,2672
258.1460175268563,2931
260.54555667069314,2938
262.9444339379703,2940
265.3426495334594,2789
267.7402036620107,2730
270.1370965285529,2710
272.53332833809407,2434
274.9288992957214,2414
277.32380960660055,2383
279.718059475976,2300
282.1116491091717,2250
284.5045787115897,2161
286.89684848871195,2340
289.2884586460981,2331
291.67940938938807,2337
294.0697009242996,2364
296.4593334566299,2474
298.84830719225477,2554
301.23662233712923,2327
303.6242790972866,2278
306.01127767884,2292
308.39761828798066,2166
310.78330113097934,2094
313.16832641418534,2109
315.5526943440269,2107
317.9364051270112,2180
320.3194589697242,2084
322.70185607883093,2026
325.0835966610754,2013
327.4646809232805,2040
329.8451090723478,2036
332.2248813152577,1985
334.6039978590701,2020
336.9824589109231,1888
339.36026467803447,1883
341.7374153677,1983
344.113911187295,2002
346.48975234427337,2101
348.8649390461686,1962
351.2394715005918,1921
353.61334991523415,1940
355.9865744978655,1836
358.35914545633375,1903
360.73106299856715,1893
363.10232733257146,1947
365.47293866643247,1983
367.84289720831396,1870
370.2122031664593,1894
372.5808567491905,1864
374.9488581649083,1747
377.31620762209275,1710
379.6829053293021,1783
382.0489514951745,1833
384.4143463284262,1894
386.7790900378528,1813
389.14318283232853,1892
391.50662492080653,1907
393.86941651231916,1838
396.23155781597745,1883
398.5930490409713,1782
400.9538903965696,1814
403.3140820921202,1869
405.6736243370498,1801
408.03251734086336,1862
410.3907613131465,1855
412.74835646356166,1802
415.10530300185144,1765
417.4616011378372,1763
419.81725108141893,1742
422.1722530425758,1721
424.5266072313656,1687
426.880313857925,1701
429.2333731324701,1726
431.58578526529516,1692
433.9375504667738,1695
436.2886689473588,1710
438.63914091758113,1666
440.9889665880513,1602
443.33814616945835,1628
445.68667987257015,1641
448.03456790823395,1674
450.3818104873759,1653
452.72840782100013,1719
455.07436012019105,1635
457.41966759611057,1663
459.7643304600007,1630
462.10834892318155,1658
464.4517231970525,1650
466.79445349309174,1627
469.1365400228566,1695
471.4779829979826,1775
473.81878263018564,1704
476.15893913125876,1764
478.4984527130747,1947
480.8373235875855,1838
483.17555196682144,1817
485.5131380628919,1792
487.8500820879857,1851
490.1863842543697,1887
492.52204477439034,2106
494.8570638604725,2251
497.1914417251204,2616
499.52517858091653,2861
501.85827464052306,3375
504.19073011668036,3707
506.5225452222086,3844
508.85372017000566,3967
511.18425517304956,4384
513.514150444396,5681
515.8434061971808,7240
518.1720226446176,7456
520.4999999999999,7027
522.8273384766991,6485
525.1540382881666,5662
527.480099647932,4464
529.8055227696037,3239
532.1303078668694,2377
534.454455153496,2165
536.777964843328,1934
539.1008371502907,1957
541.4230722883866,1784
543.744670471698,1772
546.0656319143858,1823
548.3859568306899,1839
550.7056454349294,1775
553.0246979415016,1805
555.3431145648834,1764
557.6608955196306,1734
559.978041020377,1782
562.2945512818363,1790
564.6104265188006,1729
566.9256669461412,1704
569.2402727788082,1791
571.5542442318302,1811
573.8675815203156,1706
576.1802848594508,1706
578.4923544645015,1644
580.8037905508126,1671
583.114593333807,1681
585.4247630289875,1660
587.7342998519354,1715
590.0432040183106,1720
592.3514757438526,1640
594.6591152443794,1726
596.9661227357875,1852
599.2724984340531,1652
601.578242555231,1636
603.8833553154542,1661
606.1878369309362,1755
608.4916876179676,1743
610.7949075929192,1753
613.0974970722403,1715
615.3994562724587,1656
617.7007854101818,1646
620.0014847020951,1645
622.3015543649641,1714
624.6009946156324,1647
626.8998056710224,1646
629.1979877481361,1656
631.4955410640538,1688
633.7924658359349,1651
636.0887622810175,1701
638.3844306166192,1674
640.6794710601358,1686
642.9738838290426,1670
645.2676691408932,1701
647.5608272133207,1754
649.853358264037,1814
652.1452625108324,1804
654.4365401715764,1760
656.7271914642178,1803
659.0172166067838,1810
661.3066158173809,1666
663.5953893141935,1655
665.8835373154867,1723
668.1710600396028,1784
670.4579577049639,1759
672.7442305300709,1711
675.0298787335033,1712
677.3149025339197,1706
679.599302150058,1768
681.8830778007342,1753
684.1662297048437,1828
686.4487580813608,1688
688.7306631493387,1718
691.0119451279091,1748
693.2926042362834,1724
695.5726406937516,1691
697.8520547196814,1677
700.1308465335215,1704
702.4090163547982,1650
704.6865644031171,1682
706.9634908981619,1709
709.2397960596965,1719
711.5154801075631,1735
713.7905432616823,1829
716.0649857420548,1754
718.3388077687592,1728
720.612009561953,1649
722.8845913418733,1713
725.1565533288352,1678
727.427895743234,1685
729.6986188055427,1681
731.9687227363137,1765
734.238207756178,1776
736.5070740858458,1733
738.7753219461066,1680
741.0429515578281,1729
743.3099631419569,1661
745.5763569195191,1666
747.8421331116193,1716
750.1072919394409,1657
752.3718336242467,1679
754.6357583873777,1718
756.8990664502545,1771
759.1617580343765,1714
761.423833361321,1656
763.6852926527457,1745
765.9461361303862,1703
768.206364016058,1698
770.4659765316536,1793
772.7249738991469,1750
774.9833563405886,1778
777.2411240781092,1700
779.4982773339183,1714
781.7548163303044,1758
784.010741289634,1679
786.2660524343538,1831
788.5207499869881,1853
790.7748341701416,1846
793.0283052064964,1826
795.2811633188143,1712
797.5334087299362,1742
799.7850416627813,1781
802.0360623403484,1790
804.2864709857143,1742
806.5362678220353,1757
808.7854530725468,1734
811.0340269605625,1817
813.2819897094754,1742
815.5293415427581,1754
817.77608268396,1769
820.0222133567116,1800
822.2677337847211,1744
824.5126441917765,1786
826.7569448017433,1773
829.0006358385675,1723
831.2437175262731,1766
833.4861900889629,1728
835.7280537508192,1711
837.9693087361026,1662
840.2099552691533,1651
842.4499935743896,1706
844.689423876309,1682
846.9282463994886,1700
849.1664613685833,1644
851.4040690083276,1701
853.6410695435349,1671
855.877463199097,1707
858.1132501999847,1684
860.3484307712487,1757
862.5830051380175,1716
864.8169735254988,1691
867.0503361589791,1759
869.2830932638243,1711
871.5152450654786,1749
873.7467917894654,1732
875.9777336613873,1729
878.2080709069252,1763
880.4378037518389,1739
882.666932421968,1825
884.8954571432301,1707
887.1233781416219,1807
889.3506956432192,1738
891.5774098741766,1711
893.803521060728,1778
896.0290294291852,1720
898.2539352059397,1690
900.4782386174619,1760
902.7019398903011,1767
904.925039251085,1744
907.147536926521,1705
909.3694331433943,1731
911.59072812857,1827
913.8114221089921,1734
916.0315153116827,1738
918.2510079637437,1681
920.4699002923547,1703
922.6881925247761,1795
924.905884888345,1748
927.1229776104793,1677
929.3394709186747,1785
931.555365040506,1722
933.7706602036275,1761
935.9853566357709,1832
938.1994545647489,1802
940.4129542184515,1798
942.6258558248488,1847
944.8381596119883,1818
947.0498658079974,1815
949.2609746410825,1789
951.4714863395287,1795
953.6814011316998,1790
955.8907192460387,1784
958.0994409110671,1821
960.3075663553858,1805
962.5150958076741,1817
964.7220294966913,1887
966.928367651274,1787
969.1341105003388,1828
971.3392582728806,1771
973.5438111979742,1734
975.747769504772,1769
977.9511334225061,1682
980.153903180487,1742
982.3560790081052,1678
984.5576611348289,1719
986.7586497902058,1731
988.9590452038618,1682
991.158847605503,1706
993.3580572249133,1664
995.5566742919558,1551
997.7546990365728,1613
999.952131688785,1501
1002.1489724786926,1533
1004.3452216364743,1539
1006.5408793923874,1461
1008.7359459767691,1433
1010.9304216200343,1453
1013.1243065526781,1444
1015.3176010052733,1503
1017.510305208472,1406
1019.7024193930064,1469
1021.8939437896848,1471
1024.0848786293977,1452
1026.2752241431122,1403
1028.4649805618747,1409
1030.6541481168115,1454
1032.842727039127,1389
1035.0307175601051,1366
1037.2181199111074,1392
1039.4049343235752,1395
1041.591161029029,1416
1043.7768002590683,1409
1045.9618522453698,1401
1048.1463172196918,1326
1050.3301954138697,1490
1052.513487059818,1310
1054.69619238953,1336
1056.8783116350783,1415
1059.0598450286152,1392
1061.2407928023704,1397
1063.4211551886528,1380
1065.6009324198508,1348
1067.780124728432,1282
1069.9587323469414,1321
1072.1367555080046,1347
1074.314194444325,1333
1076.4910493886855,1325
1078.667320573947,1338
1080.843008233051,1325
1083.0181125990161,1289
1085.1926339049414,1344
1087.3665723840027,1303
1089.5399282694575,1293
1091.7127017946405,1284
1093.8848931929647,1245
1096.0565026979243,1291
1098.2275305430899,1347
1100.3979769621128,1295
1102.567842188722,1323
1104.737126456726,1333
1106.9058300000124,1344
1109.0739530525475,1299
1111.2414958483764,1256
1113.4084586216231,1312
1115.5748416064907,1293
1117.7406450372605,1319
1119.9058691482942,1335
1122.0705141740304,1311
1124.2345803489884,1334
1126.3980679077658,1317
1128.5609770850388,1298
1130.7233081155623,1288
1132.8850612341707,1300
1135.0462366757774,1329
1137.2068346753745,1347
1139.3668554680326,1250
1141.526299288901,1265
1143.68516637321,1274
1145.8434569562655,1272
1148.001171273455,1292
1150.158309560244,1289
1152.3148720521767,1306
1154.470858984876,1306
1156.626270594044,1313
1158.7811071154629,1295
1160.9353687849912,1269
1163.089055838569,1345
1165.242168512213,1349
1167.3947070420209,1262
1169.5466716641677,1335
1171.6980626149075,1326
1173.8488801305748,1275
1175.9991244475814,1310
1178.1487958024186,1349
1180.2978944316555,1348
1182.4464205719428,1301
1184.5943744600072,1306
1186.7417563326567,1279
1188.8885664267755,1294
1191.0348049793297,1264
1193.1804722273619,1233
1195.325568407995,1343
1197.4700937584303,1274
1199.614048515948,1278
1201.7574329179074,1231
1203.900247201746,1310
1206.042491604982,1271
1208.1841663652099,1301
1210.3252717201053,1279
1212.465807907422,1353
1214.6057751649923,1325
1216.7451737307279,1281
1218.8840038426192,1408
1221.0222657387353,1358
1223.1599596572241,1361
1225.2970858363137,1307
1227.4336445143094,1368
1229.5696359295966,1293
1231.705060320639,1319
1233.8399179259786,1298
1235.9742089842384,1367
1238.107933734118,1301
1240.2410924143974,1315
1242.373685263935,1346
1244.5057125216676,1326
1246.6371744266116,1367
1248.7680712178621,1388
1250.898403134593,1349
1253.028170416058,1324
1255.1573733015875,1315
1257.2860120305932,1320
1259.4140868425648,1383
1261.54159797707,1322
1263.6685456737569,1341
1265.7949301723515,1334
1267.9207517126597,1395
1270.046010534565,1433
1272.1707068780306,1417
1274.2948409830983,1366
1276.4184130898889,1437
1278.541423438603,1466
1280.6638722695184,1488
1282.785759822993,1398
1284.9070863394636,1465
1287.0278520594447,1456
1289.1480572235314,1480
1291.2677020723963,1465
1293.3867868467923,1502
1295.5053117875495,1488
1297.623277135579,1470
1299.740683131868,1513
1301.8575300174857,1512
1303.973818033578,1498
1306.0895474213703,1531
1308.2047184221678,1535
1310.3193312773528,1525
1312.4333862283888,1549
1314.5468835168163,1577
1316.659823384255,1497
1318.7722060724045,1572
1320.8840318230418,1510
1322.9953008780249,1550
1325.1060134792888,1590
1327.2161698688478,1557
1329.3257702887959,1622
1331.4348149813054,1599
1333.5433041886276,1519
1335.6512381530933,1514
1337.7586171171101,1554
1339.8654413231675,1561
1341.9717110138317,1529
1344.0774264317488,1549
1346.1825878196432,1582
1348.2871954203192,1517
1350.3912494766587,1521
1352.4947502316231,1507
1354.5976979282532,1539
1356.7000928096686,1477
1358.8019351190665,1478
1360.9032250997243,1480
1363.0039629949988,1454
1365.1041490483235,1425
1367.2037835032133,1432
1369.3028666032606,1430
1371.401398592137,1456
1373.4993797135926,1463
1375.5968102114575,1451
1377.6936903296396,1444
1379.7900203121262,1453
1381.8858004029835,1406
1383.9810308463561,1430
1386.075711886469,1362
1388.1698437676241,1420
1390.2634267342032,1449
1392.356461030667,1463
1394.4489469015557,1459
1396.5408845914872,1446
1398.6322743451592,1393
1400.7231164073469,1433
1402.813411022907,1454
1404.903158436773,1458
1406.9923588939578,1516
1409.0810126395531,1567
1411.1691199187303,1484
1413.2566809767386,1412
1415.343696058907,1410
1417.4301654106425,1459
1419.5160892774315,1435
1421.6014679048399,1476
1423.6863015385125,1472
1425.7705904241707,1455
1427.8543348076178,1405
1429.9375349347342,1475
1432.0201910514802,1475
1434.102303403894,1467
1436.1838722380944,1468
1438.2648978002767,1450
1440.3453803367174,1431
1442.4253200937692,1577
1444.5047173178677,1541
1446.5835722555234,1522
1448.6618851533285,1557
1450.739656257952,1538
1452.8168858161434,1545
1454.8935740747306,1589
1456.96972128062,1577
1459.045327680797,1632
1461.120393522327,1551
1463.1949190523528,1595
1465.2689045180973,1548
1467.3423501668608,1641
1469.415256246024,1636
1471.4876230030463,1600
1473.559450685465,1693
1475.6307395408976,1669
1477.7014898170391,1688
1479.771701761665,1715
1481.8413756226287,1689
1483.9105116478618,1678
1485.9791100853772,1731
1488.0471711832643,1769
1490.1146951896926,1757
1492.1816823529098,1745
1494.2481329212433,1770
1496.3140471430984,1750
1498.3794252669609,1804
1500.4442675413939,1778
1502.5085742150404,1801
1504.572345536622,1855
1506.6355817549388,1806
1508.6982831188702,1793
1510.7604498773744,1828
1512.8220822794883,1893
1514.8831805743293,1813
1516.9437450110909,1867
1519.003775839048,1867
1521.0632733075522,1896
1523.1222376660367,1831
1525.1806691640113,1876
1527.2385680510652,1941
1529.2959345768668,1878
1531.3527689911643,1905
1533.4090715437833,1980
1535.4648424846291,1938
1537.5200820636855,1984
1539.5747905310159,2047
1541.6289681367616,1988
1543.6826151311434,2101
1545.7357317644614,2081
1547.7883182870937,2069
1549.8403749494987,2226
1551.8919020022113,2211
1553.9428996958477,2185
1555.9933682811015,2267
1558.0433080087469,2278
1560.0927191296346,2289
1562.1416018946961,2318
1564.1899565549415,2332
1566.2377833614592,2326
1568.2850825654164,2514
1570.3318544180606,2358
1572.3780991707158,2278
1574.423817074788,2267
1576.4690083817595,2180
1578.5136733431923,2124
1580.5578122107272,2111
1582.601425236085,2016
1584.6445126710646,1979
1586.6870747675434,1912
1588.7291117774776,1858
1590.7706239529034,1924
1592.8116115459347,1921
1594.8520748087658,1767
1596.8920139936686,1810
1598.9314293529933,1746
1600.9703211391711,1696
1603.008689604711,1655
1605.0465350022005,1591
1607.0838575843068,1660
1609.1206576037753,1640
1611.1569353134305,1560
1613.1926909661765,1541
1615.2279248149953,1502
1617.2626371129481,1517
1619.2968281131757,1514
1621.3304980688963,1464
1623.3636472334088,1367
1625.39627586009,1424
1627.428384202396,1382
1629.459972513861,1424
1631.4910410480993,1416
1633.5215900588028,1389
1635.551619799744,1431
1637.5811305247717,1361
1639.6101224878166,1287
1641.6385959428862,1355
1643.6665511440683,1376
1645.693988345528,1289
1647.7209078015112,1326
1649.7473097663405,1377
1651.7731944944203,1382
1653.7985622402307,1441
1655.823413258333,1334
1657.847747803366,1354
1659.8715661300494,1311
1661.8948684931793,1304
1663.9176551476316,1336
1665.9399263483624,1326
1667.9616823504057,1342
1669.982923408873,1288
1672.0036497789574,1294
1674.0238617159293,1390
1676.043559475138,1302
1678.0627433120121,1299
1680.081413482059,1274
1682.0995702408654,1263
1684.117213844096,1280
1686.134344547495,1241
1688.1509626068864,1323
1690.1670682781705,1268
1692.182661817329,1291
1694.1977434804217,1283
1696.2123135235875,1322
1698.226372203043,1275
1700.2399197750851,1358
1702.2529564960905,1329
1704.2654826225112,1301
1706.277498410882,1246
1708.2890041178139,1266
1710.2999999999988,1274
1712.3104863142066,1290
1714.3204633172854,1272
1716.329931266163,1261
1718.3388904178469,1266
1720.3473410294214,1259
1722.3552833580516,1268
1724.3627176609807,1267
1726.3696441955308,1317
1728.3760632191033,1279
1730.3819749891782,1275
1732.3873797633146,1284
1734.3922777991502,1257
1736.3966693544012,1236
1738.4005546868639,1226
1740.4039340544127,1241
1742.406807715001,1295
1744.4091759266616,1265
1746.4110389475054,1189
1748.4123970357223,1284
1750.413250449582,1267
1752.4135994474318,1256
1754.4134442876993,1230
1756.4127852288902,1262
1758.4116225295893,1254
1760.4099564484595,1277
1762.407787244244,1282
1764.405115175764,1242
1766.4019405019203,1231
1768.3982634816916,1271
1770.3940843741357,1311
1772.3894034383907,1302
1774.3842209336717,1220
1776.378537119274,1239
1778.372352254571,1226
1780.3656665990156,1255
1782.3584804121397,1254
1784.3507939535534,1265
1786.3426074829463,1273
1788.3339212600863,1244
1790.3247355448211,1234
1792.3150505970766,1219
1794.3048666768573,1184
1796.2941840442477,1189
1798.2830029594106,1224
1800.2713236825884,1211
1802.2591464741004,1245
1804.2464715943465,1194
1806.2332993038058,1297
1808.2196298630352,1236
1810.2054635326708,1237
1812.190800573428,1206
1814.175641246101,1268
1816.1599858115628,1235
1818.1438345307652,1158
1820.127187664738,1221
1822.1100454745924,1266
1824.092408221516,1223
1826.0742761667766,1234
1828.055649571721,1273
1830.0365286977735,1235
1832.0169138064398,1210
1833.9968051593014,1244
1835.9762030180214,1254
1837.9551076443408,1281
1839.9335193000788,1272
1841.9114382471344,1263
1843.888864747485,1210
1845.8657990631878,1243
1847.842241456378,1271
1849.8181921892697,1291
1851.7936515241558,1246
1853.7686197234098,1288
1855.7430970494815,1183
1857.7170837649014,1212
1859.6905801322787,1236
1861.6635864143004,1258
1863.6361028737338,1245
1865.608129773424,1263
1867.5796673762961,1221
1869.5507159453537,1219
1871.521275743678,1175
1873.4913470344313,1180
1875.4609300808534,1244
1877.4300251462632,1263
1879.3986324940588,1198
1881.366752387717,1227
1883.3343850907936,1246
1885.3015308669228,1260
1887.268189979819,1267
1889.2343626932739,1316
1891.2000492711595,1253
1893.1652499774254,1243
1895.1299650761011,1246
1897.0941948312952,1227
1899.0579395071945,1199
1901.0211993680641,1207
1902.98397467825,1230
1904.9462657021745,1300
1906.9080727043415,1261
1908.869395949332,1317
1910.8302357018065,1268
1912.790592226504,1230
1914.7504657882428,1244
1916.7098566519212,1206
1918.6687650825133,1266
1920.6271913450764,1232
1922.5851357047422,1237
1924.5425984267245,1250
1926.499579776314,1227
1928.4560800188833,1266
1930.4120994198802,1306
1932.367638244833,1293
1934.32269675935,1279
1936.2772752291175,1324
1938.231373919899,1262
1940.1849930975404,1272
1942.1381330279637,1276
1944.0907939771696,1247
1946.0429762112412,1265
1947.9946799963363,1204
1949.9459055986945,1274
1951.896653284633,1305
1953.8469233205478,1201
1955.7967159729142,1222
1957.7460315082863,1228
1959.6948701932974,1210
1961.6432322946594,1174
1963.5911180791632,1215
1965.5385278136787,1190
1967.4854617651545,1229
1969.4319202006182,1304
1971.377903387176,1190
1973.3234115920136,1298
1975.268445082395,1230
1977.2130041256642,1248
1979.1570889892423,1186
1981.1006999406304,1202
1983.04383724741,1247
1984.986501177238,1252
1986.928691997853,1222
1988.8704099770712,1269
1990.811655382789,1268
1992.7524284829801,1200
1994.692729545698,1200
1996.6325588390755,1151
1998.5719166313224,1189
2000.5108031907307,1155
2002.4492187856677,1198
2004.387163684583,1219
2006.3246381560011,1295
2008.2616424685298,1239
2010.1981768908527,1206
2012.1342416917332,1236
2014.069837140014,1180
2016.0049635046162,1240
2017.9396210545406,1220
2019.8738100588666,1183
2021.8075307867502,1215
2023.740783507431,1186
2025.6735684902228,1178
2027.6058860045214,1168
2029.5377363198004,1214
2031.4691197056118,1209
2033.4000364315875,1234
2035.3304867674374,1215
2037.260470982952,1206
2039.189989347998,1210
2041.1190421325232,1224
2043.047629606554,1178
2044.9757520401945,1177
2046.9034097036288,1237
2048.8306028671195,1254
2050.7573318010086,1218
2052.683596775716,1178
2054.609398061742,1206
2056.5347359296647,1182
2058.4596106501403,1210
2060.384022493906,1230
2062.3079717317764,1253
2064.231458634646,1101
2066.1544834734873,1157
2068.077046519352,1172
2069.99914804337,1203
2071.9207883167524,1166
2073.8419676107865,1182
2075.7626861968406,1131
2077.6829443463607,1202
2079.6027423308715,1206
2081.522080421977,1150
2083.440958891362,1207
2085.359378010786,1221
2087.2773380520907,1144
2089.194839287196,1214
2091.111881988101,1203
2093.0284664268825,1208
2094.9445928756973,1186
2096.86026160678,1186
2098.775472892446,1182
2100.690227005088,1150
2102.604524217178,1211
2104.5183648012676,1245
2106.431749029985,1213
2108.34467717604,1169
2110.2571495122206,1161
2112.169166311393,1152
2114.080727846503,1215
2115.9918343905747,1198
2117.902486216711,1201
2119.8126835980956,1220
2121.722426807987,1159
2123.6317161197285,1195
2125.5405518067364,1191
2127.448934142509,1267
2129.356863400624,1247
2131.264339854737,1195
2133.1713637785815,1238
2135.077935445972,1214
2136.9840551308002,1224
2138.889723107037,1211
2140.7949396487334,1196
2142.699705030018,1171
2144.6040195250994,1215
2146.507883408264,1251
2148.4112969538774,1209
2150.3142604363848,1225
2152.2167741303097,1218
2154.1188383102535,1157
2156.0204532508997,1198
2157.9216192270064,1167
2159.822336513414,1226
2161.7226053850413,1202
2163.622426116884,1250
2165.5217989840185,1186
2167.4207242616,1253
2169.319202224862,1197
2171.2172331491165,1249
2173.1148173097563,1149
2175.0119549822507,1242
2176.90864644215,1220
2178.8048919650823,1171
2180.7006918267534,1210
2182.596046302952,1211
2184.4909556695407,1208
2186.3854202024645,1214
2188.279440177746,1247
2190.173015871487,1218
2192.066147559868,1215
2193.958835519149,1195
2195.851080025667,1183
2197.7428813558417,1210
2199.6342397861667,1162
2201.5251555932186,1224
2203.415629053651,1262
2205.3056604441986,1218
2207.19525004167,1285
2209.084398122958,1264
2210.9731049650327,1267
2212.861370844941,1246
2214.749196039812,1219
2216.636580826851,1251
2218.523525483344,1308
2220.410030286655,1271
2222.296095514226,1267
2224.1817214435805,1291
2226.066908352319,1186
2227.951656518121,1251
2229.835966218746,1228
2231.71983773203,1227
2233.6032713358913,1230
2235.486267308324,1260
2237.3688259274036,1212
2239.2509474712824,1209
2241.132632218193,1218
2243.013880446447,1219
2244.8946924344323,1259
2246.7750684606203,1309
2248.6550088035574,1223
2250.534513741871,1243
2252.413583554265,1279
2254.292218519526,1249
2256.170418916517,1232
2258.0481850241786,1240
2259.925517121534,1244
2261.8024154876825,1248
2263.678880401803,1267
2265.5549121431536,1268
2267.430510991071,1225
2269.305677224971,1261
2271.180411124348,1209
2273.0547129687766,1240
2274.9285830379076,1194
2276.8020216114737,1188
2278.6750289692845,1203
2280.5476053912294,1217
2282.4197511572766,1241
2284.2914665474727,1261
2286.162751841943,1252
2288.0336073208937,1282
2289.904033264608,1237
2291.774029953448,1222
2293.6435976678554,1204
2295.5127366883517,1256
2297.381447295534,1222
2299.2497297700825,1172
2301.1175843927526,1126
2302.9850114443825,1131
2304.852011205885,1129
2306.7185839582553,1155
2308.5847299825664,1120
2310.4504495599676,1110
2312.3157429716925,1128
2314.1806104990483,1112
2316.0450524234247,1106
2317.9090690262888,1126
2319.772660589186,1150
2321.635827393742,1145
2323.498569721661,1078
2325.3608878547248,1124
2327.2227820747967,1114
2329.0842526638157,1082
2330.945299903803,1148
2332.805924076857,1087
2334.6661254651535,1061
2336.525904350951,1116
2338.3852610165827,1095
2340.244195744464,1121
2342.102708817088,1143
2343.9608005170253,1099
2345.8184711269287,1103
2347.675720929526,1142
2349.532550207628,1104
2351.38895924412,1109
2353.24494832197,1117
2355.100517724223,1137
2356.955667734004,1121
2358.810398634514,1108
2360.664710709037,1098
2362.5186042409337,1131
2364.3720795136437,1125
2366.225136810686,1142
2368.0777764156583,1174
2369.929998612237,1118
2371.7818036841777,1066
2373.633191915315,1129
2375.484163589562,1182
2377.3347189909114,1138
2379.184858403434,1105
2381.03458211128,1139
2382.8838903986775,1146
2384.732783549936,1144
2386.5812618494406,1157
2388.4293255816588,1173
2390.2769750311327,1124
2392.1242104824883,1094
2393.971032220427,1199
2395.8174405297295,1119
2397.6634356952563,1087
2399.509018001947,1123
2401.3541877348193,1103
2403.1989451789705,1144
2405.043290619576,1148
2406.8872243418905,1161
2408.730746631247,1071
2410.5738577730594,1153
2412.4165580528183,1085
2414.258847756095,1125
2416.100727168537,1135
2417.9421965758734,1206
2419.783256263912,1123
2421.623906518538,1155
2423.4641476257157,1141
2425.303979871491,1116
2427.143403541984,1151
2428.9824189233977,1123
2430.821026302012,1091
2432.6592259641866,1150
2434.497018196361,1096
2436.33440328505,1138
2438.171381516851,1117
2440.00795317844,1151
2441.844118556569,1139
2443.6798779380724,1066
2445.5152316098606,1110
2447.3501798589255,1111
2449.1847229723357,1130
2451.0188612372403,1174
2452.8525949408663,1147
2454.6859243705203,1142
2456.518849813587,1211
2458.3513715575314,1106
2460.183489889895,1152
2462.015205098301,1189
2463.8465174704493,1182
2465.67742729412,1195
2467.5079348571717,1116
2469.338040447542,1191
2471.1677443532476,1104
2472.9970468623833,1075
2474.825948263123,1110
2476.6544488437207,1104
2478.482548892508,1141
2480.310248697896,1136
2482.137548548374,1142
2483.9644487325118,1130
2485.790949538956,1155
2487.617051256433,1116
2489.44275417375,1141
2491.26805857979,1159
2493.0929647635157,1100
2494.917473013971,1121
2496.741583620276,1135
2498.5652968716304,1166
2500.3886130573137,1157
2502.2115324666834,1170
2504.0340553891765,1154
2505.856182114308,1173
2507.6779129316733,1222
2509.499248130945,1150
2511.3201880018764,1222
2513.140732834298,1155
2514.9608829181198,1193
2516.780638543331,1174
2518.6,1115
2520.418967578273,1152
2522.237541568376,1137
2524.0557222606144,1181
2525.8735099453706,1243
2527.6909049131086,1191
2529.507907454368,1201
2531.32451785977,1169
2533.140736420014,1174
2534.9565634258774,1222
2536.771999168218,1175
2538.5870439379714,1214
2540.4016980261526,1164
2542.2159617238544,1219
2544.02983532225,1235
2545.8433191125914,1255
2547.656413386209,1218
2549.4691184345115,1271
2551.2814345489874,1247
2553.093362021204,1275
2554.904901142808,1263
2556.716052205523,1214
2558.526815501153,1277
2560.3371913215824,1270
2562.147179958771,1214
2563.956781704761,1258
2565.7659968516705,1306
2567.5748256916986,1252
2569.3832685171224,1308
2571.1913256202984,1273
2572.9989972936614,1296
2574.806283829725,1286
2576.613185521084,1239
2578.4197026604074,1257
2580.2258355404483,1341
2582.031584454035,1242
2583.836949694077,1307
2585.6419315535613,1308
2587.4465303255533,1320
2589.2507463032002,1294
2591.0545797797245,1257
2592.8580310484303,1288
2594.6611004026995,1274
2596.463788135992,1319
2598.266094541849,1347
2600.0680199138874,1326
2601.869564545807,1314
2603.670728731383,1275
2605.4715127644704,1303
2607.2719169390048,1319
2609.071941548998,1350
2610.8715868885433,1307
2612.670853251811,1287
2614.469740933052,1318
2616.268250226594,1316
2618.0663814268455,1356
2619.864134828292,1250
2621.6615107255006,1362
2623.458509413115,1266
2625.2551311858597,1338
2627.0513763385347,1322
2628.8472451660223,1325
2630.6427379632833,1254
2632.4378550253564,1330
2634.232596647359,1306
2636.026963124488,1310
2637.8209547520187,1279
2639.6145718253065,1245
2641.407814639785,1308
2643.200683490966,1256
2644.9931786744414,1243
2646.7853004858807,1246
2648.577049221034,1283
2650.3684251757277,1213
2652.1594286458712,1221
2653.9500599274484,1194
2655.740319316525,1267
2657.5302071092437,1229
2659.3197236018286,1193
2661.10886909058,1225
2662.8976438718782,1216
2664.686048242183,1204
2666.4740824980327,1217
2668.2617469360443,1213
2670.0490418529134,1174
2671.8359675454153,1163
2673.622524310403,1182
2675.408712444811,1172
2677.1945322456495,1162
2678.979984010009,1169
2680.76506803506,1204
2682.5497846180497,1195
2684.334134056306,1184
2686.1181166472343,1094
2687.9017326883213,1177
2689.6849824771293,1120
2691.4678663113013,1157
2693.2503844885596,1173
2695.032537306705,1138
2696.8143250636167,1156
2698.5957480572542,1180
2700.3768065856534,1134
2702.1575009469316,1143
2703.937831439283,1112
2705.717798360982,1149
2707.4974020103837,1120
2709.276642685917,1092
2711.055520686095,1137
2712.834036309506,1172
2714.612189854819,1102
2716.389981620782,1106
2718.1674119062204,1109
2719.944481010041,1116
2721.721189231226,1119
2723.4975368688415,1097
2725.273524222027,1099
2727.0491515900053,1111
2728.824419272075,1075
2730.5993275676146,1150
2732.3738767760838,1136
2734.148067197016,1110
2735.921899130031,1092
2737.6953728748194,1094
2739.468488731156,1102
2741.2412469988926,1082
2743.0136479779617,1124
2744.785691968372,1154
2746.5573792702116,1136
2748.3287101836504,1094
2750.099685008934,1041
2751.870304046388,1071
2753.640567596418,1111
2755.4104759595057,1113
2757.1800294362156,1069
2758.949228327187,1154
2760.7180729331412,1141
2762.486563554877,1084
2764.254700493272,1074
2766.022484049284,1098
2767.789914523947,1095
2769.5569922183786,1086
2771.3237174337705,1071
2773.090090471394,1100
2774.8561116326036,1113
2776.6217812188274,1144
2778.3870995315756,1142
2780.1520668724356,1066
2781.9166835430747,1082
2783.6809498452394,1081
2785.444866080754,1077
2787.2084325515225,1084
2788.971649559527,1126
2790.73451740683,1090
2792.4970363955713,1073
2794.2592068279705,1098
2796.0210290063264,1100
2797.7825032330147,1126
2799.543629810493,1116
2801.304409041296,1140
2803.0648412280366,1095
2804.8249266734088,1104
2806.5846656801846,1113
2808.344058551212,1066
2810.1031055894246,1118
2811.8618070978273,1064
2813.6201633795085,1129
2815.378174737636,1110
2817.1358414754536,1085
2818.893163896285,1075
2820.6501423035334,1109
2822.4067770006814,1125
2824.1630682912883,1120
2825.9190164789957,1085
2827.6746218675207,1111
2829.429884760661,1087
2831.184805462294,1148
2832.9393842763743,1130
2834.693621506936,1089
2836.4475174580916,1100
2838.201072434034,1058
2839.954286739034,1102
2841.707160677441,1055
2843.459694553685,1090
2845.2118886722724,1053
2846.96374333779,1097
2848.7152588549034,1062
2850.4664355283567,1091
2852.217273662973,1098
2853.9677735636546,1110
2855.7179355353833,1013
2857.4677598832186,1107
2859.217246912299,1050
2860.9663969278427,1097
2862.715210235146,1121
2864.4636871395846,1136
2866.211827946614,1083
2867.9596329617652,1092
2869.7071024906536,1069
2871.4542368389684,1089
2873.20103631248,1063
2874.947501217038,1099
2876.6936318585695,1097
2878.4394285430812,1131
2880.1848915766604,1117
2881.9300212654707,1141
2883.6748179157553,1081
2885.4192818338374,1132
2887.1634133261173,1055
2888.907212699077,1112
2890.6506802592744,1071
2892.393816313348,1089
2894.1366211680142,1063
2895.8790951300693,1104
2897.621238506388,1082
2899.363051603925,1094
2901.1045347297118,1074
2902.8456881908596,1106
2904.58651229456,1073
2906.327007348081,1066
2908.067173658772,1064
2909.8070115340597,1054
2911.5465212814497,1087
2913.285703208527,1055
2915.0245576229563,1060
2916.7630848324807,1127
2918.5012851449196,1088
2920.2391588681758,1117
2921.976706310227,1083
2923.7139277791334,1092
2925.4508235830313,1077
2927.187394030137,1095
2928.923639428745,1091
2930.6595600872306,1122
2932.395156314046,1044
2934.1304284177218,1051
2935.8653767068713,1102
2937.6000014901815,1103
2939.3343030764227,1103
2941.068281774442,1074
2942.8019378931644,1090
2944.5352717415976,1085
2946.2682836288236,1059
2948.0009738640065,1095
2949.7333427563885,1073
2951.465390615289,1086
2953.1971177501086,1103
2954.9285244703265,1064
2956.6596110855,1117
2958.3903779052657,1105
2960.1208252393385,1054
2961.8509533975125,1047
2963.5807626896617,1076
2965.3102534257378,1031
2967.0394259157715,1072
2968.768280469873,1061
2970.496817398232,1084
2972.2250370111146,1054
2973.952939618869,1081
2975.6805255319196,1060
2977.4077950607707,1075
2979.134748516006,1127
2980.861386208289,1070
2982.587708448359,1133
2984.313715547037,1083
2986.039407815222,1088
2987.764785563891,1090
2989.489849104102,1134
2991.2145987469908,1122
2992.9390348037705,1085
2994.6631575857346,1039
2996.3869674042576,1049
2998.1104645707887,1062
2999.83364939686,1133
3001.5565221940783,1052
3003.2790832741334,1047
3005.0013329487924,1037
3006.7232715298996,1050
3008.4448993293804,1053
3010.166216659239,1103
3011.887223831558,1046
3013.607921158498,1071
3015.3283089522993,1077
3017.0483875252826,1086
3018.7681571898443,1101
3020.4876182584626,1083
3022.2067710436927,1093
3023.9256158581707,1109
3025.644153014609,1065
3027.362382825801,1053
3029.0803056046193,1018
3030.797921664012,1068
3032.5152313170106,1068
3034.2322348767225,1029
3035.9489326563353,1007
3037.665324969115,1058
3039.3814121284063,1009
3041.097194447633,1059
3042.812672240299,1059
3044.5278458199855,1094
3046.2427155003525,1052
3047.9572815951406,1041
3049.671544418167,1104
3051.38550428333,1106
3053.0991615046073,1082
3054.812516396051,1075
3056.5255692717974,1052
3058.2383204460575,1045
3059.9507702331257,1092
3061.662918947372,1101
3063.3747669032446,1094
3065.0863144152736,1089
3066.7975617980674,1077
3068.508509366309,1037
3070.219157434767,1059
3071.9295063182844,1050
3073.639556331785,1070
3075.3493077902704,1086
3077.058761008821,1000
3078.7679163025964,1093
3080.476773986837,1034
3082.1853343768594,1049
3083.89359778806,1046
3085.6015645359153,1029
3087.3092349359786,1058
3089.016609303884,1109
3090.7236879553434,1113
3092.4304712061476,1105
3094.136959372166,1080
3095.843152769349,1067
3097.5490517137237,1086
3099.2546565213966,1057
3100.959967508554,1065
3102.66498499146,1106
3104.3697092864577,1062
3106.0741407099695,1072
3107.778279578498,1025
3109.482126208622,1011
3111.1856809170004,1053
3112.8889440203716,1060
3114.5919158355528,1091
3116.294596679439,1070
3117.996986869006,1069
3119.6990867213062,1100
3121.4008965534726,1101
3123.102416682717,1121
3124.803647426329,1064
3126.5045891016784,1116
3128.205242026213,1078
3129.90560651746,1058
3131.605682893025,1033
3133.3054714705922,1072
3135.0049725679282,1105
3136.7041865028714,1102
3138.4031135933465,1056
3140.101754157353,1038
3141.800108512971,1114
3143.498176978357,1041
3145.1959598717494,1075
3146.8934575114636,1050
3148.5906702158954,1068
3150.2875983035183,1054
3151.9842420928853,1053
3153.680601902627,1056
3155.376678051456,1046
3157.07247085816,1083
3158.767980641609,1081
3160.463207720748,1101
3162.158152414606,1031
3163.8528150422862,1083
3165.5471959229726,1046
3167.2412953759303,1066
3168.9351137204976,1061
3170.628651276098,1059
3172.3219083622307,1052
3174.014885298474,1016
3175.707582404485,1037
3177.4000000000005,1114
3179.092138404835,1060
3180.7839979388846,1083
3182.47557892212,1088
3184.166881674594,1067
3185.8579065164386,1083
3187.5486537678626,1086
3189.2391237491547,1060
3190.9293167806827,1053
3192.6192331828934,1079
3194.3088732763117,1111
3195.998237381542,1029
3197.687325819268,1068
3199.376138910251,1091
3201.064676975334,1001
3202.7529403354347,1036
3204.4409293115523,997
3206.1286442247647,1060
3207.816085396229,1046
3209.5032531471825,1079
3211.190147798936,1039
3212.8767696728846,1038
3214.5631190905015,1050
3216.2491963733373,1010
3217.9350018430214,1052
3219.6205358212637,1026
3221.305798629851,979
3222.990790590651,1014
3224.6755120256103,1064
3226.359963256751,1032
3228.0441446061795,997
3229.7280563960758,1027
3231.411698948703,1032
3233.0950725863995,1083
3234.778177631587,1037
3236.461014406761,1096
3238.1435832345005,1051
3239.8258844374595,1033
3241.507918338374,1028
3243.1896852600576,1023
3244.8711855254023,1110
3246.552419457381,1063
3248.233387379042,1076
3249.914089613516,1000
3251.59452648401,1055
3253.274698313813,1063
3254.95460542629,1026
3256.6342481448855,1044
3258.313626793125,1066
3259.9927416946084,1034
3261.6715931730196,1021
3263.3501815521176,1031
3265.0285071557437,1020
3266.706570307815,1031
3268.3843713323286,1031
3270.0619105533615,1020
3271.739188295068,1022
3273.4162048816834,1051
3275.0929606375184,1045
3276.769455886966,1073
3278.445690954498,1077
3280.1216661646613,1027
3281.797381842087,1090
3283.4728383114807,1037
3285.1480358976296,1007
3286.8229749253996,1037
3288.4976557197333,1050
3290.172078605655,1048
3291.846243908266,1050
3293.5201519527463,1079
3295.193803064357,1020
3296.8671975684374,1011
3298.5403357904024,1016
3300.21321805575,1021
3301.8858446900567,1066
3303.558216018975,1082
3305.23033236824,1015
3306.9021940636603,1019
3308.57380143113,1052
3310.2451547966184,1069
3311.916254486174,1037
3313.5871008259246,1063
3315.2576941420766,1056
3316.9280347609147,1111
3318.5981230088046,1055
3320.2679592121895,1041
3321.9375436975924,1026
3323.606876791612,1041
3325.27595882093,1050
3326.944790112305,1026
3328.6133709925753,1030
3330.2817017886573,1055
3331.949782827547,1041
3333.617614436319,1024
3335.2851969421245,1035
3336.952530672199,1032
3338.619615953853,1043
3340.286453114475,1033
3341.9530424815357,1038
3343.619384382583,1049
3345.2854791452437,1053
3346.951327097224,1043
3348.6169285663073,1014
3350.2822838803577,993
3351.947393367319,1056
3353.61225735521,1074
3355.2768761721345,998
3356.9412501462693,1024
3358.605379605873,1031
3360.2692648792827,1034
3361.9329062949146,1011
3363.596304181263,1039
