CollectionTime,9/25/2024 10:41:14 AM
ExposureUsed,3
CalibratedSpectrum
-962.7078968117929,506
-959.9714848408522,500
-957.2358232597828,485
-954.5009119013725,534
-951.7667505983302,527
-949.0333391832855,524
-946.3006774887896,537
-943.5687653473143,528
-940.837602591253,517
-938.1071890529199,530
-935.3775245645503,525
-932.6486089583007,530
-929.9204420662485,535
-927.1930237203925,553
-924.4663537526524,555
-921.7404319948689,574
-919.0152582788041,532
-916.2908324361409,558
-913.5671542984834,577
-910.8442236973568,570
-908.1220404642074,506
-905.4006044304027,503
-902.679915427231,558
-899.959973285902,539
-897.2407778375464,546
-894.5223289132158,545
-891.8046263438832,554
-889.0876699604426,544
-886.3714595937089,513
-883.6559950744183,496
-880.9412762332282,501
-878.2273029007168,524
-875.5140749073835,540
-872.8015920836489,572
-870.0898542598545,531
-867.3788612662631,514
-864.6686129330585,521
-861.9591090903457,504
-859.2503495681506,544
-856.5423341964203,511
-853.8350628050229,512
-851.1285352237478,547
-848.4227512823054,558
-845.7177108103272,533
-843.0134136373656,511
-840.3098595928943,519
-837.6070485063082,526
-834.9049802069229,534
-832.2036545239757,526
-829.5030712866244,551
-826.8032303239481,594
-824.1041314649472,532
-821.4057745385428,529
-818.7081593735775,537
-816.0112857988148,533
-813.3151536429393,554
-810.6197627345566,563
-807.9251129021936,522
-805.2312039742981,546
-802.5380357792392,538
-799.8456081453069,545
-797.1539209007124,517
-794.462973873588,548
-791.772766891987,566
-789.083299783884,556
-786.3945723771743,564
-783.7065844996748,587
-781.0193359791231,519
-778.3328266431781,543
-775.6470563194197,567
-772.9620248353489,521
-770.2777320183878,535
-767.5941776958798,569
-764.9113616950891,562
-762.2292838432011,512
-759.5479439673222,521
-756.8673418944801,544
-754.1874774516235,543
-751.5083504656222,539
-748.8299607632671,551
-746.15230817127,550
-743.475392516264,571
-740.7992136248035,566
-738.1237713233636,603
-735.4490654383407,592
-732.7750957960521,529
-730.1018622227365,548
-727.4293645445534,540
-724.7576025875837,552
-722.0865761778291,547
-719.4162851412126,574
-716.7467293035781,586
-714.0779084906909,612
-711.409822528237,619
-708.7424712418238,571
-706.0758544569796,578
-703.4099719991541,539
-700.7448236937178,558
-698.0804093659622,576
-695.4167288411002,538
-692.7537819442656,595
-690.0915685005134,575
-687.4300883348199,569
-684.7693412720819,600
-682.1093271371178,603
-679.4500457546669,601
-676.7914969493897,568
-674.1336805458676,577
-671.4765963686034,549
-668.8202442420206,592
-666.1646239904642,605
-663.5097354382001,594
-660.8555784094151,568
-658.2021527282176,589
-655.5494582186366,577
-652.8974947046223,582
-650.2462620100463,589
-647.5957599587009,573
-644.9459883742998,608
-642.2969470804776,610
-639.6486359007902,611
-637.0010546587141,600
-634.3542031776476,583
-631.7080812809096,587
-629.0626887917401,621
-626.4180255333008,603
-623.7740913286734,650
-621.1308860008619,677
-618.4884093727904,651
-615.8466612673046,602
-613.2056415071715,623
-610.5653499150785,622
-607.9257863136347,601
-605.28695052537,613
-602.6488423727357,596
-600.0114616781036,629
-597.3748082637674,611
-594.7388819519412,682
-592.1036825647604,679
-589.4692099242818,641
-586.8354638524829,670
-584.2024441712624,713
-581.5701507024403,703
-578.9385832677575,735
-576.3077416888759,668
-573.6776257873787,624
-571.0482353847704,653
-568.4195703024757,645
-565.7916303618415,636
-563.164415384135,664
-560.5379251905453,598
-557.9121596021815,649
-555.2871184400748,672
-552.6628015251767,646
-550.0392086783606,650
-547.4163397204204,630
-544.794194472071,635
-542.1727727539491,703
-539.5520743866118,687
-536.9320991905377,706
-534.3128469861261,730
-531.6943175936979,760
-529.0765108334947,811
-526.4594265256793,785
-523.8430644903358,951
-521.2274245474689,1015
-518.612506517005,1062
-515.9983102187913,1134
-513.3848354725959,1183
-510.77208209810846,1322
-508.16004991493924,1448
-505.5487387426199,1512
-502.9381484006032,1575
-500.3282787082628,1519
-497.71912948489364,1459
-495.1107005497117,1320
-492.5029917218539,1122
-489.8960028203786,1046
-487.28973366426493,921
-484.68418407241325,803
-482.07935386364494,831
-479.47524285670266,810
-476.87185087025,804
-474.2691777228715,857
-471.66722323307334,884
-469.0659872192821,868
-466.4654694998459,883
-463.86566989303384,846
-461.26658821703614,843
-458.66822428996414,786
-456.07057792985,851
-453.4736489546475,895
-450.877437182231,832
-448.28194243039627,822
-445.68716451686,797
-443.09310325926003,765
-440.49975847515555,794
-437.9071299820263,807
-435.31521759727354,814
-432.72402113821954,807
-430.13354042210767,817
-427.5437752661022,798
-424.95472548728867,768
-422.36639090267386,866
-419.7787713291855,844
-417.1918665836721,840
-414.60567648290385,897
-412.0202008435715,869
-409.4354394822874,910
-406.8513922155845,939
-404.26805885991723,983
-401.685439231661,864
-399.103533147112,805
-396.522340422488,848
-393.9418608739278,855
-391.3620943174908,897
-388.7830405691583,837
-386.2046994448317,818
-383.6270707603344,817
-381.05015433141045,812
-378.473949973725,764
-375.8984575028645,724
-373.32367673433623,678
-370.74960748356875,703
-368.1762495659117,683
-365.60360279663576,591
-363.03166699093265,568
-360.4604419639154,607
-357.8899275306178,606
-355.32012350599507,578
-352.7510297049233,587
-350.1826459421999,533
-347.61497203254316,553
-345.04800779059235,571
-342.4817530309082,542
-339.91620756797226,535
-337.35137121618743,576
-334.7872437898774,560
-332.22382510328725,534
-329.66111497058273,587
-327.09911320585127,608
-324.53781962310075,528
-321.9772340362607,506
-319.4173562591816,521
-316.8581861056348,536
-314.2997233893127,569
-311.7419679238294,652
-309.1849195227194,628
-306.62857799943856,598
-304.0729431673641,546
-301.51801483979375,617
-298.963792829947,663
-296.41027695096386,583
-293.85746701590574,586
-291.3053628377552,628
-288.7539642294155,622
-286.2032710037115,609
-283.65328297338897,645
-281.1039999511146,613
-278.5554217494762,671
-276.007548180983,788
-273.4603790580651,759
-270.9139141930734,713
-268.3681533982807,825
-265.8230964858798,775
-263.27874326798565,778
-260.7350935566336,764
-258.1921471637804,760
-255.6499039013039,906
-253.10836358100266,874
-250.56752601459698,715
-248.02739101372765,850
-245.48795838995704,856
-242.94922795476816,813
-240.41119951956557,773
-237.8738728956746,792
-235.33724789434166,888
-232.80132432673452,872
-230.2661020039418,856
-227.73158073697357,895
-225.19776033676033,1009
-222.66464061415422,1173
-220.1322213799284,1037
-217.60050244477725,890
-215.06948361931552,851
-212.53916471408013,1130
-210.00954553952818,1236
-207.48062590603843,1124
-204.9524056239104,931
-202.4248845033651,1024
-199.8980623545441,1097
-197.37193898751036,1138
-194.84651421224817,1079
-192.32178783866232,1023
-189.79775967657952,932
-187.27442953574644,1013
-184.7517972258321,1018
-182.2298625564256,930
-179.7086253370378,1087
-177.18808537710026,1027
-174.66824248596583,1237
-172.14909647290835,1286
-169.6306471471229,1280
-167.11289431772548,1098
-164.59583779375328,1036
-162.07947738416453,1134
-159.5638128978386,1368
-157.04884414357605,1463
-154.53457093009854,1515
-152.02099306604828,1311
-149.50811035998936,1087
-146.99592262040665,1235
-144.48442965570587,1388
-141.97363127421409,1574
-139.46352728417958,1741
-136.95411749377126,1694
-134.44540171107985,1447
-131.93737974411636,1375
-129.43005140081357,1399
-126.92341648902493,2015
-124.41747481652521,2485
-121.91222619101006,2837
-119.40767042009657,3420
-116.90380731132257,3531
-114.40063667214702,3425
-111.8981583099503,3448
-109.3963720320337,3646
-106.89527764561933,4141
-104.39487495785067,4804
-101.89516377579241,5643
-99.39614390642998,7803
-96.89781515667039,9992
-94.40017733334128,10264
-91.90323024319173,7436
-89.40697369289148,5855
-86.91140748903172,5444
-84.41653143812482,5466
-81.92234534660395,5790
-79.42884902082358,6289
-76.93604226705907,6157
-74.4439248915071,5834
-71.95249670028534,5862
-69.46175749943245,6629
-66.97170709490854,8284
-64.48234529259423,10181
-61.99367189829195,11383
-59.50568671772464,14339
-57.01838955653636,17131
-54.53178022029283,20104
-52.045858514480074,24295
-49.560624244506016,27300
-47.07607721569923,27657
-44.59221723330904,28558
-42.10904410250669,28221
-39.62655762838392,27682
-37.14475761595372,34648
-34.66364387015028,39387
-32.18321619582866,50989
-29.70347439776515,56788
-27.224418280657005,54500
-24.74604764912317,60646
-22.26836230770266,65039
-19.7913620608565,65039
-17.315046712966478,65039
-14.83941606833514,65039
-12.36446993118659,65039
-9.89020810566592,65039
-7.416630395839093,65039
-4.94373660569363,65039
-2.471526539137585,65039
-6.821210263296962E-13,65039
2.47084320796705,65039
4.941003281093458,65039
7.410480415786196,65039
9.879274808531363,65039
12.347386655893956,65039
14.814816154518212,65039
17.28156350112681,65039
19.74762889252179,65039
22.21301252558385,65039
24.67771459727237,21724
27.141735304626195,6386
29.605074844762612,6129
32.06773341487792,5817
34.52971121224755,4541
36.99100843422559,3347
39.45162527824516,3892
41.91156194181792,3488
44.370818622535126,3927
46.82939551806646,3565
49.287292826160524,4285
51.74451074464503,4039
54.201049471426245,3703
56.65690920448981,3026
59.112090141899785,2968
61.56659248179983,3475
64.02041642241159,2807
66.4735621620365,2398
68.92602989905402,2600
71.37781983192338,2814
73.82893215918205,2246
76.27936707944684,2278
78.72912479141326,2162
81.17820549385567,2087
83.62660938562783,1978
86.07433666566146,1842
88.5213875329681,2117
90.96776218663751,2092
93.41346082583925,1988
95.85848364982041,1755
98.30283085790859,1491
100.7465026495089,1529
103.18949922410604,1551
105.63182078126385,1970
108.07346752062438,1881
110.51443964190923,1886
112.95473734491827,1740
115.39436082953114,1622
117.83331029570547,1697
120.27158594347827,1799
122.7091879729652,1708
125.1461165843615,1607
127.58237197794062,1668
130.01795435405518,1700
132.4528639131364,1587
134.88710085569494,1650
137.32066538231982,1869
139.75355769367923,1590
142.1857779905207,1274
144.61732647366978,1090
147.04820334403132,1176
149.47840880258934,1484
151.90794305040674,1817
154.33680628862487,1724
156.76499871846443,1519
159.19252054122433,1555
161.61937195828352,1630
164.04555317109896,1655
166.47106438120693,1928
168.89590579022217,1893
171.320077599839,1939
173.7435800118302,1897
176.16641322804742,2167
178.58857745042144,2540
181.01007288096173,2294
183.43089972175687,2152
185.85105817497413,2188
188.27054844285988,2141
190.6893707277394,2089
193.10752523201643,2141
195.5250121581745,2330
197.9418317087751,2341
200.3579840864594,2387
202.7734694939469,2437
205.18828813403627,2374
207.6024402096051,2389
210.01592592360964,2276
212.42874547908548,2338
214.84089907914665,2284
217.2523869269868,2320
219.66320922587727,2354
222.0733661791695,2399
224.48285799029293,2347
226.8916848627572,2272
229.29984700014882,2400
231.7073446061355,2318
234.11417788446204,2277
236.520347038953,2355
238.92585227351185,2367
241.33069379212054,2398
243.73487179884035,2443
246.1383864978112,2414
248.541238093252,2314
250.9434267894609,2406
253.34495279081432,2477
255.74581630176783,2426
258.1460175268563,2365
260.54555667069314,2371
262.9444339379703,2586
265.3426495334594,2587
267.7402036620107,2495
270.1370965285529,2353
272.53332833809407,2209
274.9288992957214,2302
277.32380960660055,2211
279.718059475976,2239
282.1116491091717,2241
284.5045787115897,2173
286.89684848871195,2097
289.2884586460981,2182
291.67940938938807,2078
294.0697009242996,2193
296.4593334566299,2169
298.84830719225477,2206
301.23662233712923,2152
303.6242790972866,2146
306.01127767884,2129
308.39761828798066,2163
310.78330113097934,2111
313.16832641418534,1956
315.5526943440269,1989
317.9364051270112,2081
320.3194589697242,2030
322.70185607883093,1930
325.0835966610754,1912
327.4646809232805,1969
329.8451090723478,1889
332.2248813152577,1973
334.6039978590701,1899
336.9824589109231,1897
339.36026467803447,1855
341.7374153677,1864
344.113911187295,1794
346.48975234427337,1920
348.8649390461686,1931
351.2394715005918,1893
353.61334991523415,1864
355.9865744978655,1975
358.35914545633375,1840
360.73106299856715,1867
363.10232733257146,1859
365.47293866643247,1755
367.84289720831396,1869
370.2122031664593,1873
372.5808567491905,1874
374.9488581649083,1809
377.31620762209275,1763
379.6829053293021,1735
382.0489514951745,1831
384.4143463284262,1776
386.7790900378528,1796
389.14318283232853,1787
391.50662492080653,1786
393.86941651231916,1705
396.23155781597745,1734
398.5930490409713,1786
400.9538903965696,1732
403.3140820921202,1737
405.6736243370498,1724
408.03251734086336,1681
410.3907613131465,1696
412.74835646356166,1784
415.10530300185144,1673
417.4616011378372,1631
419.81725108141893,1703
422.1722530425758,1667
424.5266072313656,1645
426.880313857925,1644
429.2333731324701,1659
431.58578526529516,1716
433.9375504667738,1702
436.2886689473588,1638
438.63914091758113,1583
440.9889665880513,1664
443.33814616945835,1624
445.68667987257015,1595
448.03456790823395,1665
450.3818104873759,1619
452.72840782100013,1699
455.07436012019105,1705
457.41966759611057,1643
459.7643304600007,1616
462.10834892318155,1603
464.4517231970525,1608
466.79445349309174,1681
469.1365400228566,1614
471.4779829979826,1715
473.81878263018564,1636
476.15893913125876,1595
478.4984527130747,1735
480.8373235875855,1714
483.17555196682144,1785
485.5131380628919,1821
487.8500820879857,1787
490.1863842543697,1924
492.52204477439034,2012
494.8570638604725,2211
497.1914417251204,2381
499.52517858091653,2728
501.85827464052306,3033
504.19073011668036,3355
506.5225452222086,3450
508.85372017000566,3281
511.18425517304956,3239
513.514150444396,3571
515.8434061971808,4543
518.1720226446176,5150
520.4999999999999,5230
522.8273384766991,4880
525.1540382881666,4513
527.480099647932,3956
529.8055227696037,3261
532.1303078668694,2362
534.454455153496,1954
536.777964843328,1774
539.1008371502907,1736
541.4230722883866,1724
543.744670471698,1674
546.0656319143858,1593
548.3859568306899,1648
550.7056454349294,1663
553.0246979415016,1629
555.3431145648834,1634
557.6608955196306,1594
559.978041020377,1610
562.2945512818363,1678
564.6104265188006,1716
566.9256669461412,1569
569.2402727788082,1651
571.5542442318302,1650
573.8675815203156,1621
576.1802848594508,1627
578.4923544645015,1595
580.8037905508126,1651
583.114593333807,1561
585.4247630289875,1643
587.7342998519354,1616
590.0432040183106,1601
592.3514757438526,1585
594.6591152443794,1607
596.9661227357875,1584
599.2724984340531,1660
601.578242555231,1622
603.8833553154542,1568
606.1878369309362,1600
608.4916876179676,1624
610.7949075929192,1600
613.0974970722403,1557
615.3994562724587,1578
617.7007854101818,1567
620.0014847020951,1569
622.3015543649641,1602
624.6009946156324,1618
626.8998056710224,1596
629.1979877481361,1593
631.4955410640538,1582
633.7924658359349,1586
636.0887622810175,1563
638.3844306166192,1647
640.6794710601358,1618
642.9738838290426,1584
645.2676691408932,1582
647.5608272133207,1652
649.853358264037,1649
652.1452625108324,1591
654.4365401715764,1620
656.7271914642178,1666
659.0172166067838,1684
661.3066158173809,1624
663.5953893141935,1657
665.8835373154867,1608
668.1710600396028,1621
670.4579577049639,1654
672.7442305300709,1668
675.0298787335033,1650
677.3149025339197,1611
679.599302150058,1612
681.8830778007342,1611
684.1662297048437,1667
686.4487580813608,1609
688.7306631493387,1631
691.0119451279091,1654
693.2926042362834,1582
695.5726406937516,1535
697.8520547196814,1677
700.1308465335215,1674
702.4090163547982,1535
704.6865644031171,1584
706.9634908981619,1619
709.2397960596965,1635
711.5154801075631,1648
713.7905432616823,1680
716.0649857420548,1689
718.3388077687592,1608
720.612009561953,1643
722.8845913418733,1597
725.1565533288352,1601
727.427895743234,1628
729.6986188055427,1695
731.9687227363137,1652
734.238207756178,1651
736.5070740858458,1655
738.7753219461066,1606
741.0429515578281,1568
743.3099631419569,1600
745.5763569195191,1658
747.8421331116193,1680
750.1072919394409,1592
752.3718336242467,1675
754.6357583873777,1588
756.8990664502545,1639
759.1617580343765,1611
761.423833361321,1646
763.6852926527457,1637
765.9461361303862,1686
768.206364016058,1640
770.4659765316536,1673
772.7249738991469,1696
774.9833563405886,1735
777.2411240781092,1733
779.4982773339183,1687
781.7548163303044,1674
784.010741289634,1641
786.2660524343538,1711
788.5207499869881,1676
790.7748341701416,1678
793.0283052064964,1756
795.2811633188143,1643
797.5334087299362,1655
799.7850416627813,1776
802.0360623403484,1675
804.2864709857143,1647
806.5362678220353,1652
808.7854530725468,1681
811.0340269605625,1689
813.2819897094754,1764
815.5293415427581,1723
817.77608268396,1673
820.0222133567116,1618
822.2677337847211,1699
824.5126441917765,1677
826.7569448017433,1659
829.0006358385675,1663
831.2437175262731,1694
833.4861900889629,1661
835.7280537508192,1639
837.9693087361026,1695
840.2099552691533,1622
842.4499935743896,1657
844.689423876309,1660
846.9282463994886,1669
849.1664613685833,1678
851.4040690083276,1633
853.6410695435349,1655
855.877463199097,1680
858.1132501999847,1687
860.3484307712487,1721
862.5830051380175,1748
864.8169735254988,1681
867.0503361589791,1727
869.2830932638243,1721
871.5152450654786,1685
873.7467917894654,1709
875.9777336613873,1654
878.2080709069252,1694
880.4378037518389,1630
882.666932421968,1722
884.8954571432301,1651
887.1233781416219,1687
889.3506956432192,1734
891.5774098741766,1774
893.803521060728,1683
896.0290294291852,1732
898.2539352059397,1698
900.4782386174619,1717
902.7019398903011,1621
904.925039251085,1662
907.147536926521,1627
909.3694331433943,1714
911.59072812857,1690
913.8114221089921,1758
916.0315153116827,1683
918.2510079637437,1679
920.4699002923547,1713
922.6881925247761,1682
924.905884888345,1662
927.1229776104793,1581
929.3394709186747,1642
931.555365040506,1649
933.7706602036275,1706
935.9853566357709,1705
938.1994545647489,1743
940.4129542184515,1730
942.6258558248488,1799
944.8381596119883,1735
947.0498658079974,1680
949.2609746410825,1703
951.4714863395287,1687
953.6814011316998,1651
955.8907192460387,1653
958.0994409110671,1677
960.3075663553858,1719
962.5150958076741,1655
964.7220294966913,1712
966.928367651274,1640
969.1341105003388,1681
971.3392582728806,1682
973.5438111979742,1705
975.747769504772,1638
977.9511334225061,1594
980.153903180487,1638
982.3560790081052,1610
984.5576611348289,1633
986.7586497902058,1582
988.9590452038618,1574
991.158847605503,1536
993.3580572249133,1579
995.5566742919558,1563
997.7546990365728,1487
999.952131688785,1452
1002.1489724786926,1501
1004.3452216364743,1404
1006.5408793923874,1434
1008.7359459767691,1435
1010.9304216200343,1398
1013.1243065526781,1438
1015.3176010052733,1421
1017.510305208472,1402
1019.7024193930064,1366
1021.8939437896848,1405
1024.0848786293977,1419
1026.2752241431122,1365
1028.4649805618747,1388
1030.6541481168115,1391
1032.842727039127,1362
1035.0307175601051,1369
1037.2181199111074,1430
1039.4049343235752,1363
1041.591161029029,1331
1043.7768002590683,1377
1045.9618522453698,1350
1048.1463172196918,1343
1050.3301954138697,1322
1052.513487059818,1353
1054.69619238953,1287
1056.8783116350783,1361
1059.0598450286152,1365
1061.2407928023704,1395
1063.4211551886528,1342
1065.6009324198508,1351
1067.780124728432,1326
1069.9587323469414,1348
1072.1367555080046,1341
1074.314194444325,1307
1076.4910493886855,1387
1078.667320573947,1311
1080.843008233051,1321
1083.0181125990161,1300
1085.1926339049414,1271
1087.3665723840027,1266
1089.5399282694575,1284
1091.7127017946405,1251
1093.8848931929647,1345
1096.0565026979243,1355
1098.2275305430899,1329
1100.3979769621128,1267
1102.567842188722,1275
1104.737126456726,1226
1106.9058300000124,1288
1109.0739530525475,1182
1111.2414958483764,1286
1113.4084586216231,1259
1115.5748416064907,1226
1117.7406450372605,1250
1119.9058691482942,1304
1122.0705141740304,1280
1124.2345803489884,1304
1126.3980679077658,1335
1128.5609770850388,1269
1130.7233081155623,1269
1132.8850612341707,1256
1135.0462366757774,1301
1137.2068346753745,1264
1139.3668554680326,1278
1141.526299288901,1261
1143.68516637321,1257
1145.8434569562655,1225
1148.001171273455,1266
1150.158309560244,1293
1152.3148720521767,1239
1154.470858984876,1244
1156.626270594044,1309
1158.7811071154629,1287
1160.9353687849912,1249
1163.089055838569,1243
1165.242168512213,1226
1167.3947070420209,1232
1169.5466716641677,1284
1171.6980626149075,1301
1173.8488801305748,1243
1175.9991244475814,1273
1178.1487958024186,1188
1180.2978944316555,1191
1182.4464205719428,1202
1184.5943744600072,1268
1186.7417563326567,1263
1188.8885664267755,1274
1191.0348049793297,1275
1193.1804722273619,1216
1195.325568407995,1251
1197.4700937584303,1259
1199.614048515948,1275
1201.7574329179074,1305
1203.900247201746,1330
1206.042491604982,1247
1208.1841663652099,1253
1210.3252717201053,1314
1212.465807907422,1300
1214.6057751649923,1293
1216.7451737307279,1267
1218.8840038426192,1258
1221.0222657387353,1264
1223.1599596572241,1353
1225.2970858363137,1287
1227.4336445143094,1276
1229.5696359295966,1311
1231.705060320639,1262
1233.8399179259786,1275
1235.9742089842384,1279
1238.107933734118,1293
1240.2410924143974,1283
1242.373685263935,1348
1244.5057125216676,1292
1246.6371744266116,1325
1248.7680712178621,1354
1250.898403134593,1304
1253.028170416058,1314
1255.1573733015875,1323
1257.2860120305932,1347
1259.4140868425648,1297
1261.54159797707,1360
1263.6685456737569,1333
1265.7949301723515,1364
1267.9207517126597,1289
1270.046010534565,1368
1272.1707068780306,1347
1274.2948409830983,1396
1276.4184130898889,1396
1278.541423438603,1348
1280.6638722695184,1409
1282.785759822993,1445
1284.9070863394636,1440
1287.0278520594447,1382
1289.1480572235314,1387
1291.2677020723963,1429
1293.3867868467923,1427
1295.5053117875495,1414
1297.623277135579,1492
1299.740683131868,1488
1301.8575300174857,1536
1303.973818033578,1480
1306.0895474213703,1551
1308.2047184221678,1501
1310.3193312773528,1456
1312.4333862283888,1499
1314.5468835168163,1435
1316.659823384255,1471
1318.7722060724045,1560
1320.8840318230418,1516
1322.9953008780249,1584
1325.1060134792888,1602
1327.2161698688478,1497
1329.3257702887959,1575
1331.4348149813054,1580
1333.5433041886276,1590
1335.6512381530933,1526
1337.7586171171101,1515
1339.8654413231675,1496
1341.9717110138317,1580
1344.0774264317488,1528
1346.1825878196432,1493
1348.2871954203192,1516
1350.3912494766587,1478
1352.4947502316231,1475
1354.5976979282532,1470
1356.7000928096686,1511
1358.8019351190665,1484
1360.9032250997243,1424
1363.0039629949988,1436
1365.1041490483235,1446
1367.2037835032133,1443
1369.3028666032606,1453
1371.401398592137,1423
1373.4993797135926,1426
1375.5968102114575,1421
1377.6936903296396,1415
1379.7900203121262,1385
1381.8858004029835,1436
1383.9810308463561,1451
1386.075711886469,1446
1388.1698437676241,1440
1390.2634267342032,1473
1392.356461030667,1387
1394.4489469015557,1438
1396.5408845914872,1345
1398.6322743451592,1423
1400.7231164073469,1405
1402.813411022907,1451
1404.903158436773,1412
1406.9923588939578,1433
1409.0810126395531,1395
1411.1691199187303,1399
1413.2566809767386,1370
1415.343696058907,1400
1417.4301654106425,1343
1419.5160892774315,1463
1421.6014679048399,1429
1423.6863015385125,1471
1425.7705904241707,1441
1427.8543348076178,1435
1429.9375349347342,1414
1432.0201910514802,1473
1434.102303403894,1429
1436.1838722380944,1448
1438.2648978002767,1395
1440.3453803367174,1478
1442.4253200937692,1475
1444.5047173178677,1415
1446.5835722555234,1451
1448.6618851533285,1470
1450.739656257952,1503
1452.8168858161434,1482
1454.8935740747306,1509
1456.96972128062,1548
1459.045327680797,1525
1461.120393522327,1565
1463.1949190523528,1525
1465.2689045180973,1494
1467.3423501668608,1565
1469.415256246024,1587
1471.4876230030463,1635
1473.559450685465,1531
1475.6307395408976,1593
1477.7014898170391,1634
1479.771701761665,1678
1481.8413756226287,1669
1483.9105116478618,1631
1485.9791100853772,1661
1488.0471711832643,1645
1490.1146951896926,1627
1492.1816823529098,1691
1494.2481329212433,1733
1496.3140471430984,1667
1498.3794252669609,1667
1500.4442675413939,1694
1502.5085742150404,1643
1504.572345536622,1721
1506.6355817549388,1690
1508.6982831188702,1798
1510.7604498773744,1790
1512.8220822794883,1734
1514.8831805743293,1801
1516.9437450110909,1738
1519.003775839048,1808
1521.0632733075522,1838
1523.1222376660367,1765
1525.1806691640113,1836
1527.2385680510652,1822
1529.2959345768668,1829
1531.3527689911643,1926
1533.4090715437833,1907
1535.4648424846291,1914
1537.5200820636855,1916
1539.5747905310159,1997
1541.6289681367616,2016
1543.6826151311434,2024
1545.7357317644614,2044
1547.7883182870937,2088
1549.8403749494987,2156
1551.8919020022113,2129
1553.9428996958477,2199
1555.9933682811015,2192
1558.0433080087469,2228
1560.0927191296346,2346
1562.1416018946961,2309
1564.1899565549415,2223
1566.2377833614592,2341
1568.2850825654164,2411
1570.3318544180606,2241
1572.3780991707158,2253
1574.423817074788,2208
1576.4690083817595,2259
1578.5136733431923,2159
1580.5578122107272,2057
1582.601425236085,2043
1584.6445126710646,1916
1586.6870747675434,1979
1588.7291117774776,1920
1590.7706239529034,1827
1592.8116115459347,1823
1594.8520748087658,1804
1596.8920139936686,1733
1598.9314293529933,1748
1600.9703211391711,1703
1603.008689604711,1727
1605.0465350022005,1677
1607.0838575843068,1554
1609.1206576037753,1559
1611.1569353134305,1552
1613.1926909661765,1499
1615.2279248149953,1514
1617.2626371129481,1474
1619.2968281131757,1453
1621.3304980688963,1458
1623.3636472334088,1415
1625.39627586009,1426
1627.428384202396,1469
1629.459972513861,1368
1631.4910410480993,1429
1633.5215900588028,1403
1635.551619799744,1383
1637.5811305247717,1336
1639.6101224878166,1328
1641.6385959428862,1308
1643.6665511440683,1328
1645.693988345528,1331
1647.7209078015112,1277
1649.7473097663405,1297
1651.7731944944203,1322
1653.7985622402307,1288
1655.823413258333,1323
1657.847747803366,1245
1659.8715661300494,1316
1661.8948684931793,1325
1663.9176551476316,1300
1665.9399263483624,1329
1667.9616823504057,1264
1669.982923408873,1241
1672.0036497789574,1300
1674.0238617159293,1284
1676.043559475138,1274
1678.0627433120121,1306
1680.081413482059,1282
1682.0995702408654,1289
1684.117213844096,1275
1686.134344547495,1280
1688.1509626068864,1248
1690.1670682781705,1260
1692.182661817329,1245
1694.1977434804217,1274
1696.2123135235875,1243
1698.226372203043,1289
1700.2399197750851,1350
1702.2529564960905,1278
1704.2654826225112,1245
1706.277498410882,1322
1708.2890041178139,1236
1710.2999999999988,1318
1712.3104863142066,1237
1714.3204633172854,1206
1716.329931266163,1275
1718.3388904178469,1270
1720.3473410294214,1280
1722.3552833580516,1266
1724.3627176609807,1303
1726.3696441955308,1271
1728.3760632191033,1227
1730.3819749891782,1233
1732.3873797633146,1199
1734.3922777991502,1236
1736.3966693544012,1235
1738.4005546868639,1243
1740.4039340544127,1224
1742.406807715001,1269
1744.4091759266616,1245
1746.4110389475054,1215
1748.4123970357223,1240
1750.413250449582,1261
1752.4135994474318,1227
1754.4134442876993,1224
1756.4127852288902,1237
1758.4116225295893,1206
1760.4099564484595,1276
1762.407787244244,1291
1764.405115175764,1245
1766.4019405019203,1236
1768.3982634816916,1272
1770.3940843741357,1239
1772.3894034383907,1249
1774.3842209336717,1265
1776.378537119274,1222
1778.372352254571,1216
1780.3656665990156,1257
1782.3584804121397,1206
1784.3507939535534,1204
1786.3426074829463,1211
1788.3339212600863,1235
1790.3247355448211,1215
1792.3150505970766,1170
1794.3048666768573,1231
1796.2941840442477,1225
1798.2830029594106,1221
1800.2713236825884,1231
1802.2591464741004,1231
1804.2464715943465,1220
1806.2332993038058,1235
1808.2196298630352,1194
1810.2054635326708,1224
1812.190800573428,1236
1814.175641246101,1272
1816.1599858115628,1233
1818.1438345307652,1187
1820.127187664738,1228
1822.1100454745924,1244
1824.092408221516,1186
1826.0742761667766,1182
1828.055649571721,1191
1830.0365286977735,1267
1832.0169138064398,1266
1833.9968051593014,1155
1835.9762030180214,1163
1837.9551076443408,1185
1839.9335193000788,1282
1841.9114382471344,1219
1843.888864747485,1212
1845.8657990631878,1208
1847.842241456378,1240
1849.8181921892697,1192
1851.7936515241558,1203
1853.7686197234098,1196
1855.7430970494815,1177
1857.7170837649014,1168
1859.6905801322787,1232
1861.6635864143004,1216
1863.6361028737338,1229
1865.608129773424,1204
1867.5796673762961,1179
1869.5507159453537,1207
1871.521275743678,1237
1873.4913470344313,1218
1875.4609300808534,1236
1877.4300251462632,1212
1879.3986324940588,1196
1881.366752387717,1194
1883.3343850907936,1210
1885.3015308669228,1300
1887.268189979819,1284
1889.2343626932739,1242
1891.2000492711595,1316
1893.1652499774254,1275
1895.1299650761011,1235
1897.0941948312952,1295
1899.0579395071945,1219
1901.0211993680641,1276
1902.98397467825,1247
1904.9462657021745,1224
1906.9080727043415,1262
1908.869395949332,1248
1910.8302357018065,1242
1912.790592226504,1238
1914.7504657882428,1229
1916.7098566519212,1243
1918.6687650825133,1203
1920.6271913450764,1208
1922.5851357047422,1174
1924.5425984267245,1235
1926.499579776314,1261
1928.4560800188833,1234
1930.4120994198802,1214
1932.367638244833,1185
1934.32269675935,1209
1936.2772752291175,1271
1938.231373919899,1264
1940.1849930975404,1202
1942.1381330279637,1233
1944.0907939771696,1235
1946.0429762112412,1241
1947.9946799963363,1227
1949.9459055986945,1254
1951.896653284633,1222
1953.8469233205478,1155
1955.7967159729142,1224
1957.7460315082863,1247
1959.6948701932974,1189
1961.6432322946594,1211
1963.5911180791632,1180
1965.5385278136787,1221
1967.4854617651545,1230
1969.4319202006182,1206
1971.377903387176,1194
1973.3234115920136,1233
1975.268445082395,1233
1977.2130041256642,1199
1979.1570889892423,1219
1981.1006999406304,1210
1983.04383724741,1200
1984.986501177238,1222
1986.928691997853,1219
1988.8704099770712,1204
1990.811655382789,1168
1992.7524284829801,1182
1994.692729545698,1155
1996.6325588390755,1209
1998.5719166313224,1235
2000.5108031907307,1166
2002.4492187856677,1135
2004.387163684583,1197
2006.3246381560011,1184
2008.2616424685298,1191
2010.1981768908527,1217
2012.1342416917332,1190
2014.069837140014,1229
2016.0049635046162,1235
2017.9396210545406,1219
2019.8738100588666,1223
2021.8075307867502,1234
2023.740783507431,1191
2025.6735684902228,1182
2027.6058860045214,1209
2029.5377363198004,1196
2031.4691197056118,1217
2033.4000364315875,1210
2035.3304867674374,1217
2037.260470982952,1169
2039.189989347998,1166
2041.1190421325232,1152
2043.047629606554,1170
2044.9757520401945,1181
2046.9034097036288,1185
2048.8306028671195,1188
2050.7573318010086,1196
2052.683596775716,1207
2054.609398061742,1230
2056.5347359296647,1232
2058.4596106501403,1207
2060.384022493906,1232
2062.3079717317764,1176
2064.231458634646,1186
2066.1544834734873,1153
2068.077046519352,1143
2069.99914804337,1194
2071.9207883167524,1192
2073.8419676107865,1199
2075.7626861968406,1160
2077.6829443463607,1187
2079.6027423308715,1213
2081.522080421977,1190
2083.440958891362,1151
2085.359378010786,1163
2087.2773380520907,1173
2089.194839287196,1155
2091.111881988101,1204
2093.0284664268825,1161
2094.9445928756973,1220
2096.86026160678,1197
2098.775472892446,1185
2100.690227005088,1225
2102.604524217178,1193
2104.5183648012676,1240
2106.431749029985,1178
2108.34467717604,1216
2110.2571495122206,1227
2112.169166311393,1207
2114.080727846503,1209
2115.9918343905747,1142
2117.902486216711,1171
2119.8126835980956,1162
2121.722426807987,1190
2123.6317161197285,1188
2125.5405518067364,1204
2127.448934142509,1219
2129.356863400624,1228
2131.264339854737,1213
2133.1713637785815,1192
2135.077935445972,1234
2136.9840551308002,1210
2138.889723107037,1217
2140.7949396487334,1166
2142.699705030018,1196
2144.6040195250994,1191
2146.507883408264,1259
2148.4112969538774,1200
2150.3142604363848,1236
2152.2167741303097,1223
2154.1188383102535,1193
2156.0204532508997,1223
2157.9216192270064,1213
2159.822336513414,1213
2161.7226053850413,1224
2163.622426116884,1251
2165.5217989840185,1223
2167.4207242616,1231
2169.319202224862,1197
2171.2172331491165,1190
2173.1148173097563,1176
2175.0119549822507,1216
2176.90864644215,1244
2178.8048919650823,1236
2180.7006918267534,1235
2182.596046302952,1220
2184.4909556695407,1225
2186.3854202024645,1224
2188.279440177746,1190
2190.173015871487,1220
2192.066147559868,1151
2193.958835519149,1200
2195.851080025667,1262
2197.7428813558417,1188
2199.6342397861667,1215
2201.5251555932186,1180
2203.415629053651,1211
2205.3056604441986,1235
2207.19525004167,1221
2209.084398122958,1259
2210.9731049650327,1246
2212.861370844941,1245
2214.749196039812,1186
2216.636580826851,1246
2218.523525483344,1282
2220.410030286655,1186
2222.296095514226,1195
2224.1817214435805,1245
2226.066908352319,1234
2227.951656518121,1200
2229.835966218746,1226
2231.71983773203,1251
2233.6032713358913,1246
2235.486267308324,1189
2237.3688259274036,1213
2239.2509474712824,1205
2241.132632218193,1200
2243.013880446447,1201
2244.8946924344323,1218
2246.7750684606203,1217
2248.6550088035574,1226
2250.534513741871,1215
2252.413583554265,1219
2254.292218519526,1215
2256.170418916517,1209
2258.0481850241786,1198
2259.925517121534,1182
2261.8024154876825,1200
2263.678880401803,1218
2265.5549121431536,1234
2267.430510991071,1235
2269.305677224971,1222
2271.180411124348,1182
2273.0547129687766,1220
2274.9285830379076,1178
2276.8020216114737,1194
2278.6750289692845,1242
2280.5476053912294,1237
2282.4197511572766,1199
2284.2914665474727,1241
2286.162751841943,1223
2288.0336073208937,1287
2289.904033264608,1263
2291.774029953448,1222
2293.6435976678554,1267
2295.5127366883517,1324
2297.381447295534,1192
2299.2497297700825,1176
2301.1175843927526,1211
2302.9850114443825,1182
2304.852011205885,1149
2306.7185839582553,1158
2308.5847299825664,1139
2310.4504495599676,1137
2312.3157429716925,1172
2314.1806104990483,1102
2316.0450524234247,1124
2317.9090690262888,1169
2319.772660589186,1144
2321.635827393742,1131
2323.498569721661,1129
2325.3608878547248,1175
2327.2227820747967,1131
2329.0842526638157,1165
2330.945299903803,1090
2332.805924076857,1131
2334.6661254651535,1120
2336.525904350951,1191
2338.3852610165827,1108
2340.244195744464,1173
2342.102708817088,1146
2343.9608005170253,1135
2345.8184711269287,1103
2347.675720929526,1123
2349.532550207628,1115
2351.38895924412,1155
2353.24494832197,1129
2355.100517724223,1092
2356.955667734004,1106
2358.810398634514,1100
2360.664710709037,1160
2362.5186042409337,1113
2364.3720795136437,1122
2366.225136810686,1116
2368.0777764156583,1148
2369.929998612237,1103
2371.7818036841777,1123
2373.633191915315,1152
2375.484163589562,1118
2377.3347189909114,1159
2379.184858403434,1130
2381.03458211128,1126
2382.8838903986775,1117
2384.732783549936,1159
2386.5812618494406,1163
2388.4293255816588,1150
2390.2769750311327,1159
2392.1242104824883,1119
2393.971032220427,1162
2395.8174405297295,1152
2397.6634356952563,1173
2399.509018001947,1177
2401.3541877348193,1158
2403.1989451789705,1162
2405.043290619576,1157
2406.8872243418905,1112
2408.730746631247,1165
2410.5738577730594,1166
2412.4165580528183,1159
2414.258847756095,1152
2416.100727168537,1191
2417.9421965758734,1155
2419.783256263912,1184
2421.623906518538,1154
2423.4641476257157,1233
2425.303979871491,1142
2427.143403541984,1157
2428.9824189233977,1147
2430.821026302012,1182
2432.6592259641866,1179
2434.497018196361,1186
2436.33440328505,1132
2438.171381516851,1170
2440.00795317844,1156
2441.844118556569,1169
2443.6798779380724,1182
2445.5152316098606,1123
2447.3501798589255,1136
2449.1847229723357,1156
2451.0188612372403,1139
2452.8525949408663,1123
2454.6859243705203,1093
2456.518849813587,1188
2458.3513715575314,1119
2460.183489889895,1145
2462.015205098301,1140
2463.8465174704493,1144
2465.67742729412,1135
2467.5079348571717,1152
2469.338040447542,1169
2471.1677443532476,1187
2472.9970468623833,1180
2474.825948263123,1154
2476.6544488437207,1205
2478.482548892508,1175
2480.310248697896,1161
2482.137548548374,1181
2483.9644487325118,1150
2485.790949538956,1134
2487.617051256433,1170
2489.44275417375,1162
2491.26805857979,1174
2493.0929647635157,1171
2494.917473013971,1186
2496.741583620276,1207
2498.5652968716304,1136
2500.3886130573137,1191
2502.2115324666834,1163
2504.0340553891765,1197
2505.856182114308,1200
2507.6779129316733,1178
2509.499248130945,1201
2511.3201880018764,1196
2513.140732834298,1215
2514.9608829181198,1166
2516.780638543331,1142
2518.6,1190
2520.418967578273,1193
2522.237541568376,1170
2524.0557222606144,1169
2525.8735099453706,1172
2527.6909049131086,1157
2529.507907454368,1192
2531.32451785977,1201
2533.140736420014,1168
2534.9565634258774,1237
2536.771999168218,1198
2538.5870439379714,1248
2540.4016980261526,1201
2542.2159617238544,1243
2544.02983532225,1196
2545.8433191125914,1236
2547.656413386209,1256
2549.4691184345115,1185
2551.2814345489874,1243
2553.093362021204,1237
2554.904901142808,1201
2556.716052205523,1227
2558.526815501153,1275
2560.3371913215824,1281
2562.147179958771,1267
2563.956781704761,1248
2565.7659968516705,1243
2567.5748256916986,1287
2569.3832685171224,1265
2571.1913256202984,1294
2572.9989972936614,1273
2574.806283829725,1267
2576.613185521084,1296
2578.4197026604074,1337
2580.2258355404483,1335
2582.031584454035,1296
2583.836949694077,1245
2585.6419315535613,1327
2587.4465303255533,1352
2589.2507463032002,1362
2591.0545797797245,1307
2592.8580310484303,1273
2594.6611004026995,1332
2596.463788135992,1292
2598.266094541849,1257
2600.0680199138874,1341
2601.869564545807,1297
2603.670728731383,1314
2605.4715127644704,1296
2607.2719169390048,1370
2609.071941548998,1334
2610.8715868885433,1361
2612.670853251811,1317
2614.469740933052,1308
2616.268250226594,1319
2618.0663814268455,1356
2619.864134828292,1301
2621.6615107255006,1306
2623.458509413115,1276
2625.2551311858597,1322
2627.0513763385347,1285
2628.8472451660223,1276
2630.6427379632833,1345
2632.4378550253564,1277
2634.232596647359,1309
2636.026963124488,1297
2637.8209547520187,1379
2639.6145718253065,1337
2641.407814639785,1345
2643.200683490966,1288
2644.9931786744414,1279
2646.7853004858807,1282
2648.577049221034,1316
2650.3684251757277,1274
2652.1594286458712,1295
2653.9500599274484,1222
2655.740319316525,1272
2657.5302071092437,1323
2659.3197236018286,1279
2661.10886909058,1290
2662.8976438718782,1240
2664.686048242183,1258
2666.4740824980327,1243
2668.2617469360443,1229
2670.0490418529134,1291
2671.8359675454153,1234
2673.622524310403,1257
2675.408712444811,1219
2677.1945322456495,1226
2678.979984010009,1222
2680.76506803506,1231
2682.5497846180497,1280
2684.334134056306,1178
2686.1181166472343,1170
2687.9017326883213,1201
2689.6849824771293,1153
2691.4678663113013,1185
2693.2503844885596,1173
2695.032537306705,1251
2696.8143250636167,1188
2698.5957480572542,1191
2700.3768065856534,1202
2702.1575009469316,1235
2703.937831439283,1152
2705.717798360982,1162
2707.4974020103837,1172
2709.276642685917,1142
2711.055520686095,1154
2712.834036309506,1167
2714.612189854819,1163
2716.389981620782,1171
2718.1674119062204,1177
2719.944481010041,1148
2721.721189231226,1192
2723.4975368688415,1120
2725.273524222027,1145
2727.0491515900053,1116
2728.824419272075,1114
2730.5993275676146,1124
2732.3738767760838,1161
2734.148067197016,1163
2735.921899130031,1135
2737.6953728748194,1158
2739.468488731156,1099
2741.2412469988926,1124
2743.0136479779617,1122
2744.785691968372,1149
2746.5573792702116,1125
2748.3287101836504,1126
2750.099685008934,1148
2751.870304046388,1124
2753.640567596418,1121
2755.4104759595057,1139
2757.1800294362156,1144
2758.949228327187,1125
2760.7180729331412,1171
2762.486563554877,1118
2764.254700493272,1124
2766.022484049284,1083
2767.789914523947,1173
2769.5569922183786,1107
2771.3237174337705,1081
2773.090090471394,1126
2774.8561116326036,1135
2776.6217812188274,1135
2778.3870995315756,1154
2780.1520668724356,1099
2781.9166835430747,1088
2783.6809498452394,1167
2785.444866080754,1130
2787.2084325515225,1143
2788.971649559527,1100
2790.73451740683,1111
2792.4970363955713,1101
2794.2592068279705,1143
2796.0210290063264,1105
2797.7825032330147,1067
2799.543629810493,1062
2801.304409041296,1150
2803.0648412280366,1089
2804.8249266734088,1111
2806.5846656801846,1092
2808.344058551212,1132
2810.1031055894246,1110
2811.8618070978273,1128
2813.6201633795085,1144
2815.378174737636,1145
2817.1358414754536,1159
2818.893163896285,1140
2820.6501423035334,1118
2822.4067770006814,1093
2824.1630682912883,1187
2825.9190164789957,1139
2827.6746218675207,1119
2829.429884760661,1108
2831.184805462294,1066
2832.9393842763743,1153
2834.693621506936,1130
2836.4475174580916,1142
2838.201072434034,1113
2839.954286739034,1156
2841.707160677441,1164
2843.459694553685,1151
2845.2118886722724,1116
2846.96374333779,1133
2848.7152588549034,1109
2850.4664355283567,1128
2852.217273662973,1082
2853.9677735636546,1131
2855.7179355353833,1173
2857.4677598832186,1095
2859.217246912299,1105
2860.9663969278427,1190
2862.715210235146,1112
2864.4636871395846,1124
2866.211827946614,1163
2867.9596329617652,1158
2869.7071024906536,1122
2871.4542368389684,1131
2873.20103631248,1086
2874.947501217038,1107
2876.6936318585695,1087
2878.4394285430812,1138
2880.1848915766604,1139
2881.9300212654707,1126
2883.6748179157553,1110
2885.4192818338374,1061
2887.1634133261173,1130
2888.907212699077,1137
2890.6506802592744,1103
2892.393816313348,1148
2894.1366211680142,1150
2895.8790951300693,1099
2897.621238506388,1125
2899.363051603925,1157
2901.1045347297118,1131
2902.8456881908596,1137
2904.58651229456,1121
2906.327007348081,1089
2908.067173658772,1129
2909.8070115340597,1096
2911.5465212814497,1067
2913.285703208527,1128
2915.0245576229563,1153
2916.7630848324807,1156
2918.5012851449196,1127
2920.2391588681758,1173
2921.976706310227,1121
2923.7139277791334,1129
2925.4508235830313,1136
2927.187394030137,1112
2928.923639428745,1121
2930.6595600872306,1126
2932.395156314046,1160
2934.1304284177218,1107
2935.8653767068713,1076
2937.6000014901815,1087
2939.3343030764227,1111
2941.068281774442,1115
2942.8019378931644,1111
2944.5352717415976,1118
2946.2682836288236,1141
2948.0009738640065,1092
2949.7333427563885,1132
2951.465390615289,1092
2953.1971177501086,1129
2954.9285244703265,1112
2956.6596110855,1069
2958.3903779052657,1123
2960.1208252393385,1052
2961.8509533975125,1086
2963.5807626896617,1103
2965.3102534257378,1153
2967.0394259157715,1138
2968.768280469873,1053
2970.496817398232,1110
2972.2250370111146,1100
2973.952939618869,1139
2975.6805255319196,1111
2977.4077950607707,1145
2979.134748516006,1135
2980.861386208289,1085
2982.587708448359,1117
2984.313715547037,1122
2986.039407815222,1151
2987.764785563891,1091
2989.489849104102,1088
2991.2145987469908,1083
2992.9390348037705,1080
2994.6631575857346,1086
2996.3869674042576,1076
2998.1104645707887,1118
2999.83364939686,1096
3001.5565221940783,1156
3003.2790832741334,1083
3005.0013329487924,1079
3006.7232715298996,1058
3008.4448993293804,1059
3010.166216659239,1083
3011.887223831558,1103
3013.607921158498,1079
3015.3283089522993,1072
3017.0483875252826,1057
3018.7681571898443,1086
3020.4876182584626,1084
3022.2067710436927,1067
3023.9256158581707,1120
3025.644153014609,1095
3027.362382825801,1089
3029.0803056046193,1054
3030.797921664012,1062
3032.5152313170106,1026
3034.2322348767225,1047
3035.9489326563353,1065
3037.665324969115,1083
3039.3814121284063,1126
3041.097194447633,1098
3042.812672240299,1066
3044.5278458199855,1073
3046.2427155003525,1107
3047.9572815951406,1080
3049.671544418167,1077
3051.38550428333,1056
3053.0991615046073,1097
3054.812516396051,1102
3056.5255692717974,1106
3058.2383204460575,1082
3059.9507702331257,1104
3061.662918947372,1113
3063.3747669032446,1084
3065.0863144152736,1094
3066.7975617980674,1080
3068.508509366309,1086
3070.219157434767,1076
3071.9295063182844,1091
3073.639556331785,1105
3075.3493077902704,1066
3077.058761008821,1082
3078.7679163025964,1101
3080.476773986837,1116
3082.1853343768594,1145
3083.89359778806,1092
3085.6015645359153,1113
3087.3092349359786,1130
3089.016609303884,1108
3090.7236879553434,1083
3092.4304712061476,1143
3094.136959372166,1106
3095.843152769349,1113
3097.5490517137237,1122
3099.2546565213966,1086
3100.959967508554,1118
3102.66498499146,1066
3104.3697092864577,1017
3106.0741407099695,1073
3107.778279578498,1075
3109.482126208622,1092
3111.1856809170004,1139
3112.8889440203716,1109
3114.5919158355528,1100
3116.294596679439,1101
3117.996986869006,1070
3119.6990867213062,1118
3121.4008965534726,1114
3123.102416682717,1107
3124.803647426329,1058
3126.5045891016784,1098
3128.205242026213,1098
3129.90560651746,1071
3131.605682893025,1097
3133.3054714705922,1143
3135.0049725679282,1190
3136.7041865028714,1086
3138.4031135933465,1119
3140.101754157353,1078
3141.800108512971,1120
3143.498176978357,1132
3145.1959598717494,1065
3146.8934575114636,1103
3148.5906702158954,1142
3150.2875983035183,1091
3151.9842420928853,1085
3153.680601902627,1056
3155.376678051456,1099
3157.07247085816,1063
3158.767980641609,1096
3160.463207720748,1043
3162.158152414606,1075
3163.8528150422862,1072
3165.5471959229726,1095
3167.2412953759303,1067
3168.9351137204976,1070
3170.628651276098,1122
3172.3219083622307,1095
3174.014885298474,1105
3175.707582404485,1144
3177.4000000000005,1077
3179.092138404835,1074
3180.7839979388846,1066
3182.47557892212,1082
3184.166881674594,1104
3185.8579065164386,1119
3187.5486537678626,1064
3189.2391237491547,1145
3190.9293167806827,1066
3192.6192331828934,1058
3194.3088732763117,1118
3195.998237381542,1096
3197.687325819268,1101
3199.376138910251,1057
3201.064676975334,1049
3202.7529403354347,1055
3204.4409293115523,1064
3206.1286442247647,1057
3207.816085396229,1086
3209.5032531471825,1056
3211.190147798936,1025
3212.8767696728846,1070
3214.5631190905015,1056
3216.2491963733373,1024
3217.9350018430214,1038
3219.6205358212637,1061
3221.305798629851,1080
3222.990790590651,1084
3224.6755120256103,1053
3226.359963256751,1048
3228.0441446061795,1043
3229.7280563960758,1067
3231.411698948703,1058
3233.0950725863995,1067
3234.778177631587,1051
3236.461014406761,1063
3238.1435832345005,1068
3239.8258844374595,1027
3241.507918338374,1143
3243.1896852600576,1072
3244.8711855254023,1112
3246.552419457381,1049
3248.233387379042,1111
3249.914089613516,1070
3251.59452648401,1107
3253.274698313813,1092
3254.95460542629,1090
3256.6342481448855,1072
3258.313626793125,1089
3259.9927416946084,1050
3261.6715931730196,1103
3263.3501815521176,1016
3265.0285071557437,1065
3266.706570307815,1055
3268.3843713323286,1049
3270.0619105533615,1063
3271.739188295068,1005
3273.4162048816834,1079
3275.0929606375184,1093
3276.769455886966,1063
3278.445690954498,1065
3280.1216661646613,1080
3281.797381842087,1092
3283.4728383114807,1075
3285.1480358976296,1053
3286.8229749253996,1072
3288.4976557197333,1068
3290.172078605655,1061
3291.846243908266,1079
3293.5201519527463,1057
3295.193803064357,1074
3296.8671975684374,1088
3298.5403357904024,1081
3300.21321805575,1058
3301.8858446900567,1087
3303.558216018975,1045
3305.23033236824,1123
3306.9021940636603,1101
3308.57380143113,1055
3310.2451547966184,1130
3311.916254486174,1102
3313.5871008259246,1082
3315.2576941420766,1069
3316.9280347609147,1065
3318.5981230088046,1083
3320.2679592121895,1090
3321.9375436975924,1039
3323.606876791612,1049
3325.27595882093,1055
3326.944790112305,1124
3328.6133709925753,1035
3330.2817017886573,1076
3331.949782827547,1044
3333.617614436319,1093
3335.2851969421245,1045
3336.952530672199,1102
3338.619615953853,1085
3340.286453114475,1055
3341.9530424815357,1057
3343.619384382583,1078
3345.2854791452437,1018
3346.951327097224,1056
3348.6169285663073,1058
3350.2822838803577,1085
3351.947393367319,1048
3353.61225735521,1084
3355.2768761721345,1055
3356.9412501462693,1079
3358.605379605873,1088
3360.2692648792827,1061
3361.9329062949146,1064
3363.596304181263,1105
