CollectionTime,9/25/2024 10:40:31 AM
ExposureUsed,3
CalibratedSpectrum
-962.7078968117929,501
-959.9714848408522,487
-957.2358232597828,496
-954.5009119013725,546
-951.7667505983302,540
-949.0333391832855,555
-946.3006774887896,541
-943.5687653473143,507
-940.837602591253,523
-938.1071890529199,522
-935.3775245645503,516
-932.6486089583007,509
-929.9204420662485,517
-927.1930237203925,537
-924.4663537526524,568
-921.7404319948689,564
-919.0152582788041,517
-916.2908324361409,573
-913.5671542984834,571
-910.8442236973568,521
-908.1220404642074,533
-905.4006044304027,537
-902.679915427231,525
-899.959973285902,527
-897.2407778375464,504
-894.5223289132158,567
-891.8046263438832,512
-889.0876699604426,498
-886.3714595937089,507
-883.6559950744183,531
-880.9412762332282,526
-878.2273029007168,516
-875.5140749073835,493
-872.8015920836489,496
-870.0898542598545,525
-867.3788612662631,518
-864.6686129330585,506
-861.9591090903457,501
-859.2503495681506,506
-856.5423341964203,499
-853.8350628050229,479
-851.1285352237478,511
-848.4227512823054,505
-845.7177108103272,495
-843.0134136373656,517
-840.3098595928943,518
-837.6070485063082,516
-834.9049802069229,566
-832.2036545239757,537
-829.5030712866244,517
-826.8032303239481,572
-824.1041314649472,525
-821.4057745385428,546
-818.7081593735775,509
-816.0112857988148,531
-813.3151536429393,537
-810.6197627345566,564
-807.9251129021936,517
-805.2312039742981,529
-802.5380357792392,571
-799.8456081453069,551
-797.1539209007124,530
-794.462973873588,566
-791.772766891987,551
-789.083299783884,564
-786.3945723771743,520
-783.7065844996748,548
-781.0193359791231,507
-778.3328266431781,530
-775.6470563194197,558
-772.9620248353489,520
-770.2777320183878,543
-767.5941776958798,523
-764.9113616950891,532
-762.2292838432011,522
-759.5479439673222,507
-756.8673418944801,534
-754.1874774516235,511
-751.5083504656222,552
-748.8299607632671,500
-746.15230817127,550
-743.475392516264,544
-740.7992136248035,553
-738.1237713233636,550
-735.4490654383407,576
-732.7750957960521,528
-730.1018622227365,545
-727.4293645445534,542
-724.7576025875837,535
-722.0865761778291,542
-719.4162851412126,519
-716.7467293035781,554
-714.0779084906909,589
-711.409822528237,641
-708.7424712418238,581
-706.0758544569796,540
-703.4099719991541,549
-700.7448236937178,576
-698.0804093659622,574
-695.4167288411002,556
-692.7537819442656,564
-690.0915685005134,583
-687.4300883348199,593
-684.7693412720819,587
-682.1093271371178,590
-679.4500457546669,553
-676.7914969493897,576
-674.1336805458676,593
-671.4765963686034,582
-668.8202442420206,566
-666.1646239904642,548
-663.5097354382001,566
-660.8555784094151,568
-658.2021527282176,586
-655.5494582186366,585
-652.8974947046223,578
-650.2462620100463,597
-647.5957599587009,590
-644.9459883742998,604
-642.2969470804776,603
-639.6486359007902,590
-637.0010546587141,609
-634.3542031776476,601
-631.7080812809096,584
-629.0626887917401,578
-626.4180255333008,574
-623.7740913286734,624
-621.1308860008619,658
-618.4884093727904,595
-615.8466612673046,623
-613.2056415071715,608
-610.5653499150785,614
-607.9257863136347,628
-605.28695052537,610
-602.6488423727357,616
-600.0114616781036,655
-597.3748082637674,639
-594.7388819519412,635
-592.1036825647604,639
-589.4692099242818,616
-586.8354638524829,633
-584.2024441712624,715
-581.5701507024403,712
-578.9385832677575,714
-576.3077416888759,729
-573.6776257873787,639
-571.0482353847704,653
-568.4195703024757,612
-565.7916303618415,641
-563.164415384135,596
-560.5379251905453,596
-557.9121596021815,606
-555.2871184400748,603
-552.6628015251767,634
-550.0392086783606,625
-547.4163397204204,646
-544.794194472071,687
-542.1727727539491,698
-539.5520743866118,708
-536.9320991905377,725
-534.3128469861261,729
-531.6943175936979,777
-529.0765108334947,723
-526.4594265256793,801
-523.8430644903358,917
-521.2274245474689,1070
-518.612506517005,1176
-515.9983102187913,1200
-513.3848354725959,1273
-510.77208209810846,1422
-508.16004991493924,1635
-505.5487387426199,1662
-502.9381484006032,1629
-500.3282787082628,1571
-497.71912948489364,1434
-495.1107005497117,1283
-492.5029917218539,1057
-489.8960028203786,968
-487.28973366426493,912
-484.68418407241325,886
-482.07935386364494,802
-479.47524285670266,753
-476.87185087025,837
-474.2691777228715,859
-471.66722323307334,889
-469.0659872192821,847
-466.4654694998459,852
-463.86566989303384,808
-461.26658821703614,793
-458.66822428996414,801
-456.07057792985,794
-453.4736489546475,866
-450.877437182231,824
-448.28194243039627,794
-445.68716451686,795
-443.09310325926003,723
-440.49975847515555,782
-437.9071299820263,772
-435.31521759727354,761
-432.72402113821954,794
-430.13354042210767,852
-427.5437752661022,866
-424.95472548728867,805
-422.36639090267386,850
-419.7787713291855,836
-417.1918665836721,842
-414.60567648290385,873
-412.0202008435715,892
-409.4354394822874,830
-406.8513922155845,845
-404.26805885991723,871
-401.685439231661,880
-399.103533147112,848
-396.522340422488,857
-393.9418608739278,893
-391.3620943174908,793
-388.7830405691583,821
-386.2046994448317,816
-383.6270707603344,768
-381.05015433141045,734
-378.473949973725,692
-375.8984575028645,702
-373.32367673433623,640
-370.74960748356875,635
-368.1762495659117,629
-365.60360279663576,601
-363.03166699093265,592
-360.4604419639154,596
-357.8899275306178,536
-355.32012350599507,562
-352.7510297049233,549
-350.1826459421999,524
-347.61497203254316,479
-345.04800779059235,516
-342.4817530309082,548
-339.91620756797226,523
-337.35137121618743,535
-334.7872437898774,561
-332.22382510328725,535
-329.66111497058273,541
-327.09911320585127,563
-324.53781962310075,515
-321.9772340362607,555
-319.4173562591816,531
-316.8581861056348,538
-314.2997233893127,521
-311.7419679238294,559
-309.1849195227194,587
-306.62857799943856,541
-304.0729431673641,540
-301.51801483979375,586
-298.963792829947,630
-296.41027695096386,536
-293.85746701590574,526
-291.3053628377552,682
-288.7539642294155,634
-286.2032710037115,612
-283.65328297338897,643
-281.1039999511146,597
-278.5554217494762,611
-276.007548180983,725
-273.4603790580651,746
-270.9139141930734,691
-268.3681533982807,759
-265.8230964858798,721
-263.27874326798565,771
-260.7350935566336,699
-258.1921471637804,720
-255.6499039013039,792
-253.10836358100266,829
-250.56752601459698,690
-248.02739101372765,774
-245.48795838995704,802
-242.94922795476816,775
-240.41119951956557,754
-237.8738728956746,738
-235.33724789434166,766
-232.80132432673452,880
-230.2661020039418,823
-227.73158073697357,783
-225.19776033676033,894
-222.66464061415422,1014
-220.1322213799284,972
-217.60050244477725,873
-215.06948361931552,857
-212.53916471408013,935
-210.00954553952818,974
-207.48062590603843,887
-204.9524056239104,811
-202.4248845033651,938
-199.8980623545441,1091
-197.37193898751036,1064
-194.84651421224817,1010
-192.32178783866232,994
-189.79775967657952,1033
-187.27442953574644,975
-184.7517972258321,1032
-182.2298625564256,947
-179.7086253370378,929
-177.18808537710026,994
-174.66824248596583,1208
-172.14909647290835,1193
-169.6306471471229,1059
-167.11289431772548,952
-164.59583779375328,920
-162.07947738416453,1056
-159.5638128978386,1330
-157.04884414357605,1429
-154.53457093009854,1350
-152.02099306604828,1112
-149.50811035998936,953
-146.99592262040665,1202
-144.48442965570587,1308
-141.97363127421409,1441
-139.46352728417958,1664
-136.95411749377126,1678
-134.44540171107985,1390
-131.93737974411636,1220
-129.43005140081357,1362
-126.92341648902493,1805
-124.41747481652521,2393
-121.91222619101006,2972
-119.40767042009657,3497
-116.90380731132257,3506
-114.40063667214702,3395
-111.8981583099503,3319
-109.3963720320337,3661
-106.89527764561933,4061
-104.39487495785067,4754
-101.89516377579241,5858
-99.39614390642998,8087
-96.89781515667039,9860
-94.40017733334128,10527
-91.90323024319173,8295
-89.40697369289148,6021
-86.91140748903172,5257
-84.41653143812482,5083
-81.92234534660395,5959
-79.42884902082358,6746
-76.93604226705907,7056
-74.4439248915071,7196
-71.95249670028534,6778
-69.46175749943245,8591
-66.97170709490854,11682
-64.48234529259423,13876
-61.99367189829195,14686
-59.50568671772464,15487
-57.01838955653636,16914
-54.53178022029283,19294
-52.045858514480074,20714
-49.560624244506016,22863
-47.07607721569923,24106
-44.59221723330904,22120
-42.10904410250669,23058
-39.62655762838392,24312
-37.14475761595372,31779
-34.66364387015028,34431
-32.18321619582866,38898
-29.70347439776515,43705
-27.224418280657005,37745
-24.74604764912317,38010
-22.26836230770266,57534
-19.7913620608565,65041
-17.315046712966478,65041
-14.83941606833514,65041
-12.36446993118659,65041
-9.89020810566592,65041
-7.416630395839093,65041
-4.94373660569363,65041
-2.471526539137585,65041
-6.821210263296962E-13,65041
2.47084320796705,65041
4.941003281093458,65041
7.410480415786196,65041
9.879274808531363,65041
12.347386655893956,65041
14.814816154518212,65041
17.28156350112681,65041
19.74762889252179,65041
22.21301252558385,22797
24.67771459727237,5773
27.141735304626195,4289
29.605074844762612,4591
32.06773341487792,4328
34.52971121224755,3682
36.99100843422559,3197
39.45162527824516,3662
41.91156194181792,3680
44.370818622535126,4073
46.82939551806646,3104
49.287292826160524,3430
51.74451074464503,3233
54.201049471426245,2988
56.65690920448981,3168
59.112090141899785,3204
61.56659248179983,3246
64.02041642241159,2251
66.4735621620365,2083
68.92602989905402,2421
71.37781983192338,2528
73.82893215918205,2252
76.27936707944684,2234
78.72912479141326,2436
81.17820549385567,2508
83.62660938562783,1813
86.07433666566146,1640
88.5213875329681,2109
90.96776218663751,1786
93.41346082583925,1679
95.85848364982041,1673
98.30283085790859,1689
100.7465026495089,1498
103.18949922410604,1549
105.63182078126385,1924
108.07346752062438,1952
110.51443964190923,1700
112.95473734491827,1427
115.39436082953114,1175
117.83331029570547,1247
120.27158594347827,1475
122.7091879729652,1507
125.1461165843615,1365
127.58237197794062,1454
130.01795435405518,1532
132.4528639131364,1372
134.88710085569494,1506
137.32066538231982,1584
139.75355769367923,1353
142.1857779905207,1181
144.61732647366978,1135
147.04820334403132,1159
149.47840880258934,1449
151.90794305040674,1598
154.33680628862487,1475
156.76499871846443,1373
159.19252054122433,1466
161.61937195828352,1541
164.04555317109896,1541
166.47106438120693,1679
168.89590579022217,1736
171.320077599839,1766
173.7435800118302,1877
176.16641322804742,2084
178.58857745042144,2292
181.01007288096173,2191
183.43089972175687,2106
185.85105817497413,2170
188.27054844285988,2083
190.6893707277394,2087
193.10752523201643,2130
195.5250121581745,2237
197.9418317087751,2291
200.3579840864594,2199
202.7734694939469,2330
205.18828813403627,2262
207.6024402096051,2331
210.01592592360964,2161
212.42874547908548,2313
214.84089907914665,2238
217.2523869269868,2180
219.66320922587727,2287
222.0733661791695,2293
224.48285799029293,2302
226.8916848627572,2274
229.29984700014882,2298
231.7073446061355,2283
234.11417788446204,2314
236.520347038953,2196
238.92585227351185,2158
241.33069379212054,2265
243.73487179884035,2386
246.1383864978112,2410
248.541238093252,2350
250.9434267894609,2347
253.34495279081432,2339
255.74581630176783,2441
258.1460175268563,2348
260.54555667069314,2391
262.9444339379703,2425
265.3426495334594,2405
267.7402036620107,2322
270.1370965285529,2307
272.53332833809407,2326
274.9288992957214,2113
277.32380960660055,2254
279.718059475976,2233
282.1116491091717,2145
284.5045787115897,2105
286.89684848871195,2099
289.2884586460981,2089
291.67940938938807,2139
294.0697009242996,2214
296.4593334566299,2160
298.84830719225477,2280
301.23662233712923,2164
303.6242790972866,2140
306.01127767884,2124
308.39761828798066,2125
310.78330113097934,2090
313.16832641418534,1923
315.5526943440269,1891
317.9364051270112,2072
320.3194589697242,2035
322.70185607883093,1973
325.0835966610754,1885
327.4646809232805,1935
329.8451090723478,1953
332.2248813152577,1947
334.6039978590701,1901
336.9824589109231,1913
339.36026467803447,1870
341.7374153677,1837
344.113911187295,1819
346.48975234427337,1870
348.8649390461686,1821
351.2394715005918,1924
353.61334991523415,1826
355.9865744978655,1897
358.35914545633375,1809
360.73106299856715,1872
363.10232733257146,1803
365.47293866643247,1759
367.84289720831396,1796
370.2122031664593,1730
372.5808567491905,1775
374.9488581649083,1737
377.31620762209275,1761
379.6829053293021,1735
382.0489514951745,1777
384.4143463284262,1779
386.7790900378528,1761
389.14318283232853,1653
391.50662492080653,1714
393.86941651231916,1751
396.23155781597745,1717
398.5930490409713,1778
400.9538903965696,1733
403.3140820921202,1760
405.6736243370498,1756
408.03251734086336,1721
410.3907613131465,1787
412.74835646356166,1686
415.10530300185144,1664
417.4616011378372,1681
419.81725108141893,1701
422.1722530425758,1764
424.5266072313656,1634
426.880313857925,1639
429.2333731324701,1651
431.58578526529516,1629
433.9375504667738,1633
436.2886689473588,1712
438.63914091758113,1623
440.9889665880513,1592
443.33814616945835,1596
445.68667987257015,1654
448.03456790823395,1635
450.3818104873759,1618
452.72840782100013,1567
455.07436012019105,1615
457.41966759611057,1593
459.7643304600007,1552
462.10834892318155,1646
464.4517231970525,1561
466.79445349309174,1551
469.1365400228566,1629
471.4779829979826,1622
473.81878263018564,1637
476.15893913125876,1598
478.4984527130747,1696
480.8373235875855,1697
483.17555196682144,1703
485.5131380628919,1701
487.8500820879857,1796
490.1863842543697,1834
492.52204477439034,1937
494.8570638604725,2092
497.1914417251204,2361
499.52517858091653,2648
501.85827464052306,3145
504.19073011668036,3471
506.5225452222086,3682
508.85372017000566,3593
511.18425517304956,3555
513.514150444396,3819
515.8434061971808,4593
518.1720226446176,5413
520.4999999999999,5246
522.8273384766991,4996
525.1540382881666,4637
527.480099647932,4014
529.8055227696037,3108
532.1303078668694,2325
534.454455153496,1936
536.777964843328,1788
539.1008371502907,1684
541.4230722883866,1686
543.744670471698,1652
546.0656319143858,1598
548.3859568306899,1670
550.7056454349294,1597
553.0246979415016,1643
555.3431145648834,1614
557.6608955196306,1637
559.978041020377,1612
562.2945512818363,1620
564.6104265188006,1652
566.9256669461412,1604
569.2402727788082,1517
571.5542442318302,1536
573.8675815203156,1597
576.1802848594508,1664
578.4923544645015,1591
580.8037905508126,1577
583.114593333807,1668
585.4247630289875,1625
587.7342998519354,1664
590.0432040183106,1545
592.3514757438526,1639
594.6591152443794,1616
596.9661227357875,1660
599.2724984340531,1610
601.578242555231,1602
603.8833553154542,1621
606.1878369309362,1539
608.4916876179676,1528
610.7949075929192,1601
613.0974970722403,1615
615.3994562724587,1530
617.7007854101818,1624
620.0014847020951,1636
622.3015543649641,1528
624.6009946156324,1552
626.8998056710224,1639
629.1979877481361,1613
631.4955410640538,1575
633.7924658359349,1552
636.0887622810175,1619
638.3844306166192,1625
640.6794710601358,1667
642.9738838290426,1624
645.2676691408932,1711
647.5608272133207,1611
649.853358264037,1566
652.1452625108324,1659
654.4365401715764,1713
656.7271914642178,1663
659.0172166067838,1704
661.3066158173809,1598
663.5953893141935,1573
665.8835373154867,1668
668.1710600396028,1635
670.4579577049639,1656
672.7442305300709,1724
675.0298787335033,1766
677.3149025339197,1654
679.599302150058,1629
681.8830778007342,1628
684.1662297048437,1661
686.4487580813608,1702
688.7306631493387,1702
691.0119451279091,1626
693.2926042362834,1622
695.5726406937516,1649
697.8520547196814,1637
700.1308465335215,1684
702.4090163547982,1636
704.6865644031171,1652
706.9634908981619,1583
709.2397960596965,1683
711.5154801075631,1666
713.7905432616823,1643
716.0649857420548,1661
718.3388077687592,1685
720.612009561953,1671
722.8845913418733,1659
725.1565533288352,1606
727.427895743234,1640
729.6986188055427,1621
731.9687227363137,1649
734.238207756178,1636
736.5070740858458,1619
738.7753219461066,1685
741.0429515578281,1621
743.3099631419569,1598
745.5763569195191,1665
747.8421331116193,1639
750.1072919394409,1641
752.3718336242467,1618
754.6357583873777,1632
756.8990664502545,1634
759.1617580343765,1669
761.423833361321,1634
763.6852926527457,1679
765.9461361303862,1723
768.206364016058,1756
770.4659765316536,1603
772.7249738991469,1693
774.9833563405886,1716
777.2411240781092,1724
779.4982773339183,1671
781.7548163303044,1746
784.010741289634,1658
786.2660524343538,1749
788.5207499869881,1657
790.7748341701416,1669
793.0283052064964,1673
795.2811633188143,1747
797.5334087299362,1680
799.7850416627813,1719
802.0360623403484,1716
804.2864709857143,1654
806.5362678220353,1686
808.7854530725468,1663
811.0340269605625,1743
813.2819897094754,1683
815.5293415427581,1712
817.77608268396,1709
820.0222133567116,1702
822.2677337847211,1654
824.5126441917765,1679
826.7569448017433,1689
829.0006358385675,1730
831.2437175262731,1698
833.4861900889629,1710
835.7280537508192,1652
837.9693087361026,1742
840.2099552691533,1650
842.4499935743896,1666
844.689423876309,1681
846.9282463994886,1639
849.1664613685833,1685
851.4040690083276,1648
853.6410695435349,1662
855.877463199097,1684
858.1132501999847,1660
860.3484307712487,1689
862.5830051380175,1715
864.8169735254988,1693
867.0503361589791,1679
869.2830932638243,1695
871.5152450654786,1729
873.7467917894654,1688
875.9777336613873,1702
878.2080709069252,1668
880.4378037518389,1712
882.666932421968,1677
884.8954571432301,1677
887.1233781416219,1624
889.3506956432192,1709
891.5774098741766,1715
893.803521060728,1761
896.0290294291852,1693
898.2539352059397,1683
900.4782386174619,1639
902.7019398903011,1697
904.925039251085,1715
907.147536926521,1717
909.3694331433943,1690
911.59072812857,1719
913.8114221089921,1673
916.0315153116827,1656
918.2510079637437,1686
920.4699002923547,1770
922.6881925247761,1681
924.905884888345,1702
927.1229776104793,1661
929.3394709186747,1637
931.555365040506,1661
933.7706602036275,1704
935.9853566357709,1728
938.1994545647489,1722
940.4129542184515,1725
942.6258558248488,1655
944.8381596119883,1680
947.0498658079974,1774
949.2609746410825,1733
951.4714863395287,1759
953.6814011316998,1672
955.8907192460387,1761
958.0994409110671,1684
960.3075663553858,1701
962.5150958076741,1730
964.7220294966913,1700
966.928367651274,1754
969.1341105003388,1731
971.3392582728806,1686
973.5438111979742,1666
975.747769504772,1664
977.9511334225061,1668
980.153903180487,1582
982.3560790081052,1643
984.5576611348289,1669
986.7586497902058,1627
988.9590452038618,1548
991.158847605503,1555
993.3580572249133,1533
995.5566742919558,1550
997.7546990365728,1520
999.952131688785,1475
1002.1489724786926,1469
1004.3452216364743,1438
1006.5408793923874,1448
1008.7359459767691,1476
1010.9304216200343,1446
1013.1243065526781,1378
1015.3176010052733,1361
1017.510305208472,1371
1019.7024193930064,1398
1021.8939437896848,1428
1024.0848786293977,1366
1026.2752241431122,1446
1028.4649805618747,1413
1030.6541481168115,1427
1032.842727039127,1330
1035.0307175601051,1381
1037.2181199111074,1387
1039.4049343235752,1420
1041.591161029029,1409
1043.7768002590683,1391
1045.9618522453698,1375
1048.1463172196918,1344
1050.3301954138697,1405
1052.513487059818,1368
1054.69619238953,1313
1056.8783116350783,1357
1059.0598450286152,1385
1061.2407928023704,1368
1063.4211551886528,1347
1065.6009324198508,1324
1067.780124728432,1327
1069.9587323469414,1277
1072.1367555080046,1393
1074.314194444325,1380
1076.4910493886855,1336
1078.667320573947,1387
1080.843008233051,1349
1083.0181125990161,1326
1085.1926339049414,1276
1087.3665723840027,1323
1089.5399282694575,1341
1091.7127017946405,1314
1093.8848931929647,1349
1096.0565026979243,1262
1098.2275305430899,1278
1100.3979769621128,1259
1102.567842188722,1320
1104.737126456726,1346
1106.9058300000124,1294
1109.0739530525475,1254
1111.2414958483764,1256
1113.4084586216231,1294
1115.5748416064907,1276
1117.7406450372605,1317
1119.9058691482942,1260
1122.0705141740304,1330
1124.2345803489884,1303
1126.3980679077658,1240
1128.5609770850388,1220
1130.7233081155623,1289
1132.8850612341707,1273
1135.0462366757774,1366
1137.2068346753745,1310
1139.3668554680326,1299
1141.526299288901,1278
1143.68516637321,1241
1145.8434569562655,1292
1148.001171273455,1253
1150.158309560244,1282
1152.3148720521767,1278
1154.470858984876,1249
1156.626270594044,1283
1158.7811071154629,1264
1160.9353687849912,1289
1163.089055838569,1249
1165.242168512213,1242
1167.3947070420209,1272
1169.5466716641677,1273
1171.6980626149075,1247
1173.8488801305748,1244
1175.9991244475814,1266
1178.1487958024186,1267
1180.2978944316555,1328
1182.4464205719428,1275
1184.5943744600072,1291
1186.7417563326567,1230
1188.8885664267755,1301
1191.0348049793297,1292
1193.1804722273619,1327
1195.325568407995,1266
1197.4700937584303,1268
1199.614048515948,1275
1201.7574329179074,1335
1203.900247201746,1258
1206.042491604982,1297
1208.1841663652099,1253
1210.3252717201053,1323
1212.465807907422,1280
1214.6057751649923,1297
1216.7451737307279,1355
1218.8840038426192,1291
1221.0222657387353,1312
1223.1599596572241,1277
1225.2970858363137,1271
1227.4336445143094,1281
1229.5696359295966,1300
1231.705060320639,1330
1233.8399179259786,1281
1235.9742089842384,1319
1238.107933734118,1293
1240.2410924143974,1315
1242.373685263935,1378
1244.5057125216676,1322
1246.6371744266116,1276
1248.7680712178621,1346
1250.898403134593,1286
1253.028170416058,1335
1255.1573733015875,1338
1257.2860120305932,1398
1259.4140868425648,1341
1261.54159797707,1384
1263.6685456737569,1366
1265.7949301723515,1339
1267.9207517126597,1321
1270.046010534565,1368
1272.1707068780306,1365
1274.2948409830983,1386
1276.4184130898889,1412
1278.541423438603,1397
1280.6638722695184,1391
1282.785759822993,1413
1284.9070863394636,1393
1287.0278520594447,1337
1289.1480572235314,1409
1291.2677020723963,1430
1293.3867868467923,1393
1295.5053117875495,1455
1297.623277135579,1458
1299.740683131868,1437
1301.8575300174857,1462
1303.973818033578,1448
1306.0895474213703,1498
1308.2047184221678,1520
1310.3193312773528,1527
1312.4333862283888,1491
1314.5468835168163,1434
1316.659823384255,1541
1318.7722060724045,1512
1320.8840318230418,1534
1322.9953008780249,1578
1325.1060134792888,1576
1327.2161698688478,1559
1329.3257702887959,1541
1331.4348149813054,1542
1333.5433041886276,1553
1335.6512381530933,1544
1337.7586171171101,1484
1339.8654413231675,1487
1341.9717110138317,1505
1344.0774264317488,1555
1346.1825878196432,1502
1348.2871954203192,1491
1350.3912494766587,1522
1352.4947502316231,1507
1354.5976979282532,1456
1356.7000928096686,1526
1358.8019351190665,1487
1360.9032250997243,1436
1363.0039629949988,1461
1365.1041490483235,1473
1367.2037835032133,1409
1369.3028666032606,1420
1371.401398592137,1439
1373.4993797135926,1468
1375.5968102114575,1454
1377.6936903296396,1441
1379.7900203121262,1443
1381.8858004029835,1441
1383.9810308463561,1471
1386.075711886469,1382
1388.1698437676241,1363
1390.2634267342032,1427
1392.356461030667,1439
1394.4489469015557,1424
1396.5408845914872,1403
1398.6322743451592,1438
1400.7231164073469,1425
1402.813411022907,1414
1404.903158436773,1371
1406.9923588939578,1448
1409.0810126395531,1402
1411.1691199187303,1419
1413.2566809767386,1461
1415.343696058907,1403
1417.4301654106425,1494
1419.5160892774315,1459
1421.6014679048399,1514
1423.6863015385125,1373
1425.7705904241707,1432
1427.8543348076178,1404
1429.9375349347342,1462
1432.0201910514802,1431
1434.102303403894,1452
1436.1838722380944,1444
1438.2648978002767,1437
1440.3453803367174,1427
1442.4253200937692,1443
1444.5047173178677,1448
1446.5835722555234,1466
1448.6618851533285,1499
1450.739656257952,1448
1452.8168858161434,1521
1454.8935740747306,1504
1456.96972128062,1522
1459.045327680797,1532
1461.120393522327,1543
1463.1949190523528,1531
1465.2689045180973,1521
1467.3423501668608,1566
1469.415256246024,1572
1471.4876230030463,1602
1473.559450685465,1692
1475.6307395408976,1613
1477.7014898170391,1613
1479.771701761665,1639
1481.8413756226287,1660
1483.9105116478618,1698
1485.9791100853772,1679
1488.0471711832643,1687
1490.1146951896926,1679
1492.1816823529098,1697
1494.2481329212433,1745
1496.3140471430984,1689
1498.3794252669609,1713
1500.4442675413939,1735
1502.5085742150404,1709
1504.572345536622,1780
1506.6355817549388,1722
1508.6982831188702,1749
1510.7604498773744,1747
1512.8220822794883,1763
1514.8831805743293,1768
1516.9437450110909,1812
1519.003775839048,1827
1521.0632733075522,1755
1523.1222376660367,1827
1525.1806691640113,1839
1527.2385680510652,1779
1529.2959345768668,1829
1531.3527689911643,1861
1533.4090715437833,1901
1535.4648424846291,1944
1537.5200820636855,1996
1539.5747905310159,1981
1541.6289681367616,1889
1543.6826151311434,1906
1545.7357317644614,1988
1547.7883182870937,2061
1549.8403749494987,2034
1551.8919020022113,2128
1553.9428996958477,2144
1555.9933682811015,2135
1558.0433080087469,2203
1560.0927191296346,2277
1562.1416018946961,2188
1564.1899565549415,2280
1566.2377833614592,2378
1568.2850825654164,2366
1570.3318544180606,2279
1572.3780991707158,2297
1574.423817074788,2311
1576.4690083817595,2221
1578.5136733431923,2185
1580.5578122107272,2123
1582.601425236085,2137
1584.6445126710646,2032
1586.6870747675434,1990
1588.7291117774776,1958
1590.7706239529034,1924
1592.8116115459347,1900
1594.8520748087658,1766
1596.8920139936686,1791
1598.9314293529933,1739
1600.9703211391711,1678
1603.008689604711,1685
1605.0465350022005,1736
1607.0838575843068,1632
1609.1206576037753,1615
1611.1569353134305,1578
1613.1926909661765,1561
1615.2279248149953,1525
1617.2626371129481,1549
1619.2968281131757,1499
1621.3304980688963,1415
1623.3636472334088,1474
1625.39627586009,1398
1627.428384202396,1456
1629.459972513861,1446
1631.4910410480993,1390
1633.5215900588028,1386
1635.551619799744,1335
1637.5811305247717,1384
1639.6101224878166,1375
1641.6385959428862,1343
1643.6665511440683,1320
1645.693988345528,1328
1647.7209078015112,1319
1649.7473097663405,1315
1651.7731944944203,1331
1653.7985622402307,1339
1655.823413258333,1287
1657.847747803366,1349
1659.8715661300494,1309
1661.8948684931793,1258
1663.9176551476316,1327
1665.9399263483624,1296
1667.9616823504057,1305
1669.982923408873,1281
1672.0036497789574,1270
1674.0238617159293,1248
1676.043559475138,1297
1678.0627433120121,1269
1680.081413482059,1261
1682.0995702408654,1294
1684.117213844096,1274
1686.134344547495,1283
1688.1509626068864,1282
1690.1670682781705,1268
1692.182661817329,1263
1694.1977434804217,1288
1696.2123135235875,1299
1698.226372203043,1297
1700.2399197750851,1260
1702.2529564960905,1305
1704.2654826225112,1268
1706.277498410882,1308
1708.2890041178139,1277
1710.2999999999988,1324
1712.3104863142066,1310
1714.3204633172854,1276
1716.329931266163,1244
1718.3388904178469,1293
1720.3473410294214,1207
1722.3552833580516,1319
1724.3627176609807,1242
1726.3696441955308,1266
1728.3760632191033,1322
1730.3819749891782,1314
1732.3873797633146,1287
1734.3922777991502,1331
1736.3966693544012,1229
1738.4005546868639,1248
1740.4039340544127,1242
1742.406807715001,1189
1744.4091759266616,1300
1746.4110389475054,1283
1748.4123970357223,1213
1750.413250449582,1242
1752.4135994474318,1277
1754.4134442876993,1272
1756.4127852288902,1290
1758.4116225295893,1164
1760.4099564484595,1215
1762.407787244244,1256
1764.405115175764,1229
1766.4019405019203,1289
1768.3982634816916,1223
1770.3940843741357,1232
1772.3894034383907,1233
1774.3842209336717,1227
1776.378537119274,1228
1778.372352254571,1152
1780.3656665990156,1248
1782.3584804121397,1207
1784.3507939535534,1239
1786.3426074829463,1249
1788.3339212600863,1229
1790.3247355448211,1218
1792.3150505970766,1232
1794.3048666768573,1257
1796.2941840442477,1257
1798.2830029594106,1193
1800.2713236825884,1218
1802.2591464741004,1235
1804.2464715943465,1202
1806.2332993038058,1222
1808.2196298630352,1246
1810.2054635326708,1250
1812.190800573428,1235
1814.175641246101,1220
1816.1599858115628,1245
1818.1438345307652,1237
1820.127187664738,1225
1822.1100454745924,1237
1824.092408221516,1221
1826.0742761667766,1275
1828.055649571721,1177
1830.0365286977735,1235
1832.0169138064398,1213
1833.9968051593014,1222
1835.9762030180214,1243
1837.9551076443408,1231
1839.9335193000788,1209
1841.9114382471344,1213
1843.888864747485,1213
1845.8657990631878,1196
1847.842241456378,1226
1849.8181921892697,1218
1851.7936515241558,1239
1853.7686197234098,1206
1855.7430970494815,1227
1857.7170837649014,1213
1859.6905801322787,1214
1861.6635864143004,1219
1863.6361028737338,1177
1865.608129773424,1222
1867.5796673762961,1231
1869.5507159453537,1221
1871.521275743678,1196
1873.4913470344313,1289
1875.4609300808534,1234
1877.4300251462632,1227
1879.3986324940588,1272
1881.366752387717,1175
1883.3343850907936,1261
1885.3015308669228,1178
1887.268189979819,1199
1889.2343626932739,1247
1891.2000492711595,1224
1893.1652499774254,1240
1895.1299650761011,1288
1897.0941948312952,1251
1899.0579395071945,1232
1901.0211993680641,1238
1902.98397467825,1206
1904.9462657021745,1261
1906.9080727043415,1265
1908.869395949332,1173
1910.8302357018065,1270
1912.790592226504,1197
1914.7504657882428,1250
1916.7098566519212,1225
1918.6687650825133,1275
1920.6271913450764,1208
1922.5851357047422,1168
1924.5425984267245,1240
1926.499579776314,1215
1928.4560800188833,1204
1930.4120994198802,1224
1932.367638244833,1254
1934.32269675935,1266
1936.2772752291175,1225
1938.231373919899,1238
1940.1849930975404,1203
1942.1381330279637,1276
1944.0907939771696,1180
1946.0429762112412,1216
1947.9946799963363,1266
1949.9459055986945,1199
1951.896653284633,1226
1953.8469233205478,1203
1955.7967159729142,1186
1957.7460315082863,1194
1959.6948701932974,1223
1961.6432322946594,1160
1963.5911180791632,1175
1965.5385278136787,1250
1967.4854617651545,1169
1969.4319202006182,1232
1971.377903387176,1215
1973.3234115920136,1186
1975.268445082395,1187
1977.2130041256642,1174
1979.1570889892423,1192
1981.1006999406304,1207
1983.04383724741,1178
1984.986501177238,1177
1986.928691997853,1221
1988.8704099770712,1191
1990.811655382789,1158
1992.7524284829801,1182
1994.692729545698,1192
1996.6325588390755,1197
1998.5719166313224,1173
2000.5108031907307,1128
2002.4492187856677,1204
2004.387163684583,1198
2006.3246381560011,1158
2008.2616424685298,1169
2010.1981768908527,1159
2012.1342416917332,1166
2014.069837140014,1194
2016.0049635046162,1131
2017.9396210545406,1202
2019.8738100588666,1149
2021.8075307867502,1172
2023.740783507431,1173
2025.6735684902228,1183
2027.6058860045214,1166
2029.5377363198004,1133
2031.4691197056118,1140
2033.4000364315875,1238
2035.3304867674374,1197
2037.260470982952,1180
2039.189989347998,1167
2041.1190421325232,1201
2043.047629606554,1158
2044.9757520401945,1140
2046.9034097036288,1216
2048.8306028671195,1167
2050.7573318010086,1205
2052.683596775716,1198
2054.609398061742,1196
2056.5347359296647,1153
2058.4596106501403,1234
2060.384022493906,1207
2062.3079717317764,1148
2064.231458634646,1172
2066.1544834734873,1149
2068.077046519352,1153
2069.99914804337,1188
2071.9207883167524,1177
2073.8419676107865,1207
2075.7626861968406,1213
2077.6829443463607,1193
2079.6027423308715,1213
2081.522080421977,1197
2083.440958891362,1189
2085.359378010786,1187
2087.2773380520907,1182
2089.194839287196,1160
2091.111881988101,1185
2093.0284664268825,1179
2094.9445928756973,1149
2096.86026160678,1179
2098.775472892446,1216
2100.690227005088,1150
2102.604524217178,1174
2104.5183648012676,1161
2106.431749029985,1216
2108.34467717604,1205
2110.2571495122206,1169
2112.169166311393,1192
2114.080727846503,1172
2115.9918343905747,1181
2117.902486216711,1196
2119.8126835980956,1177
2121.722426807987,1210
2123.6317161197285,1188
2125.5405518067364,1212
2127.448934142509,1220
2129.356863400624,1205
2131.264339854737,1222
2133.1713637785815,1274
2135.077935445972,1194
2136.9840551308002,1183
2138.889723107037,1252
2140.7949396487334,1153
2142.699705030018,1181
2144.6040195250994,1247
2146.507883408264,1184
2148.4112969538774,1223
2150.3142604363848,1209
2152.2167741303097,1180
2154.1188383102535,1224
2156.0204532508997,1162
2157.9216192270064,1186
2159.822336513414,1206
2161.7226053850413,1204
2163.622426116884,1194
2165.5217989840185,1156
2167.4207242616,1160
2169.319202224862,1180
2171.2172331491165,1185
2173.1148173097563,1197
2175.0119549822507,1207
2176.90864644215,1193
2178.8048919650823,1213
2180.7006918267534,1196
2182.596046302952,1285
2184.4909556695407,1197
2186.3854202024645,1141
2188.279440177746,1273
2190.173015871487,1201
2192.066147559868,1196
2193.958835519149,1208
2195.851080025667,1220
2197.7428813558417,1221
2199.6342397861667,1195
2201.5251555932186,1170
2203.415629053651,1216
2205.3056604441986,1246
2207.19525004167,1250
2209.084398122958,1177
2210.9731049650327,1229
2212.861370844941,1209
2214.749196039812,1210
2216.636580826851,1241
2218.523525483344,1219
2220.410030286655,1222
2222.296095514226,1231
2224.1817214435805,1240
2226.066908352319,1167
2227.951656518121,1207
2229.835966218746,1220
2231.71983773203,1196
2233.6032713358913,1252
2235.486267308324,1203
2237.3688259274036,1195
2239.2509474712824,1182
2241.132632218193,1266
2243.013880446447,1249
2244.8946924344323,1234
2246.7750684606203,1213
2248.6550088035574,1213
2250.534513741871,1246
2252.413583554265,1223
2254.292218519526,1208
2256.170418916517,1190
2258.0481850241786,1254
2259.925517121534,1162
2261.8024154876825,1203
2263.678880401803,1212
2265.5549121431536,1222
2267.430510991071,1229
2269.305677224971,1207
2271.180411124348,1210
2273.0547129687766,1142
2274.9285830379076,1192
2276.8020216114737,1174
2278.6750289692845,1202
2280.5476053912294,1236
2282.4197511572766,1219
2284.2914665474727,1233
2286.162751841943,1274
2288.0336073208937,1221
2289.904033264608,1252
2291.774029953448,1207
2293.6435976678554,1238
2295.5127366883517,1229
2297.381447295534,1216
2299.2497297700825,1220
2301.1175843927526,1187
2302.9850114443825,1206
2304.852011205885,1198
2306.7185839582553,1141
2308.5847299825664,1160
2310.4504495599676,1122
2312.3157429716925,1136
2314.1806104990483,1122
2316.0450524234247,1172
2317.9090690262888,1127
2319.772660589186,1117
2321.635827393742,1118
2323.498569721661,1126
2325.3608878547248,1126
2327.2227820747967,1113
2329.0842526638157,1124
2330.945299903803,1146
2332.805924076857,1098
2334.6661254651535,1121
2336.525904350951,1071
2338.3852610165827,1121
2340.244195744464,1050
2342.102708817088,1099
2343.9608005170253,1127
2345.8184711269287,1145
2347.675720929526,1083
2349.532550207628,1107
2351.38895924412,1122
2353.24494832197,1142
2355.100517724223,1121
2356.955667734004,1115
2358.810398634514,1085
2360.664710709037,1148
2362.5186042409337,1126
2364.3720795136437,1169
2366.225136810686,1091
2368.0777764156583,1163
2369.929998612237,1171
2371.7818036841777,1126
2373.633191915315,1130
2375.484163589562,1135
2377.3347189909114,1098
2379.184858403434,1133
2381.03458211128,1163
2382.8838903986775,1122
2384.732783549936,1121
2386.5812618494406,1179
2388.4293255816588,1194
2390.2769750311327,1137
2392.1242104824883,1133
2393.971032220427,1073
2395.8174405297295,1167
2397.6634356952563,1182
2399.509018001947,1135
2401.3541877348193,1152
2403.1989451789705,1133
2405.043290619576,1122
2406.8872243418905,1190
2408.730746631247,1130
2410.5738577730594,1159
2412.4165580528183,1101
2414.258847756095,1145
2416.100727168537,1169
2417.9421965758734,1132
2419.783256263912,1197
2421.623906518538,1162
2423.4641476257157,1193
2425.303979871491,1166
2427.143403541984,1170
2428.9824189233977,1145
2430.821026302012,1156
2432.6592259641866,1162
2434.497018196361,1146
2436.33440328505,1172
2438.171381516851,1150
2440.00795317844,1105
2441.844118556569,1134
2443.6798779380724,1165
2445.5152316098606,1161
2447.3501798589255,1130
2449.1847229723357,1173
2451.0188612372403,1174
2452.8525949408663,1123
2454.6859243705203,1163
2456.518849813587,1172
2458.3513715575314,1112
2460.183489889895,1103
2462.015205098301,1157
2463.8465174704493,1150
2465.67742729412,1148
2467.5079348571717,1148
2469.338040447542,1182
2471.1677443532476,1157
2472.9970468623833,1167
2474.825948263123,1102
2476.6544488437207,1155
2478.482548892508,1154
2480.310248697896,1138
2482.137548548374,1145
2483.9644487325118,1117
2485.790949538956,1186
2487.617051256433,1164
2489.44275417375,1096
2491.26805857979,1151
2493.0929647635157,1178
2494.917473013971,1153
2496.741583620276,1183
2498.5652968716304,1161
2500.3886130573137,1165
2502.2115324666834,1172
2504.0340553891765,1198
2505.856182114308,1182
2507.6779129316733,1173
2509.499248130945,1191
2511.3201880018764,1188
2513.140732834298,1179
2514.9608829181198,1182
2516.780638543331,1200
2518.6,1144
2520.418967578273,1142
2522.237541568376,1135
2524.0557222606144,1211
2525.8735099453706,1142
2527.6909049131086,1204
2529.507907454368,1186
2531.32451785977,1154
2533.140736420014,1188
2534.9565634258774,1174
2536.771999168218,1206
2538.5870439379714,1197
2540.4016980261526,1196
2542.2159617238544,1234
2544.02983532225,1247
2545.8433191125914,1207
2547.656413386209,1182
2549.4691184345115,1196
2551.2814345489874,1285
2553.093362021204,1256
2554.904901142808,1223
2556.716052205523,1266
2558.526815501153,1271
2560.3371913215824,1175
2562.147179958771,1213
2563.956781704761,1281
2565.7659968516705,1272
2567.5748256916986,1284
2569.3832685171224,1256
2571.1913256202984,1249
2572.9989972936614,1307
2574.806283829725,1336
2576.613185521084,1313
2578.4197026604074,1288
2580.2258355404483,1266
2582.031584454035,1315
2583.836949694077,1295
2585.6419315535613,1279
2587.4465303255533,1363
2589.2507463032002,1342
2591.0545797797245,1353
2592.8580310484303,1388
2594.6611004026995,1325
2596.463788135992,1330
2598.266094541849,1310
2600.0680199138874,1301
2601.869564545807,1307
2603.670728731383,1286
2605.4715127644704,1296
2607.2719169390048,1267
2609.071941548998,1332
2610.8715868885433,1296
2612.670853251811,1296
2614.469740933052,1306
2616.268250226594,1292
2618.0663814268455,1339
2619.864134828292,1260
2621.6615107255006,1339
2623.458509413115,1330
2625.2551311858597,1358
2627.0513763385347,1282
2628.8472451660223,1295
2630.6427379632833,1250
2632.4378550253564,1314
2634.232596647359,1309
2636.026963124488,1321
2637.8209547520187,1238
2639.6145718253065,1301
2641.407814639785,1252
2643.200683490966,1266
2644.9931786744414,1298
2646.7853004858807,1277
2648.577049221034,1281
2650.3684251757277,1250
2652.1594286458712,1247
2653.9500599274484,1205
2655.740319316525,1215
2657.5302071092437,1246
2659.3197236018286,1239
2661.10886909058,1226
2662.8976438718782,1269
2664.686048242183,1244
2666.4740824980327,1257
2668.2617469360443,1298
2670.0490418529134,1251
2671.8359675454153,1206
2673.622524310403,1186
2675.408712444811,1203
2677.1945322456495,1208
2678.979984010009,1221
2680.76506803506,1174
2682.5497846180497,1175
2684.334134056306,1230
2686.1181166472343,1179
2687.9017326883213,1214
2689.6849824771293,1192
2691.4678663113013,1177
2693.2503844885596,1174
2695.032537306705,1200
2696.8143250636167,1210
2698.5957480572542,1206
2700.3768065856534,1121
2702.1575009469316,1129
2703.937831439283,1141
2705.717798360982,1198
2707.4974020103837,1128
2709.276642685917,1135
2711.055520686095,1134
2712.834036309506,1147
2714.612189854819,1120
2716.389981620782,1180
2718.1674119062204,1132
2719.944481010041,1148
2721.721189231226,1084
2723.4975368688415,1098
2725.273524222027,1111
2727.0491515900053,1131
2728.824419272075,1132
2730.5993275676146,1121
2732.3738767760838,1127
2734.148067197016,1159
2735.921899130031,1141
2737.6953728748194,1130
2739.468488731156,1086
2741.2412469988926,1109
2743.0136479779617,1049
2744.785691968372,1121
2746.5573792702116,1080
2748.3287101836504,1134
2750.099685008934,1122
2751.870304046388,1134
2753.640567596418,1124
2755.4104759595057,1116
2757.1800294362156,1153
2758.949228327187,1096
2760.7180729331412,1051
2762.486563554877,1097
2764.254700493272,1104
2766.022484049284,1090
2767.789914523947,1105
2769.5569922183786,1084
2771.3237174337705,1083
2773.090090471394,1090
2774.8561116326036,1141
2776.6217812188274,1094
2778.3870995315756,1134
2780.1520668724356,1091
2781.9166835430747,1074
2783.6809498452394,1110
2785.444866080754,1129
2787.2084325515225,1088
2788.971649559527,1085
2790.73451740683,1091
2792.4970363955713,1092
2794.2592068279705,1115
2796.0210290063264,1094
2797.7825032330147,1077
2799.543629810493,1107
2801.304409041296,1111
2803.0648412280366,1079
2804.8249266734088,1066
2806.5846656801846,1076
2808.344058551212,1097
2810.1031055894246,1100
2811.8618070978273,1083
2813.6201633795085,1135
2815.378174737636,1149
2817.1358414754536,1092
2818.893163896285,1096
2820.6501423035334,1134
2822.4067770006814,1156
2824.1630682912883,1101
2825.9190164789957,1059
2827.6746218675207,1099
2829.429884760661,1127
2831.184805462294,1120
2832.9393842763743,1132
2834.693621506936,1142
2836.4475174580916,1081
2838.201072434034,1084
2839.954286739034,1138
2841.707160677441,1145
2843.459694553685,1120
2845.2118886722724,1087
2846.96374333779,1117
2848.7152588549034,1084
2850.4664355283567,1146
2852.217273662973,1107
2853.9677735636546,1067
2855.7179355353833,1085
2857.4677598832186,1153
2859.217246912299,1137
2860.9663969278427,1163
2862.715210235146,1108
2864.4636871395846,1065
2866.211827946614,1105
2867.9596329617652,1105
2869.7071024906536,1131
2871.4542368389684,1103
2873.20103631248,1090
2874.947501217038,1082
2876.6936318585695,1176
2878.4394285430812,1100
2880.1848915766604,1111
2881.9300212654707,1110
2883.6748179157553,1095
2885.4192818338374,1097
2887.1634133261173,1072
2888.907212699077,1112
2890.6506802592744,1121
2892.393816313348,1106
2894.1366211680142,1141
2895.8790951300693,1076
2897.621238506388,1075
2899.363051603925,1115
2901.1045347297118,1146
2902.8456881908596,1152
2904.58651229456,1091
2906.327007348081,1119
2908.067173658772,1124
2909.8070115340597,1111
2911.5465212814497,1082
2913.285703208527,1131
2915.0245576229563,1111
2916.7630848324807,1098
2918.5012851449196,1118
2920.2391588681758,1086
2921.976706310227,1139
2923.7139277791334,1101
2925.4508235830313,1138
2927.187394030137,1115
2928.923639428745,1136
2930.6595600872306,1157
2932.395156314046,1127
2934.1304284177218,1122
2935.8653767068713,1096
2937.6000014901815,1132
2939.3343030764227,1113
2941.068281774442,1102
2942.8019378931644,1115
2944.5352717415976,1087
2946.2682836288236,1146
2948.0009738640065,1084
2949.7333427563885,1105
2951.465390615289,1104
2953.1971177501086,1099
2954.9285244703265,1102
2956.6596110855,1098
2958.3903779052657,1127
2960.1208252393385,1104
2961.8509533975125,1074
2963.5807626896617,1061
2965.3102534257378,1149
2967.0394259157715,1137
2968.768280469873,1091
2970.496817398232,1093
2972.2250370111146,1091
2973.952939618869,1085
2975.6805255319196,1136
2977.4077950607707,1077
2979.134748516006,1130
2980.861386208289,1133
2982.587708448359,1102
2984.313715547037,1086
2986.039407815222,1031
2987.764785563891,1080
2989.489849104102,1101
2991.2145987469908,1085
2992.9390348037705,1116
2994.6631575857346,1120
2996.3869674042576,1148
2998.1104645707887,1136
2999.83364939686,1105
3001.5565221940783,1102
3003.2790832741334,1055
3005.0013329487924,1055
3006.7232715298996,1101
3008.4448993293804,1077
3010.166216659239,1139
3011.887223831558,1091
3013.607921158498,1065
3015.3283089522993,1056
3017.0483875252826,1045
3018.7681571898443,1070
3020.4876182584626,1132
3022.2067710436927,1074
3023.9256158581707,1084
3025.644153014609,1124
3027.362382825801,1083
3029.0803056046193,1075
3030.797921664012,1053
3032.5152313170106,1060
3034.2322348767225,1060
3035.9489326563353,1074
3037.665324969115,1055
3039.3814121284063,1016
3041.097194447633,1073
3042.812672240299,1085
3044.5278458199855,1058
3046.2427155003525,1114
3047.9572815951406,1074
3049.671544418167,1083
3051.38550428333,1102
3053.0991615046073,1140
3054.812516396051,1103
3056.5255692717974,1134
3058.2383204460575,1112
3059.9507702331257,1080
3061.662918947372,1110
3063.3747669032446,1107
3065.0863144152736,1092
3066.7975617980674,1068
3068.508509366309,1156
3070.219157434767,1096
3071.9295063182844,1089
3073.639556331785,1050
3075.3493077902704,1073
3077.058761008821,1068
3078.7679163025964,1067
3080.476773986837,1052
3082.1853343768594,1013
3083.89359778806,1072
3085.6015645359153,1080
3087.3092349359786,1077
3089.016609303884,1001
3090.7236879553434,1144
3092.4304712061476,1090
3094.136959372166,1063
3095.843152769349,1055
3097.5490517137237,1061
3099.2546565213966,1076
3100.959967508554,1076
3102.66498499146,1096
3104.3697092864577,1056
3106.0741407099695,1051
3107.778279578498,1103
3109.482126208622,1098
3111.1856809170004,1084
3112.8889440203716,1048
3114.5919158355528,1069
3116.294596679439,1124
3117.996986869006,1152
3119.6990867213062,1077
3121.4008965534726,1105
3123.102416682717,1057
3124.803647426329,1087
3126.5045891016784,1075
3128.205242026213,1082
3129.90560651746,1060
3131.605682893025,1076
3133.3054714705922,1093
3135.0049725679282,1089
3136.7041865028714,1097
3138.4031135933465,1077
3140.101754157353,1079
3141.800108512971,1079
3143.498176978357,1067
3145.1959598717494,1027
3146.8934575114636,1103
3148.5906702158954,1086
3150.2875983035183,1033
3151.9842420928853,1060
3153.680601902627,1053
3155.376678051456,1074
3157.07247085816,1082
3158.767980641609,1079
3160.463207720748,1054
3162.158152414606,1112
3163.8528150422862,1081
3165.5471959229726,1104
3167.2412953759303,1129
3168.9351137204976,1039
3170.628651276098,1063
3172.3219083622307,1094
3174.014885298474,1112
3175.707582404485,1102
3177.4000000000005,1071
3179.092138404835,1061
3180.7839979388846,1082
3182.47557892212,1090
3184.166881674594,1106
3185.8579065164386,1092
3187.5486537678626,1128
3189.2391237491547,1031
3190.9293167806827,1050
3192.6192331828934,1053
3194.3088732763117,1063
3195.998237381542,1081
3197.687325819268,1058
3199.376138910251,1051
3201.064676975334,1042
3202.7529403354347,1069
3204.4409293115523,1028
3206.1286442247647,1065
3207.816085396229,1007
3209.5032531471825,1048
3211.190147798936,1073
3212.8767696728846,1052
3214.5631190905015,1060
3216.2491963733373,1048
3217.9350018430214,1058
3219.6205358212637,1017
3221.305798629851,1073
3222.990790590651,1023
3224.6755120256103,1026
3226.359963256751,1024
3228.0441446061795,1049
3229.7280563960758,1061
3231.411698948703,1114
3233.0950725863995,1024
3234.778177631587,1060
3236.461014406761,1044
3238.1435832345005,1039
3239.8258844374595,1095
3241.507918338374,1068
3243.1896852600576,1016
3244.8711855254023,1075
3246.552419457381,1108
3248.233387379042,1094
3249.914089613516,1093
3251.59452648401,1142
3253.274698313813,1092
3254.95460542629,1062
3256.6342481448855,1064
3258.313626793125,1047
3259.9927416946084,1056
3261.6715931730196,1014
3263.3501815521176,1044
3265.0285071557437,1074
3266.706570307815,1081
3268.3843713323286,1026
3270.0619105533615,1058
3271.739188295068,1046
3273.4162048816834,1078
3275.0929606375184,1080
3276.769455886966,1065
3278.445690954498,1067
3280.1216661646613,1059
3281.797381842087,1007
3283.4728383114807,1033
3285.1480358976296,1061
3286.8229749253996,1083
3288.4976557197333,1018
3290.172078605655,1082
3291.846243908266,1023
3293.5201519527463,1064
3295.193803064357,1012
3296.8671975684374,1032
3298.5403357904024,1051
3300.21321805575,1032
3301.8858446900567,1030
3303.558216018975,1084
3305.23033236824,1051
3306.9021940636603,1071
3308.57380143113,1060
3310.2451547966184,1077
3311.916254486174,1124
3313.5871008259246,1106
3315.2576941420766,1091
3316.9280347609147,1060
3318.5981230088046,1051
3320.2679592121895,1062
3321.9375436975924,1032
3323.606876791612,1034
3325.27595882093,1042
3326.944790112305,1010
3328.6133709925753,1023
3330.2817017886573,995
3331.949782827547,1038
3333.617614436319,1054
3335.2851969421245,1078
3336.952530672199,1134
3338.619615953853,1094
3340.286453114475,1119
3341.9530424815357,1071
3343.619384382583,1065
3345.2854791452437,1043
3346.951327097224,1045
3348.6169285663073,1077
3350.2822838803577,1048
3351.947393367319,1028
3353.61225735521,1070
3355.2768761721345,1098
3356.9412501462693,1057
3358.605379605873,1047
3360.2692648792827,1054
3361.9329062949146,1087
3363.596304181263,1011
