CollectionTime,9/25/2024 10:43:00 AM
ExposureUsed,3
CalibratedSpectrum
-962.7078968117929,747
-959.9714848408522,818
-957.2358232597828,833
-954.5009119013725,856
-951.7667505983302,831
-949.0333391832855,848
-946.3006774887896,813
-943.5687653473143,816
-940.837602591253,783
-938.1071890529199,807
-935.3775245645503,793
-932.6486089583007,825
-929.9204420662485,818
-927.1930237203925,819
-924.4663537526524,862
-921.7404319948689,838
-919.0152582788041,853
-916.2908324361409,783
-913.5671542984834,877
-910.8442236973568,857
-908.1220404642074,796
-905.4006044304027,836
-902.679915427231,841
-899.959973285902,801
-897.2407778375464,805
-894.5223289132158,858
-891.8046263438832,842
-889.0876699604426,828
-886.3714595937089,895
-883.6559950744183,798
-880.9412762332282,800
-878.2273029007168,863
-875.5140749073835,855
-872.8015920836489,873
-870.0898542598545,839
-867.3788612662631,883
-864.6686129330585,840
-861.9591090903457,853
-859.2503495681506,826
-856.5423341964203,831
-853.8350628050229,853
-851.1285352237478,833
-848.4227512823054,842
-845.7177108103272,908
-843.0134136373656,879
-840.3098595928943,865
-837.6070485063082,853
-834.9049802069229,855
-832.2036545239757,846
-829.5030712866244,847
-826.8032303239481,876
-824.1041314649472,859
-821.4057745385428,858
-818.7081593735775,871
-816.0112857988148,870
-813.3151536429393,902
-810.6197627345566,896
-807.9251129021936,862
-805.2312039742981,851
-802.5380357792392,831
-799.8456081453069,867
-797.1539209007124,888
-794.462973873588,872
-791.772766891987,898
-789.083299783884,904
-786.3945723771743,862
-783.7065844996748,889
-781.0193359791231,818
-778.3328266431781,882
-775.6470563194197,928
-772.9620248353489,814
-770.2777320183878,860
-767.5941776958798,854
-764.9113616950891,936
-762.2292838432011,882
-759.5479439673222,855
-756.8673418944801,849
-754.1874774516235,862
-751.5083504656222,890
-748.8299607632671,867
-746.15230817127,917
-743.475392516264,873
-740.7992136248035,911
-738.1237713233636,924
-735.4490654383407,944
-732.7750957960521,896
-730.1018622227365,817
-727.4293645445534,861
-724.7576025875837,851
-722.0865761778291,886
-719.4162851412126,921
-716.7467293035781,937
-714.0779084906909,967
-711.409822528237,964
-708.7424712418238,886
-706.0758544569796,932
-703.4099719991541,927
-700.7448236937178,957
-698.0804093659622,939
-695.4167288411002,918
-692.7537819442656,937
-690.0915685005134,929
-687.4300883348199,902
-684.7693412720819,965
-682.1093271371178,947
-679.4500457546669,950
-676.7914969493897,944
-674.1336805458676,902
-671.4765963686034,933
-668.8202442420206,929
-666.1646239904642,952
-663.5097354382001,929
-660.8555784094151,953
-658.2021527282176,960
-655.5494582186366,978
-652.8974947046223,951
-650.2462620100463,953
-647.5957599587009,949
-644.9459883742998,954
-642.2969470804776,978
-639.6486359007902,952
-637.0010546587141,958
-634.3542031776476,984
-631.7080812809096,982
-629.0626887917401,949
-626.4180255333008,951
-623.7740913286734,1052
-621.1308860008619,1049
-618.4884093727904,1021
-615.8466612673046,995
-613.2056415071715,937
-610.5653499150785,970
-607.9257863136347,993
-605.28695052537,1004
-602.6488423727357,985
-600.0114616781036,1039
-597.3748082637674,1048
-594.7388819519412,1037
-592.1036825647604,1030
-589.4692099242818,1086
-586.8354638524829,1048
-584.2024441712624,1140
-581.5701507024403,1096
-578.9385832677575,1070
-576.3077416888759,1067
-573.6776257873787,1033
-571.0482353847704,1019
-568.4195703024757,1031
-565.7916303618415,1050
-563.164415384135,975
-560.5379251905453,1001
-557.9121596021815,1016
-555.2871184400748,1039
-552.6628015251767,1044
-550.0392086783606,1043
-547.4163397204204,1031
-544.794194472071,1020
-542.1727727539491,1091
-539.5520743866118,1006
-536.9320991905377,1110
-534.3128469861261,1131
-531.6943175936979,1176
-529.0765108334947,1138
-526.4594265256793,1161
-523.8430644903358,1249
-521.2274245474689,1423
-518.612506517005,1441
-515.9983102187913,1494
-513.3848354725959,1582
-510.77208209810846,1637
-508.16004991493924,1729
-505.5487387426199,1725
-502.9381484006032,1791
-500.3282787082628,1728
-497.71912948489364,1664
-495.1107005497117,1528
-492.5029917218539,1377
-489.8960028203786,1361
-487.28973366426493,1271
-484.68418407241325,1202
-482.07935386364494,1191
-479.47524285670266,1182
-476.87185087025,1172
-474.2691777228715,1248
-471.66722323307334,1297
-469.0659872192821,1256
-466.4654694998459,1237
-463.86566989303384,1217
-461.26658821703614,1212
-458.66822428996414,1187
-456.07057792985,1217
-453.4736489546475,1262
-450.877437182231,1283
-448.28194243039627,1196
-445.68716451686,1181
-443.09310325926003,1173
-440.49975847515555,1182
-437.9071299820263,1172
-435.31521759727354,1150
-432.72402113821954,1194
-430.13354042210767,1249
-427.5437752661022,1207
-424.95472548728867,1247
-422.36639090267386,1210
-419.7787713291855,1249
-417.1918665836721,1259
-414.60567648290385,1220
-412.0202008435715,1280
-409.4354394822874,1312
-406.8513922155845,1338
-404.26805885991723,1355
-401.685439231661,1316
-399.103533147112,1294
-396.522340422488,1287
-393.9418608739278,1307
-391.3620943174908,1241
-388.7830405691583,1265
-386.2046994448317,1204
-383.6270707603344,1146
-381.05015433141045,1085
-378.473949973725,1026
-375.8984575028645,979
-373.32367673433623,936
-370.74960748356875,865
-368.1762495659117,834
-365.60360279663576,718
-363.03166699093265,659
-360.4604419639154,623
-357.8899275306178,632
-355.32012350599507,615
-352.7510297049233,594
-350.1826459421999,545
-347.61497203254316,547
-345.04800779059235,568
-342.4817530309082,617
-339.91620756797226,565
-337.35137121618743,531
-334.7872437898774,597
-332.22382510328725,597
-329.66111497058273,538
-327.09911320585127,553
-324.53781962310075,521
-321.9772340362607,485
-319.4173562591816,522
-316.8581861056348,525
-314.2997233893127,540
-311.7419679238294,601
-309.1849195227194,632
-306.62857799943856,584
-304.0729431673641,562
-301.51801483979375,579
-298.963792829947,661
-296.41027695096386,615
-293.85746701590574,591
-291.3053628377552,618
-288.7539642294155,628
-286.2032710037115,646
-283.65328297338897,662
-281.1039999511146,622
-278.5554217494762,660
-276.007548180983,739
-273.4603790580651,731
-270.9139141930734,731
-268.3681533982807,815
-265.8230964858798,735
-263.27874326798565,744
-260.7350935566336,732
-258.1921471637804,761
-255.6499039013039,861
-253.10836358100266,827
-250.56752601459698,705
-248.02739101372765,803
-245.48795838995704,800
-242.94922795476816,756
-240.41119951956557,753
-237.8738728956746,728
-235.33724789434166,822
-232.80132432673452,844
-230.2661020039418,845
-227.73158073697357,867
-225.19776033676033,994
-222.66464061415422,1124
-220.1322213799284,1056
-217.60050244477725,770
-215.06948361931552,758
-212.53916471408013,991
-210.00954553952818,1121
-207.48062590603843,1079
-204.9524056239104,952
-202.4248845033651,986
-199.8980623545441,1077
-197.37193898751036,1163
-194.84651421224817,1056
-192.32178783866232,899
-189.79775967657952,997
-187.27442953574644,958
-184.7517972258321,950
-182.2298625564256,895
-179.7086253370378,924
-177.18808537710026,1030
-174.66824248596583,1199
-172.14909647290835,1252
-169.6306471471229,1199
-167.11289431772548,1083
-164.59583779375328,1044
-162.07947738416453,1143
-159.5638128978386,1388
-157.04884414357605,1424
-154.53457093009854,1414
-152.02099306604828,1164
-149.50811035998936,1067
-146.99592262040665,1267
-144.48442965570587,1357
-141.97363127421409,1527
-139.46352728417958,1793
-136.95411749377126,1618
-134.44540171107985,1264
-131.93737974411636,1156
-129.43005140081357,1363
-126.92341648902493,2132
-124.41747481652521,2749
-121.91222619101006,3232
-119.40767042009657,3394
-116.90380731132257,3006
-114.40063667214702,2912
-111.8981583099503,2793
-109.3963720320337,2471
-106.89527764561933,3102
-104.39487495785067,4612
-101.89516377579241,6855
-99.39614390642998,9536
-96.89781515667039,10907
-94.40017733334128,9742
-91.90323024319173,7318
-89.40697369289148,6247
-86.91140748903172,6077
-84.41653143812482,6819
-81.92234534660395,7313
-79.42884902082358,7607
-76.93604226705907,9201
-74.4439248915071,10884
-71.95249670028534,12126
-69.46175749943245,12901
-66.97170709490854,12164
-64.48234529259423,10449
-61.99367189829195,10025
-59.50568671772464,10903
-57.01838955653636,11685
-54.53178022029283,15343
-52.045858514480074,19872
-49.560624244506016,24474
-47.07607721569923,26288
-44.59221723330904,27014
-42.10904410250669,25380
-39.62655762838392,26758
-37.14475761595372,30477
-34.66364387015028,39304
-32.18321619582866,46582
-29.70347439776515,46958
-27.224418280657005,48946
-24.74604764912317,54143
-22.26836230770266,59982
-19.7913620608565,65041
-17.315046712966478,65041
-14.83941606833514,65041
-12.36446993118659,65041
-9.89020810566592,65041
-7.416630395839093,65041
-4.94373660569363,65041
-2.471526539137585,65041
-6.821210263296962E-13,65041
2.47084320796705,65041
4.941003281093458,65041
7.410480415786196,65041
9.879274808531363,65041
12.347386655893956,65041
14.814816154518212,65041
17.28156350112681,65041
19.74762889252179,65041
22.21301252558385,24169
24.67771459727237,6154
27.141735304626195,5149
29.605074844762612,5877
32.06773341487792,4728
34.52971121224755,4410
36.99100843422559,3789
39.45162527824516,3709
41.91156194181792,3571
44.370818622535126,3564
46.82939551806646,3490
49.287292826160524,3694
51.74451074464503,4060
54.201049471426245,3354
56.65690920448981,2857
59.112090141899785,3170
61.56659248179983,3015
64.02041642241159,2336
66.4735621620365,2150
68.92602989905402,2408
71.37781983192338,2777
73.82893215918205,2583
76.27936707944684,2436
78.72912479141326,2295
81.17820549385567,2031
83.62660938562783,1697
86.07433666566146,1523
88.5213875329681,1842
90.96776218663751,1824
93.41346082583925,1757
95.85848364982041,1682
98.30283085790859,1573
100.7465026495089,1350
103.18949922410604,1422
105.63182078126385,1680
108.07346752062438,1800
110.51443964190923,1797
112.95473734491827,1508
115.39436082953114,1464
117.83331029570547,1492
120.27158594347827,1701
122.7091879729652,1760
125.1461165843615,1659
127.58237197794062,1627
130.01795435405518,1648
132.4528639131364,1534
134.88710085569494,1723
137.32066538231982,1900
139.75355769367923,1595
142.1857779905207,1245
144.61732647366978,1050
147.04820334403132,1127
149.47840880258934,1461
151.90794305040674,1799
154.33680628862487,1864
156.76499871846443,1547
159.19252054122433,1574
161.61937195828352,1554
164.04555317109896,1647
166.47106438120693,1914
168.89590579022217,1985
171.320077599839,2139
173.7435800118302,2309
176.16641322804742,2400
178.58857745042144,2734
181.01007288096173,2673
183.43089972175687,2474
185.85105817497413,2432
188.27054844285988,2412
190.6893707277394,2524
193.10752523201643,2625
195.5250121581745,2901
197.9418317087751,2906
200.3579840864594,2730
202.7734694939469,2915
205.18828813403627,2856
207.6024402096051,2881
210.01592592360964,2851
212.42874547908548,2857
214.84089907914665,2834
217.2523869269868,2724
219.66320922587727,2823
222.0733661791695,2877
224.48285799029293,2884
226.8916848627572,2729
229.29984700014882,2811
231.7073446061355,2753
234.11417788446204,2822
236.520347038953,2781
238.92585227351185,2828
241.33069379212054,2941
243.73487179884035,3160
246.1383864978112,3103
248.541238093252,2969
250.9434267894609,2898
253.34495279081432,2954
255.74581630176783,2925
258.1460175268563,2947
260.54555667069314,2935
262.9444339379703,3105
265.3426495334594,3092
267.7402036620107,2884
270.1370965285529,2807
272.53332833809407,2827
274.9288992957214,2775
277.32380960660055,2773
279.718059475976,2745
282.1116491091717,2695
284.5045787115897,2667
286.89684848871195,2688
289.2884586460981,2697
291.67940938938807,2680
294.0697009242996,2690
296.4593334566299,2680
298.84830719225477,2782
301.23662233712923,2801
303.6242790972866,2679
306.01127767884,2780
308.39761828798066,2723
310.78330113097934,2699
313.16832641418534,2616
315.5526943440269,2610
317.9364051270112,2560
320.3194589697242,2582
322.70185607883093,2469
325.0835966610754,2487
327.4646809232805,2521
329.8451090723478,2567
332.2248813152577,2596
334.6039978590701,2519
336.9824589109231,2605
339.36026467803447,2508
341.7374153677,2447
344.113911187295,2532
346.48975234427337,2585
348.8649390461686,2600
351.2394715005918,2593
353.61334991523415,2508
355.9865744978655,2500
358.35914545633375,2481
360.73106299856715,2503
363.10232733257146,2466
365.47293866643247,2409
367.84289720831396,2382
370.2122031664593,2477
372.5808567491905,2489
374.9488581649083,2462
377.31620762209275,2429
379.6829053293021,2390
382.0489514951745,2444
384.4143463284262,2392
386.7790900378528,2425
389.14318283232853,2372
391.50662492080653,2348
393.86941651231916,2371
396.23155781597745,2394
398.5930490409713,2380
400.9538903965696,2416
403.3140820921202,2409
405.6736243370498,2420
408.03251734086336,2286
410.3907613131465,2378
412.74835646356166,2330
415.10530300185144,2267
417.4616011378372,2249
419.81725108141893,2291
422.1722530425758,2293
424.5266072313656,2322
426.880313857925,2313
429.2333731324701,2365
431.58578526529516,2372
433.9375504667738,2428
436.2886689473588,2342
438.63914091758113,2332
440.9889665880513,2310
443.33814616945835,2302
445.68667987257015,2341
448.03456790823395,2341
450.3818104873759,2257
452.72840782100013,2288
455.07436012019105,2301
457.41966759611057,2331
459.7643304600007,2287
462.10834892318155,2178
464.4517231970525,2237
466.79445349309174,2209
469.1365400228566,2282
471.4779829979826,2301
473.81878263018564,2266
476.15893913125876,2219
478.4984527130747,2383
480.8373235875855,2400
483.17555196682144,2419
485.5131380628919,2372
487.8500820879857,2545
490.1863842543697,2530
492.52204477439034,2551
494.8570638604725,2688
497.1914417251204,2886
499.52517858091653,3037
501.85827464052306,3379
504.19073011668036,3582
506.5225452222086,3770
508.85372017000566,3683
511.18425517304956,3664
513.514150444396,3957
515.8434061971808,4825
518.1720226446176,5622
520.4999999999999,5557
522.8273384766991,5483
525.1540382881666,5026
527.480099647932,4439
529.8055227696037,3783
532.1303078668694,2993
534.454455153496,2607
536.777964843328,2564
539.1008371502907,2411
541.4230722883866,2445
543.744670471698,2430
546.0656319143858,2301
548.3859568306899,2382
550.7056454349294,2262
553.0246979415016,2287
555.3431145648834,2300
557.6608955196306,2290
559.978041020377,2326
562.2945512818363,2455
564.6104265188006,2338
566.9256669461412,2336
569.2402727788082,2348
571.5542442318302,2382
573.8675815203156,2380
576.1802848594508,2360
578.4923544645015,2328
580.8037905508126,2348
583.114593333807,2399
585.4247630289875,2370
587.7342998519354,2345
590.0432040183106,2341
592.3514757438526,2370
594.6591152443794,2397
596.9661227357875,2383
599.2724984340531,2334
601.578242555231,2378
603.8833553154542,2333
606.1878369309362,2403
608.4916876179676,2301
610.7949075929192,2341
613.0974970722403,2352
615.3994562724587,2224
617.7007854101818,2421
620.0014847020951,2296
622.3015543649641,2373
624.6009946156324,2328
626.8998056710224,2370
629.1979877481361,2374
631.4955410640538,2384
633.7924658359349,2394
636.0887622810175,2428
638.3844306166192,2333
640.6794710601358,2395
642.9738838290426,2303
645.2676691408932,2376
647.5608272133207,2309
649.853358264037,2371
652.1452625108324,2354
654.4365401715764,2368
656.7271914642178,2333
659.0172166067838,2398
661.3066158173809,2472
663.5953893141935,2420
665.8835373154867,2431
668.1710600396028,2433
670.4579577049639,2349
672.7442305300709,2405
675.0298787335033,2426
677.3149025339197,2411
679.599302150058,2318
681.8830778007342,2467
684.1662297048437,2442
686.4487580813608,2474
688.7306631493387,2486
691.0119451279091,2409
693.2926042362834,2393
695.5726406937516,2452
697.8520547196814,2495
700.1308465335215,2451
702.4090163547982,2384
704.6865644031171,2389
706.9634908981619,2410
709.2397960596965,2492
711.5154801075631,2511
713.7905432616823,2430
716.0649857420548,2404
718.3388077687592,2416
720.612009561953,2486
722.8845913418733,2423
725.1565533288352,2442
727.427895743234,2521
729.6986188055427,2404
731.9687227363137,2411
734.238207756178,2440
736.5070740858458,2523
738.7753219461066,2433
741.0429515578281,2388
743.3099631419569,2475
745.5763569195191,2472
747.8421331116193,2469
750.1072919394409,2438
752.3718336242467,2469
754.6357583873777,2437
756.8990664502545,2373
759.1617580343765,2409
761.423833361321,2442
763.6852926527457,2465
765.9461361303862,2445
768.206364016058,2536
770.4659765316536,2486
772.7249738991469,2465
774.9833563405886,2445
777.2411240781092,2521
779.4982773339183,2478
781.7548163303044,2517
784.010741289634,2545
786.2660524343538,2524
788.5207499869881,2411
790.7748341701416,2522
793.0283052064964,2558
795.2811633188143,2508
797.5334087299362,2613
799.7850416627813,2511
802.0360623403484,2537
804.2864709857143,2495
806.5362678220353,2517
808.7854530725468,2463
811.0340269605625,2454
813.2819897094754,2546
815.5293415427581,2542
817.77608268396,2590
820.0222133567116,2496
822.2677337847211,2503
824.5126441917765,2486
826.7569448017433,2541
829.0006358385675,2526
831.2437175262731,2518
833.4861900889629,2517
835.7280537508192,2519
837.9693087361026,2559
840.2099552691533,2525
842.4499935743896,2549
844.689423876309,2578
846.9282463994886,2538
849.1664613685833,2553
851.4040690083276,2457
853.6410695435349,2541
855.877463199097,2485
858.1132501999847,2465
860.3484307712487,2601
862.5830051380175,2679
864.8169735254988,2537
867.0503361589791,2530
869.2830932638243,2528
871.5152450654786,2477
873.7467917894654,2541
875.9777336613873,2534
878.2080709069252,2559
880.4378037518389,2661
882.666932421968,2597
884.8954571432301,2676
887.1233781416219,2498
889.3506956432192,2507
891.5774098741766,2589
893.803521060728,2547
896.0290294291852,2633
898.2539352059397,2563
900.4782386174619,2513
902.7019398903011,2589
904.925039251085,2516
907.147536926521,2467
909.3694331433943,2553
911.59072812857,2560
913.8114221089921,2578
916.0315153116827,2549
918.2510079637437,2608
920.4699002923547,2573
922.6881925247761,2478
924.905884888345,2501
927.1229776104793,2558
929.3394709186747,2508
931.555365040506,2574
933.7706602036275,2560
935.9853566357709,2458
938.1994545647489,2560
940.4129542184515,2588
942.6258558248488,2519
944.8381596119883,2536
947.0498658079974,2505
949.2609746410825,2559
951.4714863395287,2498
953.6814011316998,2494
955.8907192460387,2605
958.0994409110671,2607
960.3075663553858,2619
962.5150958076741,2581
964.7220294966913,2575
966.928367651274,2435
969.1341105003388,2582
971.3392582728806,2560
973.5438111979742,2575
975.747769504772,2537
977.9511334225061,2522
980.153903180487,2581
982.3560790081052,2523
984.5576611348289,2537
986.7586497902058,2551
988.9590452038618,2545
991.158847605503,2489
993.3580572249133,2458
995.5566742919558,2433
997.7546990365728,2379
999.952131688785,2404
1002.1489724786926,2470
1004.3452216364743,2324
1006.5408793923874,2371
1008.7359459767691,2374
1010.9304216200343,2356
1013.1243065526781,2374
1015.3176010052733,2355
1017.510305208472,2346
1019.7024193930064,2434
1021.8939437896848,2357
1024.0848786293977,2291
1026.2752241431122,2348
1028.4649805618747,2353
1030.6541481168115,2348
1032.842727039127,2373
1035.0307175601051,2329
1037.2181199111074,2291
1039.4049343235752,2253
1041.591161029029,2336
1043.7768002590683,2380
1045.9618522453698,2295
1048.1463172196918,2379
1050.3301954138697,2341
1052.513487059818,2337
1054.69619238953,2360
1056.8783116350783,2345
1059.0598450286152,2354
1061.2407928023704,2383
1063.4211551886528,2372
1065.6009324198508,2363
1067.780124728432,2347
1069.9587323469414,2303
1072.1367555080046,2364
1074.314194444325,2314
1076.4910493886855,2353
1078.667320573947,2315
1080.843008233051,2372
1083.0181125990161,2263
1085.1926339049414,2303
1087.3665723840027,2336
1089.5399282694575,2289
1091.7127017946405,2302
1093.8848931929647,2321
1096.0565026979243,2346
1098.2275305430899,2303
1100.3979769621128,2239
1102.567842188722,2312
1104.737126456726,2199
1106.9058300000124,2303
1109.0739530525475,2281
1111.2414958483764,2296
1113.4084586216231,2324
1115.5748416064907,2300
1117.7406450372605,2222
1119.9058691482942,2328
1122.0705141740304,2305
1124.2345803489884,2313
1126.3980679077658,2312
1128.5609770850388,2351
1130.7233081155623,2350
1132.8850612341707,2309
1135.0462366757774,2325
1137.2068346753745,2327
1139.3668554680326,2294
1141.526299288901,2309
1143.68516637321,2301
1145.8434569562655,2348
1148.001171273455,2252
1150.158309560244,2271
1152.3148720521767,2324
1154.470858984876,2344
1156.626270594044,2340
1158.7811071154629,2338
1160.9353687849912,2318
1163.089055838569,2362
1165.242168512213,2300
1167.3947070420209,2305
1169.5466716641677,2208
1171.6980626149075,2347
1173.8488801305748,2303
1175.9991244475814,2341
1178.1487958024186,2265
1180.2978944316555,2275
1182.4464205719428,2288
1184.5943744600072,2336
1186.7417563326567,2260
1188.8885664267755,2283
1191.0348049793297,2351
1193.1804722273619,2269
1195.325568407995,2285
1197.4700937584303,2313
1199.614048515948,2354
1201.7574329179074,2357
1203.900247201746,2344
1206.042491604982,2339
1208.1841663652099,2271
1210.3252717201053,2299
1212.465807907422,2329
1214.6057751649923,2302
1216.7451737307279,2394
1218.8840038426192,2402
1221.0222657387353,2321
1223.1599596572241,2368
1225.2970858363137,2330
1227.4336445143094,2371
1229.5696359295966,2402
1231.705060320639,2368
1233.8399179259786,2439
1235.9742089842384,2408
1238.107933734118,2517
1240.2410924143974,2466
1242.373685263935,2443
1244.5057125216676,2461
1246.6371744266116,2386
1248.7680712178621,2353
1250.898403134593,2367
1253.028170416058,2348
1255.1573733015875,2502
1257.2860120305932,2432
1259.4140868425648,2415
1261.54159797707,2392
1263.6685456737569,2412
1265.7949301723515,2440
1267.9207517126597,2496
1270.046010534565,2373
1272.1707068780306,2397
1274.2948409830983,2451
1276.4184130898889,2405
1278.541423438603,2516
1280.6638722695184,2486
1282.785759822993,2439
1284.9070863394636,2511
1287.0278520594447,2505
1289.1480572235314,2567
1291.2677020723963,2581
1293.3867868467923,2561
1295.5053117875495,2598
1297.623277135579,2548
1299.740683131868,2649
1301.8575300174857,2613
1303.973818033578,2560
1306.0895474213703,2653
1308.2047184221678,2641
1310.3193312773528,2634
1312.4333862283888,2594
1314.5468835168163,2598
1316.659823384255,2591
1318.7722060724045,2727
1320.8840318230418,2657
1322.9953008780249,2632
1325.1060134792888,2745
1327.2161698688478,2772
1329.3257702887959,2612
1331.4348149813054,2567
1333.5433041886276,2701
1335.6512381530933,2629
1337.7586171171101,2709
1339.8654413231675,2644
1341.9717110138317,2706
1344.0774264317488,2580
1346.1825878196432,2642
1348.2871954203192,2624
1350.3912494766587,2620
1352.4947502316231,2585
1354.5976979282532,2697
1356.7000928096686,2628
1358.8019351190665,2665
1360.9032250997243,2644
1363.0039629949988,2611
1365.1041490483235,2504
1367.2037835032133,2548
1369.3028666032606,2594
1371.401398592137,2631
1373.4993797135926,2591
1375.5968102114575,2542
1377.6936903296396,2585
1379.7900203121262,2569
1381.8858004029835,2536
1383.9810308463561,2626
1386.075711886469,2578
1388.1698437676241,2603
1390.2634267342032,2618
1392.356461030667,2617
1394.4489469015557,2622
1396.5408845914872,2589
1398.6322743451592,2610
1400.7231164073469,2582
1402.813411022907,2556
1404.903158436773,2524
1406.9923588939578,2541
1409.0810126395531,2606
1411.1691199187303,2620
1413.2566809767386,2570
1415.343696058907,2482
1417.4301654106425,2533
1419.5160892774315,2520
1421.6014679048399,2602
1423.6863015385125,2538
1425.7705904241707,2628
1427.8543348076178,2569
1429.9375349347342,2648
1432.0201910514802,2557
1434.102303403894,2581
1436.1838722380944,2554
1438.2648978002767,2636
1440.3453803367174,2548
1442.4253200937692,2651
1444.5047173178677,2576
1446.5835722555234,2661
1448.6618851533285,2682
1450.739656257952,2596
1452.8168858161434,2613
1454.8935740747306,2701
1456.96972128062,2669
1459.045327680797,2740
1461.120393522327,2741
1463.1949190523528,2765
1465.2689045180973,2772
1467.3423501668608,2625
1469.415256246024,2704
1471.4876230030463,2782
1473.559450685465,2795
1475.6307395408976,2791
1477.7014898170391,2727
1479.771701761665,2852
1481.8413756226287,2792
1483.9105116478618,2785
1485.9791100853772,2820
1488.0471711832643,2812
1490.1146951896926,2930
1492.1816823529098,2812
1494.2481329212433,2776
1496.3140471430984,2949
1498.3794252669609,2888
1500.4442675413939,2964
1502.5085742150404,2945
1504.572345536622,2869
1506.6355817549388,2824
1508.6982831188702,3021
1510.7604498773744,2880
1512.8220822794883,2956
1514.8831805743293,3008
1516.9437450110909,2981
1519.003775839048,2912
1521.0632733075522,3055
1523.1222376660367,2927
1525.1806691640113,3020
1527.2385680510652,3053
1529.2959345768668,3038
1531.3527689911643,3116
1533.4090715437833,3122
1535.4648424846291,3229
1537.5200820636855,3207
1539.5747905310159,3317
1541.6289681367616,3185
1543.6826151311434,3211
1545.7357317644614,3314
1547.7883182870937,3309
1549.8403749494987,3394
1551.8919020022113,3424
1553.9428996958477,3416
1555.9933682811015,3546
1558.0433080087469,3535
1560.0927191296346,3529
1562.1416018946961,3565
1564.1899565549415,3565
1566.2377833614592,3626
1568.2850825654164,3585
1570.3318544180606,3578
1572.3780991707158,3482
1574.423817074788,3445
1576.4690083817595,3360
1578.5136733431923,3394
1580.5578122107272,3336
1582.601425236085,3418
1584.6445126710646,3304
1586.6870747675434,3155
1588.7291117774776,3100
1590.7706239529034,3121
1592.8116115459347,3094
1594.8520748087658,2979
1596.8920139936686,2934
1598.9314293529933,2964
1600.9703211391711,2968
1603.008689604711,2903
1605.0465350022005,2837
1607.0838575843068,2936
1609.1206576037753,2828
1611.1569353134305,2853
1613.1926909661765,2841
1615.2279248149953,2804
1617.2626371129481,2733
1619.2968281131757,2704
1621.3304980688963,2756
1623.3636472334088,2724
1625.39627586009,2597
1627.428384202396,2694
1629.459972513861,2586
1631.4910410480993,2613
1633.5215900588028,2591
1635.551619799744,2544
1637.5811305247717,2664
1639.6101224878166,2636
1641.6385959428862,2667
1643.6665511440683,2622
1645.693988345528,2529
1647.7209078015112,2569
1649.7473097663405,2580
1651.7731944944203,2598
1653.7985622402307,2545
1655.823413258333,2619
1657.847747803366,2591
1659.8715661300494,2594
1661.8948684931793,2543
1663.9176551476316,2551
1665.9399263483624,2511
1667.9616823504057,2446
1669.982923408873,2583
1672.0036497789574,2520
1674.0238617159293,2590
1676.043559475138,2608
1678.0627433120121,2543
1680.081413482059,2541
1682.0995702408654,2497
1684.117213844096,2505
1686.134344547495,2529
1688.1509626068864,2506
1690.1670682781705,2566
1692.182661817329,2459
1694.1977434804217,2502
1696.2123135235875,2512
1698.226372203043,2561
1700.2399197750851,2545
1702.2529564960905,2547
1704.2654826225112,2664
1706.277498410882,2540
1708.2890041178139,2520
1710.2999999999988,2547
1712.3104863142066,2508
1714.3204633172854,2565
1716.329931266163,2571
1718.3388904178469,2536
1720.3473410294214,2521
1722.3552833580516,2530
1724.3627176609807,2453
1726.3696441955308,2453
1728.3760632191033,2558
1730.3819749891782,2474
1732.3873797633146,2551
1734.3922777991502,2502
1736.3966693544012,2570
1738.4005546868639,2520
1740.4039340544127,2524
1742.406807715001,2569
1744.4091759266616,2580
1746.4110389475054,2542
1748.4123970357223,2442
1750.413250449582,2459
1752.4135994474318,2523
1754.4134442876993,2662
1756.4127852288902,2560
1758.4116225295893,2564
1760.4099564484595,2528
1762.407787244244,2582
1764.405115175764,2550
1766.4019405019203,2522
1768.3982634816916,2566
1770.3940843741357,2501
1772.3894034383907,2531
1774.3842209336717,2505
1776.378537119274,2553
1778.372352254571,2466
1780.3656665990156,2584
1782.3584804121397,2508
1784.3507939535534,2471
1786.3426074829463,2472
1788.3339212600863,2599
1790.3247355448211,2546
1792.3150505970766,2512
1794.3048666768573,2552
1796.2941840442477,2622
1798.2830029594106,2582
1800.2713236825884,2560
1802.2591464741004,2599
1804.2464715943465,2544
1806.2332993038058,2568
1808.2196298630352,2581
1810.2054635326708,2582
1812.190800573428,2586
1814.175641246101,2469
1816.1599858115628,2564
1818.1438345307652,2484
1820.127187664738,2470
1822.1100454745924,2451
1824.092408221516,2613
1826.0742761667766,2518
1828.055649571721,2533
1830.0365286977735,2573
1832.0169138064398,2557
1833.9968051593014,2558
1835.9762030180214,2560
1837.9551076443408,2548
1839.9335193000788,2505
1841.9114382471344,2490
1843.888864747485,2574
1845.8657990631878,2525
1847.842241456378,2542
1849.8181921892697,2526
1851.7936515241558,2482
1853.7686197234098,2529
1855.7430970494815,2531
1857.7170837649014,2505
1859.6905801322787,2576
1861.6635864143004,2546
1863.6361028737338,2518
1865.608129773424,2512
1867.5796673762961,2559
1869.5507159453537,2563
1871.521275743678,2568
1873.4913470344313,2578
1875.4609300808534,2549
1877.4300251462632,2607
1879.3986324940588,2574
1881.366752387717,2588
1883.3343850907936,2565
1885.3015308669228,2583
1887.268189979819,2609
1889.2343626932739,2581
1891.2000492711595,2548
1893.1652499774254,2611
1895.1299650761011,2522
1897.0941948312952,2518
1899.0579395071945,2557
1901.0211993680641,2538
1902.98397467825,2563
1904.9462657021745,2634
1906.9080727043415,2663
1908.869395949332,2632
1910.8302357018065,2668
1912.790592226504,2590
1914.7504657882428,2582
1916.7098566519212,2526
1918.6687650825133,2663
1920.6271913450764,2527
1922.5851357047422,2680
1924.5425984267245,2657
1926.499579776314,2552
1928.4560800188833,2586
1930.4120994198802,2580
1932.367638244833,2601
1934.32269675935,2622
1936.2772752291175,2651
1938.231373919899,2535
1940.1849930975404,2572
1942.1381330279637,2568
1944.0907939771696,2597
1946.0429762112412,2581
1947.9946799963363,2672
1949.9459055986945,2579
1951.896653284633,2646
1953.8469233205478,2595
1955.7967159729142,2550
1957.7460315082863,2581
1959.6948701932974,2450
1961.6432322946594,2612
1963.5911180791632,2579
1965.5385278136787,2616
1967.4854617651545,2543
1969.4319202006182,2581
1971.377903387176,2512
1973.3234115920136,2744
1975.268445082395,2638
1977.2130041256642,2580
1979.1570889892423,2506
1981.1006999406304,2585
1983.04383724741,2540
1984.986501177238,2554
1986.928691997853,2599
1988.8704099770712,2545
1990.811655382789,2559
1992.7524284829801,2639
1994.692729545698,2631
1996.6325588390755,2557
1998.5719166313224,2558
2000.5108031907307,2580
2002.4492187856677,2569
2004.387163684583,2625
2006.3246381560011,2605
2008.2616424685298,2525
2010.1981768908527,2539
2012.1342416917332,2566
2014.069837140014,2646
2016.0049635046162,2594
2017.9396210545406,2631
2019.8738100588666,2593
2021.8075307867502,2613
2023.740783507431,2496
2025.6735684902228,2498
2027.6058860045214,2519
2029.5377363198004,2549
2031.4691197056118,2637
2033.4000364315875,2602
2035.3304867674374,2554
2037.260470982952,2647
2039.189989347998,2567
2041.1190421325232,2552
2043.047629606554,2589
2044.9757520401945,2564
2046.9034097036288,2569
2048.8306028671195,2576
2050.7573318010086,2617
2052.683596775716,2613
2054.609398061742,2605
2056.5347359296647,2613
2058.4596106501403,2589
2060.384022493906,2606
2062.3079717317764,2588
2064.231458634646,2598
2066.1544834734873,2583
2068.077046519352,2597
2069.99914804337,2604
2071.9207883167524,2652
2073.8419676107865,2637
2075.7626861968406,2595
2077.6829443463607,2560
2079.6027423308715,2561
2081.522080421977,2633
2083.440958891362,2639
2085.359378010786,2662
2087.2773380520907,2660
2089.194839287196,2613
2091.111881988101,2645
2093.0284664268825,2639
2094.9445928756973,2551
2096.86026160678,2631
2098.775472892446,2685
2100.690227005088,2607
2102.604524217178,2513
2104.5183648012676,2650
2106.431749029985,2559
2108.34467717604,2665
2110.2571495122206,2703
2112.169166311393,2614
2114.080727846503,2563
2115.9918343905747,2654
2117.902486216711,2652
2119.8126835980956,2573
2121.722426807987,2616
2123.6317161197285,2685
2125.5405518067364,2600
2127.448934142509,2665
2129.356863400624,2710
2131.264339854737,2604
2133.1713637785815,2719
2135.077935445972,2714
2136.9840551308002,2648
2138.889723107037,2666
2140.7949396487334,2658
2142.699705030018,2617
2144.6040195250994,2649
2146.507883408264,2637
2148.4112969538774,2665
2150.3142604363848,2623
2152.2167741303097,2710
2154.1188383102535,2626
2156.0204532508997,2662
2157.9216192270064,2638
2159.822336513414,2686
2161.7226053850413,2693
2163.622426116884,2728
2165.5217989840185,2662
2167.4207242616,2654
2169.319202224862,2653
2171.2172331491165,2661
2173.1148173097563,2695
2175.0119549822507,2635
2176.90864644215,2556
2178.8048919650823,2642
2180.7006918267534,2711
2182.596046302952,2638
2184.4909556695407,2693
2186.3854202024645,2676
2188.279440177746,2656
2190.173015871487,2668
2192.066147559868,2718
2193.958835519149,2556
2195.851080025667,2665
2197.7428813558417,2643
2199.6342397861667,2539
2201.5251555932186,2715
2203.415629053651,2708
2205.3056604441986,2659
2207.19525004167,2770
2209.084398122958,2670
2210.9731049650327,2715
2212.861370844941,2757
2214.749196039812,2686
2216.636580826851,2665
2218.523525483344,2685
2220.410030286655,2714
2222.296095514226,2738
2224.1817214435805,2693
2226.066908352319,2693
2227.951656518121,2652
2229.835966218746,2735
2231.71983773203,2725
2233.6032713358913,2737
2235.486267308324,2725
2237.3688259274036,2707
2239.2509474712824,2703
2241.132632218193,2772
2243.013880446447,2749
2244.8946924344323,2746
2246.7750684606203,2808
2248.6550088035574,2687
2250.534513741871,2706
2252.413583554265,2683
2254.292218519526,2651
2256.170418916517,2703
2258.0481850241786,2648
2259.925517121534,2656
2261.8024154876825,2707
2263.678880401803,2584
2265.5549121431536,2757
2267.430510991071,2685
2269.305677224971,2622
2271.180411124348,2654
2273.0547129687766,2694
2274.9285830379076,2762
2276.8020216114737,2700
2278.6750289692845,2681
2280.5476053912294,2713
2282.4197511572766,2724
2284.2914665474727,2657
2286.162751841943,2790
2288.0336073208937,2709
2289.904033264608,2685
2291.774029953448,2738
2293.6435976678554,2689
2295.5127366883517,2642
2297.381447295534,2597
2299.2497297700825,2720
2301.1175843927526,2782
2302.9850114443825,2605
2304.852011205885,2612
2306.7185839582553,2651
2308.5847299825664,2668
2310.4504495599676,2646
2312.3157429716925,2719
2314.1806104990483,2622
2316.0450524234247,2620
2317.9090690262888,2587
2319.772660589186,2665
2321.635827393742,2688
2323.498569721661,2657
2325.3608878547248,2576
2327.2227820747967,2676
2329.0842526638157,2618
2330.945299903803,2683
2332.805924076857,2623
2334.6661254651535,2605
2336.525904350951,2684
2338.3852610165827,2667
2340.244195744464,2661
2342.102708817088,2658
2343.9608005170253,2679
2345.8184711269287,2600
2347.675720929526,2648
2349.532550207628,2585
2351.38895924412,2676
2353.24494832197,2627
2355.100517724223,2668
2356.955667734004,2726
2358.810398634514,2673
2360.664710709037,2614
2362.5186042409337,2625
2364.3720795136437,2699
2366.225136810686,2640
2368.0777764156583,2617
2369.929998612237,2717
2371.7818036841777,2726
2373.633191915315,2657
2375.484163589562,2643
2377.3347189909114,2692
2379.184858403434,2670
2381.03458211128,2651
2382.8838903986775,2690
2384.732783549936,2655
2386.5812618494406,2671
2388.4293255816588,2722
2390.2769750311327,2738
2392.1242104824883,2707
2393.971032220427,2707
2395.8174405297295,2726
2397.6634356952563,2662
2399.509018001947,2651
2401.3541877348193,2720
2403.1989451789705,2697
2405.043290619576,2698
2406.8872243418905,2688
2408.730746631247,2652
2410.5738577730594,2685
2412.4165580528183,2689
2414.258847756095,2682
2416.100727168537,2637
2417.9421965758734,2626
2419.783256263912,2627
2421.623906518538,2751
2423.4641476257157,2641
2425.303979871491,2725
2427.143403541984,2631
2428.9824189233977,2711
2430.821026302012,2642
2432.6592259641866,2639
2434.497018196361,2707
2436.33440328505,2692
2438.171381516851,2635
2440.00795317844,2675
2441.844118556569,2669
2443.6798779380724,2637
2445.5152316098606,2659
2447.3501798589255,2729
2449.1847229723357,2627
2451.0188612372403,2697
2452.8525949408663,2634
2454.6859243705203,2614
2456.518849813587,2657
2458.3513715575314,2732
2460.183489889895,2676
2462.015205098301,2749
2463.8465174704493,2781
2465.67742729412,2645
2467.5079348571717,2666
2469.338040447542,2656
2471.1677443532476,2690
2472.9970468623833,2693
2474.825948263123,2776
2476.6544488437207,2691
2478.482548892508,2615
2480.310248697896,2640
2482.137548548374,2666
2483.9644487325118,2671
2485.790949538956,2688
2487.617051256433,2634
2489.44275417375,2655
2491.26805857979,2626
2493.0929647635157,2669
2494.917473013971,2668
2496.741583620276,2751
2498.5652968716304,2682
2500.3886130573137,2653
2502.2115324666834,2703
2504.0340553891765,2699
2505.856182114308,2704
2507.6779129316733,2575
2509.499248130945,2854
2511.3201880018764,2742
2513.140732834298,2695
2514.9608829181198,2711
2516.780638543331,2741
2518.6,2712
2520.418967578273,2707
2522.237541568376,2723
2524.0557222606144,2700
2525.8735099453706,2771
2527.6909049131086,2736
2529.507907454368,2690
2531.32451785977,2763
2533.140736420014,2721
2534.9565634258774,2749
2536.771999168218,2695
2538.5870439379714,2735
2540.4016980261526,2856
2542.2159617238544,2813
2544.02983532225,2766
2545.8433191125914,2781
2547.656413386209,2787
2549.4691184345115,2721
2551.2814345489874,2784
2553.093362021204,2893
2554.904901142808,2813
2556.716052205523,2806
2558.526815501153,2849
2560.3371913215824,2884
2562.147179958771,2885
2563.956781704761,2850
2565.7659968516705,2907
2567.5748256916986,2730
2569.3832685171224,2816
2571.1913256202984,2771
2572.9989972936614,2915
2574.806283829725,2835
2576.613185521084,2856
2578.4197026604074,2758
2580.2258355404483,2750
2582.031584454035,2873
2583.836949694077,2889
2585.6419315535613,2870
2587.4465303255533,2835
2589.2507463032002,2800
2591.0545797797245,2907
2592.8580310484303,2870
2594.6611004026995,2870
2596.463788135992,2936
2598.266094541849,2889
2600.0680199138874,2863
2601.869564545807,2843
2603.670728731383,2982
2605.4715127644704,2898
2607.2719169390048,2832
2609.071941548998,2857
2610.8715868885433,2866
2612.670853251811,2903
2614.469740933052,2892
2616.268250226594,2943
2618.0663814268455,2911
2619.864134828292,2811
2621.6615107255006,2878
2623.458509413115,2787
2625.2551311858597,2902
2627.0513763385347,2900
2628.8472451660223,2894
2630.6427379632833,2813
2632.4378550253564,2799
2634.232596647359,2886
2636.026963124488,2874
2637.8209547520187,2856
2639.6145718253065,2828
2641.407814639785,2879
2643.200683490966,2917
2644.9931786744414,2900
2646.7853004858807,2846
2648.577049221034,2795
2650.3684251757277,2870
2652.1594286458712,2784
2653.9500599274484,2759
2655.740319316525,2799
2657.5302071092437,2777
2659.3197236018286,2832
2661.10886909058,2727
2662.8976438718782,2832
2664.686048242183,2873
2666.4740824980327,2865
2668.2617469360443,2831
2670.0490418529134,2756
2671.8359675454153,2776
2673.622524310403,2789
2675.408712444811,2807
2677.1945322456495,2790
2678.979984010009,2699
2680.76506803506,2756
2682.5497846180497,2661
2684.334134056306,2685
2686.1181166472343,2731
2687.9017326883213,2671
2689.6849824771293,2756
2691.4678663113013,2706
2693.2503844885596,2765
2695.032537306705,2675
2696.8143250636167,2775
2698.5957480572542,2722
2700.3768065856534,2740
2702.1575009469316,2738
2703.937831439283,2717
2705.717798360982,2738
2707.4974020103837,2800
2709.276642685917,2676
2711.055520686095,2714
2712.834036309506,2794
2714.612189854819,2697
2716.389981620782,2740
2718.1674119062204,2694
2719.944481010041,2706
2721.721189231226,2620
2723.4975368688415,2698
2725.273524222027,2677
2727.0491515900053,2648
2728.824419272075,2644
2730.5993275676146,2631
2732.3738767760838,2564
2734.148067197016,2583
2735.921899130031,2677
2737.6953728748194,2700
2739.468488731156,2699
2741.2412469988926,2594
2743.0136479779617,2617
2744.785691968372,2693
2746.5573792702116,2600
2748.3287101836504,2625
2750.099685008934,2596
2751.870304046388,2685
2753.640567596418,2680
2755.4104759595057,2741
2757.1800294362156,2671
2758.949228327187,2701
2760.7180729331412,2604
2762.486563554877,2644
2764.254700493272,2585
2766.022484049284,2647
2767.789914523947,2727
2769.5569922183786,2681
2771.3237174337705,2632
2773.090090471394,2704
2774.8561116326036,2679
2776.6217812188274,2672
2778.3870995315756,2702
2780.1520668724356,2617
2781.9166835430747,2610
2783.6809498452394,2617
2785.444866080754,2654
2787.2084325515225,2573
2788.971649559527,2606
2790.73451740683,2656
2792.4970363955713,2688
2794.2592068279705,2678
2796.0210290063264,2644
2797.7825032330147,2686
2799.543629810493,2661
2801.304409041296,2717
2803.0648412280366,2650
2804.8249266734088,2710
2806.5846656801846,2670
2808.344058551212,2689
2810.1031055894246,2662
2811.8618070978273,2675
2813.6201633795085,2639
2815.378174737636,2693
2817.1358414754536,2758
2818.893163896285,2757
2820.6501423035334,2694
2822.4067770006814,2646
2824.1630682912883,2766
2825.9190164789957,2662
2827.6746218675207,2655
2829.429884760661,2745
2831.184805462294,2672
2832.9393842763743,2660
2834.693621506936,2696
2836.4475174580916,2681
2838.201072434034,2650
2839.954286739034,2723
2841.707160677441,2695
2843.459694553685,2659
2845.2118886722724,2659
2846.96374333779,2734
2848.7152588549034,2635
2850.4664355283567,2676
2852.217273662973,2632
2853.9677735636546,2670
2855.7179355353833,2659
2857.4677598832186,2682
2859.217246912299,2714
2860.9663969278427,2702
2862.715210235146,2594
2864.4636871395846,2617
2866.211827946614,2639
2867.9596329617652,2746
2869.7071024906536,2686
2871.4542368389684,2730
2873.20103631248,2738
2874.947501217038,2601
2876.6936318585695,2655
2878.4394285430812,2648
2880.1848915766604,2599
2881.9300212654707,2640
2883.6748179157553,2533
2885.4192818338374,2625
2887.1634133261173,2684
2888.907212699077,2658
2890.6506802592744,2626
2892.393816313348,2663
2894.1366211680142,2599
2895.8790951300693,2656
2897.621238506388,2643
2899.363051603925,2661
2901.1045347297118,2675
2902.8456881908596,2714
2904.58651229456,2719
2906.327007348081,2659
2908.067173658772,2653
2909.8070115340597,2690
2911.5465212814497,2695
2913.285703208527,2674
2915.0245576229563,2594
2916.7630848324807,2690
2918.5012851449196,2661
2920.2391588681758,2642
2921.976706310227,2605
2923.7139277791334,2597
2925.4508235830313,2579
2927.187394030137,2670
2928.923639428745,2645
2930.6595600872306,2642
2932.395156314046,2671
2934.1304284177218,2684
2935.8653767068713,2582
2937.6000014901815,2631
2939.3343030764227,2667
2941.068281774442,2748
2942.8019378931644,2683
2944.5352717415976,2603
2946.2682836288236,2680
2948.0009738640065,2721
2949.7333427563885,2676
2951.465390615289,2597
2953.1971177501086,2681
2954.9285244703265,2685
2956.6596110855,2710
2958.3903779052657,2646
2960.1208252393385,2660
2961.8509533975125,2712
2963.5807626896617,2596
2965.3102534257378,2659
2967.0394259157715,2549
2968.768280469873,2698
2970.496817398232,2660
2972.2250370111146,2674
2973.952939618869,2701
2975.6805255319196,2671
2977.4077950607707,2670
2979.134748516006,2748
2980.861386208289,2686
2982.587708448359,2670
2984.313715547037,2696
2986.039407815222,2643
2987.764785563891,2753
2989.489849104102,2758
2991.2145987469908,2592
2992.9390348037705,2669
2994.6631575857346,2703
2996.3869674042576,2674
2998.1104645707887,2619
2999.83364939686,2718
3001.5565221940783,2619
3003.2790832741334,2679
3005.0013329487924,2610
3006.7232715298996,2571
3008.4448993293804,2591
3010.166216659239,2574
3011.887223831558,2588
3013.607921158498,2593
3015.3283089522993,2626
3017.0483875252826,2685
3018.7681571898443,2702
3020.4876182584626,2585
3022.2067710436927,2633
3023.9256158581707,2600
3025.644153014609,2740
3027.362382825801,2617
3029.0803056046193,2706
3030.797921664012,2731
3032.5152313170106,2679
3034.2322348767225,2696
3035.9489326563353,2640
3037.665324969115,2623
3039.3814121284063,2627
3041.097194447633,2670
3042.812672240299,2630
3044.5278458199855,2720
3046.2427155003525,2636
3047.9572815951406,2636
3049.671544418167,2643
3051.38550428333,2691
3053.0991615046073,2638
3054.812516396051,2576
3056.5255692717974,2669
3058.2383204460575,2593
3059.9507702331257,2660
3061.662918947372,2581
3063.3747669032446,2649
3065.0863144152736,2722
3066.7975617980674,2681
3068.508509366309,2620
3070.219157434767,2609
3071.9295063182844,2631
3073.639556331785,2600
3075.3493077902704,2629
3077.058761008821,2721
3078.7679163025964,2601
3080.476773986837,2630
3082.1853343768594,2648
3083.89359778806,2602
3085.6015645359153,2659
3087.3092349359786,2709
3089.016609303884,2649
3090.7236879553434,2704
3092.4304712061476,2652
3094.136959372166,2581
3095.843152769349,2685
3097.5490517137237,2603
3099.2546565213966,2715
3100.959967508554,2714
3102.66498499146,2717
3104.3697092864577,2681
3106.0741407099695,2634
3107.778279578498,2608
3109.482126208622,2698
3111.1856809170004,2623
3112.8889440203716,2809
3114.5919158355528,2727
3116.294596679439,2719
3117.996986869006,2723
3119.6990867213062,2731
3121.4008965534726,2683
3123.102416682717,2672
3124.803647426329,2684
3126.5045891016784,2676
3128.205242026213,2708
3129.90560651746,2729
3131.605682893025,2674
3133.3054714705922,2739
3135.0049725679282,2754
3136.7041865028714,2729
3138.4031135933465,2731
3140.101754157353,2713
3141.800108512971,2711
3143.498176978357,2685
3145.1959598717494,2679
3146.8934575114636,2687
3148.5906702158954,2631
3150.2875983035183,2636
3151.9842420928853,2603
3153.680601902627,2643
3155.376678051456,2559
3157.07247085816,2614
3158.767980641609,2628
3160.463207720748,2711
3162.158152414606,2654
3163.8528150422862,2589
3165.5471959229726,2599
3167.2412953759303,2675
3168.9351137204976,2757
3170.628651276098,2691
3172.3219083622307,2743
3174.014885298474,2703
3175.707582404485,2733
3177.4000000000005,2739
3179.092138404835,2693
3180.7839979388846,2777
3182.47557892212,2765
3184.166881674594,2698
3185.8579065164386,2742
3187.5486537678626,2736
3189.2391237491547,2714
3190.9293167806827,2762
3192.6192331828934,2720
3194.3088732763117,2735
3195.998237381542,2703
3197.687325819268,2716
3199.376138910251,2730
3201.064676975334,2630
3202.7529403354347,2694
3204.4409293115523,2666
3206.1286442247647,2702
3207.816085396229,2672
3209.5032531471825,2690
3211.190147798936,2665
3212.8767696728846,2595
3214.5631190905015,2678
3216.2491963733373,2684
3217.9350018430214,2571
3219.6205358212637,2651
3221.305798629851,2650
3222.990790590651,2652
3224.6755120256103,2570
3226.359963256751,2595
3228.0441446061795,2563
3229.7280563960758,2635
3231.411698948703,2624
3233.0950725863995,2683
3234.778177631587,2712
3236.461014406761,2710
3238.1435832345005,2634
3239.8258844374595,2592
3241.507918338374,2591
3243.1896852600576,2666
3244.8711855254023,2726
3246.552419457381,2688
3248.233387379042,2663
3249.914089613516,2700
3251.59452648401,2657
3253.274698313813,2717
3254.95460542629,2734
3256.6342481448855,2640
3258.313626793125,2559
3259.9927416946084,2673
3261.6715931730196,2666
3263.3501815521176,2697
3265.0285071557437,2662
3266.706570307815,2693
3268.3843713323286,2667
3270.0619105533615,2719
3271.739188295068,2749
3273.4162048816834,2679
3275.0929606375184,2620
3276.769455886966,2626
3278.445690954498,2743
3280.1216661646613,2747
3281.797381842087,2721
3283.4728383114807,2699
3285.1480358976296,2666
3286.8229749253996,2766
3288.4976557197333,2698
3290.172078605655,2605
3291.846243908266,2626
3293.5201519527463,2519
3295.193803064357,2679
3296.8671975684374,2653
3298.5403357904024,2683
3300.21321805575,2656
3301.8858446900567,2707
3303.558216018975,2702
3305.23033236824,2667
3306.9021940636603,2726
3308.57380143113,2729
3310.2451547966184,2727
3311.916254486174,2670
3313.5871008259246,2699
3315.2576941420766,2629
3316.9280347609147,2643
3318.5981230088046,2583
3320.2679592121895,2623
3321.9375436975924,2568
3323.606876791612,2636
3325.27595882093,2628
3326.944790112305,2654
3328.6133709925753,2711
3330.2817017886573,2678
3331.949782827547,2698
3333.617614436319,2650
3335.2851969421245,2670
3336.952530672199,2675
3338.619615953853,2768
3340.286453114475,2697
3341.9530424815357,2710
3343.619384382583,2648
3345.2854791452437,2651
3346.951327097224,2662
3348.6169285663073,2692
3350.2822838803577,2648
3351.947393367319,2760
3353.61225735521,2819
3355.2768761721345,2702
3356.9412501462693,2722
3358.605379605873,2752
3360.2692648792827,2716
3361.9329062949146,2732
3363.596304181263,2608
