CollectionTime,9/25/2024 10:40:44 AM
ExposureUsed,3
CalibratedSpectrum
-962.7078968117929,471
-959.9714848408522,501
-957.2358232597828,508
-954.5009119013725,550
-951.7667505983302,560
-949.0333391832855,507
-946.3006774887896,512
-943.5687653473143,507
-940.837602591253,523
-938.1071890529199,482
-935.3775245645503,513
-932.6486089583007,512
-929.9204420662485,513
-927.1930237203925,517
-924.4663537526524,523
-921.7404319948689,535
-919.0152582788041,520
-916.2908324361409,552
-913.5671542984834,565
-910.8442236973568,534
-908.1220404642074,514
-905.4006044304027,537
-902.679915427231,509
-899.959973285902,546
-897.2407778375464,524
-894.5223289132158,537
-891.8046263438832,503
-889.0876699604426,521
-886.3714595937089,518
-883.6559950744183,496
-880.9412762332282,496
-878.2273029007168,518
-875.5140749073835,513
-872.8015920836489,522
-870.0898542598545,492
-867.3788612662631,497
-864.6686129330585,533
-861.9591090903457,516
-859.2503495681506,526
-856.5423341964203,499
-853.8350628050229,475
-851.1285352237478,528
-848.4227512823054,518
-845.7177108103272,530
-843.0134136373656,497
-840.3098595928943,521
-837.6070485063082,560
-834.9049802069229,538
-832.2036545239757,531
-829.5030712866244,524
-826.8032303239481,530
-824.1041314649472,525
-821.4057745385428,517
-818.7081593735775,534
-816.0112857988148,498
-813.3151536429393,513
-810.6197627345566,545
-807.9251129021936,491
-805.2312039742981,521
-802.5380357792392,545
-799.8456081453069,533
-797.1539209007124,529
-794.462973873588,526
-791.772766891987,545
-789.083299783884,558
-786.3945723771743,553
-783.7065844996748,536
-781.0193359791231,537
-778.3328266431781,530
-775.6470563194197,541
-772.9620248353489,533
-770.2777320183878,535
-767.5941776958798,529
-764.9113616950891,572
-762.2292838432011,535
-759.5479439673222,502
-756.8673418944801,508
-754.1874774516235,525
-751.5083504656222,515
-748.8299607632671,485
-746.15230817127,532
-743.475392516264,572
-740.7992136248035,550
-738.1237713233636,558
-735.4490654383407,582
-732.7750957960521,536
-730.1018622227365,542
-727.4293645445534,525
-724.7576025875837,526
-722.0865761778291,542
-719.4162851412126,552
-716.7467293035781,567
-714.0779084906909,597
-711.409822528237,646
-708.7424712418238,535
-706.0758544569796,537
-703.4099719991541,520
-700.7448236937178,528
-698.0804093659622,573
-695.4167288411002,547
-692.7537819442656,530
-690.0915685005134,540
-687.4300883348199,553
-684.7693412720819,604
-682.1093271371178,577
-679.4500457546669,544
-676.7914969493897,543
-674.1336805458676,593
-671.4765963686034,590
-668.8202442420206,591
-666.1646239904642,561
-663.5097354382001,543
-660.8555784094151,560
-658.2021527282176,560
-655.5494582186366,590
-652.8974947046223,586
-650.2462620100463,583
-647.5957599587009,583
-644.9459883742998,614
-642.2969470804776,608
-639.6486359007902,620
-637.0010546587141,586
-634.3542031776476,603
-631.7080812809096,619
-629.0626887917401,632
-626.4180255333008,614
-623.7740913286734,609
-621.1308860008619,630
-618.4884093727904,613
-615.8466612673046,588
-613.2056415071715,580
-610.5653499150785,600
-607.9257863136347,604
-605.28695052537,623
-602.6488423727357,602
-600.0114616781036,658
-597.3748082637674,655
-594.7388819519412,645
-592.1036825647604,629
-589.4692099242818,642
-586.8354638524829,612
-584.2024441712624,673
-581.5701507024403,674
-578.9385832677575,706
-576.3077416888759,714
-573.6776257873787,615
-571.0482353847704,626
-568.4195703024757,618
-565.7916303618415,661
-563.164415384135,638
-560.5379251905453,623
-557.9121596021815,602
-555.2871184400748,616
-552.6628015251767,632
-550.0392086783606,650
-547.4163397204204,614
-544.794194472071,641
-542.1727727539491,656
-539.5520743866118,667
-536.9320991905377,670
-534.3128469861261,716
-531.6943175936979,755
-529.0765108334947,760
-526.4594265256793,766
-523.8430644903358,944
-521.2274245474689,1011
-518.612506517005,1120
-515.9983102187913,1158
-513.3848354725959,1277
-510.77208209810846,1400
-508.16004991493924,1537
-505.5487387426199,1603
-502.9381484006032,1623
-500.3282787082628,1498
-497.71912948489364,1396
-495.1107005497117,1190
-492.5029917218539,1063
-489.8960028203786,985
-487.28973366426493,873
-484.68418407241325,827
-482.07935386364494,802
-479.47524285670266,794
-476.87185087025,809
-474.2691777228715,862
-471.66722323307334,840
-469.0659872192821,807
-466.4654694998459,786
-463.86566989303384,770
-461.26658821703614,799
-458.66822428996414,827
-456.07057792985,799
-453.4736489546475,821
-450.877437182231,814
-448.28194243039627,767
-445.68716451686,778
-443.09310325926003,753
-440.49975847515555,776
-437.9071299820263,767
-435.31521759727354,774
-432.72402113821954,790
-430.13354042210767,809
-427.5437752661022,875
-424.95472548728867,858
-422.36639090267386,845
-419.7787713291855,847
-417.1918665836721,806
-414.60567648290385,868
-412.0202008435715,841
-409.4354394822874,863
-406.8513922155845,885
-404.26805885991723,931
-401.685439231661,871
-399.103533147112,861
-396.522340422488,859
-393.9418608739278,824
-391.3620943174908,871
-388.7830405691583,814
-386.2046994448317,791
-383.6270707603344,768
-381.05015433141045,704
-378.473949973725,728
-375.8984575028645,705
-373.32367673433623,661
-370.74960748356875,646
-368.1762495659117,600
-365.60360279663576,569
-363.03166699093265,557
-360.4604419639154,548
-357.8899275306178,522
-355.32012350599507,532
-352.7510297049233,549
-350.1826459421999,510
-347.61497203254316,509
-345.04800779059235,520
-342.4817530309082,515
-339.91620756797226,479
-337.35137121618743,522
-334.7872437898774,563
-332.22382510328725,521
-329.66111497058273,526
-327.09911320585127,550
-324.53781962310075,539
-321.9772340362607,475
-319.4173562591816,513
-316.8581861056348,525
-314.2997233893127,519
-311.7419679238294,565
-309.1849195227194,557
-306.62857799943856,530
-304.0729431673641,541
-301.51801483979375,572
-298.963792829947,582
-296.41027695096386,540
-293.85746701590574,577
-291.3053628377552,607
-288.7539642294155,564
-286.2032710037115,567
-283.65328297338897,604
-281.1039999511146,572
-278.5554217494762,599
-276.007548180983,668
-273.4603790580651,690
-270.9139141930734,672
-268.3681533982807,756
-265.8230964858798,659
-263.27874326798565,719
-260.7350935566336,691
-258.1921471637804,704
-255.6499039013039,748
-253.10836358100266,719
-250.56752601459698,652
-248.02739101372765,724
-245.48795838995704,768
-242.94922795476816,782
-240.41119951956557,724
-237.8738728956746,710
-235.33724789434166,739
-232.80132432673452,758
-230.2661020039418,765
-227.73158073697357,776
-225.19776033676033,813
-222.66464061415422,993
-220.1322213799284,943
-217.60050244477725,802
-215.06948361931552,795
-212.53916471408013,910
-210.00954553952818,945
-207.48062590603843,906
-204.9524056239104,788
-202.4248845033651,964
-199.8980623545441,978
-197.37193898751036,981
-194.84651421224817,916
-192.32178783866232,916
-189.79775967657952,905
-187.27442953574644,933
-184.7517972258321,920
-182.2298625564256,894
-179.7086253370378,867
-177.18808537710026,931
-174.66824248596583,1151
-172.14909647290835,1110
-169.6306471471229,1034
-167.11289431772548,939
-164.59583779375328,970
-162.07947738416453,1048
-159.5638128978386,1209
-157.04884414357605,1211
-154.53457093009854,1174
-152.02099306604828,1071
-149.50811035998936,962
-146.99592262040665,1032
-144.48442965570587,1125
-141.97363127421409,1308
-139.46352728417958,1478
-136.95411749377126,1487
-134.44540171107985,1246
-131.93737974411636,1115
-129.43005140081357,1317
-126.92341648902493,1743
-124.41747481652521,2311
-121.91222619101006,2756
-119.40767042009657,3373
-116.90380731132257,3482
-114.40063667214702,3303
-111.8981583099503,3071
-109.3963720320337,3296
-106.89527764561933,3554
-104.39487495785067,3960
-101.89516377579241,4993
-99.39614390642998,6529
-96.89781515667039,8183
-94.40017733334128,8861
-91.90323024319173,7340
-89.40697369289148,5682
-86.91140748903172,4751
-84.41653143812482,4409
-81.92234534660395,5083
-79.42884902082358,5836
-76.93604226705907,6187
-74.4439248915071,5877
-71.95249670028534,6310
-69.46175749943245,8272
-66.97170709490854,10438
-64.48234529259423,11723
-61.99367189829195,11826
-59.50568671772464,13213
-57.01838955653636,15133
-54.53178022029283,16368
-52.045858514480074,17288
-49.560624244506016,18684
-47.07607721569923,20023
-44.59221723330904,19534
-42.10904410250669,21120
-39.62655762838392,23586
-37.14475761595372,30550
-34.66364387015028,32036
-32.18321619582866,38594
-29.70347439776515,41404
-27.224418280657005,36083
-24.74604764912317,38315
-22.26836230770266,54633
-19.7913620608565,65040
-17.315046712966478,65040
-14.83941606833514,65040
-12.36446993118659,65040
-9.89020810566592,65040
-7.416630395839093,65040
-4.94373660569363,65040
-2.471526539137585,65040
-6.821210263296962E-13,65040
2.47084320796705,65040
4.941003281093458,65040
7.410480415786196,65040
9.879274808531363,65040
12.347386655893956,65040
14.814816154518212,65040
17.28156350112681,65040
19.74762889252179,65040
22.21301252558385,22900
24.67771459727237,5660
27.141735304626195,4445
29.605074844762612,5067
32.06773341487792,4589
34.52971121224755,3766
36.99100843422559,3023
39.45162527824516,3219
41.91156194181792,3121
44.370818622535126,3366
46.82939551806646,2694
49.287292826160524,3134
51.74451074464503,3105
54.201049471426245,3045
56.65690920448981,2908
59.112090141899785,2953
61.56659248179983,2873
64.02041642241159,2084
66.4735621620365,1982
68.92602989905402,2318
71.37781983192338,2308
73.82893215918205,2005
76.27936707944684,2084
78.72912479141326,2125
81.17820549385567,2146
83.62660938562783,1549
86.07433666566146,1597
88.5213875329681,1908
90.96776218663751,1610
93.41346082583925,1617
95.85848364982041,1498
98.30283085790859,1399
100.7465026495089,1421
103.18949922410604,1453
105.63182078126385,1823
108.07346752062438,1803
110.51443964190923,1655
112.95473734491827,1413
115.39436082953114,1299
117.83331029570547,1293
120.27158594347827,1536
122.7091879729652,1451
125.1461165843615,1320
127.58237197794062,1351
130.01795435405518,1364
132.4528639131364,1285
134.88710085569494,1354
137.32066538231982,1542
139.75355769367923,1255
142.1857779905207,1084
144.61732647366978,1008
147.04820334403132,1050
149.47840880258934,1284
151.90794305040674,1564
154.33680628862487,1448
156.76499871846443,1344
159.19252054122433,1420
161.61937195828352,1446
164.04555317109896,1491
166.47106438120693,1714
168.89590579022217,1716
171.320077599839,1739
173.7435800118302,1872
176.16641322804742,2059
178.58857745042144,2259
181.01007288096173,2184
183.43089972175687,2067
185.85105817497413,2033
188.27054844285988,2077
190.6893707277394,2082
193.10752523201643,2123
195.5250121581745,2346
197.9418317087751,2212
200.3579840864594,2198
202.7734694939469,2267
205.18828813403627,2276
207.6024402096051,2268
210.01592592360964,2166
212.42874547908548,2207
214.84089907914665,2200
217.2523869269868,2181
219.66320922587727,2208
222.0733661791695,2283
224.48285799029293,2232
226.8916848627572,2188
229.29984700014882,2250
231.7073446061355,2314
234.11417788446204,2240
236.520347038953,2223
238.92585227351185,2233
241.33069379212054,2228
243.73487179884035,2413
246.1383864978112,2417
248.541238093252,2289
250.9434267894609,2339
253.34495279081432,2364
255.74581630176783,2356
258.1460175268563,2257
260.54555667069314,2330
262.9444339379703,2360
265.3426495334594,2386
267.7402036620107,2411
270.1370965285529,2357
272.53332833809407,2232
274.9288992957214,2164
277.32380960660055,2162
279.718059475976,2258
282.1116491091717,2167
284.5045787115897,2129
286.89684848871195,2094
289.2884586460981,2094
291.67940938938807,2059
294.0697009242996,2124
296.4593334566299,2185
298.84830719225477,2245
301.23662233712923,2121
303.6242790972866,2101
306.01127767884,2154
308.39761828798066,2123
310.78330113097934,1999
313.16832641418534,1947
315.5526943440269,1882
317.9364051270112,1964
320.3194589697242,1989
322.70185607883093,1904
325.0835966610754,1911
327.4646809232805,1899
329.8451090723478,1905
332.2248813152577,1845
334.6039978590701,1893
336.9824589109231,1993
339.36026467803447,1841
341.7374153677,1843
344.113911187295,1896
346.48975234427337,1880
348.8649390461686,1830
351.2394715005918,1954
353.61334991523415,1827
355.9865744978655,1846
358.35914545633375,1836
360.73106299856715,1807
363.10232733257146,1796
365.47293866643247,1757
367.84289720831396,1789
370.2122031664593,1770
372.5808567491905,1721
374.9488581649083,1689
377.31620762209275,1716
379.6829053293021,1710
382.0489514951745,1734
384.4143463284262,1702
386.7790900378528,1736
389.14318283232853,1732
391.50662492080653,1742
393.86941651231916,1763
396.23155781597745,1675
398.5930490409713,1674
400.9538903965696,1716
403.3140820921202,1703
405.6736243370498,1745
408.03251734086336,1654
410.3907613131465,1710
412.74835646356166,1640
415.10530300185144,1685
417.4616011378372,1663
419.81725108141893,1670
422.1722530425758,1725
424.5266072313656,1641
426.880313857925,1613
429.2333731324701,1613
431.58578526529516,1651
433.9375504667738,1676
436.2886689473588,1659
438.63914091758113,1623
440.9889665880513,1560
443.33814616945835,1572
445.68667987257015,1593
448.03456790823395,1622
450.3818104873759,1640
452.72840782100013,1578
455.07436012019105,1654
457.41966759611057,1638
459.7643304600007,1581
462.10834892318155,1601
464.4517231970525,1592
466.79445349309174,1620
469.1365400228566,1602
471.4779829979826,1609
473.81878263018564,1593
476.15893913125876,1591
478.4984527130747,1679
480.8373235875855,1695
483.17555196682144,1755
485.5131380628919,1732
487.8500820879857,1847
490.1863842543697,1842
492.52204477439034,1883
494.8570638604725,2137
497.1914417251204,2276
499.52517858091653,2663
501.85827464052306,3128
504.19073011668036,3419
506.5225452222086,3461
508.85372017000566,3471
511.18425517304956,3579
513.514150444396,3767
515.8434061971808,4660
518.1720226446176,5220
520.4999999999999,5245
522.8273384766991,4819
525.1540382881666,4389
527.480099647932,3908
529.8055227696037,3036
532.1303078668694,2290
534.454455153496,1871
536.777964843328,1743
539.1008371502907,1651
541.4230722883866,1630
543.744670471698,1749
546.0656319143858,1617
548.3859568306899,1584
550.7056454349294,1586
553.0246979415016,1530
555.3431145648834,1569
557.6608955196306,1614
559.978041020377,1541
562.2945512818363,1622
564.6104265188006,1684
566.9256669461412,1588
569.2402727788082,1631
571.5542442318302,1592
573.8675815203156,1573
576.1802848594508,1608
578.4923544645015,1612
580.8037905508126,1578
583.114593333807,1628
585.4247630289875,1671
587.7342998519354,1613
590.0432040183106,1585
592.3514757438526,1649
594.6591152443794,1632
596.9661227357875,1599
599.2724984340531,1586
601.578242555231,1609
603.8833553154542,1627
606.1878369309362,1642
608.4916876179676,1601
610.7949075929192,1561
613.0974970722403,1617
615.3994562724587,1603
617.7007854101818,1604
620.0014847020951,1605
622.3015543649641,1604
624.6009946156324,1565
626.8998056710224,1658
629.1979877481361,1603
631.4955410640538,1551
633.7924658359349,1552
636.0887622810175,1568
638.3844306166192,1637
640.6794710601358,1623
642.9738838290426,1623
645.2676691408932,1618
647.5608272133207,1588
649.853358264037,1575
652.1452625108324,1611
654.4365401715764,1580
656.7271914642178,1631
659.0172166067838,1627
661.3066158173809,1560
663.5953893141935,1649
665.8835373154867,1649
668.1710600396028,1632
670.4579577049639,1730
672.7442305300709,1639
675.0298787335033,1597
677.3149025339197,1625
679.599302150058,1567
681.8830778007342,1640
684.1662297048437,1628
686.4487580813608,1632
688.7306631493387,1578
691.0119451279091,1594
693.2926042362834,1616
695.5726406937516,1639
697.8520547196814,1647
700.1308465335215,1625
702.4090163547982,1619
704.6865644031171,1643
706.9634908981619,1637
709.2397960596965,1666
711.5154801075631,1646
713.7905432616823,1644
716.0649857420548,1635
718.3388077687592,1654
720.612009561953,1626
722.8845913418733,1634
725.1565533288352,1649
727.427895743234,1628
729.6986188055427,1593
731.9687227363137,1645
734.238207756178,1610
736.5070740858458,1621
738.7753219461066,1601
741.0429515578281,1650
743.3099631419569,1587
745.5763569195191,1642
747.8421331116193,1639
750.1072919394409,1583
752.3718336242467,1596
754.6357583873777,1622
756.8990664502545,1598
759.1617580343765,1581
761.423833361321,1560
763.6852926527457,1670
765.9461361303862,1658
768.206364016058,1717
770.4659765316536,1669
772.7249738991469,1683
774.9833563405886,1650
777.2411240781092,1671
779.4982773339183,1664
781.7548163303044,1666
784.010741289634,1679
786.2660524343538,1707
788.5207499869881,1677
790.7748341701416,1616
793.0283052064964,1734
795.2811633188143,1751
797.5334087299362,1716
799.7850416627813,1718
802.0360623403484,1737
804.2864709857143,1677
806.5362678220353,1686
808.7854530725468,1654
811.0340269605625,1647
813.2819897094754,1691
815.5293415427581,1680
817.77608268396,1678
820.0222133567116,1656
822.2677337847211,1702
824.5126441917765,1709
826.7569448017433,1708
829.0006358385675,1673
831.2437175262731,1662
833.4861900889629,1692
835.7280537508192,1653
837.9693087361026,1700
840.2099552691533,1587
842.4499935743896,1710
844.689423876309,1642
846.9282463994886,1679
849.1664613685833,1621
851.4040690083276,1672
853.6410695435349,1676
855.877463199097,1701
858.1132501999847,1645
860.3484307712487,1671
862.5830051380175,1681
864.8169735254988,1695
867.0503361589791,1657
869.2830932638243,1668
871.5152450654786,1657
873.7467917894654,1708
875.9777336613873,1673
878.2080709069252,1668
880.4378037518389,1698
882.666932421968,1612
884.8954571432301,1655
887.1233781416219,1684
889.3506956432192,1704
891.5774098741766,1683
893.803521060728,1638
896.0290294291852,1718
898.2539352059397,1724
900.4782386174619,1650
902.7019398903011,1650
904.925039251085,1702
907.147536926521,1649
909.3694331433943,1701
911.59072812857,1734
913.8114221089921,1771
916.0315153116827,1692
918.2510079637437,1764
920.4699002923547,1661
922.6881925247761,1728
924.905884888345,1673
927.1229776104793,1694
929.3394709186747,1593
931.555365040506,1599
933.7706602036275,1680
935.9853566357709,1763
938.1994545647489,1691
940.4129542184515,1718
942.6258558248488,1659
944.8381596119883,1713
947.0498658079974,1707
949.2609746410825,1709
951.4714863395287,1740
953.6814011316998,1691
955.8907192460387,1664
958.0994409110671,1645
960.3075663553858,1681
962.5150958076741,1704
964.7220294966913,1651
966.928367651274,1632
969.1341105003388,1642
971.3392582728806,1650
973.5438111979742,1629
975.747769504772,1605
977.9511334225061,1666
980.153903180487,1539
982.3560790081052,1619
984.5576611348289,1570
986.7586497902058,1591
988.9590452038618,1560
991.158847605503,1564
993.3580572249133,1579
995.5566742919558,1536
997.7546990365728,1463
999.952131688785,1480
1002.1489724786926,1460
1004.3452216364743,1458
1006.5408793923874,1464
1008.7359459767691,1386
1010.9304216200343,1394
1013.1243065526781,1406
1015.3176010052733,1349
1017.510305208472,1428
1019.7024193930064,1412
1021.8939437896848,1397
1024.0848786293977,1438
1026.2752241431122,1427
1028.4649805618747,1330
1030.6541481168115,1378
1032.842727039127,1369
1035.0307175601051,1384
1037.2181199111074,1417
1039.4049343235752,1398
1041.591161029029,1379
1043.7768002590683,1399
1045.9618522453698,1356
1048.1463172196918,1356
1050.3301954138697,1360
1052.513487059818,1337
1054.69619238953,1313
1056.8783116350783,1386
1059.0598450286152,1344
1061.2407928023704,1346
1063.4211551886528,1400
1065.6009324198508,1326
1067.780124728432,1350
1069.9587323469414,1312
1072.1367555080046,1368
1074.314194444325,1351
1076.4910493886855,1319
1078.667320573947,1251
1080.843008233051,1302
1083.0181125990161,1330
1085.1926339049414,1284
1087.3665723840027,1317
1089.5399282694575,1290
1091.7127017946405,1320
1093.8848931929647,1276
1096.0565026979243,1295
1098.2275305430899,1312
1100.3979769621128,1202
1102.567842188722,1273
1104.737126456726,1257
1106.9058300000124,1212
1109.0739530525475,1224
1111.2414958483764,1263
1113.4084586216231,1305
1115.5748416064907,1256
1117.7406450372605,1256
1119.9058691482942,1307
1122.0705141740304,1306
1124.2345803489884,1309
1126.3980679077658,1316
1128.5609770850388,1261
1130.7233081155623,1273
1132.8850612341707,1260
1135.0462366757774,1262
1137.2068346753745,1288
1139.3668554680326,1222
1141.526299288901,1247
1143.68516637321,1284
1145.8434569562655,1220
1148.001171273455,1275
1150.158309560244,1250
1152.3148720521767,1233
1154.470858984876,1248
1156.626270594044,1285
1158.7811071154629,1300
1160.9353687849912,1263
1163.089055838569,1245
1165.242168512213,1246
1167.3947070420209,1254
1169.5466716641677,1301
1171.6980626149075,1246
1173.8488801305748,1235
1175.9991244475814,1281
1178.1487958024186,1335
1180.2978944316555,1257
1182.4464205719428,1288
1184.5943744600072,1296
1186.7417563326567,1267
1188.8885664267755,1238
1191.0348049793297,1264
1193.1804722273619,1280
1195.325568407995,1231
1197.4700937584303,1276
1199.614048515948,1307
1201.7574329179074,1325
1203.900247201746,1225
1206.042491604982,1229
1208.1841663652099,1222
1210.3252717201053,1288
1212.465807907422,1320
1214.6057751649923,1332
1216.7451737307279,1341
1218.8840038426192,1274
1221.0222657387353,1266
1223.1599596572241,1265
1225.2970858363137,1276
1227.4336445143094,1295
1229.5696359295966,1339
1231.705060320639,1283
1233.8399179259786,1251
1235.9742089842384,1292
1238.107933734118,1305
1240.2410924143974,1349
1242.373685263935,1320
1244.5057125216676,1390
1246.6371744266116,1303
1248.7680712178621,1334
1250.898403134593,1300
1253.028170416058,1318
1255.1573733015875,1339
1257.2860120305932,1320
1259.4140868425648,1350
1261.54159797707,1362
1263.6685456737569,1338
1265.7949301723515,1333
1267.9207517126597,1423
1270.046010534565,1387
1272.1707068780306,1382
1274.2948409830983,1362
1276.4184130898889,1358
1278.541423438603,1364
1280.6638722695184,1404
1282.785759822993,1347
1284.9070863394636,1425
1287.0278520594447,1386
1289.1480572235314,1431
1291.2677020723963,1496
1293.3867868467923,1467
1295.5053117875495,1466
1297.623277135579,1456
1299.740683131868,1473
1301.8575300174857,1449
1303.973818033578,1474
1306.0895474213703,1516
1308.2047184221678,1506
1310.3193312773528,1520
1312.4333862283888,1551
1314.5468835168163,1504
1316.659823384255,1560
1318.7722060724045,1517
1320.8840318230418,1473
1322.9953008780249,1514
1325.1060134792888,1605
1327.2161698688478,1539
1329.3257702887959,1512
1331.4348149813054,1595
1333.5433041886276,1580
1335.6512381530933,1498
1337.7586171171101,1556
1339.8654413231675,1536
1341.9717110138317,1497
1344.0774264317488,1496
1346.1825878196432,1529
1348.2871954203192,1510
1350.3912494766587,1476
1352.4947502316231,1500
1354.5976979282532,1475
1356.7000928096686,1489
1358.8019351190665,1473
1360.9032250997243,1450
1363.0039629949988,1429
1365.1041490483235,1458
1367.2037835032133,1491
1369.3028666032606,1414
1371.401398592137,1476
1373.4993797135926,1456
1375.5968102114575,1441
1377.6936903296396,1440
1379.7900203121262,1411
1381.8858004029835,1404
1383.9810308463561,1398
1386.075711886469,1461
1388.1698437676241,1418
1390.2634267342032,1410
1392.356461030667,1434
1394.4489469015557,1460
1396.5408845914872,1386
1398.6322743451592,1413
1400.7231164073469,1443
1402.813411022907,1446
1404.903158436773,1423
1406.9923588939578,1440
1409.0810126395531,1403
1411.1691199187303,1384
1413.2566809767386,1408
1415.343696058907,1425
1417.4301654106425,1425
1419.5160892774315,1473
1421.6014679048399,1450
1423.6863015385125,1457
1425.7705904241707,1454
1427.8543348076178,1430
1429.9375349347342,1450
1432.0201910514802,1478
1434.102303403894,1446
1436.1838722380944,1436
1438.2648978002767,1471
1440.3453803367174,1488
1442.4253200937692,1440
1444.5047173178677,1442
1446.5835722555234,1490
1448.6618851533285,1487
1450.739656257952,1491
1452.8168858161434,1530
1454.8935740747306,1525
1456.96972128062,1540
1459.045327680797,1573
1461.120393522327,1504
1463.1949190523528,1556
1465.2689045180973,1563
1467.3423501668608,1620
1469.415256246024,1510
1471.4876230030463,1613
1473.559450685465,1603
1475.6307395408976,1593
1477.7014898170391,1586
1479.771701761665,1579
1481.8413756226287,1596
1483.9105116478618,1618
1485.9791100853772,1602
1488.0471711832643,1662
1490.1146951896926,1660
1492.1816823529098,1750
1494.2481329212433,1681
1496.3140471430984,1631
1498.3794252669609,1695
1500.4442675413939,1714
1502.5085742150404,1765
1504.572345536622,1733
1506.6355817549388,1723
1508.6982831188702,1725
1510.7604498773744,1771
1512.8220822794883,1725
1514.8831805743293,1767
1516.9437450110909,1753
1519.003775839048,1775
1521.0632733075522,1777
1523.1222376660367,1883
1525.1806691640113,1788
1527.2385680510652,1819
1529.2959345768668,1827
1531.3527689911643,1874
1533.4090715437833,1931
1535.4648424846291,1908
1537.5200820636855,1938
1539.5747905310159,1975
1541.6289681367616,1985
1543.6826151311434,1980
1545.7357317644614,1997
1547.7883182870937,2085
1549.8403749494987,2014
1551.8919020022113,2163
1553.9428996958477,2135
1555.9933682811015,2143
1558.0433080087469,2287
1560.0927191296346,2221
1562.1416018946961,2320
1564.1899565549415,2392
1566.2377833614592,2317
1568.2850825654164,2301
1570.3318544180606,2408
1572.3780991707158,2290
1574.423817074788,2319
1576.4690083817595,2203
1578.5136733431923,2191
1580.5578122107272,2138
1582.601425236085,2099
1584.6445126710646,1975
1586.6870747675434,1959
1588.7291117774776,1982
1590.7706239529034,1945
1592.8116115459347,1897
1594.8520748087658,1843
1596.8920139936686,1791
1598.9314293529933,1730
1600.9703211391711,1644
1603.008689604711,1680
1605.0465350022005,1687
1607.0838575843068,1645
1609.1206576037753,1624
1611.1569353134305,1549
1613.1926909661765,1564
1615.2279248149953,1518
1617.2626371129481,1506
1619.2968281131757,1442
1621.3304980688963,1485
1623.3636472334088,1445
1625.39627586009,1439
1627.428384202396,1396
1629.459972513861,1384
1631.4910410480993,1365
1633.5215900588028,1353
1635.551619799744,1396
1637.5811305247717,1413
1639.6101224878166,1399
1641.6385959428862,1384
1643.6665511440683,1350
1645.693988345528,1340
1647.7209078015112,1338
1649.7473097663405,1306
1651.7731944944203,1336
1653.7985622402307,1318
1655.823413258333,1309
1657.847747803366,1305
1659.8715661300494,1301
1661.8948684931793,1283
1663.9176551476316,1263
1665.9399263483624,1272
1667.9616823504057,1292
1669.982923408873,1274
1672.0036497789574,1215
1674.0238617159293,1267
1676.043559475138,1318
1678.0627433120121,1270
1680.081413482059,1243
1682.0995702408654,1233
1684.117213844096,1228
1686.134344547495,1247
1688.1509626068864,1315
1690.1670682781705,1261
1692.182661817329,1283
1694.1977434804217,1306
1696.2123135235875,1295
1698.226372203043,1265
1700.2399197750851,1285
1702.2529564960905,1315
1704.2654826225112,1288
1706.277498410882,1293
1708.2890041178139,1303
1710.2999999999988,1223
1712.3104863142066,1250
1714.3204633172854,1249
1716.329931266163,1294
1718.3388904178469,1254
1720.3473410294214,1270
1722.3552833580516,1268
1724.3627176609807,1304
1726.3696441955308,1267
1728.3760632191033,1268
1730.3819749891782,1273
1732.3873797633146,1252
1734.3922777991502,1324
1736.3966693544012,1287
1738.4005546868639,1232
1740.4039340544127,1237
1742.406807715001,1222
1744.4091759266616,1236
1746.4110389475054,1305
1748.4123970357223,1253
1750.413250449582,1225
1752.4135994474318,1265
1754.4134442876993,1257
1756.4127852288902,1236
1758.4116225295893,1233
1760.4099564484595,1222
1762.407787244244,1192
1764.405115175764,1255
1766.4019405019203,1275
1768.3982634816916,1254
1770.3940843741357,1260
1772.3894034383907,1245
1774.3842209336717,1226
1776.378537119274,1243
1778.372352254571,1234
1780.3656665990156,1253
1782.3584804121397,1245
1784.3507939535534,1226
1786.3426074829463,1187
1788.3339212600863,1214
1790.3247355448211,1247
1792.3150505970766,1312
1794.3048666768573,1234
1796.2941840442477,1252
1798.2830029594106,1247
1800.2713236825884,1266
1802.2591464741004,1261
1804.2464715943465,1236
1806.2332993038058,1230
1808.2196298630352,1254
1810.2054635326708,1252
1812.190800573428,1249
1814.175641246101,1214
1816.1599858115628,1232
1818.1438345307652,1195
1820.127187664738,1251
1822.1100454745924,1214
1824.092408221516,1238
1826.0742761667766,1206
1828.055649571721,1220
1830.0365286977735,1203
1832.0169138064398,1191
1833.9968051593014,1260
1835.9762030180214,1185
1837.9551076443408,1208
1839.9335193000788,1198
1841.9114382471344,1220
1843.888864747485,1212
1845.8657990631878,1219
1847.842241456378,1213
1849.8181921892697,1168
1851.7936515241558,1194
1853.7686197234098,1250
1855.7430970494815,1208
1857.7170837649014,1167
1859.6905801322787,1194
1861.6635864143004,1259
1863.6361028737338,1240
1865.608129773424,1221
1867.5796673762961,1188
1869.5507159453537,1223
1871.521275743678,1242
1873.4913470344313,1212
1875.4609300808534,1219
1877.4300251462632,1240
1879.3986324940588,1230
1881.366752387717,1192
1883.3343850907936,1226
1885.3015308669228,1241
1887.268189979819,1272
1889.2343626932739,1260
1891.2000492711595,1283
1893.1652499774254,1250
1895.1299650761011,1193
1897.0941948312952,1234
1899.0579395071945,1221
1901.0211993680641,1285
1902.98397467825,1237
1904.9462657021745,1301
1906.9080727043415,1321
1908.869395949332,1207
1910.8302357018065,1260
1912.790592226504,1200
1914.7504657882428,1251
1916.7098566519212,1236
1918.6687650825133,1272
1920.6271913450764,1204
1922.5851357047422,1188
1924.5425984267245,1154
1926.499579776314,1243
1928.4560800188833,1247
1930.4120994198802,1248
1932.367638244833,1263
1934.32269675935,1231
1936.2772752291175,1194
1938.231373919899,1209
1940.1849930975404,1181
1942.1381330279637,1217
1944.0907939771696,1201
1946.0429762112412,1198
1947.9946799963363,1258
1949.9459055986945,1149
1951.896653284633,1214
1953.8469233205478,1234
1955.7967159729142,1172
1957.7460315082863,1211
1959.6948701932974,1217
1961.6432322946594,1148
1963.5911180791632,1156
1965.5385278136787,1205
1967.4854617651545,1209
1969.4319202006182,1219
1971.377903387176,1238
1973.3234115920136,1199
1975.268445082395,1264
1977.2130041256642,1222
1979.1570889892423,1184
1981.1006999406304,1179
1983.04383724741,1244
1984.986501177238,1222
1986.928691997853,1201
1988.8704099770712,1196
1990.811655382789,1199
1992.7524284829801,1178
1994.692729545698,1172
1996.6325588390755,1198
1998.5719166313224,1166
2000.5108031907307,1215
2002.4492187856677,1204
2004.387163684583,1194
2006.3246381560011,1180
2008.2616424685298,1149
2010.1981768908527,1159
2012.1342416917332,1194
2014.069837140014,1169
2016.0049635046162,1155
2017.9396210545406,1165
2019.8738100588666,1168
2021.8075307867502,1181
2023.740783507431,1188
2025.6735684902228,1216
2027.6058860045214,1253
2029.5377363198004,1197
2031.4691197056118,1183
2033.4000364315875,1145
2035.3304867674374,1214
2037.260470982952,1172
2039.189989347998,1183
2041.1190421325232,1201
2043.047629606554,1149
2044.9757520401945,1138
2046.9034097036288,1180
2048.8306028671195,1201
2050.7573318010086,1178
2052.683596775716,1180
2054.609398061742,1143
2056.5347359296647,1172
2058.4596106501403,1183
2060.384022493906,1230
2062.3079717317764,1181
2064.231458634646,1220
2066.1544834734873,1231
2068.077046519352,1249
2069.99914804337,1218
2071.9207883167524,1215
2073.8419676107865,1180
2075.7626861968406,1121
2077.6829443463607,1174
2079.6027423308715,1179
2081.522080421977,1197
2083.440958891362,1193
2085.359378010786,1151
2087.2773380520907,1179
2089.194839287196,1174
2091.111881988101,1182
2093.0284664268825,1176
2094.9445928756973,1127
2096.86026160678,1203
2098.775472892446,1191
2100.690227005088,1216
2102.604524217178,1179
2104.5183648012676,1236
2106.431749029985,1193
2108.34467717604,1180
2110.2571495122206,1197
2112.169166311393,1182
2114.080727846503,1110
2115.9918343905747,1203
2117.902486216711,1153
2119.8126835980956,1192
2121.722426807987,1193
2123.6317161197285,1168
2125.5405518067364,1164
2127.448934142509,1149
2129.356863400624,1112
2131.264339854737,1202
2133.1713637785815,1252
2135.077935445972,1229
2136.9840551308002,1225
2138.889723107037,1232
2140.7949396487334,1208
2142.699705030018,1196
2144.6040195250994,1177
2146.507883408264,1216
2148.4112969538774,1206
2150.3142604363848,1225
2152.2167741303097,1237
2154.1188383102535,1236
2156.0204532508997,1244
2157.9216192270064,1200
2159.822336513414,1216
2161.7226053850413,1199
2163.622426116884,1221
2165.5217989840185,1190
2167.4207242616,1220
2169.319202224862,1207
2171.2172331491165,1225
2173.1148173097563,1203
2175.0119549822507,1191
2176.90864644215,1199
2178.8048919650823,1193
2180.7006918267534,1217
2182.596046302952,1235
2184.4909556695407,1215
2186.3854202024645,1195
2188.279440177746,1177
2190.173015871487,1196
2192.066147559868,1240
2193.958835519149,1233
2195.851080025667,1261
2197.7428813558417,1172
2199.6342397861667,1191
2201.5251555932186,1183
2203.415629053651,1221
2205.3056604441986,1156
2207.19525004167,1176
2209.084398122958,1239
2210.9731049650327,1273
2212.861370844941,1264
2214.749196039812,1207
2216.636580826851,1188
2218.523525483344,1219
2220.410030286655,1212
2222.296095514226,1191
2224.1817214435805,1275
2226.066908352319,1260
2227.951656518121,1185
2229.835966218746,1217
2231.71983773203,1212
2233.6032713358913,1215
2235.486267308324,1230
2237.3688259274036,1237
2239.2509474712824,1196
2241.132632218193,1224
2243.013880446447,1240
2244.8946924344323,1256
2246.7750684606203,1225
2248.6550088035574,1205
2250.534513741871,1171
2252.413583554265,1228
2254.292218519526,1172
2256.170418916517,1286
2258.0481850241786,1254
2259.925517121534,1261
2261.8024154876825,1218
2263.678880401803,1160
2265.5549121431536,1225
2267.430510991071,1248
2269.305677224971,1212
2271.180411124348,1257
2273.0547129687766,1155
2274.9285830379076,1220
2276.8020216114737,1170
2278.6750289692845,1188
2280.5476053912294,1225
2282.4197511572766,1182
2284.2914665474727,1225
2286.162751841943,1286
2288.0336073208937,1237
2289.904033264608,1220
2291.774029953448,1215
2293.6435976678554,1233
2295.5127366883517,1251
2297.381447295534,1222
2299.2497297700825,1202
2301.1175843927526,1216
2302.9850114443825,1151
2304.852011205885,1183
2306.7185839582553,1135
2308.5847299825664,1111
2310.4504495599676,1125
2312.3157429716925,1093
2314.1806104990483,1106
2316.0450524234247,1133
2317.9090690262888,1097
2319.772660589186,1158
2321.635827393742,1160
2323.498569721661,1096
2325.3608878547248,1115
2327.2227820747967,1162
2329.0842526638157,1118
2330.945299903803,1115
2332.805924076857,1131
2334.6661254651535,1081
2336.525904350951,1111
2338.3852610165827,1155
2340.244195744464,1144
2342.102708817088,1149
2343.9608005170253,1098
2345.8184711269287,1085
2347.675720929526,1178
2349.532550207628,1116
2351.38895924412,1139
2353.24494832197,1123
2355.100517724223,1148
2356.955667734004,1125
2358.810398634514,1098
2360.664710709037,1145
2362.5186042409337,1118
2364.3720795136437,1147
2366.225136810686,1169
2368.0777764156583,1183
2369.929998612237,1132
2371.7818036841777,1119
2373.633191915315,1121
2375.484163589562,1149
2377.3347189909114,1120
2379.184858403434,1094
2381.03458211128,1136
2382.8838903986775,1129
2384.732783549936,1187
2386.5812618494406,1110
2388.4293255816588,1154
2390.2769750311327,1156
2392.1242104824883,1144
2393.971032220427,1124
2395.8174405297295,1165
2397.6634356952563,1099
2399.509018001947,1156
2401.3541877348193,1134
2403.1989451789705,1099
2405.043290619576,1174
2406.8872243418905,1179
2408.730746631247,1134
2410.5738577730594,1132
2412.4165580528183,1155
2414.258847756095,1203
2416.100727168537,1170
2417.9421965758734,1234
2419.783256263912,1124
2421.623906518538,1191
2423.4641476257157,1174
2425.303979871491,1174
2427.143403541984,1160
2428.9824189233977,1208
2430.821026302012,1156
2432.6592259641866,1175
2434.497018196361,1160
2436.33440328505,1097
2438.171381516851,1155
2440.00795317844,1170
2441.844118556569,1185
2443.6798779380724,1234
2445.5152316098606,1144
2447.3501798589255,1176
2449.1847229723357,1079
2451.0188612372403,1152
2452.8525949408663,1127
2454.6859243705203,1157
2456.518849813587,1130
2458.3513715575314,1142
2460.183489889895,1155
2462.015205098301,1164
2463.8465174704493,1106
2465.67742729412,1144
2467.5079348571717,1118
2469.338040447542,1152
2471.1677443532476,1161
2472.9970468623833,1124
2474.825948263123,1155
2476.6544488437207,1170
2478.482548892508,1180
2480.310248697896,1152
2482.137548548374,1166
2483.9644487325118,1171
2485.790949538956,1167
2487.617051256433,1179
2489.44275417375,1143
2491.26805857979,1176
2493.0929647635157,1136
2494.917473013971,1140
2496.741583620276,1123
2498.5652968716304,1189
2500.3886130573137,1182
2502.2115324666834,1167
2504.0340553891765,1257
2505.856182114308,1184
2507.6779129316733,1202
2509.499248130945,1179
2511.3201880018764,1186
2513.140732834298,1220
2514.9608829181198,1164
2516.780638543331,1202
2518.6,1194
2520.418967578273,1117
2522.237541568376,1161
2524.0557222606144,1169
2525.8735099453706,1185
2527.6909049131086,1180
2529.507907454368,1158
2531.32451785977,1217
2533.140736420014,1202
2534.9565634258774,1210
2536.771999168218,1211
2538.5870439379714,1195
2540.4016980261526,1168
2542.2159617238544,1169
2544.02983532225,1283
2545.8433191125914,1241
2547.656413386209,1287
2549.4691184345115,1205
2551.2814345489874,1274
2553.093362021204,1210
2554.904901142808,1241
2556.716052205523,1297
2558.526815501153,1270
2560.3371913215824,1284
2562.147179958771,1305
2563.956781704761,1287
2565.7659968516705,1317
2567.5748256916986,1257
2569.3832685171224,1272
2571.1913256202984,1274
2572.9989972936614,1323
2574.806283829725,1275
2576.613185521084,1289
2578.4197026604074,1336
2580.2258355404483,1272
2582.031584454035,1318
2583.836949694077,1346
2585.6419315535613,1317
2587.4465303255533,1324
2589.2507463032002,1327
2591.0545797797245,1311
2592.8580310484303,1352
2594.6611004026995,1301
2596.463788135992,1327
2598.266094541849,1309
2600.0680199138874,1335
2601.869564545807,1319
2603.670728731383,1335
2605.4715127644704,1300
2607.2719169390048,1276
2609.071941548998,1326
2610.8715868885433,1285
2612.670853251811,1318
2614.469740933052,1334
2616.268250226594,1338
2618.0663814268455,1314
2619.864134828292,1295
2621.6615107255006,1370
2623.458509413115,1344
2625.2551311858597,1328
2627.0513763385347,1258
2628.8472451660223,1313
2630.6427379632833,1308
2632.4378550253564,1307
2634.232596647359,1277
2636.026963124488,1307
2637.8209547520187,1315
2639.6145718253065,1295
2641.407814639785,1292
2643.200683490966,1272
2644.9931786744414,1247
2646.7853004858807,1269
2648.577049221034,1270
2650.3684251757277,1312
2652.1594286458712,1251
2653.9500599274484,1240
2655.740319316525,1209
2657.5302071092437,1260
2659.3197236018286,1271
2661.10886909058,1218
2662.8976438718782,1241
2664.686048242183,1222
2666.4740824980327,1251
2668.2617469360443,1203
2670.0490418529134,1236
2671.8359675454153,1246
2673.622524310403,1215
2675.408712444811,1250
2677.1945322456495,1235
2678.979984010009,1179
2680.76506803506,1228
2682.5497846180497,1217
2684.334134056306,1131
2686.1181166472343,1236
2687.9017326883213,1163
2689.6849824771293,1184
2691.4678663113013,1162
2693.2503844885596,1191
2695.032537306705,1184
2696.8143250636167,1162
2698.5957480572542,1134
2700.3768065856534,1127
2702.1575009469316,1157
2703.937831439283,1169
2705.717798360982,1112
2707.4974020103837,1182
2709.276642685917,1145
2711.055520686095,1114
2712.834036309506,1138
2714.612189854819,1111
2716.389981620782,1128
2718.1674119062204,1176
2719.944481010041,1121
2721.721189231226,1177
2723.4975368688415,1133
2725.273524222027,1164
2727.0491515900053,1155
2728.824419272075,1104
2730.5993275676146,1097
2732.3738767760838,1107
2734.148067197016,1106
2735.921899130031,1139
2737.6953728748194,1144
2739.468488731156,1094
2741.2412469988926,1111
2743.0136479779617,1127
2744.785691968372,1081
2746.5573792702116,1091
2748.3287101836504,1156
2750.099685008934,1142
2751.870304046388,1138
2753.640567596418,1117
2755.4104759595057,1116
2757.1800294362156,1112
2758.949228327187,1103
2760.7180729331412,1101
2762.486563554877,1072
2764.254700493272,1099
2766.022484049284,1094
2767.789914523947,1110
2769.5569922183786,1133
2771.3237174337705,1134
2773.090090471394,1076
2774.8561116326036,1070
2776.6217812188274,1116
2778.3870995315756,1066
2780.1520668724356,1080
2781.9166835430747,1098
2783.6809498452394,1105
2785.444866080754,1102
2787.2084325515225,1120
2788.971649559527,1088
2790.73451740683,1185
2792.4970363955713,1068
2794.2592068279705,1161
2796.0210290063264,1090
2797.7825032330147,1149
2799.543629810493,1147
2801.304409041296,1119
2803.0648412280366,1116
2804.8249266734088,1115
2806.5846656801846,1144
2808.344058551212,1057
2810.1031055894246,1100
2811.8618070978273,1091
2813.6201633795085,1122
2815.378174737636,1140
2817.1358414754536,1110
2818.893163896285,1140
2820.6501423035334,1113
2822.4067770006814,1125
2824.1630682912883,1104
2825.9190164789957,1140
2827.6746218675207,1108
2829.429884760661,1121
2831.184805462294,1129
2832.9393842763743,1114
2834.693621506936,1168
2836.4475174580916,1095
2838.201072434034,1092
2839.954286739034,1107
2841.707160677441,1163
2843.459694553685,1097
2845.2118886722724,1091
2846.96374333779,1116
2848.7152588549034,1087
2850.4664355283567,1131
2852.217273662973,1130
2853.9677735636546,1107
2855.7179355353833,1111
2857.4677598832186,1126
2859.217246912299,1156
2860.9663969278427,1065
2862.715210235146,1080
2864.4636871395846,1144
2866.211827946614,1118
2867.9596329617652,1119
2869.7071024906536,1136
2871.4542368389684,1106
2873.20103631248,1141
2874.947501217038,1097
2876.6936318585695,1073
2878.4394285430812,1104
2880.1848915766604,1143
2881.9300212654707,1091
2883.6748179157553,1086
2885.4192818338374,1052
2887.1634133261173,1071
2888.907212699077,1132
2890.6506802592744,1092
2892.393816313348,1118
2894.1366211680142,1092
2895.8790951300693,1104
2897.621238506388,1072
2899.363051603925,1089
2901.1045347297118,1117
2902.8456881908596,1112
2904.58651229456,1140
2906.327007348081,1130
2908.067173658772,1104
2909.8070115340597,1107
2911.5465212814497,1040
2913.285703208527,1100
2915.0245576229563,1087
2916.7630848324807,1137
2918.5012851449196,1149
2920.2391588681758,1121
2921.976706310227,1177
2923.7139277791334,1116
2925.4508235830313,1083
2927.187394030137,1104
2928.923639428745,1082
2930.6595600872306,1115
2932.395156314046,1148
2934.1304284177218,1159
2935.8653767068713,1086
2937.6000014901815,1078
2939.3343030764227,1144
2941.068281774442,1102
2942.8019378931644,1073
2944.5352717415976,1077
2946.2682836288236,1114
2948.0009738640065,1152
2949.7333427563885,1119
2951.465390615289,1139
2953.1971177501086,1106
2954.9285244703265,1116
2956.6596110855,1138
2958.3903779052657,1120
2960.1208252393385,1084
2961.8509533975125,1131
2963.5807626896617,1080
2965.3102534257378,1119
2967.0394259157715,1117
2968.768280469873,1100
2970.496817398232,1055
2972.2250370111146,1094
2973.952939618869,1075
2975.6805255319196,1104
2977.4077950607707,1109
2979.134748516006,1120
2980.861386208289,1128
2982.587708448359,1109
2984.313715547037,1124
2986.039407815222,1088
2987.764785563891,1094
2989.489849104102,1107
2991.2145987469908,1076
2992.9390348037705,1083
2994.6631575857346,1090
2996.3869674042576,1107
2998.1104645707887,1120
2999.83364939686,1083
3001.5565221940783,1116
3003.2790832741334,1113
3005.0013329487924,1111
3006.7232715298996,1049
3008.4448993293804,1079
3010.166216659239,1040
3011.887223831558,1103
3013.607921158498,1093
3015.3283089522993,1116
3017.0483875252826,1056
3018.7681571898443,1118
3020.4876182584626,1109
3022.2067710436927,1040
3023.9256158581707,1061
3025.644153014609,1085
3027.362382825801,1061
3029.0803056046193,1067
3030.797921664012,1083
3032.5152313170106,1083
3034.2322348767225,1048
3035.9489326563353,1099
3037.665324969115,1087
3039.3814121284063,1055
3041.097194447633,1080
3042.812672240299,1064
3044.5278458199855,1099
3046.2427155003525,1112
3047.9572815951406,1119
3049.671544418167,1065
3051.38550428333,1096
3053.0991615046073,1069
3054.812516396051,1076
3056.5255692717974,1097
3058.2383204460575,1102
3059.9507702331257,1069
3061.662918947372,1063
3063.3747669032446,1074
3065.0863144152736,1096
3066.7975617980674,1167
3068.508509366309,1066
3070.219157434767,1099
3071.9295063182844,1052
3073.639556331785,1046
3075.3493077902704,1052
3077.058761008821,1040
3078.7679163025964,1022
3080.476773986837,1060
3082.1853343768594,1023
3083.89359778806,1035
3085.6015645359153,1092
3087.3092349359786,1098
3089.016609303884,1046
3090.7236879553434,1062
3092.4304712061476,1057
3094.136959372166,1071
3095.843152769349,1096
3097.5490517137237,1018
3099.2546565213966,1071
3100.959967508554,1066
3102.66498499146,1112
3104.3697092864577,1089
3106.0741407099695,1090
3107.778279578498,1065
3109.482126208622,1131
3111.1856809170004,1090
3112.8889440203716,1083
3114.5919158355528,1136
3116.294596679439,1087
3117.996986869006,1070
3119.6990867213062,1096
3121.4008965534726,1098
3123.102416682717,1088
3124.803647426329,1081
3126.5045891016784,1082
3128.205242026213,1108
3129.90560651746,1126
3131.605682893025,1077
3133.3054714705922,1092
3135.0049725679282,1091
3136.7041865028714,1088
3138.4031135933465,1079
3140.101754157353,1108
3141.800108512971,1051
3143.498176978357,1080
3145.1959598717494,1097
3146.8934575114636,1070
3148.5906702158954,1014
3150.2875983035183,1084
3151.9842420928853,1058
3153.680601902627,1051
3155.376678051456,1062
3157.07247085816,1061
3158.767980641609,1074
3160.463207720748,1041
3162.158152414606,1078
3163.8528150422862,1072
3165.5471959229726,1117
3167.2412953759303,1084
3168.9351137204976,1120
3170.628651276098,1083
3172.3219083622307,1103
3174.014885298474,1087
3175.707582404485,1112
3177.4000000000005,1106
3179.092138404835,1157
3180.7839979388846,1108
3182.47557892212,1125
3184.166881674594,1063
3185.8579065164386,1093
3187.5486537678626,1090
3189.2391237491547,1134
3190.9293167806827,1088
3192.6192331828934,1029
3194.3088732763117,1077
3195.998237381542,1045
3197.687325819268,1096
3199.376138910251,1136
3201.064676975334,1063
3202.7529403354347,1085
3204.4409293115523,1074
3206.1286442247647,1112
3207.816085396229,1061
3209.5032531471825,1070
3211.190147798936,1086
3212.8767696728846,1069
3214.5631190905015,1001
3216.2491963733373,1083
3217.9350018430214,1028
3219.6205358212637,1038
3221.305798629851,1045
3222.990790590651,1049
3224.6755120256103,1029
3226.359963256751,1058
3228.0441446061795,1059
3229.7280563960758,1046
3231.411698948703,1072
3233.0950725863995,1063
3234.778177631587,1088
3236.461014406761,1061
3238.1435832345005,1112
3239.8258844374595,1030
3241.507918338374,1081
3243.1896852600576,1094
3244.8711855254023,1085
3246.552419457381,1034
3248.233387379042,1063
3249.914089613516,1070
3251.59452648401,1113
3253.274698313813,1060
3254.95460542629,1099
3256.6342481448855,1071
3258.313626793125,1043
3259.9927416946084,1010
3261.6715931730196,1030
3263.3501815521176,1069
3265.0285071557437,995
3266.706570307815,1023
3268.3843713323286,1047
3270.0619105533615,1046
3271.739188295068,1061
3273.4162048816834,1097
3275.0929606375184,1087
3276.769455886966,1128
3278.445690954498,1066
3280.1216661646613,1076
3281.797381842087,1056
3283.4728383114807,1081
3285.1480358976296,1103
3286.8229749253996,1056
3288.4976557197333,1068
3290.172078605655,1054
3291.846243908266,1043
3293.5201519527463,1059
3295.193803064357,1061
3296.8671975684374,1092
3298.5403357904024,1096
3300.21321805575,1066
3301.8858446900567,1089
3303.558216018975,1076
3305.23033236824,1092
3306.9021940636603,1059
3308.57380143113,1069
3310.2451547966184,1124
3311.916254486174,1082
3313.5871008259246,1086
3315.2576941420766,1097
3316.9280347609147,1096
3318.5981230088046,1059
3320.2679592121895,1042
3321.9375436975924,1044
3323.606876791612,1026
3325.27595882093,1035
3326.944790112305,1016
3328.6133709925753,1032
3330.2817017886573,1038
3331.949782827547,1076
3333.617614436319,1069
3335.2851969421245,1047
3336.952530672199,1067
3338.619615953853,1074
3340.286453114475,1069
3341.9530424815357,1082
3343.619384382583,1037
3345.2854791452437,1038
3346.951327097224,1015
3348.6169285663073,1003
3350.2822838803577,1045
3351.947393367319,1032
3353.61225735521,1058
3355.2768761721345,1080
3356.9412501462693,1091
3358.605379605873,1068
3360.2692648792827,1071
3361.9329062949146,1076
3363.596304181263,1060
