CollectionTime,7/11/2024 12:52:35 PM
ExposureUsed,3
CalibratedSpectrum
-962.7078968117929,781
-959.9714848408522,855
-957.2358232597828,825
-954.5009119013725,867
-951.7667505983302,843
-949.0333391832855,887
-946.3006774887896,899
-943.5687653473143,853
-940.837602591253,866
-938.1071890529199,864
-935.3775245645503,879
-932.6486089583007,883
-929.9204420662485,906
-927.1930237203925,890
-924.4663537526524,864
-921.7404319948689,877
-919.0152582788041,927
-916.2908324361409,962
-913.5671542984834,894
-910.8442236973568,881
-908.1220404642074,857
-905.4006044304027,905
-902.679915427231,843
-899.959973285902,875
-897.2407778375464,886
-894.5223289132158,872
-891.8046263438832,875
-889.0876699604426,910
-886.3714595937089,867
-883.6559950744183,865
-880.9412762332282,893
-878.2273029007168,881
-875.5140749073835,867
-872.8015920836489,875
-870.0898542598545,871
-867.3788612662631,844
-864.6686129330585,900
-861.9591090903457,852
-859.2503495681506,900
-856.5423341964203,901
-853.8350628050229,896
-851.1285352237478,859
-848.4227512823054,891
-845.7177108103272,875
-843.0134136373656,904
-840.3098595928943,887
-837.6070485063082,923
-834.9049802069229,891
-832.2036545239757,927
-829.5030712866244,898
-826.8032303239481,889
-824.1041314649472,925
-821.4057745385428,891
-818.7081593735775,896
-816.0112857988148,889
-813.3151536429393,918
-810.6197627345566,900
-807.9251129021936,892
-805.2312039742981,954
-802.5380357792392,905
-799.8456081453069,926
-797.1539209007124,916
-794.462973873588,947
-791.772766891987,924
-789.083299783884,926
-786.3945723771743,902
-783.7065844996748,938
-781.0193359791231,929
-778.3328266431781,899
-775.6470563194197,951
-772.9620248353489,981
-770.2777320183878,947
-767.5941776958798,969
-764.9113616950891,959
-762.2292838432011,953
-759.5479439673222,966
-756.8673418944801,935
-754.1874774516235,936
-751.5083504656222,957
-748.8299607632671,924
-746.15230817127,979
-743.475392516264,1000
-740.7992136248035,973
-738.1237713233636,971
-735.4490654383407,994
-732.7750957960521,958
-730.1018622227365,1000
-727.4293645445534,1020
-724.7576025875837,956
-722.0865761778291,1003
-719.4162851412126,991
-716.7467293035781,993
-714.0779084906909,1023
-711.409822528237,1034
-708.7424712418238,1023
-706.0758544569796,993
-703.4099719991541,1012
-700.7448236937178,1021
-698.0804093659622,1074
-695.4167288411002,1089
-692.7537819442656,1021
-690.0915685005134,1046
-687.4300883348199,1028
-684.7693412720819,1038
-682.1093271371178,1029
-679.4500457546669,1028
-676.7914969493897,1061
-674.1336805458676,1015
-671.4765963686034,1067
-668.8202442420206,1051
-666.1646239904642,1046
-663.5097354382001,1050
-660.8555784094151,1100
-658.2021527282176,1057
-655.5494582186366,1083
-652.8974947046223,1072
-650.2462620100463,1082
-647.5957599587009,1127
-644.9459883742998,1101
-642.2969470804776,1073
-639.6486359007902,1081
-637.0010546587141,1076
-634.3542031776476,1089
-631.7080812809096,1105
-629.0626887917401,1102
-626.4180255333008,1172
-623.7740913286734,1098
-621.1308860008619,1122
-618.4884093727904,1099
-615.8466612673046,1146
-613.2056415071715,1080
-610.5653499150785,1132
-607.9257863136347,1092
-605.28695052537,1087
-602.6488423727357,1186
-600.0114616781036,1126
-597.3748082637674,1100
-594.7388819519412,1091
-592.1036825647604,1122
-589.4692099242818,1241
-586.8354638524829,1115
-584.2024441712624,1127
-581.5701507024403,1075
-578.9385832677575,1153
-576.3077416888759,1182
-573.6776257873787,1186
-571.0482353847704,1160
-568.4195703024757,1148
-565.7916303618415,1172
-563.164415384135,1190
-560.5379251905453,1175
-557.9121596021815,1207
-555.2871184400748,1165
-552.6628015251767,1171
-550.0392086783606,1129
-547.4163397204204,1171
-544.794194472071,1182
-542.1727727539491,1248
-539.5520743866118,1235
-536.9320991905377,1275
-534.3128469861261,1235
-531.6943175936979,1225
-529.0765108334947,1250
-526.4594265256793,1309
-523.8430644903358,1363
-521.2274245474689,1452
-518.612506517005,1531
-515.9983102187913,1547
-513.3848354725959,1532
-510.77208209810846,1511
-508.16004991493924,1615
-505.5487387426199,1710
-502.9381484006032,1873
-500.3282787082628,1934
-497.71912948489364,1933
-495.1107005497117,1836
-492.5029917218539,1800
-489.8960028203786,1615
-487.28973366426493,1573
-484.68418407241325,1500
-482.07935386364494,1462
-479.47524285670266,1375
-476.87185087025,1412
-474.2691777228715,1361
-471.66722323307334,1373
-469.0659872192821,1399
-466.4654694998459,1408
-463.86566989303384,1429
-461.26658821703614,1336
-458.66822428996414,1377
-456.07057792985,1440
-453.4736489546475,1359
-450.877437182231,1375
-448.28194243039627,1363
-445.68716451686,1433
-443.09310325926003,1388
-440.49975847515555,1362
-437.9071299820263,1396
-435.31521759727354,1398
-432.72402113821954,1394
-430.13354042210767,1377
-427.5437752661022,1378
-424.95472548728867,1422
-422.36639090267386,1451
-419.7787713291855,1457
-417.1918665836721,1479
-414.60567648290385,1499
-412.0202008435715,1470
-409.4354394822874,1383
-406.8513922155845,1493
-404.26805885991723,1532
-401.685439231661,1522
-399.103533147112,1490
-396.522340422488,1548
-393.9418608739278,1494
-391.3620943174908,1452
-388.7830405691583,1408
-386.2046994448317,1356
-383.6270707603344,1278
-381.05015433141045,1241
-378.473949973725,1117
-375.8984575028645,1083
-373.32367673433623,965
-370.74960748356875,934
-368.1762495659117,867
-365.60360279663576,804
-363.03166699093265,684
-360.4604419639154,599
-357.8899275306178,539
-355.32012350599507,496
-352.7510297049233,490
-350.1826459421999,473
-347.61497203254316,473
-345.04800779059235,469
-342.4817530309082,480
-339.91620756797226,462
-337.35137121618743,478
-334.7872437898774,522
-332.22382510328725,553
-329.66111497058273,485
-327.09911320585127,463
-324.53781962310075,473
-321.9772340362607,484
-319.4173562591816,461
-316.8581861056348,458
-314.2997233893127,482
-311.7419679238294,459
-309.1849195227194,483
-306.62857799943856,513
-304.0729431673641,600
-301.51801483979375,566
-298.963792829947,557
-296.41027695096386,532
-293.85746701590574,554
-291.3053628377552,529
-288.7539642294155,571
-286.2032710037115,555
-283.65328297338897,583
-281.1039999511146,567
-278.5554217494762,554
-276.007548180983,579
-273.4603790580651,602
-270.9139141930734,579
-268.3681533982807,537
-265.8230964858798,559
-263.27874326798565,553
-260.7350935566336,571
-258.1921471637804,611
-255.6499039013039,567
-253.10836358100266,569
-250.56752601459698,549
-248.02739101372765,589
-245.48795838995704,618
-242.94922795476816,641
-240.41119951956557,651
-237.8738728956746,674
-235.33724789434166,630
-232.80132432673452,638
-230.2661020039418,624
-227.73158073697357,621
-225.19776033676033,662
-222.66464061415422,662
-220.1322213799284,663
-217.60050244477725,613
-215.06948361931552,618
-212.53916471408013,680
-210.00954553952818,674
-207.48062590603843,658
-204.9524056239104,672
-202.4248845033651,705
-199.8980623545441,723
-197.37193898751036,726
-194.84651421224817,749
-192.32178783866232,806
-189.79775967657952,782
-187.27442953574644,758
-184.7517972258321,764
-182.2298625564256,751
-179.7086253370378,756
-177.18808537710026,759
-174.66824248596583,775
-172.14909647290835,719
-169.6306471471229,809
-167.11289431772548,843
-164.59583779375328,758
-162.07947738416453,778
-159.5638128978386,789
-157.04884414357605,799
-154.53457093009854,970
-152.02099306604828,977
-149.50811035998936,814
-146.99592262040665,773
-144.48442965570587,885
-141.97363127421409,896
-139.46352728417958,1009
-136.95411749377126,1071
-134.44540171107985,898
-131.93737974411636,831
-129.43005140081357,818
-126.92341648902493,1015
-124.41747481652521,1167
-121.91222619101006,1447
-119.40767042009657,1847
-116.90380731132257,2088
-114.40063667214702,2033
-111.8981583099503,1942
-109.3963720320337,2069
-106.89527764561933,2473
-104.39487495785067,2912
-101.89516377579241,3689
-99.39614390642998,3743
-96.89781515667039,2872
-94.40017733334128,2575
-91.90323024319173,4312
-89.40697369289148,8486
-86.91140748903172,13539
-84.41653143812482,14448
-81.92234534660395,9753
-79.42884902082358,5268
-76.93604226705907,4621
-74.4439248915071,9622
-71.95249670028534,16981
-69.46175749943245,23059
-66.97170709490854,22970
-64.48234529259423,18286
-61.99367189829195,14243
-59.50568671772464,12607
-57.01838955653636,11137
-54.53178022029283,8616
-52.045858514480074,8098
-49.560624244506016,8694
-47.07607721569923,9498
-44.59221723330904,9302
-42.10904410250669,8070
-39.62655762838392,6771
-37.14475761595372,6004
-34.66364387015028,5171
-32.18321619582866,5301
-29.70347439776515,5858
-27.224418280657005,5901
-24.74604764912317,7608
-22.26836230770266,11882
-19.7913620608565,21214
-17.315046712966478,35898
-14.83941606833514,47539
-12.36446993118659,65038
-9.89020810566592,65038
-7.416630395839093,65038
-4.94373660569363,65038
-2.471526539137585,65038
-6.821210263296962E-13,65038
2.47084320796705,65038
4.941003281093458,65038
7.410480415786196,65038
9.879274808531363,65038
12.347386655893956,65038
14.814816154518212,65038
17.28156350112681,65038
19.74762889252179,65038
22.21301252558385,65038
24.67771459727237,20331
27.141735304626195,4328
29.605074844762612,2859
32.06773341487792,2859
34.52971121224755,3111
36.99100843422559,2648
39.45162527824516,1991
41.91156194181792,1754
44.370818622535126,1518
46.82939551806646,1352
49.287292826160524,1525
51.74451074464503,1993
54.201049471426245,2106
56.65690920448981,2000
59.112090141899785,1599
61.56659248179983,1295
64.02041642241159,1193
66.4735621620365,1121
68.92602989905402,1132
71.37781983192338,1260
73.82893215918205,1575
76.27936707944684,1594
78.72912479141326,1297
81.17820549385567,1357
83.62660938562783,1627
86.07433666566146,1284
88.5213875329681,894
90.96776218663751,874
93.41346082583925,937
95.85848364982041,962
98.30283085790859,1235
100.7465026495089,1246
103.18949922410604,1140
105.63182078126385,1198
108.07346752062438,1056
110.51443964190923,935
112.95473734491827,853
115.39436082953114,973
117.83331029570547,1112
120.27158594347827,1053
122.7091879729652,1001
125.1461165843615,1068
127.58237197794062,1010
130.01795435405518,919
132.4528639131364,892
134.88710085569494,993
137.32066538231982,877
139.75355769367923,914
142.1857779905207,909
144.61732647366978,928
147.04820334403132,879
149.47840880258934,868
151.90794305040674,956
154.33680628862487,1127
156.76499871846443,1350
159.19252054122433,1522
161.61937195828352,1580
164.04555317109896,1825
166.47106438120693,1958
168.89590579022217,2113
171.320077599839,2223
173.7435800118302,2339
176.16641322804742,2554
178.58857745042144,2708
181.01007288096173,2847
183.43089972175687,2981
185.85105817497413,2907
188.27054844285988,3072
190.6893707277394,3112
193.10752523201643,3037
195.5250121581745,3263
197.9418317087751,3239
200.3579840864594,3242
202.7734694939469,3296
205.18828813403627,3326
207.6024402096051,3365
210.01592592360964,3577
212.42874547908548,3367
214.84089907914665,3435
217.2523869269868,3316
219.66320922587727,3355
222.0733661791695,3368
224.48285799029293,3410
226.8916848627572,3445
229.29984700014882,3474
231.7073446061355,3562
234.11417788446204,3433
236.520347038953,3580
238.92585227351185,3637
241.33069379212054,3602
243.73487179884035,3817
246.1383864978112,3633
248.541238093252,3638
250.9434267894609,3586
253.34495279081432,3627
255.74581630176783,3602
258.1460175268563,3560
260.54555667069314,3621
262.9444339379703,3596
265.3426495334594,3618
267.7402036620107,3490
270.1370965285529,3497
272.53332833809407,3412
274.9288992957214,3305
277.32380960660055,3127
279.718059475976,3315
282.1116491091717,3274
284.5045787115897,3166
286.89684848871195,3142
289.2884586460981,3179
291.67940938938807,3222
294.0697009242996,3139
296.4593334566299,3254
298.84830719225477,3191
301.23662233712923,3086
303.6242790972866,3154
306.01127767884,3072
308.39761828798066,3015
310.78330113097934,3079
313.16832641418534,3001
315.5526943440269,2950
317.9364051270112,2922
320.3194589697242,2992
322.70185607883093,3030
325.0835966610754,3003
327.4646809232805,2897
329.8451090723478,2899
332.2248813152577,2833
334.6039978590701,2799
336.9824589109231,2825
339.36026467803447,2830
341.7374153677,2900
344.113911187295,2828
346.48975234427337,2819
348.8649390461686,2816
351.2394715005918,2739
353.61334991523415,2839
355.9865744978655,2872
358.35914545633375,2832
360.73106299856715,2793
363.10232733257146,2812
365.47293866643247,2809
367.84289720831396,2779
370.2122031664593,2664
372.5808567491905,2688
374.9488581649083,2720
377.31620762209275,2686
379.6829053293021,2656
382.0489514951745,2567
384.4143463284262,2591
386.7790900378528,2702
389.14318283232853,2631
391.50662492080653,2631
393.86941651231916,2652
396.23155781597745,2704
398.5930490409713,2597
400.9538903965696,2672
403.3140820921202,2639
405.6736243370498,2625
408.03251734086336,2519
410.3907613131465,2728
412.74835646356166,2602
415.10530300185144,2609
417.4616011378372,2629
419.81725108141893,2701
422.1722530425758,2655
424.5266072313656,2616
426.880313857925,2531
429.2333731324701,2537
431.58578526529516,2616
433.9375504667738,2602
436.2886689473588,2552
438.63914091758113,2584
440.9889665880513,2535
443.33814616945835,2454
445.68667987257015,2556
448.03456790823395,2522
450.3818104873759,2507
452.72840782100013,2542
455.07436012019105,2537
457.41966759611057,2542
459.7643304600007,2593
462.10834892318155,2453
464.4517231970525,2503
466.79445349309174,2593
469.1365400228566,2541
471.4779829979826,2604
473.81878263018564,2558
476.15893913125876,2487
478.4984527130747,2544
480.8373235875855,2630
483.17555196682144,2634
485.5131380628919,2697
487.8500820879857,2781
490.1863842543697,2869
492.52204477439034,3024
494.8570638604725,3385
497.1914417251204,3503
499.52517858091653,3580
501.85827464052306,3839
504.19073011668036,3734
506.5225452222086,3716
508.85372017000566,3631
511.18425517304956,3520
513.514150444396,3543
515.8434061971808,4191
518.1720226446176,4762
520.4999999999999,5042
522.8273384766991,4791
525.1540382881666,4493
527.480099647932,4108
529.8055227696037,3690
532.1303078668694,3178
534.454455153496,2765
536.777964843328,2635
539.1008371502907,2646
541.4230722883866,2591
543.744670471698,2665
546.0656319143858,2591
548.3859568306899,2610
550.7056454349294,2588
553.0246979415016,2504
555.3431145648834,2472
557.6608955196306,2479
559.978041020377,2582
562.2945512818363,2528
564.6104265188006,2514
566.9256669461412,2505
569.2402727788082,2498
571.5542442318302,2396
573.8675815203156,2512
576.1802848594508,2448
578.4923544645015,2490
580.8037905508126,2556
583.114593333807,2587
585.4247630289875,2558
587.7342998519354,2532
590.0432040183106,2570
592.3514757438526,2548
594.6591152443794,2534
596.9661227357875,2597
599.2724984340531,2557
601.578242555231,2617
603.8833553154542,2597
606.1878369309362,2596
608.4916876179676,2541
610.7949075929192,2623
613.0974970722403,2567
615.3994562724587,2535
617.7007854101818,2514
620.0014847020951,2562
622.3015543649641,2585
624.6009946156324,2494
626.8998056710224,2604
629.1979877481361,2617
631.4955410640538,2605
633.7924658359349,2601
636.0887622810175,2542
638.3844306166192,2614
640.6794710601358,2639
642.9738838290426,2621
645.2676691408932,2602
647.5608272133207,2566
649.853358264037,2629
652.1452625108324,2639
654.4365401715764,2630
656.7271914642178,2621
659.0172166067838,2676
661.3066158173809,2612
663.5953893141935,2623
665.8835373154867,2651
668.1710600396028,2672
670.4579577049639,2683
672.7442305300709,2570
675.0298787335033,2587
677.3149025339197,2538
679.599302150058,2541
681.8830778007342,2665
684.1662297048437,2652
686.4487580813608,2612
688.7306631493387,2624
691.0119451279091,2669
693.2926042362834,2657
695.5726406937516,2575
697.8520547196814,2611
700.1308465335215,2599
702.4090163547982,2592
704.6865644031171,2574
706.9634908981619,2630
709.2397960596965,2568
711.5154801075631,2613
713.7905432616823,2603
716.0649857420548,2529
718.3388077687592,2658
720.612009561953,2525
722.8845913418733,2621
725.1565533288352,2620
727.427895743234,2609
729.6986188055427,2634
731.9687227363137,2570
734.238207756178,2598
736.5070740858458,2600
738.7753219461066,2587
741.0429515578281,2633
743.3099631419569,2613
745.5763569195191,2547
747.8421331116193,2548
750.1072919394409,2583
752.3718336242467,2572
754.6357583873777,2545
756.8990664502545,2541
759.1617580343765,2597
761.423833361321,2557
763.6852926527457,2608
765.9461361303862,2524
768.206364016058,2630
770.4659765316536,2729
772.7249738991469,2515
774.9833563405886,2557
777.2411240781092,2500
779.4982773339183,2578
781.7548163303044,2608
784.010741289634,2584
786.2660524343538,2691
788.5207499869881,2570
790.7748341701416,2670
793.0283052064964,2659
795.2811633188143,2679
797.5334087299362,2589
799.7850416627813,2598
802.0360623403484,2663
804.2864709857143,2632
806.5362678220353,2595
808.7854530725468,2645
811.0340269605625,2629
813.2819897094754,2644
815.5293415427581,2691
817.77608268396,2666
820.0222133567116,2602
822.2677337847211,2527
824.5126441917765,2643
826.7569448017433,2586
829.0006358385675,2653
831.2437175262731,2600
833.4861900889629,2569
835.7280537508192,2533
837.9693087361026,2609
840.2099552691533,2608
842.4499935743896,2609
844.689423876309,2571
846.9282463994886,2654
849.1664613685833,2659
851.4040690083276,2554
853.6410695435349,2527
855.877463199097,2615
858.1132501999847,2507
860.3484307712487,2631
862.5830051380175,2675
864.8169735254988,2555
867.0503361589791,2635
869.2830932638243,2605
871.5152450654786,2718
873.7467917894654,2620
875.9777336613873,2639
878.2080709069252,2684
880.4378037518389,2578
882.666932421968,2624
884.8954571432301,2659
887.1233781416219,2640
889.3506956432192,2614
891.5774098741766,2618
893.803521060728,2686
896.0290294291852,2627
898.2539352059397,2668
900.4782386174619,2636
902.7019398903011,2572
904.925039251085,2717
907.147536926521,2613
909.3694331433943,2658
911.59072812857,2634
913.8114221089921,2626
916.0315153116827,2583
918.2510079637437,2554
920.4699002923547,2602
922.6881925247761,2534
924.905884888345,2623
927.1229776104793,2546
929.3394709186747,2599
931.555365040506,2598
933.7706602036275,2552
935.9853566357709,2509
938.1994545647489,2555
940.4129542184515,2542
942.6258558248488,2553
944.8381596119883,2549
947.0498658079974,2525
949.2609746410825,2540
951.4714863395287,2531
953.6814011316998,2552
955.8907192460387,2430
958.0994409110671,2478
960.3075663553858,2516
962.5150958076741,2534
964.7220294966913,2473
966.928367651274,2529
969.1341105003388,2440
971.3392582728806,2462
973.5438111979742,2558
975.747769504772,2492
977.9511334225061,2469
980.153903180487,2464
982.3560790081052,2422
984.5576611348289,2467
986.7586497902058,2405
988.9590452038618,2450
991.158847605503,2389
993.3580572249133,2407
995.5566742919558,2399
997.7546990365728,2345
999.952131688785,2339
1002.1489724786926,2280
1004.3452216364743,2221
1006.5408793923874,2246
1008.7359459767691,2217
1010.9304216200343,2280
1013.1243065526781,2216
1015.3176010052733,2312
1017.510305208472,2203
1019.7024193930064,2170
1021.8939437896848,2206
1024.0848786293977,2224
1026.2752241431122,2288
1028.4649805618747,2219
1030.6541481168115,2227
1032.842727039127,2236
1035.0307175601051,2237
1037.2181199111074,2115
1039.4049343235752,2211
1041.591161029029,2204
1043.7768002590683,2172
1045.9618522453698,2194
1048.1463172196918,2176
1050.3301954138697,2155
1052.513487059818,2175
1054.69619238953,2264
1056.8783116350783,2210
1059.0598450286152,2126
1061.2407928023704,2209
1063.4211551886528,2113
1065.6009324198508,2098
1067.780124728432,2207
1069.9587323469414,2171
1072.1367555080046,2149
1074.314194444325,2184
1076.4910493886855,2227
1078.667320573947,2099
1080.843008233051,2112
1083.0181125990161,2137
1085.1926339049414,2081
1087.3665723840027,2170
1089.5399282694575,2136
1091.7127017946405,2096
1093.8848931929647,2122
1096.0565026979243,2036
1098.2275305430899,2100
1100.3979769621128,2090
1102.567842188722,2116
1104.737126456726,2034
1106.9058300000124,2077
1109.0739530525475,2135
1111.2414958483764,2091
1113.4084586216231,2028
1115.5748416064907,1975
1117.7406450372605,2040
1119.9058691482942,1998
1122.0705141740304,2001
1124.2345803489884,2081
1126.3980679077658,2059
1128.5609770850388,2120
1130.7233081155623,2051
1132.8850612341707,2031
1135.0462366757774,2027
1137.2068346753745,2038
1139.3668554680326,2085
1141.526299288901,2037
1143.68516637321,2011
1145.8434569562655,2033
1148.001171273455,1981
1150.158309560244,2110
1152.3148720521767,2007
1154.470858984876,2063
1156.626270594044,2042
1158.7811071154629,2013
1160.9353687849912,2058
1163.089055838569,2000
1165.242168512213,2016
1167.3947070420209,1979
1169.5466716641677,1955
1171.6980626149075,1998
1173.8488801305748,2011
1175.9991244475814,1999
1178.1487958024186,1926
1180.2978944316555,1998
1182.4464205719428,2035
1184.5943744600072,1956
1186.7417563326567,1992
1188.8885664267755,1921
1191.0348049793297,1896
1193.1804722273619,1989
1195.325568407995,2031
1197.4700937584303,1968
1199.614048515948,2006
1201.7574329179074,1962
1203.900247201746,2069
1206.042491604982,1955
1208.1841663652099,1967
1210.3252717201053,2029
1212.465807907422,1933
1214.6057751649923,1996
1216.7451737307279,2027
1218.8840038426192,1964
1221.0222657387353,1990
1223.1599596572241,2068
1225.2970858363137,2028
1227.4336445143094,2009
1229.5696359295966,2027
1231.705060320639,2049
1233.8399179259786,1991
1235.9742089842384,1976
1238.107933734118,2043
1240.2410924143974,2087
1242.373685263935,2017
1244.5057125216676,2015
1246.6371744266116,2111
1248.7680712178621,2024
1250.898403134593,2060
1253.028170416058,2086
1255.1573733015875,2002
1257.2860120305932,2009
1259.4140868425648,2035
1261.54159797707,2072
1263.6685456737569,2038
1265.7949301723515,2076
1267.9207517126597,2028
1270.046010534565,1971
1272.1707068780306,2057
1274.2948409830983,2049
1276.4184130898889,2072
1278.541423438603,2024
1280.6638722695184,2092
1282.785759822993,2019
1284.9070863394636,2031
1287.0278520594447,2059
1289.1480572235314,2191
1291.2677020723963,2147
1293.3867868467923,2138
1295.5053117875495,2154
1297.623277135579,2135
1299.740683131868,2236
1301.8575300174857,2199
1303.973818033578,2146
1306.0895474213703,2151
1308.2047184221678,2120
1310.3193312773528,2147
1312.4333862283888,2141
1314.5468835168163,2098
1316.659823384255,2141
1318.7722060724045,2202
1320.8840318230418,2168
1322.9953008780249,2131
1325.1060134792888,2091
1327.2161698688478,2113
1329.3257702887959,2117
1331.4348149813054,2150
1333.5433041886276,2121
1335.6512381530933,2154
1337.7586171171101,2145
1339.8654413231675,2140
1341.9717110138317,2116
1344.0774264317488,2181
1346.1825878196432,2134
1348.2871954203192,2168
1350.3912494766587,2164
1352.4947502316231,2188
1354.5976979282532,2003
1356.7000928096686,2141
1358.8019351190665,2172
1360.9032250997243,2018
1363.0039629949988,2187
1365.1041490483235,2077
1367.2037835032133,2055
1369.3028666032606,2128
1371.401398592137,2120
1373.4993797135926,2073
1375.5968102114575,2212
1377.6936903296396,2138
1379.7900203121262,2169
1381.8858004029835,2186
1383.9810308463561,2176
1386.075711886469,2070
1388.1698437676241,2127
1390.2634267342032,2113
1392.356461030667,2191
1394.4489469015557,2166
1396.5408845914872,2166
1398.6322743451592,2250
1400.7231164073469,2210
1402.813411022907,2143
1404.903158436773,2180
1406.9923588939578,2221
1409.0810126395531,2181
1411.1691199187303,2211
1413.2566809767386,2248
1415.343696058907,2220
1417.4301654106425,2222
1419.5160892774315,2239
1421.6014679048399,2292
1423.6863015385125,2251
1425.7705904241707,2198
1427.8543348076178,2360
1429.9375349347342,2308
1432.0201910514802,2319
1434.102303403894,2310
1436.1838722380944,2284
1438.2648978002767,2371
1440.3453803367174,2343
1442.4253200937692,2373
1444.5047173178677,2406
1446.5835722555234,2492
1448.6618851533285,2457
1450.739656257952,2519
1452.8168858161434,2561
1454.8935740747306,2534
1456.96972128062,2593
1459.045327680797,2600
1461.120393522327,2589
1463.1949190523528,2650
1465.2689045180973,2663
1467.3423501668608,2713
1469.415256246024,2794
1471.4876230030463,2744
1473.559450685465,2792
1475.6307395408976,2824
1477.7014898170391,2915
1479.771701761665,2885
1481.8413756226287,3002
1483.9105116478618,3040
1485.9791100853772,2999
1488.0471711832643,3091
1490.1146951896926,3028
1492.1816823529098,3107
1494.2481329212433,3134
1496.3140471430984,3201
1498.3794252669609,3154
1500.4442675413939,3240
1502.5085742150404,3224
1504.572345536622,3269
1506.6355817549388,3356
1508.6982831188702,3315
1510.7604498773744,3392
1512.8220822794883,3379
1514.8831805743293,3383
1516.9437450110909,3378
1519.003775839048,3382
1521.0632733075522,3528
1523.1222376660367,3582
1525.1806691640113,3594
1527.2385680510652,3657
1529.2959345768668,3678
1531.3527689911643,3723
1533.4090715437833,3757
1535.4648424846291,3766
1537.5200820636855,3820
1539.5747905310159,3773
1541.6289681367616,3854
1543.6826151311434,3898
1545.7357317644614,3877
1547.7883182870937,4041
1549.8403749494987,4148
1551.8919020022113,4103
1553.9428996958477,4130
1555.9933682811015,4244
1558.0433080087469,4293
1560.0927191296346,4245
1562.1416018946961,4150
1564.1899565549415,4205
1566.2377833614592,4115
1568.2850825654164,4162
1570.3318544180606,3963
1572.3780991707158,3845
1574.423817074788,3748
1576.4690083817595,3683
1578.5136733431923,3572
1580.5578122107272,3468
1582.601425236085,3307
1584.6445126710646,3077
1586.6870747675434,3050
1588.7291117774776,2946
1590.7706239529034,2850
1592.8116115459347,2854
1594.8520748087658,2707
1596.8920139936686,2627
1598.9314293529933,2558
1600.9703211391711,2502
1603.008689604711,2409
1605.0465350022005,2426
1607.0838575843068,2395
1609.1206576037753,2373
1611.1569353134305,2305
1613.1926909661765,2361
1615.2279248149953,2352
1617.2626371129481,2319
1619.2968281131757,2291
1621.3304980688963,2187
1623.3636472334088,2222
1625.39627586009,2289
1627.428384202396,2185
1629.459972513861,2122
1631.4910410480993,2165
1633.5215900588028,2157
1635.551619799744,2165
1637.5811305247717,2157
1639.6101224878166,2096
1641.6385959428862,2125
1643.6665511440683,2177
1645.693988345528,2077
1647.7209078015112,2111
1649.7473097663405,2051
1651.7731944944203,2151
1653.7985622402307,2086
1655.823413258333,2030
1657.847747803366,2071
1659.8715661300494,2138
1661.8948684931793,2115
1663.9176551476316,2057
1665.9399263483624,2163
1667.9616823504057,2126
1669.982923408873,2126
1672.0036497789574,2029
1674.0238617159293,2047
1676.043559475138,2021
1678.0627433120121,2085
1680.081413482059,2060
1682.0995702408654,2107
1684.117213844096,2106
1686.134344547495,2043
1688.1509626068864,2105
1690.1670682781705,2074
1692.182661817329,2105
1694.1977434804217,2069
1696.2123135235875,2083
1698.226372203043,2069
1700.2399197750851,2080
1702.2529564960905,2121
1704.2654826225112,2111
1706.277498410882,2060
1708.2890041178139,1989
1710.2999999999988,2057
1712.3104863142066,2051
1714.3204633172854,2088
1716.329931266163,2108
1718.3388904178469,2030
1720.3473410294214,2027
1722.3552833580516,2003
1724.3627176609807,2053
1726.3696441955308,2090
1728.3760632191033,2027
1730.3819749891782,1997
1732.3873797633146,2064
1734.3922777991502,2041
1736.3966693544012,2032
1738.4005546868639,1998
1740.4039340544127,2040
1742.406807715001,1959
1744.4091759266616,1983
1746.4110389475054,1992
1748.4123970357223,2085
1750.413250449582,1992
1752.4135994474318,1988
1754.4134442876993,2025
1756.4127852288902,2001
1758.4116225295893,2018
1760.4099564484595,2026
1762.407787244244,1961
1764.405115175764,2009
1766.4019405019203,2010
1768.3982634816916,1981
1770.3940843741357,1935
1772.3894034383907,1949
1774.3842209336717,2029
1776.378537119274,1975
1778.372352254571,2047
1780.3656665990156,2004
1782.3584804121397,1935
1784.3507939535534,1982
1786.3426074829463,1911
1788.3339212600863,1976
1790.3247355448211,1932
1792.3150505970766,1928
1794.3048666768573,1908
1796.2941840442477,2022
1798.2830029594106,1935
1800.2713236825884,1960
1802.2591464741004,1922
1804.2464715943465,1965
1806.2332993038058,1926
1808.2196298630352,1978
1810.2054635326708,1965
1812.190800573428,1891
1814.175641246101,1920
1816.1599858115628,1974
1818.1438345307652,1922
1820.127187664738,1931
1822.1100454745924,1904
1824.092408221516,1977
1826.0742761667766,2050
1828.055649571721,2011
1830.0365286977735,1935
1832.0169138064398,1919
1833.9968051593014,1912
1835.9762030180214,1957
1837.9551076443408,1943
1839.9335193000788,1959
1841.9114382471344,1939
1843.888864747485,2008
1845.8657990631878,2017
1847.842241456378,1923
1849.8181921892697,1912
1851.7936515241558,1944
1853.7686197234098,1843
1855.7430970494815,1895
1857.7170837649014,1896
1859.6905801322787,1915
1861.6635864143004,1946
1863.6361028737338,1960
1865.608129773424,1873
1867.5796673762961,1943
1869.5507159453537,1955
1871.521275743678,1935
1873.4913470344313,1972
1875.4609300808534,1985
1877.4300251462632,1964
1879.3986324940588,1942
1881.366752387717,1973
1883.3343850907936,2000
1885.3015308669228,1963
1887.268189979819,1953
1889.2343626932739,2028
1891.2000492711595,1958
1893.1652499774254,2003
1895.1299650761011,1931
1897.0941948312952,1977
1899.0579395071945,1997
1901.0211993680641,1935
1902.98397467825,1959
1904.9462657021745,2023
1906.9080727043415,2045
1908.869395949332,1996
1910.8302357018065,2059
1912.790592226504,2007
1914.7504657882428,2041
1916.7098566519212,1997
1918.6687650825133,2030
1920.6271913450764,1914
1922.5851357047422,1966
1924.5425984267245,1968
1926.499579776314,2015
1928.4560800188833,2081
1930.4120994198802,2000
1932.367638244833,1978
1934.32269675935,2002
1936.2772752291175,2016
1938.231373919899,2061
1940.1849930975404,1933
1942.1381330279637,2028
1944.0907939771696,2028
1946.0429762112412,2016
1947.9946799963363,1911
1949.9459055986945,2028
1951.896653284633,2015
1953.8469233205478,1941
1955.7967159729142,1998
1957.7460315082863,1966
1959.6948701932974,2046
1961.6432322946594,1993
1963.5911180791632,1999
1965.5385278136787,1977
1967.4854617651545,1983
1969.4319202006182,1948
1971.377903387176,1957
1973.3234115920136,1896
1975.268445082395,2020
1977.2130041256642,1993
1979.1570889892423,1952
1981.1006999406304,2025
1983.04383724741,1992
1984.986501177238,1947
1986.928691997853,1950
1988.8704099770712,2053
1990.811655382789,1977
1992.7524284829801,2007
1994.692729545698,2014
1996.6325588390755,1994
1998.5719166313224,1981
2000.5108031907307,2007
2002.4492187856677,2015
2004.387163684583,2039
2006.3246381560011,2028
2008.2616424685298,2058
2010.1981768908527,2028
2012.1342416917332,1932
2014.069837140014,1954
2016.0049635046162,1988
2017.9396210545406,1967
2019.8738100588666,1968
2021.8075307867502,1997
2023.740783507431,1975
2025.6735684902228,1994
2027.6058860045214,1912
2029.5377363198004,1986
2031.4691197056118,1933
2033.4000364315875,1972
2035.3304867674374,1992
2037.260470982952,1975
2039.189989347998,1978
2041.1190421325232,2057
2043.047629606554,1997
2044.9757520401945,2049
2046.9034097036288,1969
2048.8306028671195,2004
2050.7573318010086,2023
2052.683596775716,1944
2054.609398061742,1976
2056.5347359296647,1992
2058.4596106501403,2018
2060.384022493906,2007
2062.3079717317764,2019
2064.231458634646,1976
2066.1544834734873,1980
2068.077046519352,1979
2069.99914804337,2038
2071.9207883167524,1956
2073.8419676107865,1973
2075.7626861968406,1988
2077.6829443463607,1993
2079.6027423308715,2066
2081.522080421977,2005
2083.440958891362,2016
2085.359378010786,2014
2087.2773380520907,1984
2089.194839287196,2042
2091.111881988101,1987
2093.0284664268825,1935
2094.9445928756973,1997
2096.86026160678,2034
2098.775472892446,2064
2100.690227005088,1983
2102.604524217178,1998
2104.5183648012676,2005
2106.431749029985,1954
2108.34467717604,2022
2110.2571495122206,2065
2112.169166311393,1987
2114.080727846503,2034
2115.9918343905747,2051
2117.902486216711,2011
2119.8126835980956,2035
2121.722426807987,1999
2123.6317161197285,2004
2125.5405518067364,2001
2127.448934142509,2092
2129.356863400624,2010
2131.264339854737,2092
2133.1713637785815,2080
2135.077935445972,2079
2136.9840551308002,2084
2138.889723107037,2021
2140.7949396487334,2052
2142.699705030018,2065
2144.6040195250994,2059
2146.507883408264,2055
2148.4112969538774,2085
2150.3142604363848,2092
2152.2167741303097,1984
2154.1188383102535,2103
2156.0204532508997,2084
2157.9216192270064,2056
2159.822336513414,2063
2161.7226053850413,2114
2163.622426116884,2056
2165.5217989840185,2101
2167.4207242616,2043
2169.319202224862,2040
2171.2172331491165,2074
2173.1148173097563,2072
2175.0119549822507,2048
2176.90864644215,2105
2178.8048919650823,2061
2180.7006918267534,2041
2182.596046302952,2119
2184.4909556695407,2160
2186.3854202024645,2084
2188.279440177746,2090
2190.173015871487,2084
2192.066147559868,2083
2193.958835519149,2074
2195.851080025667,2058
2197.7428813558417,2100
2199.6342397861667,2128
2201.5251555932186,2136
2203.415629053651,2176
2205.3056604441986,2124
2207.19525004167,2157
2209.084398122958,2169
2210.9731049650327,2121
2212.861370844941,2141
2214.749196039812,2117
2216.636580826851,2175
2218.523525483344,2139
2220.410030286655,2165
2222.296095514226,2174
2224.1817214435805,2212
2226.066908352319,2176
2227.951656518121,2204
2229.835966218746,2130
2231.71983773203,2120
2233.6032713358913,2137
2235.486267308324,2199
2237.3688259274036,2241
2239.2509474712824,2119
2241.132632218193,2146
2243.013880446447,2165
2244.8946924344323,2194
2246.7750684606203,2189
2248.6550088035574,2182
2250.534513741871,2200
2252.413583554265,2204
2254.292218519526,2262
2256.170418916517,2160
2258.0481850241786,2181
2259.925517121534,2151
2261.8024154876825,2238
2263.678880401803,2113
2265.5549121431536,2158
2267.430510991071,2158
2269.305677224971,2129
2271.180411124348,2103
2273.0547129687766,2115
2274.9285830379076,2133
2276.8020216114737,2155
2278.6750289692845,2217
2280.5476053912294,2204
2282.4197511572766,2183
2284.2914665474727,2207
2286.162751841943,2237
2288.0336073208937,2304
2289.904033264608,2195
2291.774029953448,2170
2293.6435976678554,2170
2295.5127366883517,2110
2297.381447295534,2172
2299.2497297700825,2076
2301.1175843927526,2069
2302.9850114443825,2064
2304.852011205885,2083
2306.7185839582553,2113
2308.5847299825664,2027
2310.4504495599676,2003
2312.3157429716925,1985
2314.1806104990483,1960
2316.0450524234247,1994
2317.9090690262888,2121
2319.772660589186,1999
2321.635827393742,1990
2323.498569721661,2019
2325.3608878547248,1989
2327.2227820747967,1967
2329.0842526638157,2057
2330.945299903803,2040
2332.805924076857,2007
2334.6661254651535,2011
2336.525904350951,2006
2338.3852610165827,2019
2340.244195744464,2025
2342.102708817088,1964
2343.9608005170253,1996
2345.8184711269287,2052
2347.675720929526,2083
2349.532550207628,2072
2351.38895924412,2006
2353.24494832197,2067
2355.100517724223,2039
2356.955667734004,2005
2358.810398634514,2048
2360.664710709037,2063
2362.5186042409337,1989
2364.3720795136437,1998
2366.225136810686,2047
2368.0777764156583,2033
2369.929998612237,2070
2371.7818036841777,2026
2373.633191915315,2085
2375.484163589562,2065
2377.3347189909114,2046
2379.184858403434,2051
2381.03458211128,1982
2382.8838903986775,2046
2384.732783549936,2056
2386.5812618494406,2054
2388.4293255816588,2017
2390.2769750311327,2129
2392.1242104824883,2031
2393.971032220427,2132
2395.8174405297295,2087
2397.6634356952563,2002
2399.509018001947,2015
2401.3541877348193,2048
2403.1989451789705,2061
2405.043290619576,2016
2406.8872243418905,2044
2408.730746631247,2037
2410.5738577730594,2061
2412.4165580528183,2072
2414.258847756095,2037
2416.100727168537,2094
2417.9421965758734,2035
2419.783256263912,2120
2421.623906518538,1975
2423.4641476257157,2134
2425.303979871491,2126
2427.143403541984,2078
2428.9824189233977,2106
2430.821026302012,2040
2432.6592259641866,2033
2434.497018196361,1998
2436.33440328505,2082
2438.171381516851,2050
2440.00795317844,2069
2441.844118556569,2062
2443.6798779380724,2120
2445.5152316098606,2119
2447.3501798589255,2081
2449.1847229723357,2077
2451.0188612372403,2093
2452.8525949408663,2062
2454.6859243705203,2087
2456.518849813587,2113
2458.3513715575314,2089
2460.183489889895,2122
2462.015205098301,2044
2463.8465174704493,2075
2465.67742729412,2134
2467.5079348571717,2125
2469.338040447542,2078
2471.1677443532476,2120
2472.9970468623833,2166
2474.825948263123,2112
2476.6544488437207,2094
2478.482548892508,2195
2480.310248697896,2168
2482.137548548374,2047
2483.9644487325118,2124
2485.790949538956,2074
2487.617051256433,2085
2489.44275417375,2169
2491.26805857979,2111
2493.0929647635157,2128
2494.917473013971,2157
2496.741583620276,2232
2498.5652968716304,2083
2500.3886130573137,2137
2502.2115324666834,2181
2504.0340553891765,2208
2505.856182114308,2180
2507.6779129316733,2255
2509.499248130945,2202
2511.3201880018764,2172
2513.140732834298,2176
2514.9608829181198,2178
2516.780638543331,2208
2518.6,2167
2520.418967578273,2160
2522.237541568376,2163
2524.0557222606144,2256
2525.8735099453706,2194
2527.6909049131086,2149
2529.507907454368,2224
2531.32451785977,2202
2533.140736420014,2244
2534.9565634258774,2225
2536.771999168218,2237
2538.5870439379714,2262
2540.4016980261526,2270
2542.2159617238544,2300
2544.02983532225,2277
2545.8433191125914,2271
2547.656413386209,2237
2549.4691184345115,2305
2551.2814345489874,2328
2553.093362021204,2282
2554.904901142808,2258
2556.716052205523,2298
2558.526815501153,2384
2560.3371913215824,2475
2562.147179958771,2377
2563.956781704761,2406
2565.7659968516705,2358
2567.5748256916986,2350
2569.3832685171224,2465
2571.1913256202984,2336
2572.9989972936614,2388
2574.806283829725,2403
2576.613185521084,2430
2578.4197026604074,2453
2580.2258355404483,2402
2582.031584454035,2417
2583.836949694077,2432
2585.6419315535613,2471
2587.4465303255533,2409
2589.2507463032002,2524
2591.0545797797245,2460
2592.8580310484303,2494
2594.6611004026995,2453
2596.463788135992,2558
2598.266094541849,2464
2600.0680199138874,2428
2601.869564545807,2453
2603.670728731383,2461
2605.4715127644704,2528
2607.2719169390048,2514
2609.071941548998,2486
2610.8715868885433,2534
2612.670853251811,2536
2614.469740933052,2466
2616.268250226594,2442
2618.0663814268455,2510
2619.864134828292,2491
2621.6615107255006,2495
2623.458509413115,2455
2625.2551311858597,2462
2627.0513763385347,2425
2628.8472451660223,2494
2630.6427379632833,2508
2632.4378550253564,2402
2634.232596647359,2498
2636.026963124488,2413
2637.8209547520187,2373
2639.6145718253065,2413
2641.407814639785,2382
2643.200683490966,2412
2644.9931786744414,2377
2646.7853004858807,2389
2648.577049221034,2407
2650.3684251757277,2273
2652.1594286458712,2274
2653.9500599274484,2357
2655.740319316525,2272
2657.5302071092437,2226
2659.3197236018286,2338
2661.10886909058,2266
2662.8976438718782,2283
2664.686048242183,2270
2666.4740824980327,2278
2668.2617469360443,2298
2670.0490418529134,2233
2671.8359675454153,2318
2673.622524310403,2248
2675.408712444811,2213
2677.1945322456495,2269
2678.979984010009,2266
2680.76506803506,2263
2682.5497846180497,2296
2684.334134056306,2148
2686.1181166472343,2176
2687.9017326883213,2227
2689.6849824771293,2199
2691.4678663113013,2183
2693.2503844885596,2213
2695.032537306705,2239
2696.8143250636167,2192
2698.5957480572542,2218
2700.3768065856534,2252
2702.1575009469316,2072
2703.937831439283,2177
2705.717798360982,2136
2707.4974020103837,2118
2709.276642685917,2179
2711.055520686095,2220
2712.834036309506,2206
2714.612189854819,2238
2716.389981620782,2239
2718.1674119062204,2195
2719.944481010041,2165
2721.721189231226,2142
2723.4975368688415,2168
2725.273524222027,2160
2727.0491515900053,2194
2728.824419272075,2184
2730.5993275676146,2205
2732.3738767760838,2182
2734.148067197016,2146
2735.921899130031,2134
2737.6953728748194,2074
2739.468488731156,2151
2741.2412469988926,2142
2743.0136479779617,2157
2744.785691968372,2151
2746.5573792702116,2198
2748.3287101836504,2166
2750.099685008934,2186
2751.870304046388,2112
2753.640567596418,2105
2755.4104759595057,2105
2757.1800294362156,2181
2758.949228327187,2165
2760.7180729331412,2086
2762.486563554877,2105
2764.254700493272,2276
2766.022484049284,2191
2767.789914523947,2173
2769.5569922183786,2091
2771.3237174337705,2171
2773.090090471394,2188
2774.8561116326036,2184
2776.6217812188274,2054
2778.3870995315756,2125
2780.1520668724356,2152
2781.9166835430747,2155
2783.6809498452394,2166
2785.444866080754,2092
2787.2084325515225,2163
2788.971649559527,2144
2790.73451740683,2093
2792.4970363955713,2168
2794.2592068279705,2184
2796.0210290063264,2149
2797.7825032330147,2078
2799.543629810493,2131
2801.304409041296,2125
2803.0648412280366,2114
2804.8249266734088,2119
2806.5846656801846,2213
2808.344058551212,2194
2810.1031055894246,2152
2811.8618070978273,2201
2813.6201633795085,2184
2815.378174737636,2166
2817.1358414754536,2184
2818.893163896285,2121
2820.6501423035334,2151
2822.4067770006814,2100
2824.1630682912883,2168
2825.9190164789957,2169
2827.6746218675207,2198
2829.429884760661,2198
2831.184805462294,2197
2832.9393842763743,2194
2834.693621506936,2187
2836.4475174580916,2120
2838.201072434034,2234
2839.954286739034,2176
2841.707160677441,2127
2843.459694553685,2113
2845.2118886722724,2106
2846.96374333779,2227
2848.7152588549034,2158
2850.4664355283567,2126
2852.217273662973,2166
2853.9677735636546,2133
2855.7179355353833,2220
2857.4677598832186,2185
2859.217246912299,2131
2860.9663969278427,2116
2862.715210235146,2216
2864.4636871395846,2144
2866.211827946614,2125
2867.9596329617652,2177
2869.7071024906536,2193
2871.4542368389684,2073
2873.20103631248,2127
2874.947501217038,2157
2876.6936318585695,2112
2878.4394285430812,2093
2880.1848915766604,2122
2881.9300212654707,2112
2883.6748179157553,2165
2885.4192818338374,2099
2887.1634133261173,2203
2888.907212699077,2109
2890.6506802592744,2144
2892.393816313348,2248
2894.1366211680142,2125
2895.8790951300693,2160
2897.621238506388,2098
2899.363051603925,2142
2901.1045347297118,2107
2902.8456881908596,2158
2904.58651229456,2148
2906.327007348081,2108
2908.067173658772,2166
2909.8070115340597,2087
2911.5465212814497,2112
2913.285703208527,2092
2915.0245576229563,2050
2916.7630848324807,2140
2918.5012851449196,2147
2920.2391588681758,2095
2921.976706310227,2167
2923.7139277791334,2133
2925.4508235830313,2089
2927.187394030137,2149
2928.923639428745,2114
2930.6595600872306,2232
2932.395156314046,2089
2934.1304284177218,2127
2935.8653767068713,2238
2937.6000014901815,2099
2939.3343030764227,2096
2941.068281774442,2228
2942.8019378931644,2096
2944.5352717415976,2191
2946.2682836288236,2159
2948.0009738640065,2246
2949.7333427563885,2194
2951.465390615289,2224
2953.1971177501086,2226
2954.9285244703265,2164
2956.6596110855,2182
2958.3903779052657,2231
2960.1208252393385,2098
2961.8509533975125,2096
2963.5807626896617,2153
2965.3102534257378,2200
2967.0394259157715,2198
2968.768280469873,2145
2970.496817398232,2115
2972.2250370111146,2182
2973.952939618869,2143
2975.6805255319196,2211
2977.4077950607707,2213
2979.134748516006,2144
2980.861386208289,2169
2982.587708448359,2164
2984.313715547037,2088
2986.039407815222,2210
2987.764785563891,2137
2989.489849104102,2170
2991.2145987469908,2154
2992.9390348037705,2170
2994.6631575857346,2192
2996.3869674042576,2204
2998.1104645707887,2136
2999.83364939686,2194
3001.5565221940783,2247
3003.2790832741334,2213
3005.0013329487924,2145
3006.7232715298996,2134
3008.4448993293804,2216
3010.166216659239,2090
3011.887223831558,2163
3013.607921158498,2163
3015.3283089522993,2182
3017.0483875252826,2073
3018.7681571898443,2195
3020.4876182584626,2137
3022.2067710436927,2166
3023.9256158581707,2266
3025.644153014609,2137
3027.362382825801,2155
3029.0803056046193,2226
3030.797921664012,2168
3032.5152313170106,2102
3034.2322348767225,2100
3035.9489326563353,2105
3037.665324969115,2136
3039.3814121284063,2124
3041.097194447633,2117
3042.812672240299,2180
3044.5278458199855,2209
3046.2427155003525,2151
3047.9572815951406,2125
3049.671544418167,2112
3051.38550428333,2120
3053.0991615046073,2153
3054.812516396051,2154
3056.5255692717974,2148
3058.2383204460575,2162
3059.9507702331257,2112
3061.662918947372,2129
3063.3747669032446,2151
3065.0863144152736,2208
3066.7975617980674,2207
3068.508509366309,2162
3070.219157434767,2149
3071.9295063182844,2107
3073.639556331785,2168
3075.3493077902704,2184
3077.058761008821,2146
3078.7679163025964,2147
3080.476773986837,2191
3082.1853343768594,2178
3083.89359778806,2139
3085.6015645359153,2184
3087.3092349359786,2208
3089.016609303884,2148
3090.7236879553434,2212
3092.4304712061476,2118
3094.136959372166,2213
3095.843152769349,2161
3097.5490517137237,2168
3099.2546565213966,2165
3100.959967508554,2213
3102.66498499146,2143
3104.3697092864577,2114
3106.0741407099695,2170
3107.778279578498,2193
3109.482126208622,2196
3111.1856809170004,2171
3112.8889440203716,2157
3114.5919158355528,2217
3116.294596679439,2140
3117.996986869006,2238
3119.6990867213062,2204
3121.4008965534726,2217
3123.102416682717,2206
3124.803647426329,2166
3126.5045891016784,2221
3128.205242026213,2172
3129.90560651746,2161
3131.605682893025,2216
3133.3054714705922,2142
3135.0049725679282,2158
3136.7041865028714,2176
3138.4031135933465,2247
3140.101754157353,2166
3141.800108512971,2190
3143.498176978357,2121
3145.1959598717494,2117
3146.8934575114636,2102
3148.5906702158954,2171
3150.2875983035183,2111
3151.9842420928853,2091
3153.680601902627,2084
3155.376678051456,2089
3157.07247085816,2183
3158.767980641609,2144
3160.463207720748,2101
3162.158152414606,2094
3163.8528150422862,2150
3165.5471959229726,2226
3167.2412953759303,2095
3168.9351137204976,2133
3170.628651276098,2144
3172.3219083622307,2146
3174.014885298474,2151
3175.707582404485,2198
3177.4000000000005,2228
3179.092138404835,2187
3180.7839979388846,2160
3182.47557892212,2191
3184.166881674594,2146
3185.8579065164386,2134
3187.5486537678626,2190
3189.2391237491547,2252
3190.9293167806827,2137
3192.6192331828934,2167
3194.3088732763117,2151
3195.998237381542,2180
3197.687325819268,2226
3199.376138910251,2142
3201.064676975334,2179
3202.7529403354347,2124
3204.4409293115523,2144
3206.1286442247647,2064
3207.816085396229,2100
3209.5032531471825,2091
3211.190147798936,2159
3212.8767696728846,2126
3214.5631190905015,2113
3216.2491963733373,2090
3217.9350018430214,2078
3219.6205358212637,2136
3221.305798629851,2082
3222.990790590651,2086
3224.6755120256103,2098
3226.359963256751,2083
3228.0441446061795,2128
3229.7280563960758,2128
3231.411698948703,2105
3233.0950725863995,2124
3234.778177631587,2215
3236.461014406761,2135
3238.1435832345005,2126
3239.8258844374595,2136
3241.507918338374,2134
3243.1896852600576,2128
3244.8711855254023,2207
3246.552419457381,2143
3248.233387379042,2068
3249.914089613516,2091
3251.59452648401,2141
3253.274698313813,2101
3254.95460542629,2174
3256.6342481448855,2058
3258.313626793125,2078
3259.9927416946084,2074
3261.6715931730196,2116
3263.3501815521176,2153
3265.0285071557437,2059
3266.706570307815,2129
3268.3843713323286,2200
3270.0619105533615,2166
3271.739188295068,2183
3273.4162048816834,2109
3275.0929606375184,2142
3276.769455886966,2143
3278.445690954498,2135
3280.1216661646613,2240
3281.797381842087,2155
3283.4728383114807,2112
3285.1480358976296,2166
3286.8229749253996,2124
3288.4976557197333,2093
3290.172078605655,2117
3291.846243908266,2128
3293.5201519527463,2135
3295.193803064357,2087
3296.8671975684374,2115
3298.5403357904024,2106
3300.21321805575,2070
3301.8858446900567,2123
3303.558216018975,2144
3305.23033236824,2063
3306.9021940636603,2150
3308.57380143113,2112
3310.2451547966184,2066
3311.916254486174,2140
3313.5871008259246,2152
3315.2576941420766,2183
3316.9280347609147,2109
3318.5981230088046,2129
3320.2679592121895,2033
3321.9375436975924,2026
3323.606876791612,2037
3325.27595882093,2098
3326.944790112305,2054
3328.6133709925753,2156
3330.2817017886573,2094
3331.949782827547,2151
3333.617614436319,2090
3335.2851969421245,2092
3336.952530672199,2038
3338.619615953853,2114
3340.286453114475,2082
3341.9530424815357,2040
3343.619384382583,2117
3345.2854791452437,2121
3346.951327097224,2177
3348.6169285663073,2174
3350.2822838803577,2231
3351.947393367319,2190
3353.61225735521,2158
3355.2768761721345,2148
3356.9412501462693,2172
3358.605379605873,2091
3360.2692648792827,2123
3361.9329062949146,2108
3363.596304181263,2114
