CollectionTime,7/11/2024 12:52:02 PM
ExposureUsed,3
CalibratedSpectrum
-962.7078968117929,886
-959.9714848408522,968
-957.2358232597828,954
-954.5009119013725,926
-951.7667505983302,941
-949.0333391832855,981
-946.3006774887896,965
-943.5687653473143,1040
-940.837602591253,933
-938.1071890529199,953
-935.3775245645503,979
-932.6486089583007,966
-929.9204420662485,986
-927.1930237203925,1010
-924.4663537526524,957
-921.7404319948689,932
-919.0152582788041,1013
-916.2908324361409,1038
-913.5671542984834,990
-910.8442236973568,962
-908.1220404642074,970
-905.4006044304027,998
-902.679915427231,968
-899.959973285902,953
-897.2407778375464,952
-894.5223289132158,944
-891.8046263438832,970
-889.0876699604426,956
-886.3714595937089,940
-883.6559950744183,969
-880.9412762332282,1009
-878.2273029007168,936
-875.5140749073835,967
-872.8015920836489,963
-870.0898542598545,958
-867.3788612662631,950
-864.6686129330585,1013
-861.9591090903457,960
-859.2503495681506,968
-856.5423341964203,988
-853.8350628050229,957
-851.1285352237478,954
-848.4227512823054,978
-845.7177108103272,1054
-843.0134136373656,939
-840.3098595928943,993
-837.6070485063082,1030
-834.9049802069229,946
-832.2036545239757,968
-829.5030712866244,988
-826.8032303239481,983
-824.1041314649472,929
-821.4057745385428,950
-818.7081593735775,955
-816.0112857988148,988
-813.3151536429393,1022
-810.6197627345566,946
-807.9251129021936,988
-805.2312039742981,971
-802.5380357792392,984
-799.8456081453069,1009
-797.1539209007124,1020
-794.462973873588,1034
-791.772766891987,1048
-789.083299783884,1006
-786.3945723771743,1012
-783.7065844996748,975
-781.0193359791231,987
-778.3328266431781,985
-775.6470563194197,986
-772.9620248353489,1007
-770.2777320183878,976
-767.5941776958798,974
-764.9113616950891,974
-762.2292838432011,962
-759.5479439673222,1000
-756.8673418944801,972
-754.1874774516235,1034
-751.5083504656222,965
-748.8299607632671,1051
-746.15230817127,1037
-743.475392516264,1048
-740.7992136248035,1039
-738.1237713233636,997
-735.4490654383407,1020
-732.7750957960521,1045
-730.1018622227365,1058
-727.4293645445534,1017
-724.7576025875837,1042
-722.0865761778291,1058
-719.4162851412126,1058
-716.7467293035781,1101
-714.0779084906909,1047
-711.409822528237,1058
-708.7424712418238,1027
-706.0758544569796,1063
-703.4099719991541,1123
-700.7448236937178,1081
-698.0804093659622,1072
-695.4167288411002,1043
-692.7537819442656,1093
-690.0915685005134,1099
-687.4300883348199,1063
-684.7693412720819,1044
-682.1093271371178,1091
-679.4500457546669,1107
-676.7914969493897,1086
-674.1336805458676,1100
-671.4765963686034,1060
-668.8202442420206,1110
-666.1646239904642,1087
-663.5097354382001,1146
-660.8555784094151,1055
-658.2021527282176,1136
-655.5494582186366,1077
-652.8974947046223,1120
-650.2462620100463,1129
-647.5957599587009,1136
-644.9459883742998,1139
-642.2969470804776,1163
-639.6486359007902,1088
-637.0010546587141,1149
-634.3542031776476,1090
-631.7080812809096,1135
-629.0626887917401,1105
-626.4180255333008,1142
-623.7740913286734,1146
-621.1308860008619,1193
-618.4884093727904,1184
-615.8466612673046,1150
-613.2056415071715,1137
-610.5653499150785,1110
-607.9257863136347,1163
-605.28695052537,1134
-602.6488423727357,1173
-600.0114616781036,1092
-597.3748082637674,1147
-594.7388819519412,1160
-592.1036825647604,1153
-589.4692099242818,1218
-586.8354638524829,1178
-584.2024441712624,1205
-581.5701507024403,1145
-578.9385832677575,1202
-576.3077416888759,1177
-573.6776257873787,1161
-571.0482353847704,1164
-568.4195703024757,1119
-565.7916303618415,1174
-563.164415384135,1143
-560.5379251905453,1184
-557.9121596021815,1181
-555.2871184400748,1155
-552.6628015251767,1215
-550.0392086783606,1175
-547.4163397204204,1209
-544.794194472071,1202
-542.1727727539491,1189
-539.5520743866118,1267
-536.9320991905377,1258
-534.3128469861261,1347
-531.6943175936979,1238
-529.0765108334947,1259
-526.4594265256793,1304
-523.8430644903358,1443
-521.2274245474689,1432
-518.612506517005,1606
-515.9983102187913,1558
-513.3848354725959,1567
-510.77208209810846,1583
-508.16004991493924,1625
-505.5487387426199,1822
-502.9381484006032,1955
-500.3282787082628,1965
-497.71912948489364,1888
-495.1107005497117,1844
-492.5029917218539,1699
-489.8960028203786,1573
-487.28973366426493,1577
-484.68418407241325,1480
-482.07935386364494,1391
-479.47524285670266,1414
-476.87185087025,1351
-474.2691777228715,1376
-471.66722323307334,1335
-469.0659872192821,1426
-466.4654694998459,1434
-463.86566989303384,1322
-461.26658821703614,1359
-458.66822428996414,1337
-456.07057792985,1369
-453.4736489546475,1382
-450.877437182231,1362
-448.28194243039627,1344
-445.68716451686,1309
-443.09310325926003,1294
-440.49975847515555,1360
-437.9071299820263,1351
-435.31521759727354,1337
-432.72402113821954,1409
-430.13354042210767,1388
-427.5437752661022,1390
-424.95472548728867,1412
-422.36639090267386,1365
-419.7787713291855,1410
-417.1918665836721,1525
-414.60567648290385,1450
-412.0202008435715,1488
-409.4354394822874,1416
-406.8513922155845,1463
-404.26805885991723,1455
-401.685439231661,1471
-399.103533147112,1434
-396.522340422488,1488
-393.9418608739278,1404
-391.3620943174908,1417
-388.7830405691583,1336
-386.2046994448317,1268
-383.6270707603344,1210
-381.05015433141045,1103
-378.473949973725,997
-375.8984575028645,906
-373.32367673433623,843
-370.74960748356875,780
-368.1762495659117,770
-365.60360279663576,679
-363.03166699093265,609
-360.4604419639154,570
-357.8899275306178,514
-355.32012350599507,517
-352.7510297049233,466
-350.1826459421999,467
-347.61497203254316,456
-345.04800779059235,465
-342.4817530309082,497
-339.91620756797226,509
-337.35137121618743,490
-334.7872437898774,542
-332.22382510328725,522
-329.66111497058273,478
-327.09911320585127,449
-324.53781962310075,513
-321.9772340362607,532
-319.4173562591816,475
-316.8581861056348,448
-314.2997233893127,465
-311.7419679238294,471
-309.1849195227194,490
-306.62857799943856,560
-304.0729431673641,556
-301.51801483979375,521
-298.963792829947,532
-296.41027695096386,529
-293.85746701590574,582
-291.3053628377552,598
-288.7539642294155,559
-286.2032710037115,516
-283.65328297338897,538
-281.1039999511146,578
-278.5554217494762,559
-276.007548180983,584
-273.4603790580651,563
-270.9139141930734,522
-268.3681533982807,522
-265.8230964858798,584
-263.27874326798565,646
-260.7350935566336,613
-258.1921471637804,593
-255.6499039013039,554
-253.10836358100266,598
-250.56752601459698,567
-248.02739101372765,581
-245.48795838995704,592
-242.94922795476816,621
-240.41119951956557,605
-237.8738728956746,708
-235.33724789434166,646
-232.80132432673452,602
-230.2661020039418,608
-227.73158073697357,651
-225.19776033676033,625
-222.66464061415422,665
-220.1322213799284,648
-217.60050244477725,609
-215.06948361931552,582
-212.53916471408013,620
-210.00954553952818,705
-207.48062590603843,667
-204.9524056239104,705
-202.4248845033651,724
-199.8980623545441,713
-197.37193898751036,710
-194.84651421224817,676
-192.32178783866232,709
-189.79775967657952,719
-187.27442953574644,773
-184.7517972258321,858
-182.2298625564256,827
-179.7086253370378,710
-177.18808537710026,758
-174.66824248596583,726
-172.14909647290835,739
-169.6306471471229,831
-167.11289431772548,821
-164.59583779375328,847
-162.07947738416453,814
-159.5638128978386,833
-157.04884414357605,901
-154.53457093009854,906
-152.02099306604828,856
-149.50811035998936,801
-146.99592262040665,858
-144.48442965570587,903
-141.97363127421409,853
-139.46352728417958,899
-136.95411749377126,891
-134.44540171107985,917
-131.93737974411636,895
-129.43005140081357,867
-126.92341648902493,1017
-124.41747481652521,1266
-121.91222619101006,1304
-119.40767042009657,1494
-116.90380731132257,1780
-114.40063667214702,1863
-111.8981583099503,1881
-109.3963720320337,1481
-106.89527764561933,1448
-104.39487495785067,1569
-101.89516377579241,2085
-99.39614390642998,2416
-96.89781515667039,2489
-94.40017733334128,2159
-91.90323024319173,2645
-89.40697369289148,4205
-86.91140748903172,6943
-84.41653143812482,8324
-81.92234534660395,6375
-79.42884902082358,4052
-76.93604226705907,4973
-74.4439248915071,10183
-71.95249670028534,17817
-69.46175749943245,25174
-66.97170709490854,26581
-64.48234529259423,22409
-61.99367189829195,17720
-59.50568671772464,14510
-57.01838955653636,11765
-54.53178022029283,7413
-52.045858514480074,6308
-49.560624244506016,8203
-47.07607721569923,9607
-44.59221723330904,10849
-42.10904410250669,12774
-39.62655762838392,13418
-37.14475761595372,13585
-34.66364387015028,12709
-32.18321619582866,12345
-29.70347439776515,11657
-27.224418280657005,10354
-24.74604764912317,10410
-22.26836230770266,13863
-19.7913620608565,22550
-17.315046712966478,36566
-14.83941606833514,47224
-12.36446993118659,65038
-9.89020810566592,65038
-7.416630395839093,65038
-4.94373660569363,65038
-2.471526539137585,65038
-6.821210263296962E-13,65038
2.47084320796705,65038
4.941003281093458,65038
7.410480415786196,65038
9.879274808531363,65038
12.347386655893956,65038
14.814816154518212,65038
17.28156350112681,65038
19.74762889252179,65038
22.21301252558385,65038
24.67771459727237,20562
27.141735304626195,3770
29.605074844762612,2482
32.06773341487792,2676
34.52971121224755,2481
36.99100843422559,2780
39.45162527824516,2579
41.91156194181792,1789
44.370818622535126,1726
46.82939551806646,1704
49.287292826160524,1470
51.74451074464503,1797
54.201049471426245,2246
56.65690920448981,1881
59.112090141899785,1547
61.56659248179983,1358
64.02041642241159,1190
66.4735621620365,1218
68.92602989905402,1074
71.37781983192338,1179
73.82893215918205,1411
76.27936707944684,1387
78.72912479141326,1260
81.17820549385567,1173
83.62660938562783,1302
86.07433666566146,1249
88.5213875329681,1069
90.96776218663751,963
93.41346082583925,901
95.85848364982041,1075
98.30283085790859,1309
100.7465026495089,1311
103.18949922410604,1183
105.63182078126385,1058
108.07346752062438,1043
110.51443964190923,996
112.95473734491827,1006
115.39436082953114,941
117.83331029570547,1046
120.27158594347827,1111
122.7091879729652,1329
125.1461165843615,1270
127.58237197794062,1106
130.01795435405518,985
132.4528639131364,954
134.88710085569494,1005
137.32066538231982,929
139.75355769367923,854
142.1857779905207,891
144.61732647366978,859
147.04820334403132,884
149.47840880258934,917
151.90794305040674,1045
154.33680628862487,1243
156.76499871846443,1458
159.19252054122433,1614
161.61937195828352,1712
164.04555317109896,1944
166.47106438120693,2221
168.89590579022217,2334
171.320077599839,2558
173.7435800118302,2736
176.16641322804742,2801
178.58857745042144,2906
181.01007288096173,3077
183.43089972175687,2982
185.85105817497413,3045
188.27054844285988,3062
190.6893707277394,3003
193.10752523201643,3102
195.5250121581745,3261
197.9418317087751,3295
200.3579840864594,3304
202.7734694939469,3311
205.18828813403627,3214
207.6024402096051,3393
210.01592592360964,3429
212.42874547908548,3358
214.84089907914665,3364
217.2523869269868,3365
219.66320922587727,3368
222.0733661791695,3360
224.48285799029293,3353
226.8916848627572,3304
229.29984700014882,3422
231.7073446061355,3457
234.11417788446204,3345
236.520347038953,3396
238.92585227351185,3513
241.33069379212054,3600
243.73487179884035,3640
246.1383864978112,3656
248.541238093252,3587
250.9434267894609,3634
253.34495279081432,3703
255.74581630176783,3736
258.1460175268563,3695
260.54555667069314,3744
262.9444339379703,3709
265.3426495334594,3600
267.7402036620107,3453
270.1370965285529,3433
272.53332833809407,3371
274.9288992957214,3355
277.32380960660055,3325
279.718059475976,3261
282.1116491091717,3175
284.5045787115897,3244
286.89684848871195,3101
289.2884586460981,3063
291.67940938938807,3140
294.0697009242996,3142
296.4593334566299,3127
298.84830719225477,3109
301.23662233712923,3028
303.6242790972866,3105
306.01127767884,3083
308.39761828798066,3027
310.78330113097934,2975
313.16832641418534,2865
315.5526943440269,2977
317.9364051270112,2957
320.3194589697242,2898
322.70185607883093,2868
325.0835966610754,2912
327.4646809232805,2975
329.8451090723478,2837
332.2248813152577,2875
334.6039978590701,2789
336.9824589109231,2858
339.36026467803447,2883
341.7374153677,2767
344.113911187295,2831
346.48975234427337,2781
348.8649390461686,2768
351.2394715005918,2779
353.61334991523415,2785
355.9865744978655,2698
358.35914545633375,2626
360.73106299856715,2783
363.10232733257146,2746
365.47293866643247,2724
367.84289720831396,2582
370.2122031664593,2651
372.5808567491905,2732
374.9488581649083,2737
377.31620762209275,2586
379.6829053293021,2609
382.0489514951745,2686
384.4143463284262,2667
386.7790900378528,2597
389.14318283232853,2552
391.50662492080653,2583
393.86941651231916,2598
396.23155781597745,2634
398.5930490409713,2644
400.9538903965696,2598
403.3140820921202,2645
405.6736243370498,2707
408.03251734086336,2609
410.3907613131465,2575
412.74835646356166,2584
415.10530300185144,2539
417.4616011378372,2531
419.81725108141893,2597
422.1722530425758,2533
424.5266072313656,2591
426.880313857925,2490
429.2333731324701,2523
431.58578526529516,2612
433.9375504667738,2521
436.2886689473588,2552
438.63914091758113,2585
440.9889665880513,2570
443.33814616945835,2473
445.68667987257015,2541
448.03456790823395,2503
450.3818104873759,2446
452.72840782100013,2468
455.07436012019105,2488
457.41966759611057,2577
459.7643304600007,2530
462.10834892318155,2620
464.4517231970525,2540
466.79445349309174,2508
469.1365400228566,2510
471.4779829979826,2584
473.81878263018564,2557
476.15893913125876,2547
478.4984527130747,2533
480.8373235875855,2623
483.17555196682144,2577
485.5131380628919,2671
487.8500820879857,2752
490.1863842543697,2753
492.52204477439034,2956
494.8570638604725,3120
497.1914417251204,3380
499.52517858091653,3575
501.85827464052306,3792
504.19073011668036,3779
506.5225452222086,3842
508.85372017000566,3635
511.18425517304956,3606
513.514150444396,3632
515.8434061971808,4188
518.1720226446176,4702
520.4999999999999,4947
522.8273384766991,4749
525.1540382881666,4435
527.480099647932,4001
529.8055227696037,3471
532.1303078668694,3024
534.454455153496,2756
536.777964843328,2780
539.1008371502907,2703
541.4230722883866,2620
543.744670471698,2545
546.0656319143858,2478
548.3859568306899,2575
550.7056454349294,2514
553.0246979415016,2489
555.3431145648834,2526
557.6608955196306,2481
559.978041020377,2403
562.2945512818363,2496
564.6104265188006,2469
566.9256669461412,2476
569.2402727788082,2494
571.5542442318302,2521
573.8675815203156,2513
576.1802848594508,2569
578.4923544645015,2522
580.8037905508126,2520
583.114593333807,2515
585.4247630289875,2548
587.7342998519354,2603
590.0432040183106,2607
592.3514757438526,2569
594.6591152443794,2573
596.9661227357875,2513
599.2724984340531,2583
601.578242555231,2554
603.8833553154542,2616
606.1878369309362,2550
608.4916876179676,2483
610.7949075929192,2499
613.0974970722403,2510
615.3994562724587,2555
617.7007854101818,2579
620.0014847020951,2514
622.3015543649641,2549
624.6009946156324,2505
626.8998056710224,2573
629.1979877481361,2544
631.4955410640538,2598
633.7924658359349,2552
636.0887622810175,2583
638.3844306166192,2555
640.6794710601358,2606
642.9738838290426,2545
645.2676691408932,2570
647.5608272133207,2703
649.853358264037,2629
652.1452625108324,2577
654.4365401715764,2691
656.7271914642178,2632
659.0172166067838,2596
661.3066158173809,2580
663.5953893141935,2724
665.8835373154867,2681
668.1710600396028,2702
670.4579577049639,2635
672.7442305300709,2702
675.0298787335033,2630
677.3149025339197,2550
679.599302150058,2586
681.8830778007342,2661
684.1662297048437,2560
686.4487580813608,2638
688.7306631493387,2670
691.0119451279091,2557
693.2926042362834,2625
695.5726406937516,2630
697.8520547196814,2616
700.1308465335215,2626
702.4090163547982,2593
704.6865644031171,2598
706.9634908981619,2642
709.2397960596965,2606
711.5154801075631,2662
713.7905432616823,2563
716.0649857420548,2615
718.3388077687592,2518
720.612009561953,2553
722.8845913418733,2561
725.1565533288352,2623
727.427895743234,2652
729.6986188055427,2581
731.9687227363137,2606
734.238207756178,2594
736.5070740858458,2597
738.7753219461066,2529
741.0429515578281,2573
743.3099631419569,2576
745.5763569195191,2687
747.8421331116193,2643
750.1072919394409,2601
752.3718336242467,2583
754.6357583873777,2607
756.8990664502545,2649
759.1617580343765,2583
761.423833361321,2497
763.6852926527457,2485
765.9461361303862,2594
768.206364016058,2667
770.4659765316536,2580
772.7249738991469,2663
774.9833563405886,2672
777.2411240781092,2574
779.4982773339183,2554
781.7548163303044,2609
784.010741289634,2598
786.2660524343538,2767
788.5207499869881,2594
790.7748341701416,2617
793.0283052064964,2618
795.2811633188143,2635
797.5334087299362,2545
799.7850416627813,2616
802.0360623403484,2587
804.2864709857143,2568
806.5362678220353,2694
808.7854530725468,2563
811.0340269605625,2648
813.2819897094754,2636
815.5293415427581,2687
817.77608268396,2616
820.0222133567116,2653
822.2677337847211,2584
824.5126441917765,2586
826.7569448017433,2670
829.0006358385675,2687
831.2437175262731,2626
833.4861900889629,2602
835.7280537508192,2645
837.9693087361026,2565
840.2099552691533,2611
842.4499935743896,2622
844.689423876309,2631
846.9282463994886,2674
849.1664613685833,2615
851.4040690083276,2630
853.6410695435349,2585
855.877463199097,2549
858.1132501999847,2614
860.3484307712487,2585
862.5830051380175,2547
864.8169735254988,2619
867.0503361589791,2695
869.2830932638243,2654
871.5152450654786,2554
873.7467917894654,2615
875.9777336613873,2657
878.2080709069252,2558
880.4378037518389,2620
882.666932421968,2569
884.8954571432301,2672
887.1233781416219,2698
889.3506956432192,2615
891.5774098741766,2672
893.803521060728,2648
896.0290294291852,2643
898.2539352059397,2656
900.4782386174619,2658
902.7019398903011,2684
904.925039251085,2666
907.147536926521,2655
909.3694331433943,2752
911.59072812857,2619
913.8114221089921,2622
916.0315153116827,2651
918.2510079637437,2664
920.4699002923547,2687
922.6881925247761,2582
924.905884888345,2582
927.1229776104793,2593
929.3394709186747,2464
931.555365040506,2570
933.7706602036275,2524
935.9853566357709,2608
938.1994545647489,2637
940.4129542184515,2582
942.6258558248488,2648
944.8381596119883,2578
947.0498658079974,2563
949.2609746410825,2570
951.4714863395287,2590
953.6814011316998,2565
955.8907192460387,2468
958.0994409110671,2448
960.3075663553858,2539
962.5150958076741,2485
964.7220294966913,2518
966.928367651274,2477
969.1341105003388,2564
971.3392582728806,2491
973.5438111979742,2444
975.747769504772,2481
977.9511334225061,2451
980.153903180487,2526
982.3560790081052,2470
984.5576611348289,2425
986.7586497902058,2434
988.9590452038618,2341
991.158847605503,2387
993.3580572249133,2403
995.5566742919558,2363
997.7546990365728,2336
999.952131688785,2349
1002.1489724786926,2323
1004.3452216364743,2240
1006.5408793923874,2240
1008.7359459767691,2284
1010.9304216200343,2276
1013.1243065526781,2267
1015.3176010052733,2313
1017.510305208472,2254
1019.7024193930064,2236
1021.8939437896848,2256
1024.0848786293977,2232
1026.2752241431122,2242
1028.4649805618747,2230
1030.6541481168115,2260
1032.842727039127,2228
1035.0307175601051,2168
1037.2181199111074,2244
1039.4049343235752,2201
1041.591161029029,2185
1043.7768002590683,2170
1045.9618522453698,2175
1048.1463172196918,2201
1050.3301954138697,2183
1052.513487059818,2123
1054.69619238953,2261
1056.8783116350783,2274
1059.0598450286152,2204
1061.2407928023704,2224
1063.4211551886528,2202
1065.6009324198508,2189
1067.780124728432,2145
1069.9587323469414,2143
1072.1367555080046,2218
1074.314194444325,2118
1076.4910493886855,2124
1078.667320573947,2135
1080.843008233051,2179
1083.0181125990161,2132
1085.1926339049414,2118
1087.3665723840027,2119
1089.5399282694575,2051
1091.7127017946405,2119
1093.8848931929647,2073
1096.0565026979243,2141
1098.2275305430899,2154
1100.3979769621128,2049
1102.567842188722,2097
1104.737126456726,2058
1106.9058300000124,2083
1109.0739530525475,2091
1111.2414958483764,2182
1113.4084586216231,2135
1115.5748416064907,2046
1117.7406450372605,2025
1119.9058691482942,2067
1122.0705141740304,2107
1124.2345803489884,2146
1126.3980679077658,2069
1128.5609770850388,2091
1130.7233081155623,2096
1132.8850612341707,2108
1135.0462366757774,2047
1137.2068346753745,2020
1139.3668554680326,2015
1141.526299288901,2093
1143.68516637321,2020
1145.8434569562655,2072
1148.001171273455,2023
1150.158309560244,2021
1152.3148720521767,2019
1154.470858984876,2029
1156.626270594044,2024
1158.7811071154629,2011
1160.9353687849912,2070
1163.089055838569,2005
1165.242168512213,1966
1167.3947070420209,1970
1169.5466716641677,1980
1171.6980626149075,1977
1173.8488801305748,2027
1175.9991244475814,2026
1178.1487958024186,2005
1180.2978944316555,2060
1182.4464205719428,2066
1184.5943744600072,2033
1186.7417563326567,2024
1188.8885664267755,1999
1191.0348049793297,1943
1193.1804722273619,1945
1195.325568407995,2017
1197.4700937584303,1963
1199.614048515948,2043
1201.7574329179074,2038
1203.900247201746,2007
1206.042491604982,2041
1208.1841663652099,2036
1210.3252717201053,2018
1212.465807907422,2019
1214.6057751649923,2052
1216.7451737307279,2023
1218.8840038426192,2056
1221.0222657387353,1985
1223.1599596572241,2052
1225.2970858363137,2094
1227.4336445143094,2044
1229.5696359295966,2080
1231.705060320639,2090
1233.8399179259786,2088
1235.9742089842384,2096
1238.107933734118,2094
1240.2410924143974,1991
1242.373685263935,2057
1244.5057125216676,2046
1246.6371744266116,2031
1248.7680712178621,2069
1250.898403134593,2044
1253.028170416058,1987
1255.1573733015875,2043
1257.2860120305932,2086
1259.4140868425648,2069
1261.54159797707,2061
1263.6685456737569,2157
1265.7949301723515,2072
1267.9207517126597,2050
1270.046010534565,2080
1272.1707068780306,2098
1274.2948409830983,2045
1276.4184130898889,2036
1278.541423438603,2086
1280.6638722695184,2124
1282.785759822993,2078
1284.9070863394636,2105
1287.0278520594447,2146
1289.1480572235314,2073
1291.2677020723963,2055
1293.3867868467923,2118
1295.5053117875495,2151
1297.623277135579,2098
1299.740683131868,2068
1301.8575300174857,2160
1303.973818033578,2186
1306.0895474213703,2206
1308.2047184221678,2189
1310.3193312773528,2179
1312.4333862283888,2148
1314.5468835168163,2121
1316.659823384255,2175
1318.7722060724045,2136
1320.8840318230418,2186
1322.9953008780249,2239
1325.1060134792888,2178
1327.2161698688478,2161
1329.3257702887959,2106
1331.4348149813054,2157
1333.5433041886276,2134
1335.6512381530933,2176
1337.7586171171101,2168
1339.8654413231675,2131
1341.9717110138317,2188
1344.0774264317488,2192
1346.1825878196432,2150
1348.2871954203192,2114
1350.3912494766587,2091
1352.4947502316231,2123
1354.5976979282532,2191
1356.7000928096686,2158
1358.8019351190665,2187
1360.9032250997243,2085
1363.0039629949988,2170
1365.1041490483235,2166
1367.2037835032133,2175
1369.3028666032606,2147
1371.401398592137,2128
1373.4993797135926,2178
1375.5968102114575,2158
1377.6936903296396,2163
1379.7900203121262,2175
1381.8858004029835,2171
1383.9810308463561,2242
1386.075711886469,2224
1388.1698437676241,2197
1390.2634267342032,2206
1392.356461030667,2193
1394.4489469015557,2232
1396.5408845914872,2153
1398.6322743451592,2181
1400.7231164073469,2208
1402.813411022907,2183
1404.903158436773,2261
1406.9923588939578,2317
1409.0810126395531,2166
1411.1691199187303,2299
1413.2566809767386,2220
1415.343696058907,2308
1417.4301654106425,2268
1419.5160892774315,2345
1421.6014679048399,2303
1423.6863015385125,2284
1425.7705904241707,2285
1427.8543348076178,2306
1429.9375349347342,2346
1432.0201910514802,2337
1434.102303403894,2438
1436.1838722380944,2389
1438.2648978002767,2408
1440.3453803367174,2395
1442.4253200937692,2400
1444.5047173178677,2506
1446.5835722555234,2553
1448.6618851533285,2502
1450.739656257952,2559
1452.8168858161434,2537
1454.8935740747306,2620
1456.96972128062,2662
1459.045327680797,2616
1461.120393522327,2724
1463.1949190523528,2715
1465.2689045180973,2761
1467.3423501668608,2786
1469.415256246024,2863
1471.4876230030463,2929
1473.559450685465,2860
1475.6307395408976,2957
1477.7014898170391,3012
1479.771701761665,3059
1481.8413756226287,3014
1483.9105116478618,3157
1485.9791100853772,3104
1488.0471711832643,3046
1490.1146951896926,3208
1492.1816823529098,3149
1494.2481329212433,3323
1496.3140471430984,3215
1498.3794252669609,3285
1500.4442675413939,3305
1502.5085742150404,3392
1504.572345536622,3382
1506.6355817549388,3451
1508.6982831188702,3376
1510.7604498773744,3497
1512.8220822794883,3437
1514.8831805743293,3421
1516.9437450110909,3502
1519.003775839048,3566
1521.0632733075522,3590
1523.1222376660367,3631
1525.1806691640113,3629
1527.2385680510652,3654
1529.2959345768668,3623
1531.3527689911643,3698
1533.4090715437833,3746
1535.4648424846291,3759
1537.5200820636855,3864
1539.5747905310159,3801
1541.6289681367616,3865
1543.6826151311434,3815
1545.7357317644614,3954
1547.7883182870937,4079
1549.8403749494987,4068
1551.8919020022113,4176
1553.9428996958477,4273
1555.9933682811015,4233
1558.0433080087469,4215
1560.0927191296346,4366
1562.1416018946961,4393
1564.1899565549415,4334
1566.2377833614592,4290
1568.2850825654164,4208
1570.3318544180606,4125
1572.3780991707158,4014
1574.423817074788,3947
1576.4690083817595,3840
1578.5136733431923,3687
1580.5578122107272,3502
1582.601425236085,3419
1584.6445126710646,3325
1586.6870747675434,3092
1588.7291117774776,3027
1590.7706239529034,2928
1592.8116115459347,2828
1594.8520748087658,2738
1596.8920139936686,2660
1598.9314293529933,2687
1600.9703211391711,2600
1603.008689604711,2531
1605.0465350022005,2501
1607.0838575843068,2521
1609.1206576037753,2444
1611.1569353134305,2409
1613.1926909661765,2352
1615.2279248149953,2356
1617.2626371129481,2274
1619.2968281131757,2320
1621.3304980688963,2290
1623.3636472334088,2305
1625.39627586009,2214
1627.428384202396,2178
1629.459972513861,2151
1631.4910410480993,2135
1633.5215900588028,2158
1635.551619799744,2253
1637.5811305247717,2155
1639.6101224878166,2186
1641.6385959428862,2112
1643.6665511440683,2115
1645.693988345528,2188
1647.7209078015112,2147
1649.7473097663405,2125
1651.7731944944203,2088
1653.7985622402307,2088
1655.823413258333,2127
1657.847747803366,2105
1659.8715661300494,2070
1661.8948684931793,2058
1663.9176551476316,2118
1665.9399263483624,2069
1667.9616823504057,2085
1669.982923408873,2093
1672.0036497789574,2095
1674.0238617159293,2102
1676.043559475138,2032
1678.0627433120121,2071
1680.081413482059,2122
1682.0995702408654,1999
1684.117213844096,2140
1686.134344547495,2038
1688.1509626068864,2082
1690.1670682781705,2031
1692.182661817329,1948
1694.1977434804217,2057
1696.2123135235875,2023
1698.226372203043,2027
1700.2399197750851,2062
1702.2529564960905,2070
1704.2654826225112,2042
1706.277498410882,2065
1708.2890041178139,2105
1710.2999999999988,2056
1712.3104863142066,2087
1714.3204633172854,2004
1716.329931266163,2102
1718.3388904178469,2064
1720.3473410294214,2094
1722.3552833580516,1967
1724.3627176609807,2062
1726.3696441955308,2065
1728.3760632191033,1981
1730.3819749891782,2008
1732.3873797633146,1992
1734.3922777991502,2018
1736.3966693544012,2042
1738.4005546868639,2004
1740.4039340544127,1986
1742.406807715001,1973
1744.4091759266616,2036
1746.4110389475054,1940
1748.4123970357223,1982
1750.413250449582,1975
1752.4135994474318,1974
1754.4134442876993,1918
1756.4127852288902,1940
1758.4116225295893,1921
1760.4099564484595,1981
1762.407787244244,1944
1764.405115175764,1923
1766.4019405019203,1932
1768.3982634816916,1917
1770.3940843741357,1944
1772.3894034383907,1940
1774.3842209336717,1923
1776.378537119274,1892
1778.372352254571,1926
1780.3656665990156,1832
1782.3584804121397,1892
1784.3507939535534,1855
1786.3426074829463,1960
1788.3339212600863,1862
1790.3247355448211,1935
1792.3150505970766,1905
1794.3048666768573,1889
1796.2941840442477,1934
1798.2830029594106,1859
1800.2713236825884,1893
1802.2591464741004,1888
1804.2464715943465,1827
1806.2332993038058,1845
1808.2196298630352,1831
1810.2054635326708,1912
1812.190800573428,1874
1814.175641246101,1905
1816.1599858115628,1943
1818.1438345307652,1842
1820.127187664738,1873
1822.1100454745924,1942
1824.092408221516,1893
1826.0742761667766,1857
1828.055649571721,1898
1830.0365286977735,1887
1832.0169138064398,1878
1833.9968051593014,1905
1835.9762030180214,1847
1837.9551076443408,1840
1839.9335193000788,1929
1841.9114382471344,1906
1843.888864747485,1896
1845.8657990631878,1887
1847.842241456378,1841
1849.8181921892697,1774
1851.7936515241558,1892
1853.7686197234098,1802
1855.7430970494815,1906
1857.7170837649014,1905
1859.6905801322787,1854
1861.6635864143004,1806
1863.6361028737338,1836
1865.608129773424,1888
1867.5796673762961,1927
1869.5507159453537,1891
1871.521275743678,1894
1873.4913470344313,1905
1875.4609300808534,1869
1877.4300251462632,1942
1879.3986324940588,1888
1881.366752387717,1915
1883.3343850907936,1842
1885.3015308669228,1949
1887.268189979819,1910
1889.2343626932739,1880
1891.2000492711595,1946
1893.1652499774254,1889
1895.1299650761011,1906
1897.0941948312952,1919
1899.0579395071945,1925
1901.0211993680641,1879
1902.98397467825,1868
1904.9462657021745,1867
1906.9080727043415,1908
1908.869395949332,1900
1910.8302357018065,1935
1912.790592226504,1920
1914.7504657882428,1834
1916.7098566519212,1836
1918.6687650825133,1857
1920.6271913450764,1899
1922.5851357047422,1877
1924.5425984267245,1869
1926.499579776314,1942
1928.4560800188833,1886
1930.4120994198802,1891
1932.367638244833,1899
1934.32269675935,1918
1936.2772752291175,1860
1938.231373919899,1869
1940.1849930975404,1845
1942.1381330279637,1922
1944.0907939771696,1895
1946.0429762112412,1877
1947.9946799963363,1905
1949.9459055986945,1864
1951.896653284633,1904
1953.8469233205478,1871
1955.7967159729142,1888
1957.7460315082863,1856
1959.6948701932974,1804
1961.6432322946594,1893
1963.5911180791632,1888
1965.5385278136787,1860
1967.4854617651545,1837
1969.4319202006182,1891
1971.377903387176,1883
1973.3234115920136,1877
1975.268445082395,1936
1977.2130041256642,1838
1979.1570889892423,1879
1981.1006999406304,1870
1983.04383724741,1899
1984.986501177238,1793
1986.928691997853,1833
1988.8704099770712,1866
1990.811655382789,1837
1992.7524284829801,1814
1994.692729545698,1893
1996.6325588390755,1879
1998.5719166313224,1865
2000.5108031907307,1832
2002.4492187856677,1894
2004.387163684583,1915
2006.3246381560011,1839
2008.2616424685298,1874
2010.1981768908527,1773
2012.1342416917332,1900
2014.069837140014,1852
2016.0049635046162,1867
2017.9396210545406,1898
2019.8738100588666,1833
2021.8075307867502,1873
2023.740783507431,1886
2025.6735684902228,1865
2027.6058860045214,1873
2029.5377363198004,1883
2031.4691197056118,1863
2033.4000364315875,1836
2035.3304867674374,1864
2037.260470982952,1891
2039.189989347998,1831
2041.1190421325232,1859
2043.047629606554,1828
2044.9757520401945,1805
2046.9034097036288,1741
2048.8306028671195,1838
2050.7573318010086,1805
2052.683596775716,1843
2054.609398061742,1859
2056.5347359296647,1858
2058.4596106501403,1827
2060.384022493906,1809
2062.3079717317764,1891
2064.231458634646,1865
2066.1544834734873,1876
2068.077046519352,1816
2069.99914804337,1797
2071.9207883167524,1888
2073.8419676107865,1841
2075.7626861968406,1841
2077.6829443463607,1824
2079.6027423308715,1811
2081.522080421977,1875
2083.440958891362,1875
2085.359378010786,1869
2087.2773380520907,1794
2089.194839287196,1795
2091.111881988101,1811
2093.0284664268825,1816
2094.9445928756973,1776
2096.86026160678,1869
2098.775472892446,1886
2100.690227005088,1837
2102.604524217178,1806
2104.5183648012676,1855
2106.431749029985,1849
2108.34467717604,1808
2110.2571495122206,1796
2112.169166311393,1798
2114.080727846503,1834
2115.9918343905747,1852
2117.902486216711,1808
2119.8126835980956,1898
2121.722426807987,1842
2123.6317161197285,1813
2125.5405518067364,1905
2127.448934142509,1911
2129.356863400624,1859
2131.264339854737,1862
2133.1713637785815,1787
2135.077935445972,1843
2136.9840551308002,1837
2138.889723107037,1864
2140.7949396487334,1891
2142.699705030018,1887
2144.6040195250994,1927
2146.507883408264,1848
2148.4112969538774,1858
2150.3142604363848,1882
2152.2167741303097,1792
2154.1188383102535,1895
2156.0204532508997,1831
2157.9216192270064,1939
2159.822336513414,1910
2161.7226053850413,1887
2163.622426116884,1812
2165.5217989840185,1832
2167.4207242616,1911
2169.319202224862,1904
2171.2172331491165,1913
2173.1148173097563,1910
2175.0119549822507,1873
2176.90864644215,1960
2178.8048919650823,1883
2180.7006918267534,1911
2182.596046302952,1951
2184.4909556695407,1964
2186.3854202024645,1962
2188.279440177746,1982
2190.173015871487,1900
2192.066147559868,1947
2193.958835519149,1903
2195.851080025667,1947
2197.7428813558417,1919
2199.6342397861667,1914
2201.5251555932186,1924
2203.415629053651,1995
2205.3056604441986,1914
2207.19525004167,1912
2209.084398122958,1989
2210.9731049650327,1944
2212.861370844941,1998
2214.749196039812,1971
2216.636580826851,2053
2218.523525483344,2033
2220.410030286655,2070
2222.296095514226,2061
2224.1817214435805,2012
2226.066908352319,1964
2227.951656518121,1911
2229.835966218746,2005
2231.71983773203,1988
2233.6032713358913,2049
2235.486267308324,2002
2237.3688259274036,2024
2239.2509474712824,1946
2241.132632218193,2058
2243.013880446447,1981
2244.8946924344323,2015
2246.7750684606203,2031
2248.6550088035574,1972
2250.534513741871,1994
2252.413583554265,2059
2254.292218519526,1975
2256.170418916517,2032
2258.0481850241786,1998
2259.925517121534,1948
2261.8024154876825,2003
2263.678880401803,2007
2265.5549121431536,2037
2267.430510991071,1951
2269.305677224971,2044
2271.180411124348,2050
2273.0547129687766,1980
2274.9285830379076,1993
2276.8020216114737,1985
2278.6750289692845,2012
2280.5476053912294,1975
2282.4197511572766,1992
2284.2914665474727,2066
2286.162751841943,2014
2288.0336073208937,2070
2289.904033264608,2065
2291.774029953448,2120
2293.6435976678554,2026
2295.5127366883517,1985
2297.381447295534,2021
2299.2497297700825,2025
2301.1175843927526,1934
2302.9850114443825,1878
2304.852011205885,1893
2306.7185839582553,1797
2308.5847299825664,1839
2310.4504495599676,1779
2312.3157429716925,1840
2314.1806104990483,1861
2316.0450524234247,1767
2317.9090690262888,1817
2319.772660589186,1786
2321.635827393742,1778
2323.498569721661,1775
2325.3608878547248,1808
2327.2227820747967,1751
2329.0842526638157,1766
2330.945299903803,1778
2332.805924076857,1792
2334.6661254651535,1800
2336.525904350951,1686
2338.3852610165827,1825
2340.244195744464,1736
2342.102708817088,1785
2343.9608005170253,1725
2345.8184711269287,1755
2347.675720929526,1713
2349.532550207628,1823
2351.38895924412,1741
2353.24494832197,1831
2355.100517724223,1828
2356.955667734004,1837
2358.810398634514,1829
2360.664710709037,1852
2362.5186042409337,1736
2364.3720795136437,1782
2366.225136810686,1795
2368.0777764156583,1853
2369.929998612237,1799
2371.7818036841777,1814
2373.633191915315,1785
2375.484163589562,1840
2377.3347189909114,1768
2379.184858403434,1806
2381.03458211128,1765
2382.8838903986775,1807
2384.732783549936,1837
2386.5812618494406,1818
2388.4293255816588,1799
2390.2769750311327,1852
2392.1242104824883,1822
2393.971032220427,1840
2395.8174405297295,1785
2397.6634356952563,1818
2399.509018001947,1849
2401.3541877348193,1791
2403.1989451789705,1734
2405.043290619576,1779
2406.8872243418905,1800
2408.730746631247,1780
2410.5738577730594,1828
2412.4165580528183,1777
2414.258847756095,1892
2416.100727168537,1782
2417.9421965758734,1819
2419.783256263912,1834
2421.623906518538,1781
2423.4641476257157,1890
2425.303979871491,1841
2427.143403541984,1808
2428.9824189233977,1771
2430.821026302012,1788
2432.6592259641866,1821
2434.497018196361,1817
2436.33440328505,1783
2438.171381516851,1783
2440.00795317844,1827
2441.844118556569,1835
2443.6798779380724,1800
2445.5152316098606,1780
2447.3501798589255,1876
2449.1847229723357,1811
2451.0188612372403,1806
2452.8525949408663,1817
2454.6859243705203,1799
2456.518849813587,1771
2458.3513715575314,1804
2460.183489889895,1844
2462.015205098301,1787
2463.8465174704493,1822
2465.67742729412,1856
2467.5079348571717,1845
2469.338040447542,1831
2471.1677443532476,1777
2472.9970468623833,1846
2474.825948263123,1821
2476.6544488437207,1832
2478.482548892508,1825
2480.310248697896,1822
2482.137548548374,1870
2483.9644487325118,1868
2485.790949538956,1818
2487.617051256433,1730
2489.44275417375,1750
2491.26805857979,1882
2493.0929647635157,1794
2494.917473013971,1821
2496.741583620276,1903
2498.5652968716304,1875
2500.3886130573137,1868
2502.2115324666834,1862
2504.0340553891765,1824
2505.856182114308,1866
2507.6779129316733,1894
2509.499248130945,1903
2511.3201880018764,1882
2513.140732834298,1861
2514.9608829181198,1882
2516.780638543331,1884
2518.6,1887
2520.418967578273,1901
2522.237541568376,1876
2524.0557222606144,1886
2525.8735099453706,1873
2527.6909049131086,1847
2529.507907454368,1850
2531.32451785977,1915
2533.140736420014,1949
2534.9565634258774,1850
2536.771999168218,1913
2538.5870439379714,1904
2540.4016980261526,2007
2542.2159617238544,1940
2544.02983532225,1990
2545.8433191125914,2020
2547.656413386209,2000
2549.4691184345115,1989
2551.2814345489874,2028
2553.093362021204,1989
2554.904901142808,1995
2556.716052205523,2057
2558.526815501153,2098
2560.3371913215824,2023
2562.147179958771,2085
2563.956781704761,2012
2565.7659968516705,2101
2567.5748256916986,2060
2569.3832685171224,2074
2571.1913256202984,2082
2572.9989972936614,2077
2574.806283829725,2066
2576.613185521084,2122
2578.4197026604074,2083
2580.2258355404483,2131
2582.031584454035,2124
2583.836949694077,2115
2585.6419315535613,2187
2587.4465303255533,2169
2589.2507463032002,2221
2591.0545797797245,2183
2592.8580310484303,2177
2594.6611004026995,2167
2596.463788135992,2205
2598.266094541849,2229
2600.0680199138874,2169
2601.869564545807,2218
2603.670728731383,2170
2605.4715127644704,2148
2607.2719169390048,2109
2609.071941548998,2169
2610.8715868885433,2175
2612.670853251811,2200
2614.469740933052,2188
2616.268250226594,2175
2618.0663814268455,2137
2619.864134828292,2153
2621.6615107255006,2130
2623.458509413115,2174
2625.2551311858597,2121
2627.0513763385347,2156
2628.8472451660223,2080
2630.6427379632833,2192
2632.4378550253564,2159
2634.232596647359,2131
2636.026963124488,2143
2637.8209547520187,2070
2639.6145718253065,2143
2641.407814639785,2060
2643.200683490966,2097
2644.9931786744414,2024
2646.7853004858807,1989
2648.577049221034,2034
2650.3684251757277,2068
2652.1594286458712,2006
2653.9500599274484,1963
2655.740319316525,2010
2657.5302071092437,1928
2659.3197236018286,1968
2661.10886909058,1952
2662.8976438718782,2009
2664.686048242183,1959
2666.4740824980327,1960
2668.2617469360443,1920
2670.0490418529134,1901
2671.8359675454153,1947
2673.622524310403,1928
2675.408712444811,1921
2677.1945322456495,1936
2678.979984010009,1950
2680.76506803506,1853
2682.5497846180497,1904
2684.334134056306,1864
2686.1181166472343,1897
2687.9017326883213,1905
2689.6849824771293,1836
2691.4678663113013,1840
2693.2503844885596,1814
2695.032537306705,1887
2696.8143250636167,1852
2698.5957480572542,1893
2700.3768065856534,1813
2702.1575009469316,1821
2703.937831439283,1749
2705.717798360982,1811
2707.4974020103837,1836
2709.276642685917,1851
2711.055520686095,1823
2712.834036309506,1878
2714.612189854819,1818
2716.389981620782,1862
2718.1674119062204,1829
2719.944481010041,1869
2721.721189231226,1802
2723.4975368688415,1755
2725.273524222027,1711
2727.0491515900053,1798
2728.824419272075,1769
2730.5993275676146,1766
2732.3738767760838,1737
2734.148067197016,1763
2735.921899130031,1725
2737.6953728748194,1737
2739.468488731156,1690
2741.2412469988926,1772
2743.0136479779617,1799
2744.785691968372,1799
2746.5573792702116,1786
2748.3287101836504,1715
2750.099685008934,1759
2751.870304046388,1745
2753.640567596418,1757
2755.4104759595057,1739
2757.1800294362156,1782
2758.949228327187,1803
2760.7180729331412,1723
2762.486563554877,1787
2764.254700493272,1811
2766.022484049284,1742
2767.789914523947,1720
2769.5569922183786,1793
2771.3237174337705,1778
2773.090090471394,1708
2774.8561116326036,1768
2776.6217812188274,1770
2778.3870995315756,1709
2780.1520668724356,1792
2781.9166835430747,1793
2783.6809498452394,1729
2785.444866080754,1806
2787.2084325515225,1741
2788.971649559527,1758
2790.73451740683,1743
2792.4970363955713,1725
2794.2592068279705,1699
2796.0210290063264,1713
2797.7825032330147,1703
2799.543629810493,1696
2801.304409041296,1795
2803.0648412280366,1818
2804.8249266734088,1770
2806.5846656801846,1718
2808.344058551212,1758
2810.1031055894246,1725
2811.8618070978273,1746
2813.6201633795085,1758
2815.378174737636,1766
2817.1358414754536,1796
2818.893163896285,1808
2820.6501423035334,1709
2822.4067770006814,1732
2824.1630682912883,1760
2825.9190164789957,1823
2827.6746218675207,1737
2829.429884760661,1836
2831.184805462294,1874
2832.9393842763743,1773
2834.693621506936,1745
2836.4475174580916,1799
2838.201072434034,1803
2839.954286739034,1789
2841.707160677441,1823
2843.459694553685,1719
2845.2118886722724,1758
2846.96374333779,1684
2848.7152588549034,1702
2850.4664355283567,1774
2852.217273662973,1778
2853.9677735636546,1807
2855.7179355353833,1794
2857.4677598832186,1757
2859.217246912299,1782
2860.9663969278427,1794
2862.715210235146,1798
2864.4636871395846,1744
2866.211827946614,1712
2867.9596329617652,1726
2869.7071024906536,1700
2871.4542368389684,1745
2873.20103631248,1736
2874.947501217038,1760
2876.6936318585695,1740
2878.4394285430812,1718
2880.1848915766604,1806
2881.9300212654707,1698
2883.6748179157553,1762
2885.4192818338374,1750
2887.1634133261173,1720
2888.907212699077,1745
2890.6506802592744,1755
2892.393816313348,1816
2894.1366211680142,1796
2895.8790951300693,1700
2897.621238506388,1823
2899.363051603925,1797
2901.1045347297118,1781
2902.8456881908596,1726
2904.58651229456,1689
2906.327007348081,1748
2908.067173658772,1740
2909.8070115340597,1731
2911.5465212814497,1738
2913.285703208527,1738
2915.0245576229563,1730
2916.7630848324807,1750
2918.5012851449196,1712
2920.2391588681758,1710
2921.976706310227,1823
2923.7139277791334,1805
2925.4508235830313,1754
2927.187394030137,1804
2928.923639428745,1791
2930.6595600872306,1714
2932.395156314046,1737
2934.1304284177218,1815
2935.8653767068713,1746
2937.6000014901815,1805
2939.3343030764227,1768
2941.068281774442,1745
2942.8019378931644,1739
2944.5352717415976,1806
2946.2682836288236,1791
2948.0009738640065,1815
2949.7333427563885,1729
2951.465390615289,1757
2953.1971177501086,1769
2954.9285244703265,1722
2956.6596110855,1764
2958.3903779052657,1748
2960.1208252393385,1715
2961.8509533975125,1725
2963.5807626896617,1678
2965.3102534257378,1755
2967.0394259157715,1654
2968.768280469873,1658
2970.496817398232,1727
2972.2250370111146,1808
2973.952939618869,1782
2975.6805255319196,1747
2977.4077950607707,1721
2979.134748516006,1781
2980.861386208289,1784
2982.587708448359,1735
2984.313715547037,1787
2986.039407815222,1750
2987.764785563891,1724
2989.489849104102,1762
2991.2145987469908,1720
2992.9390348037705,1768
2994.6631575857346,1723
2996.3869674042576,1701
2998.1104645707887,1734
2999.83364939686,1712
3001.5565221940783,1743
3003.2790832741334,1687
3005.0013329487924,1724
3006.7232715298996,1746
3008.4448993293804,1754
3010.166216659239,1701
3011.887223831558,1670
3013.607921158498,1741
3015.3283089522993,1758
3017.0483875252826,1763
3018.7681571898443,1746
3020.4876182584626,1779
3022.2067710436927,1796
3023.9256158581707,1700
3025.644153014609,1748
3027.362382825801,1730
3029.0803056046193,1716
3030.797921664012,1728
3032.5152313170106,1743
3034.2322348767225,1753
3035.9489326563353,1688
3037.665324969115,1719
3039.3814121284063,1718
3041.097194447633,1764
3042.812672240299,1736
3044.5278458199855,1686
3046.2427155003525,1730
3047.9572815951406,1745
3049.671544418167,1714
3051.38550428333,1713
3053.0991615046073,1797
3054.812516396051,1751
3056.5255692717974,1741
3058.2383204460575,1755
3059.9507702331257,1725
3061.662918947372,1713
3063.3747669032446,1754
3065.0863144152736,1778
3066.7975617980674,1757
3068.508509366309,1813
3070.219157434767,1724
3071.9295063182844,1766
3073.639556331785,1742
3075.3493077902704,1818
3077.058761008821,1720
3078.7679163025964,1789
3080.476773986837,1732
3082.1853343768594,1762
3083.89359778806,1775
3085.6015645359153,1758
3087.3092349359786,1796
3089.016609303884,1700
3090.7236879553434,1773
3092.4304712061476,1723
3094.136959372166,1750
3095.843152769349,1803
3097.5490517137237,1790
3099.2546565213966,1778
3100.959967508554,1700
3102.66498499146,1718
3104.3697092864577,1753
3106.0741407099695,1736
3107.778279578498,1741
3109.482126208622,1774
3111.1856809170004,1817
3112.8889440203716,1731
3114.5919158355528,1742
3116.294596679439,1731
3117.996986869006,1773
3119.6990867213062,1725
3121.4008965534726,1767
3123.102416682717,1882
3124.803647426329,1769
3126.5045891016784,1777
3128.205242026213,1792
3129.90560651746,1730
3131.605682893025,1762
3133.3054714705922,1725
3135.0049725679282,1743
3136.7041865028714,1773
3138.4031135933465,1807
3140.101754157353,1819
3141.800108512971,1762
3143.498176978357,1719
3145.1959598717494,1738
3146.8934575114636,1756
3148.5906702158954,1660
3150.2875983035183,1693
3151.9842420928853,1759
3153.680601902627,1780
3155.376678051456,1762
3157.07247085816,1744
3158.767980641609,1742
3160.463207720748,1755
3162.158152414606,1770
3163.8528150422862,1719
3165.5471959229726,1781
3167.2412953759303,1776
3168.9351137204976,1719
3170.628651276098,1719
3172.3219083622307,1800
3174.014885298474,1728
3175.707582404485,1682
3177.4000000000005,1754
3179.092138404835,1768
3180.7839979388846,1739
3182.47557892212,1710
3184.166881674594,1785
3185.8579065164386,1672
3187.5486537678626,1750
3189.2391237491547,1719
3190.9293167806827,1771
3192.6192331828934,1754
3194.3088732763117,1809
3195.998237381542,1715
3197.687325819268,1766
3199.376138910251,1714
3201.064676975334,1716
3202.7529403354347,1698
3204.4409293115523,1730
3206.1286442247647,1729
3207.816085396229,1637
3209.5032531471825,1709
3211.190147798936,1743
3212.8767696728846,1697
3214.5631190905015,1720
3216.2491963733373,1657
3217.9350018430214,1714
3219.6205358212637,1684
3221.305798629851,1642
3222.990790590651,1699
3224.6755120256103,1681
3226.359963256751,1733
3228.0441446061795,1708
3229.7280563960758,1750
3231.411698948703,1760
3233.0950725863995,1726
3234.778177631587,1751
3236.461014406761,1746
3238.1435832345005,1722
3239.8258844374595,1760
3241.507918338374,1798
3243.1896852600576,1734
3244.8711855254023,1769
3246.552419457381,1752
3248.233387379042,1784
3249.914089613516,1760
3251.59452648401,1735
3253.274698313813,1744
3254.95460542629,1755
3256.6342481448855,1783
3258.313626793125,1706
3259.9927416946084,1686
3261.6715931730196,1702
3263.3501815521176,1737
3265.0285071557437,1686
3266.706570307815,1734
3268.3843713323286,1645
3270.0619105533615,1684
3271.739188295068,1705
3273.4162048816834,1688
3275.0929606375184,1705
3276.769455886966,1762
3278.445690954498,1707
3280.1216661646613,1729
3281.797381842087,1719
3283.4728383114807,1739
3285.1480358976296,1715
3286.8229749253996,1715
3288.4976557197333,1676
3290.172078605655,1746
3291.846243908266,1729
3293.5201519527463,1708
3295.193803064357,1716
3296.8671975684374,1721
3298.5403357904024,1695
3300.21321805575,1669
3301.8858446900567,1670
3303.558216018975,1722
3305.23033236824,1732
3306.9021940636603,1728
3308.57380143113,1686
3310.2451547966184,1722
3311.916254486174,1700
3313.5871008259246,1818
3315.2576941420766,1691
3316.9280347609147,1694
3318.5981230088046,1693
3320.2679592121895,1686
3321.9375436975924,1683
3323.606876791612,1675
3325.27595882093,1621
3326.944790112305,1667
3328.6133709925753,1763
3330.2817017886573,1720
3331.949782827547,1687
3333.617614436319,1747
3335.2851969421245,1746
3336.952530672199,1704
3338.619615953853,1636
3340.286453114475,1743
3341.9530424815357,1684
3343.619384382583,1725
3345.2854791452437,1682
3346.951327097224,1804
3348.6169285663073,1670
3350.2822838803577,1685
3351.947393367319,1705
3353.61225735521,1713
3355.2768761721345,1689
3356.9412501462693,1696
3358.605379605873,1702
3360.2692648792827,1717
3361.9329062949146,1704
3363.596304181263,1666
