CollectionTime,7/11/2024 12:50:33 PM
ExposureUsed,3
CalibratedSpectrum
-962.7078968117929,542
-959.9714848408522,560
-957.2358232597828,576
-954.5009119013725,562
-951.7667505983302,574
-949.0333391832855,587
-946.3006774887896,607
-943.5687653473143,582
-940.837602591253,592
-938.1071890529199,582
-935.3775245645503,581
-932.6486089583007,585
-929.9204420662485,624
-927.1930237203925,632
-924.4663537526524,556
-921.7404319948689,583
-919.0152582788041,598
-916.2908324361409,675
-913.5671542984834,631
-910.8442236973568,576
-908.1220404642074,589
-905.4006044304027,618
-902.679915427231,615
-899.959973285902,620
-897.2407778375464,597
-894.5223289132158,588
-891.8046263438832,584
-889.0876699604426,579
-886.3714595937089,571
-883.6559950744183,606
-880.9412762332282,564
-878.2273029007168,577
-875.5140749073835,580
-872.8015920836489,568
-870.0898542598545,551
-867.3788612662631,563
-864.6686129330585,561
-861.9591090903457,611
-859.2503495681506,577
-856.5423341964203,582
-853.8350628050229,589
-851.1285352237478,578
-848.4227512823054,579
-845.7177108103272,576
-843.0134136373656,556
-840.3098595928943,593
-837.6070485063082,611
-834.9049802069229,609
-832.2036545239757,605
-829.5030712866244,598
-826.8032303239481,596
-824.1041314649472,589
-821.4057745385428,573
-818.7081593735775,610
-816.0112857988148,564
-813.3151536429393,587
-810.6197627345566,583
-807.9251129021936,577
-805.2312039742981,566
-802.5380357792392,591
-799.8456081453069,592
-797.1539209007124,605
-794.462973873588,609
-791.772766891987,656
-789.083299783884,630
-786.3945723771743,587
-783.7065844996748,581
-781.0193359791231,618
-778.3328266431781,580
-775.6470563194197,566
-772.9620248353489,576
-770.2777320183878,603
-767.5941776958798,566
-764.9113616950891,626
-762.2292838432011,625
-759.5479439673222,579
-756.8673418944801,597
-754.1874774516235,587
-751.5083504656222,614
-748.8299607632671,638
-746.15230817127,588
-743.475392516264,617
-740.7992136248035,591
-738.1237713233636,634
-735.4490654383407,625
-732.7750957960521,645
-730.1018622227365,674
-727.4293645445534,622
-724.7576025875837,644
-722.0865761778291,615
-719.4162851412126,639
-716.7467293035781,630
-714.0779084906909,664
-711.409822528237,651
-708.7424712418238,647
-706.0758544569796,597
-703.4099719991541,678
-700.7448236937178,663
-698.0804093659622,686
-695.4167288411002,665
-692.7537819442656,638
-690.0915685005134,645
-687.4300883348199,632
-684.7693412720819,640
-682.1093271371178,652
-679.4500457546669,674
-676.7914969493897,648
-674.1336805458676,632
-671.4765963686034,654
-668.8202442420206,695
-666.1646239904642,636
-663.5097354382001,676
-660.8555784094151,670
-658.2021527282176,667
-655.5494582186366,731
-652.8974947046223,706
-650.2462620100463,713
-647.5957599587009,680
-644.9459883742998,688
-642.2969470804776,679
-639.6486359007902,674
-637.0010546587141,676
-634.3542031776476,731
-631.7080812809096,736
-629.0626887917401,685
-626.4180255333008,694
-623.7740913286734,709
-621.1308860008619,722
-618.4884093727904,761
-615.8466612673046,722
-613.2056415071715,669
-610.5653499150785,690
-607.9257863136347,725
-605.28695052537,701
-602.6488423727357,697
-600.0114616781036,694
-597.3748082637674,730
-594.7388819519412,729
-592.1036825647604,757
-589.4692099242818,824
-586.8354638524829,794
-584.2024441712624,718
-581.5701507024403,723
-578.9385832677575,756
-576.3077416888759,728
-573.6776257873787,746
-571.0482353847704,720
-568.4195703024757,711
-565.7916303618415,728
-563.164415384135,757
-560.5379251905453,783
-557.9121596021815,759
-555.2871184400748,741
-552.6628015251767,764
-550.0392086783606,740
-547.4163397204204,737
-544.794194472071,734
-542.1727727539491,748
-539.5520743866118,801
-536.9320991905377,786
-534.3128469861261,866
-531.6943175936979,869
-529.0765108334947,859
-526.4594265256793,913
-523.8430644903358,949
-521.2274245474689,1027
-518.612506517005,1092
-515.9983102187913,1060
-513.3848354725959,1118
-510.77208209810846,1123
-508.16004991493924,1191
-505.5487387426199,1345
-502.9381484006032,1574
-500.3282787082628,1569
-497.71912948489364,1594
-495.1107005497117,1528
-492.5029917218539,1417
-489.8960028203786,1255
-487.28973366426493,1135
-484.68418407241325,1017
-482.07935386364494,998
-479.47524285670266,1012
-476.87185087025,948
-474.2691777228715,930
-471.66722323307334,907
-469.0659872192821,918
-466.4654694998459,966
-463.86566989303384,924
-461.26658821703614,893
-458.66822428996414,940
-456.07057792985,907
-453.4736489546475,887
-450.877437182231,889
-448.28194243039627,924
-445.68716451686,913
-443.09310325926003,954
-440.49975847515555,885
-437.9071299820263,904
-435.31521759727354,890
-432.72402113821954,958
-430.13354042210767,996
-427.5437752661022,927
-424.95472548728867,929
-422.36639090267386,972
-419.7787713291855,1022
-417.1918665836721,1073
-414.60567648290385,1016
-412.0202008435715,968
-409.4354394822874,993
-406.8513922155845,1025
-404.26805885991723,1031
-401.685439231661,1008
-399.103533147112,1023
-396.522340422488,1003
-393.9418608739278,977
-391.3620943174908,974
-388.7830405691583,975
-386.2046994448317,926
-383.6270707603344,893
-381.05015433141045,886
-378.473949973725,800
-375.8984575028645,760
-373.32367673433623,706
-370.74960748356875,660
-368.1762495659117,656
-365.60360279663576,611
-363.03166699093265,534
-360.4604419639154,541
-357.8899275306178,508
-355.32012350599507,503
-352.7510297049233,515
-350.1826459421999,493
-347.61497203254316,488
-345.04800779059235,451
-342.4817530309082,466
-339.91620756797226,529
-337.35137121618743,515
-334.7872437898774,530
-332.22382510328725,561
-329.66111497058273,491
-327.09911320585127,463
-324.53781962310075,513
-321.9772340362607,541
-319.4173562591816,482
-316.8581861056348,444
-314.2997233893127,511
-311.7419679238294,463
-309.1849195227194,483
-306.62857799943856,567
-304.0729431673641,603
-301.51801483979375,555
-298.963792829947,595
-296.41027695096386,542
-293.85746701590574,562
-291.3053628377552,601
-288.7539642294155,567
-286.2032710037115,599
-283.65328297338897,530
-281.1039999511146,554
-278.5554217494762,620
-276.007548180983,594
-273.4603790580651,614
-270.9139141930734,550
-268.3681533982807,561
-265.8230964858798,609
-263.27874326798565,640
-260.7350935566336,647
-258.1921471637804,645
-255.6499039013039,622
-253.10836358100266,669
-250.56752601459698,646
-248.02739101372765,587
-245.48795838995704,603
-242.94922795476816,628
-240.41119951956557,681
-237.8738728956746,740
-235.33724789434166,654
-232.80132432673452,615
-230.2661020039418,728
-227.73158073697357,734
-225.19776033676033,674
-222.66464061415422,641
-220.1322213799284,604
-217.60050244477725,630
-215.06948361931552,615
-212.53916471408013,723
-210.00954553952818,759
-207.48062590603843,678
-204.9524056239104,649
-202.4248845033651,787
-199.8980623545441,761
-197.37193898751036,780
-194.84651421224817,750
-192.32178783866232,758
-189.79775967657952,751
-187.27442953574644,858
-184.7517972258321,875
-182.2298625564256,817
-179.7086253370378,767
-177.18808537710026,793
-174.66824248596583,816
-172.14909647290835,814
-169.6306471471229,825
-167.11289431772548,871
-164.59583779375328,900
-162.07947738416453,836
-159.5638128978386,861
-157.04884414357605,847
-154.53457093009854,994
-152.02099306604828,960
-149.50811035998936,878
-146.99592262040665,873
-144.48442965570587,999
-141.97363127421409,893
-139.46352728417958,938
-136.95411749377126,961
-134.44540171107985,967
-131.93737974411636,872
-129.43005140081357,817
-126.92341648902493,1080
-124.41747481652521,1405
-121.91222619101006,1566
-119.40767042009657,1804
-116.90380731132257,2052
-114.40063667214702,2192
-111.8981583099503,2172
-109.3963720320337,1780
-106.89527764561933,1694
-104.39487495785067,1640
-101.89516377579241,2316
-99.39614390642998,2868
-96.89781515667039,2910
-94.40017733334128,2363
-91.90323024319173,2757
-89.40697369289148,4221
-86.91140748903172,7168
-84.41653143812482,8798
-81.92234534660395,6777
-79.42884902082358,4267
-76.93604226705907,5655
-74.4439248915071,11675
-71.95249670028534,19924
-69.46175749943245,27862
-66.97170709490854,29199
-64.48234529259423,24024
-61.99367189829195,18428
-59.50568671772464,15075
-57.01838955653636,12163
-54.53178022029283,7946
-52.045858514480074,6241
-49.560624244506016,6568
-47.07607721569923,6792
-44.59221723330904,7133
-42.10904410250669,8888
-39.62655762838392,9718
-37.14475761595372,9583
-34.66364387015028,8733
-32.18321619582866,7914
-29.70347439776515,8867
-27.224418280657005,8196
-24.74604764912317,8761
-22.26836230770266,12953
-19.7913620608565,22784
-17.315046712966478,39652
-14.83941606833514,53936
-12.36446993118659,65039
-9.89020810566592,65039
-7.416630395839093,65039
-4.94373660569363,65039
-2.471526539137585,65039
-6.821210263296962E-13,65039
2.47084320796705,65039
4.941003281093458,65039
7.410480415786196,65039
9.879274808531363,65039
12.347386655893956,65039
14.814816154518212,65039
17.28156350112681,65039
19.74762889252179,65039
22.21301252558385,65039
24.67771459727237,20589
27.141735304626195,4510
29.605074844762612,3315
32.06773341487792,3582
34.52971121224755,3298
36.99100843422559,2873
39.45162527824516,2698
41.91156194181792,2448
44.370818622535126,2314
46.82939551806646,1879
49.287292826160524,1582
51.74451074464503,1877
54.201049471426245,2167
56.65690920448981,2189
59.112090141899785,1714
61.56659248179983,1460
64.02041642241159,1268
66.4735621620365,1156
68.92602989905402,1112
71.37781983192338,1285
73.82893215918205,1637
76.27936707944684,1675
78.72912479141326,1494
81.17820549385567,1514
83.62660938562783,1758
86.07433666566146,1366
88.5213875329681,1036
90.96776218663751,987
93.41346082583925,911
95.85848364982041,1026
98.30283085790859,1416
100.7465026495089,1451
103.18949922410604,1294
105.63182078126385,1172
108.07346752062438,1035
110.51443964190923,1000
112.95473734491827,985
115.39436082953114,1137
117.83331029570547,1159
120.27158594347827,1119
122.7091879729652,1239
125.1461165843615,1386
127.58237197794062,1233
130.01795435405518,1155
132.4528639131364,1038
134.88710085569494,1002
137.32066538231982,951
139.75355769367923,1006
142.1857779905207,934
144.61732647366978,1005
147.04820334403132,991
149.47840880258934,1040
151.90794305040674,993
154.33680628862487,1254
156.76499871846443,1410
159.19252054122433,1531
161.61937195828352,1580
164.04555317109896,1697
166.47106438120693,1861
168.89590579022217,2030
171.320077599839,2138
173.7435800118302,2224
176.16641322804742,2331
178.58857745042144,2493
181.01007288096173,2533
183.43089972175687,2616
185.85105817497413,2529
188.27054844285988,2579
190.6893707277394,2586
193.10752523201643,2534
195.5250121581745,2650
197.9418317087751,2735
200.3579840864594,2693
202.7734694939469,2707
205.18828813403627,2679
207.6024402096051,2834
210.01592592360964,2867
212.42874547908548,2799
214.84089907914665,2827
217.2523869269868,2755
219.66320922587727,2679
222.0733661791695,2711
224.48285799029293,2644
226.8916848627572,2812
229.29984700014882,2745
231.7073446061355,2698
234.11417788446204,2842
236.520347038953,2819
238.92585227351185,2845
241.33069379212054,3009
243.73487179884035,2947
246.1383864978112,2951
248.541238093252,2979
250.9434267894609,2995
253.34495279081432,2982
255.74581630176783,3122
258.1460175268563,3150
260.54555667069314,3026
262.9444339379703,3075
265.3426495334594,2986
267.7402036620107,2876
270.1370965285529,2873
272.53332833809407,2814
274.9288992957214,2706
277.32380960660055,2601
279.718059475976,2639
282.1116491091717,2768
284.5045787115897,2559
286.89684848871195,2560
289.2884586460981,2517
291.67940938938807,2601
294.0697009242996,2543
296.4593334566299,2632
298.84830719225477,2548
301.23662233712923,2460
303.6242790972866,2485
306.01127767884,2483
308.39761828798066,2476
310.78330113097934,2432
313.16832641418534,2396
315.5526943440269,2261
317.9364051270112,2398
320.3194589697242,2317
322.70185607883093,2425
325.0835966610754,2330
327.4646809232805,2264
329.8451090723478,2235
332.2248813152577,2140
334.6039978590701,2205
336.9824589109231,2266
339.36026467803447,2189
341.7374153677,2150
344.113911187295,2070
346.48975234427337,2132
348.8649390461686,2159
351.2394715005918,2152
353.61334991523415,2136
355.9865744978655,2113
358.35914545633375,2103
360.73106299856715,2103
363.10232733257146,2042
365.47293866643247,2117
367.84289720831396,2018
370.2122031664593,2104
372.5808567491905,2068
374.9488581649083,2039
377.31620762209275,2032
379.6829053293021,1941
382.0489514951745,1953
384.4143463284262,1932
386.7790900378528,1945
389.14318283232853,2016
391.50662492080653,2072
393.86941651231916,2058
396.23155781597745,2085
398.5930490409713,2010
400.9538903965696,2035
403.3140820921202,1975
405.6736243370498,1995
408.03251734086336,2000
410.3907613131465,1917
412.74835646356166,1980
415.10530300185144,2029
417.4616011378372,1943
419.81725108141893,1928
422.1722530425758,1905
424.5266072313656,1964
426.880313857925,1872
429.2333731324701,1889
431.58578526529516,1861
433.9375504667738,1911
436.2886689473588,1863
438.63914091758113,1815
440.9889665880513,1903
443.33814616945835,1891
445.68667987257015,1864
448.03456790823395,1865
450.3818104873759,1921
452.72840782100013,1851
455.07436012019105,1924
457.41966759611057,1852
459.7643304600007,1823
462.10834892318155,1873
464.4517231970525,1885
466.79445349309174,1952
469.1365400228566,1915
471.4779829979826,1872
473.81878263018564,1878
476.15893913125876,1945
478.4984527130747,1897
480.8373235875855,1944
483.17555196682144,2008
485.5131380628919,2085
487.8500820879857,2163
490.1863842543697,2328
492.52204477439034,2491
494.8570638604725,2697
497.1914417251204,2869
499.52517858091653,3180
501.85827464052306,3303
504.19073011668036,3388
506.5225452222086,3246
508.85372017000566,3060
511.18425517304956,3124
513.514150444396,3235
515.8434061971808,3647
518.1720226446176,4337
520.4999999999999,4519
522.8273384766991,4199
525.1540382881666,3863
527.480099647932,3683
529.8055227696037,3101
532.1303078668694,2470
534.454455153496,2188
536.777964843328,2051
539.1008371502907,2008
541.4230722883866,1916
543.744670471698,1922
546.0656319143858,1864
548.3859568306899,1906
550.7056454349294,1908
553.0246979415016,1888
555.3431145648834,1831
557.6608955196306,1869
559.978041020377,1876
562.2945512818363,1829
564.6104265188006,1900
566.9256669461412,1925
569.2402727788082,1911
571.5542442318302,1824
573.8675815203156,1906
576.1802848594508,1835
578.4923544645015,1907
580.8037905508126,1889
583.114593333807,1848
585.4247630289875,1932
587.7342998519354,1864
590.0432040183106,1878
592.3514757438526,1891
594.6591152443794,1959
596.9661227357875,1909
599.2724984340531,1957
601.578242555231,1983
603.8833553154542,1929
606.1878369309362,1923
608.4916876179676,1911
610.7949075929192,1959
613.0974970722403,1933
615.3994562724587,1958
617.7007854101818,1848
620.0014847020951,1861
622.3015543649641,1915
624.6009946156324,1870
626.8998056710224,1891
629.1979877481361,1925
631.4955410640538,1963
633.7924658359349,1929
636.0887622810175,1915
638.3844306166192,1959
640.6794710601358,1907
642.9738838290426,1938
645.2676691408932,1914
647.5608272133207,1967
649.853358264037,2007
652.1452625108324,1990
654.4365401715764,1939
656.7271914642178,1938
659.0172166067838,2053
661.3066158173809,1971
663.5953893141935,1918
665.8835373154867,1956
668.1710600396028,2016
670.4579577049639,1986
672.7442305300709,2018
675.0298787335033,1969
677.3149025339197,1938
679.599302150058,1964
681.8830778007342,1898
684.1662297048437,1982
686.4487580813608,1982
688.7306631493387,1996
691.0119451279091,1978
693.2926042362834,1914
695.5726406937516,1954
697.8520547196814,2041
700.1308465335215,1997
702.4090163547982,1949
704.6865644031171,1891
706.9634908981619,1952
709.2397960596965,1976
711.5154801075631,1957
713.7905432616823,1964
716.0649857420548,1962
718.3388077687592,1965
720.612009561953,1838
722.8845913418733,1919
725.1565533288352,1908
727.427895743234,1937
729.6986188055427,1911
731.9687227363137,1915
734.238207756178,1975
736.5070740858458,1941
738.7753219461066,1873
741.0429515578281,1944
743.3099631419569,2028
745.5763569195191,1982
747.8421331116193,1943
750.1072919394409,1982
752.3718336242467,1915
754.6357583873777,1962
756.8990664502545,1939
759.1617580343765,1905
761.423833361321,1884
763.6852926527457,1927
765.9461361303862,1966
768.206364016058,1998
770.4659765316536,2043
772.7249738991469,1987
774.9833563405886,2004
777.2411240781092,2070
779.4982773339183,1950
781.7548163303044,1987
784.010741289634,2074
786.2660524343538,2029
788.5207499869881,1969
790.7748341701416,2008
793.0283052064964,1989
795.2811633188143,2042
797.5334087299362,1980
799.7850416627813,1912
802.0360623403484,1976
804.2864709857143,1925
806.5362678220353,1953
808.7854530725468,1977
811.0340269605625,1920
813.2819897094754,2033
815.5293415427581,1986
817.77608268396,1976
820.0222133567116,2071
822.2677337847211,1977
824.5126441917765,1952
826.7569448017433,1960
829.0006358385675,2001
831.2437175262731,2026
833.4861900889629,2023
835.7280537508192,1891
837.9693087361026,1987
840.2099552691533,1982
842.4499935743896,2002
844.689423876309,2050
846.9282463994886,1989
849.1664613685833,2003
851.4040690083276,1979
853.6410695435349,1990
855.877463199097,2033
858.1132501999847,2036
860.3484307712487,1969
862.5830051380175,2074
864.8169735254988,2006
867.0503361589791,2046
869.2830932638243,2008
871.5152450654786,2031
873.7467917894654,2019
875.9777336613873,1956
878.2080709069252,1984
880.4378037518389,2084
882.666932421968,1998
884.8954571432301,2069
887.1233781416219,2070
889.3506956432192,2075
891.5774098741766,2100
893.803521060728,2065
896.0290294291852,2033
898.2539352059397,2051
900.4782386174619,2048
902.7019398903011,2059
904.925039251085,2077
907.147536926521,2059
909.3694331433943,2004
911.59072812857,2057
913.8114221089921,2009
916.0315153116827,1998
918.2510079637437,2073
920.4699002923547,1994
922.6881925247761,1975
924.905884888345,2004
927.1229776104793,1983
929.3394709186747,1949
931.555365040506,1996
933.7706602036275,2003
935.9853566357709,1953
938.1994545647489,1950
940.4129542184515,2004
942.6258558248488,1933
944.8381596119883,1932
947.0498658079974,1954
949.2609746410825,1964
951.4714863395287,1907
953.6814011316998,1931
955.8907192460387,1921
958.0994409110671,1899
960.3075663553858,1836
962.5150958076741,1928
964.7220294966913,1954
966.928367651274,1932
969.1341105003388,1958
971.3392582728806,1915
973.5438111979742,1904
975.747769504772,1874
977.9511334225061,1885
980.153903180487,1899
982.3560790081052,1826
984.5576611348289,1834
986.7586497902058,1800
988.9590452038618,1847
991.158847605503,1815
993.3580572249133,1853
995.5566742919558,1725
997.7546990365728,1808
999.952131688785,1726
1002.1489724786926,1665
1004.3452216364743,1701
1006.5408793923874,1767
1008.7359459767691,1719
1010.9304216200343,1687
1013.1243065526781,1673
1015.3176010052733,1667
1017.510305208472,1736
1019.7024193930064,1769
1021.8939437896848,1639
1024.0848786293977,1633
1026.2752241431122,1580
1028.4649805618747,1657
1030.6541481168115,1666
1032.842727039127,1632
1035.0307175601051,1671
1037.2181199111074,1639
1039.4049343235752,1589
1041.591161029029,1631
1043.7768002590683,1550
1045.9618522453698,1618
1048.1463172196918,1603
1050.3301954138697,1633
1052.513487059818,1651
1054.69619238953,1630
1056.8783116350783,1644
1059.0598450286152,1627
1061.2407928023704,1564
1063.4211551886528,1623
1065.6009324198508,1624
1067.780124728432,1576
1069.9587323469414,1553
1072.1367555080046,1541
1074.314194444325,1595
1076.4910493886855,1553
1078.667320573947,1491
1080.843008233051,1534
1083.0181125990161,1517
1085.1926339049414,1511
1087.3665723840027,1563
1089.5399282694575,1529
1091.7127017946405,1484
1093.8848931929647,1495
1096.0565026979243,1557
1098.2275305430899,1490
1100.3979769621128,1495
1102.567842188722,1509
1104.737126456726,1516
1106.9058300000124,1470
1109.0739530525475,1499
1111.2414958483764,1513
1113.4084586216231,1483
1115.5748416064907,1539
1117.7406450372605,1530
1119.9058691482942,1451
1122.0705141740304,1524
1124.2345803489884,1481
1126.3980679077658,1478
1128.5609770850388,1523
1130.7233081155623,1522
1132.8850612341707,1507
1135.0462366757774,1464
1137.2068346753745,1527
1139.3668554680326,1507
1141.526299288901,1429
1143.68516637321,1496
1145.8434569562655,1500
1148.001171273455,1468
1150.158309560244,1452
1152.3148720521767,1427
1154.470858984876,1473
1156.626270594044,1460
1158.7811071154629,1412
1160.9353687849912,1424
1163.089055838569,1423
1165.242168512213,1447
1167.3947070420209,1385
1169.5466716641677,1438
1171.6980626149075,1456
1173.8488801305748,1394
1175.9991244475814,1445
1178.1487958024186,1412
1180.2978944316555,1475
1182.4464205719428,1469
1184.5943744600072,1459
1186.7417563326567,1491
1188.8885664267755,1405
1191.0348049793297,1403
1193.1804722273619,1417
1195.325568407995,1431
1197.4700937584303,1394
1199.614048515948,1470
1201.7574329179074,1509
1203.900247201746,1448
1206.042491604982,1466
1208.1841663652099,1448
1210.3252717201053,1447
1212.465807907422,1456
1214.6057751649923,1513
1216.7451737307279,1513
1218.8840038426192,1454
1221.0222657387353,1444
1223.1599596572241,1480
1225.2970858363137,1486
1227.4336445143094,1452
1229.5696359295966,1434
1231.705060320639,1505
1233.8399179259786,1536
1235.9742089842384,1494
1238.107933734118,1468
1240.2410924143974,1433
1242.373685263935,1483
1244.5057125216676,1471
1246.6371744266116,1519
1248.7680712178621,1495
1250.898403134593,1483
1253.028170416058,1450
1255.1573733015875,1494
1257.2860120305932,1467
1259.4140868425648,1515
1261.54159797707,1513
1263.6685456737569,1481
1265.7949301723515,1485
1267.9207517126597,1533
1270.046010534565,1518
1272.1707068780306,1498
1274.2948409830983,1527
1276.4184130898889,1522
1278.541423438603,1569
1280.6638722695184,1526
1282.785759822993,1504
1284.9070863394636,1542
1287.0278520594447,1550
1289.1480572235314,1506
1291.2677020723963,1564
1293.3867868467923,1488
1295.5053117875495,1583
1297.623277135579,1585
1299.740683131868,1561
1301.8575300174857,1582
1303.973818033578,1600
1306.0895474213703,1601
1308.2047184221678,1587
1310.3193312773528,1579
1312.4333862283888,1624
1314.5468835168163,1538
1316.659823384255,1550
1318.7722060724045,1592
1320.8840318230418,1651
1322.9953008780249,1606
1325.1060134792888,1552
1327.2161698688478,1604
1329.3257702887959,1590
1331.4348149813054,1622
1333.5433041886276,1598
1335.6512381530933,1608
1337.7586171171101,1498
1339.8654413231675,1608
1341.9717110138317,1610
1344.0774264317488,1606
1346.1825878196432,1581
1348.2871954203192,1588
1350.3912494766587,1577
1352.4947502316231,1577
1354.5976979282532,1554
1356.7000928096686,1570
1358.8019351190665,1587
1360.9032250997243,1592
1363.0039629949988,1556
1365.1041490483235,1593
1367.2037835032133,1545
1369.3028666032606,1618
1371.401398592137,1610
1373.4993797135926,1596
1375.5968102114575,1567
1377.6936903296396,1569
1379.7900203121262,1676
1381.8858004029835,1655
1383.9810308463561,1611
1386.075711886469,1527
1388.1698437676241,1634
1390.2634267342032,1612
1392.356461030667,1628
1394.4489469015557,1680
1396.5408845914872,1650
1398.6322743451592,1663
1400.7231164073469,1673
1402.813411022907,1671
1404.903158436773,1643
1406.9923588939578,1660
1409.0810126395531,1677
1411.1691199187303,1700
1413.2566809767386,1686
1415.343696058907,1789
1417.4301654106425,1773
1419.5160892774315,1709
1421.6014679048399,1694
1423.6863015385125,1729
1425.7705904241707,1771
1427.8543348076178,1765
1429.9375349347342,1765
1432.0201910514802,1796
1434.102303403894,1863
1436.1838722380944,1787
1438.2648978002767,1784
1440.3453803367174,1794
1442.4253200937692,1784
1444.5047173178677,1922
1446.5835722555234,1874
1448.6618851533285,1866
1450.739656257952,1870
1452.8168858161434,1942
1454.8935740747306,2016
1456.96972128062,2014
1459.045327680797,2027
1461.120393522327,2027
1463.1949190523528,2099
1465.2689045180973,2099
1467.3423501668608,2120
1469.415256246024,2138
1471.4876230030463,2119
1473.559450685465,2242
1475.6307395408976,2274
1477.7014898170391,2326
1479.771701761665,2331
1481.8413756226287,2362
1483.9105116478618,2321
1485.9791100853772,2371
1488.0471711832643,2433
1490.1146951896926,2475
1492.1816823529098,2567
1494.2481329212433,2685
1496.3140471430984,2505
1498.3794252669609,2694
1500.4442675413939,2574
1502.5085742150404,2603
1504.572345536622,2678
1506.6355817549388,2723
1508.6982831188702,2627
1510.7604498773744,2770
1512.8220822794883,2729
1514.8831805743293,2820
1516.9437450110909,2850
1519.003775839048,2822
1521.0632733075522,2777
1523.1222376660367,2936
1525.1806691640113,2868
1527.2385680510652,2970
1529.2959345768668,2901
1531.3527689911643,2996
1533.4090715437833,3038
1535.4648424846291,3031
1537.5200820636855,3071
1539.5747905310159,3132
1541.6289681367616,3162
1543.6826151311434,3160
1545.7357317644614,3180
1547.7883182870937,3239
1549.8403749494987,3247
1551.8919020022113,3298
1553.9428996958477,3449
1555.9933682811015,3374
1558.0433080087469,3535
1560.0927191296346,3503
1562.1416018946961,3566
1564.1899565549415,3585
1566.2377833614592,3504
1568.2850825654164,3439
1570.3318544180606,3374
1572.3780991707158,3242
1574.423817074788,3097
1576.4690083817595,2958
1578.5136733431923,2881
1580.5578122107272,2748
1582.601425236085,2744
1584.6445126710646,2543
1586.6870747675434,2426
1588.7291117774776,2449
1590.7706239529034,2302
1592.8116115459347,2161
1594.8520748087658,2155
1596.8920139936686,2049
1598.9314293529933,2000
1600.9703211391711,1985
1603.008689604711,1876
1605.0465350022005,1884
1607.0838575843068,1825
1609.1206576037753,1814
1611.1569353134305,1861
1613.1926909661765,1839
1615.2279248149953,1789
1617.2626371129481,1714
1619.2968281131757,1714
1621.3304980688963,1679
1623.3636472334088,1739
1625.39627586009,1627
1627.428384202396,1704
1629.459972513861,1687
1631.4910410480993,1594
1633.5215900588028,1607
1635.551619799744,1630
1637.5811305247717,1606
1639.6101224878166,1646
1641.6385959428862,1641
1643.6665511440683,1562
1645.693988345528,1620
1647.7209078015112,1546
1649.7473097663405,1561
1651.7731944944203,1597
1653.7985622402307,1530
1655.823413258333,1484
1657.847747803366,1487
1659.8715661300494,1499
1661.8948684931793,1547
1663.9176551476316,1576
1665.9399263483624,1555
1667.9616823504057,1527
1669.982923408873,1536
1672.0036497789574,1550
1674.0238617159293,1532
1676.043559475138,1547
1678.0627433120121,1487
1680.081413482059,1505
1682.0995702408654,1536
1684.117213844096,1495
1686.134344547495,1539
1688.1509626068864,1525
1690.1670682781705,1539
1692.182661817329,1491
1694.1977434804217,1493
1696.2123135235875,1477
1698.226372203043,1539
1700.2399197750851,1490
1702.2529564960905,1491
1704.2654826225112,1517
1706.277498410882,1539
1708.2890041178139,1567
1710.2999999999988,1519
1712.3104863142066,1478
1714.3204633172854,1497
1716.329931266163,1500
1718.3388904178469,1469
1720.3473410294214,1505
1722.3552833580516,1515
1724.3627176609807,1492
1726.3696441955308,1451
1728.3760632191033,1516
1730.3819749891782,1476
1732.3873797633146,1443
1734.3922777991502,1476
1736.3966693544012,1409
1738.4005546868639,1444
1740.4039340544127,1517
1742.406807715001,1400
1744.4091759266616,1423
1746.4110389475054,1404
1748.4123970357223,1408
1750.413250449582,1408
1752.4135994474318,1449
1754.4134442876993,1436
1756.4127852288902,1418
1758.4116225295893,1357
1760.4099564484595,1391
1762.407787244244,1451
1764.405115175764,1451
1766.4019405019203,1440
1768.3982634816916,1435
1770.3940843741357,1386
1772.3894034383907,1379
1774.3842209336717,1364
1776.378537119274,1405
1778.372352254571,1394
1780.3656665990156,1404
1782.3584804121397,1436
1784.3507939535534,1392
1786.3426074829463,1412
1788.3339212600863,1385
1790.3247355448211,1389
1792.3150505970766,1360
1794.3048666768573,1397
1796.2941840442477,1405
1798.2830029594106,1374
1800.2713236825884,1391
1802.2591464741004,1356
1804.2464715943465,1390
1806.2332993038058,1422
1808.2196298630352,1382
1810.2054635326708,1321
1812.190800573428,1413
1814.175641246101,1395
1816.1599858115628,1419
1818.1438345307652,1409
1820.127187664738,1420
1822.1100454745924,1348
1824.092408221516,1365
1826.0742761667766,1402
1828.055649571721,1411
1830.0365286977735,1368
1832.0169138064398,1375
1833.9968051593014,1363
1835.9762030180214,1369
1837.9551076443408,1371
1839.9335193000788,1429
1841.9114382471344,1402
1843.888864747485,1403
1845.8657990631878,1360
1847.842241456378,1373
1849.8181921892697,1340
1851.7936515241558,1336
1853.7686197234098,1374
1855.7430970494815,1364
1857.7170837649014,1344
1859.6905801322787,1395
1861.6635864143004,1403
1863.6361028737338,1366
1865.608129773424,1407
1867.5796673762961,1454
1869.5507159453537,1392
1871.521275743678,1418
1873.4913470344313,1356
1875.4609300808534,1366
1877.4300251462632,1338
1879.3986324940588,1385
1881.366752387717,1362
1883.3343850907936,1430
1885.3015308669228,1394
1887.268189979819,1418
1889.2343626932739,1381
1891.2000492711595,1362
1893.1652499774254,1400
1895.1299650761011,1434
1897.0941948312952,1428
1899.0579395071945,1363
1901.0211993680641,1388
1902.98397467825,1472
1904.9462657021745,1443
1906.9080727043415,1456
1908.869395949332,1473
1910.8302357018065,1399
1912.790592226504,1392
1914.7504657882428,1407
1916.7098566519212,1370
1918.6687650825133,1388
1920.6271913450764,1322
1922.5851357047422,1393
1924.5425984267245,1391
1926.499579776314,1425
1928.4560800188833,1396
1930.4120994198802,1422
1932.367638244833,1448
1934.32269675935,1406
1936.2772752291175,1377
1938.231373919899,1413
1940.1849930975404,1475
1942.1381330279637,1387
1944.0907939771696,1348
1946.0429762112412,1442
1947.9946799963363,1426
1949.9459055986945,1396
1951.896653284633,1410
1953.8469233205478,1392
1955.7967159729142,1417
1957.7460315082863,1327
1959.6948701932974,1360
1961.6432322946594,1386
1963.5911180791632,1401
1965.5385278136787,1411
1967.4854617651545,1402
1969.4319202006182,1428
1971.377903387176,1388
1973.3234115920136,1385
1975.268445082395,1356
1977.2130041256642,1430
1979.1570889892423,1405
1981.1006999406304,1425
1983.04383724741,1345
1984.986501177238,1354
1986.928691997853,1357
1988.8704099770712,1420
1990.811655382789,1415
1992.7524284829801,1364
1994.692729545698,1471
1996.6325588390755,1413
1998.5719166313224,1339
2000.5108031907307,1396
2002.4492187856677,1374
2004.387163684583,1406
2006.3246381560011,1397
2008.2616424685298,1327
2010.1981768908527,1388
2012.1342416917332,1378
2014.069837140014,1371
2016.0049635046162,1339
2017.9396210545406,1364
2019.8738100588666,1400
2021.8075307867502,1400
2023.740783507431,1351
2025.6735684902228,1359
2027.6058860045214,1365
2029.5377363198004,1404
2031.4691197056118,1387
2033.4000364315875,1393
2035.3304867674374,1408
2037.260470982952,1360
2039.189989347998,1345
2041.1190421325232,1376
2043.047629606554,1329
2044.9757520401945,1314
2046.9034097036288,1403
2048.8306028671195,1387
2050.7573318010086,1383
2052.683596775716,1392
2054.609398061742,1387
2056.5347359296647,1410
2058.4596106501403,1364
2060.384022493906,1347
2062.3079717317764,1297
2064.231458634646,1346
2066.1544834734873,1350
2068.077046519352,1330
2069.99914804337,1371
2071.9207883167524,1389
2073.8419676107865,1347
2075.7626861968406,1352
2077.6829443463607,1361
2079.6027423308715,1313
2081.522080421977,1414
2083.440958891362,1369
2085.359378010786,1359
2087.2773380520907,1406
2089.194839287196,1360
2091.111881988101,1349
2093.0284664268825,1346
2094.9445928756973,1297
2096.86026160678,1405
2098.775472892446,1360
2100.690227005088,1353
2102.604524217178,1376
2104.5183648012676,1374
2106.431749029985,1366
2108.34467717604,1363
2110.2571495122206,1380
2112.169166311393,1395
2114.080727846503,1352
2115.9918343905747,1341
2117.902486216711,1347
2119.8126835980956,1350
2121.722426807987,1363
2123.6317161197285,1330
2125.5405518067364,1331
2127.448934142509,1383
2129.356863400624,1348
2131.264339854737,1402
2133.1713637785815,1388
2135.077935445972,1415
2136.9840551308002,1416
2138.889723107037,1395
2140.7949396487334,1360
2142.699705030018,1363
2144.6040195250994,1422
2146.507883408264,1346
2148.4112969538774,1373
2150.3142604363848,1346
2152.2167741303097,1386
2154.1188383102535,1405
2156.0204532508997,1351
2157.9216192270064,1380
2159.822336513414,1428
2161.7226053850413,1424
2163.622426116884,1444
2165.5217989840185,1389
2167.4207242616,1422
2169.319202224862,1428
2171.2172331491165,1396
2173.1148173097563,1361
2175.0119549822507,1339
2176.90864644215,1408
2178.8048919650823,1441
2180.7006918267534,1412
2182.596046302952,1391
2184.4909556695407,1395
2186.3854202024645,1390
2188.279440177746,1445
2190.173015871487,1360
2192.066147559868,1448
2193.958835519149,1402
2195.851080025667,1403
2197.7428813558417,1424
2199.6342397861667,1462
2201.5251555932186,1486
2203.415629053651,1461
2205.3056604441986,1426
2207.19525004167,1493
2209.084398122958,1480
2210.9731049650327,1466
2212.861370844941,1391
2214.749196039812,1478
2216.636580826851,1453
2218.523525483344,1443
2220.410030286655,1470
2222.296095514226,1468
2224.1817214435805,1488
2226.066908352319,1513
2227.951656518121,1514
2229.835966218746,1469
2231.71983773203,1470
2233.6032713358913,1530
2235.486267308324,1498
2237.3688259274036,1498
2239.2509474712824,1475
2241.132632218193,1502
2243.013880446447,1481
2244.8946924344323,1468
2246.7750684606203,1504
2248.6550088035574,1488
2250.534513741871,1458
2252.413583554265,1496
2254.292218519526,1505
2256.170418916517,1497
2258.0481850241786,1416
2259.925517121534,1473
2261.8024154876825,1440
2263.678880401803,1485
2265.5549121431536,1482
2267.430510991071,1493
2269.305677224971,1406
2271.180411124348,1472
2273.0547129687766,1488
2274.9285830379076,1431
2276.8020216114737,1457
2278.6750289692845,1494
2280.5476053912294,1443
2282.4197511572766,1563
2284.2914665474727,1621
2286.162751841943,1575
2288.0336073208937,1573
2289.904033264608,1540
2291.774029953448,1501
2293.6435976678554,1472
2295.5127366883517,1416
2297.381447295534,1426
2299.2497297700825,1415
2301.1175843927526,1377
2302.9850114443825,1373
2304.852011205885,1289
2306.7185839582553,1337
2308.5847299825664,1286
2310.4504495599676,1283
2312.3157429716925,1234
2314.1806104990483,1188
2316.0450524234247,1252
2317.9090690262888,1284
2319.772660589186,1213
2321.635827393742,1291
2323.498569721661,1261
2325.3608878547248,1220
2327.2227820747967,1291
2329.0842526638157,1238
2330.945299903803,1239
2332.805924076857,1252
2334.6661254651535,1255
2336.525904350951,1266
2338.3852610165827,1249
2340.244195744464,1250
2342.102708817088,1247
2343.9608005170253,1263
2345.8184711269287,1266
2347.675720929526,1242
2349.532550207628,1240
2351.38895924412,1241
2353.24494832197,1207
2355.100517724223,1300
2356.955667734004,1315
2358.810398634514,1239
2360.664710709037,1308
2362.5186042409337,1258
2364.3720795136437,1268
2366.225136810686,1299
2368.0777764156583,1277
2369.929998612237,1290
2371.7818036841777,1286
2373.633191915315,1259
2375.484163589562,1299
2377.3347189909114,1313
2379.184858403434,1270
2381.03458211128,1289
2382.8838903986775,1239
2384.732783549936,1252
2386.5812618494406,1313
2388.4293255816588,1279
2390.2769750311327,1310
2392.1242104824883,1275
2393.971032220427,1280
2395.8174405297295,1310
2397.6634356952563,1273
2399.509018001947,1259
2401.3541877348193,1299
2403.1989451789705,1320
2405.043290619576,1261
2406.8872243418905,1248
2408.730746631247,1248
2410.5738577730594,1239
2412.4165580528183,1261
2414.258847756095,1281
2416.100727168537,1270
2417.9421965758734,1268
2419.783256263912,1295
2421.623906518538,1260
2423.4641476257157,1266
2425.303979871491,1307
2427.143403541984,1304
2428.9824189233977,1244
2430.821026302012,1233
2432.6592259641866,1269
2434.497018196361,1319
2436.33440328505,1327
2438.171381516851,1305
2440.00795317844,1366
2441.844118556569,1305
2443.6798779380724,1335
2445.5152316098606,1325
2447.3501798589255,1294
2449.1847229723357,1262
2451.0188612372403,1305
2452.8525949408663,1303
2454.6859243705203,1254
2456.518849813587,1282
2458.3513715575314,1297
2460.183489889895,1316
2462.015205098301,1323
2463.8465174704493,1328
2465.67742729412,1313
2467.5079348571717,1311
2469.338040447542,1340
2471.1677443532476,1313
2472.9970468623833,1297
2474.825948263123,1273
2476.6544488437207,1325
2478.482548892508,1315
2480.310248697896,1278
2482.137548548374,1311
2483.9644487325118,1364
2485.790949538956,1276
2487.617051256433,1329
2489.44275417375,1320
2491.26805857979,1306
2493.0929647635157,1360
2494.917473013971,1344
2496.741583620276,1351
2498.5652968716304,1392
2500.3886130573137,1388
2502.2115324666834,1314
2504.0340553891765,1367
2505.856182114308,1325
2507.6779129316733,1375
2509.499248130945,1390
2511.3201880018764,1314
2513.140732834298,1316
2514.9608829181198,1323
2516.780638543331,1315
2518.6,1346
2520.418967578273,1432
2522.237541568376,1375
2524.0557222606144,1393
2525.8735099453706,1363
2527.6909049131086,1389
2529.507907454368,1367
2531.32451785977,1341
2533.140736420014,1428
2534.9565634258774,1453
2536.771999168218,1412
2538.5870439379714,1393
2540.4016980261526,1460
2542.2159617238544,1461
2544.02983532225,1436
2545.8433191125914,1507
2547.656413386209,1533
2549.4691184345115,1502
2551.2814345489874,1484
2553.093362021204,1470
2554.904901142808,1489
2556.716052205523,1509
2558.526815501153,1491
2560.3371913215824,1512
2562.147179958771,1501
2563.956781704761,1560
2565.7659968516705,1538
2567.5748256916986,1541
2569.3832685171224,1566
2571.1913256202984,1546
2572.9989972936614,1547
2574.806283829725,1600
2576.613185521084,1585
2578.4197026604074,1631
2580.2258355404483,1564
2582.031584454035,1585
2583.836949694077,1607
2585.6419315535613,1617
2587.4465303255533,1660
2589.2507463032002,1645
2591.0545797797245,1624
2592.8580310484303,1679
2594.6611004026995,1678
2596.463788135992,1636
2598.266094541849,1696
2600.0680199138874,1650
2601.869564545807,1721
2603.670728731383,1630
2605.4715127644704,1658
2607.2719169390048,1666
2609.071941548998,1663
2610.8715868885433,1676
2612.670853251811,1655
2614.469740933052,1640
2616.268250226594,1636
2618.0663814268455,1648
2619.864134828292,1625
2621.6615107255006,1683
2623.458509413115,1625
2625.2551311858597,1597
2627.0513763385347,1681
2628.8472451660223,1578
2630.6427379632833,1620
2632.4378550253564,1611
2634.232596647359,1603
2636.026963124488,1542
2637.8209547520187,1495
2639.6145718253065,1512
2641.407814639785,1545
2643.200683490966,1531
2644.9931786744414,1515
2646.7853004858807,1609
2648.577049221034,1455
2650.3684251757277,1529
2652.1594286458712,1546
2653.9500599274484,1501
2655.740319316525,1461
2657.5302071092437,1458
2659.3197236018286,1528
2661.10886909058,1453
2662.8976438718782,1370
2664.686048242183,1415
2666.4740824980327,1417
2668.2617469360443,1438
2670.0490418529134,1434
2671.8359675454153,1416
2673.622524310403,1429
2675.408712444811,1428
2677.1945322456495,1363
2678.979984010009,1404
2680.76506803506,1342
2682.5497846180497,1389
2684.334134056306,1350
2686.1181166472343,1297
2687.9017326883213,1341
2689.6849824771293,1303
2691.4678663113013,1315
2693.2503844885596,1384
2695.032537306705,1349
2696.8143250636167,1380
2698.5957480572542,1367
2700.3768065856534,1354
2702.1575009469316,1336
2703.937831439283,1323
2705.717798360982,1284
2707.4974020103837,1327
2709.276642685917,1337
2711.055520686095,1258
2712.834036309506,1287
2714.612189854819,1326
2716.389981620782,1291
2718.1674119062204,1282
2719.944481010041,1265
2721.721189231226,1294
2723.4975368688415,1292
2725.273524222027,1298
2727.0491515900053,1360
2728.824419272075,1315
2730.5993275676146,1305
2732.3738767760838,1317
2734.148067197016,1230
2735.921899130031,1270
2737.6953728748194,1239
2739.468488731156,1202
2741.2412469988926,1241
2743.0136479779617,1335
2744.785691968372,1276
2746.5573792702116,1267
2748.3287101836504,1263
2750.099685008934,1265
2751.870304046388,1256
2753.640567596418,1317
2755.4104759595057,1254
2757.1800294362156,1304
2758.949228327187,1307
2760.7180729331412,1298
2762.486563554877,1306
2764.254700493272,1210
2766.022484049284,1236
2767.789914523947,1280
2769.5569922183786,1298
2771.3237174337705,1240
2773.090090471394,1264
2774.8561116326036,1259
2776.6217812188274,1196
2778.3870995315756,1256
2780.1520668724356,1281
2781.9166835430747,1261
2783.6809498452394,1259
2785.444866080754,1227
2787.2084325515225,1258
2788.971649559527,1287
2790.73451740683,1246
2792.4970363955713,1273
2794.2592068279705,1317
2796.0210290063264,1279
2797.7825032330147,1262
2799.543629810493,1233
2801.304409041296,1197
2803.0648412280366,1197
2804.8249266734088,1223
2806.5846656801846,1284
2808.344058551212,1238
2810.1031055894246,1277
2811.8618070978273,1270
2813.6201633795085,1264
2815.378174737636,1251
2817.1358414754536,1297
2818.893163896285,1261
2820.6501423035334,1228
2822.4067770006814,1263
2824.1630682912883,1284
2825.9190164789957,1284
2827.6746218675207,1252
2829.429884760661,1247
2831.184805462294,1259
2832.9393842763743,1256
2834.693621506936,1276
2836.4475174580916,1289
2838.201072434034,1235
2839.954286739034,1255
2841.707160677441,1273
2843.459694553685,1231
2845.2118886722724,1300
2846.96374333779,1290
2848.7152588549034,1283
2850.4664355283567,1276
2852.217273662973,1232
2853.9677735636546,1303
2855.7179355353833,1289
2857.4677598832186,1255
2859.217246912299,1232
2860.9663969278427,1249
2862.715210235146,1255
2864.4636871395846,1268
2866.211827946614,1239
2867.9596329617652,1256
2869.7071024906536,1242
2871.4542368389684,1254
2873.20103631248,1259
2874.947501217038,1267
2876.6936318585695,1285
2878.4394285430812,1305
2880.1848915766604,1239
2881.9300212654707,1254
2883.6748179157553,1236
2885.4192818338374,1319
2887.1634133261173,1259
2888.907212699077,1294
2890.6506802592744,1251
2892.393816313348,1211
2894.1366211680142,1235
2895.8790951300693,1264
2897.621238506388,1278
2899.363051603925,1263
2901.1045347297118,1297
2902.8456881908596,1247
2904.58651229456,1275
2906.327007348081,1241
2908.067173658772,1214
2909.8070115340597,1253
2911.5465212814497,1273
2913.285703208527,1219
2915.0245576229563,1219
2916.7630848324807,1231
2918.5012851449196,1247
2920.2391588681758,1231
2921.976706310227,1230
2923.7139277791334,1233
2925.4508235830313,1223
2927.187394030137,1247
2928.923639428745,1284
2930.6595600872306,1246
2932.395156314046,1282
2934.1304284177218,1306
2935.8653767068713,1262
2937.6000014901815,1266
2939.3343030764227,1206
2941.068281774442,1276
2942.8019378931644,1224
2944.5352717415976,1258
2946.2682836288236,1264
2948.0009738640065,1211
2949.7333427563885,1302
2951.465390615289,1242
2953.1971177501086,1280
2954.9285244703265,1301
2956.6596110855,1266
2958.3903779052657,1232
2960.1208252393385,1221
2961.8509533975125,1241
2963.5807626896617,1241
2965.3102534257378,1234
2967.0394259157715,1207
2968.768280469873,1215
2970.496817398232,1227
2972.2250370111146,1226
2973.952939618869,1231
2975.6805255319196,1323
2977.4077950607707,1249
2979.134748516006,1325
2980.861386208289,1283
2982.587708448359,1272
2984.313715547037,1307
2986.039407815222,1308
2987.764785563891,1299
2989.489849104102,1263
2991.2145987469908,1270
2992.9390348037705,1222
2994.6631575857346,1207
2996.3869674042576,1243
2998.1104645707887,1232
2999.83364939686,1222
3001.5565221940783,1299
3003.2790832741334,1304
3005.0013329487924,1274
3006.7232715298996,1239
3008.4448993293804,1231
3010.166216659239,1241
3011.887223831558,1243
3013.607921158498,1236
3015.3283089522993,1249
3017.0483875252826,1289
3018.7681571898443,1241
3020.4876182584626,1205
3022.2067710436927,1252
3023.9256158581707,1263
3025.644153014609,1208
3027.362382825801,1242
3029.0803056046193,1261
3030.797921664012,1241
3032.5152313170106,1253
3034.2322348767225,1239
3035.9489326563353,1248
3037.665324969115,1255
3039.3814121284063,1236
3041.097194447633,1267
3042.812672240299,1256
3044.5278458199855,1194
3046.2427155003525,1277
3047.9572815951406,1210
3049.671544418167,1271
3051.38550428333,1206
3053.0991615046073,1273
3054.812516396051,1243
3056.5255692717974,1238
3058.2383204460575,1229
3059.9507702331257,1266
3061.662918947372,1275
3063.3747669032446,1256
3065.0863144152736,1286
3066.7975617980674,1308
3068.508509366309,1261
3070.219157434767,1209
3071.9295063182844,1243
3073.639556331785,1247
3075.3493077902704,1237
3077.058761008821,1253
3078.7679163025964,1273
3080.476773986837,1301
3082.1853343768594,1268
3083.89359778806,1248
3085.6015645359153,1250
3087.3092349359786,1295
3089.016609303884,1247
3090.7236879553434,1214
3092.4304712061476,1206
3094.136959372166,1287
3095.843152769349,1239
3097.5490517137237,1226
3099.2546565213966,1302
3100.959967508554,1273
3102.66498499146,1231
3104.3697092864577,1265
3106.0741407099695,1251
3107.778279578498,1247
3109.482126208622,1265
3111.1856809170004,1252
3112.8889440203716,1215
3114.5919158355528,1241
3116.294596679439,1225
3117.996986869006,1271
3119.6990867213062,1296
3121.4008965534726,1285
3123.102416682717,1262
3124.803647426329,1293
3126.5045891016784,1225
3128.205242026213,1305
3129.90560651746,1284
3131.605682893025,1254
3133.3054714705922,1276
3135.0049725679282,1324
3136.7041865028714,1284
3138.4031135933465,1229
3140.101754157353,1250
3141.800108512971,1267
3143.498176978357,1266
3145.1959598717494,1242
3146.8934575114636,1313
3148.5906702158954,1231
3150.2875983035183,1245
3151.9842420928853,1226
3153.680601902627,1215
3155.376678051456,1258
3157.07247085816,1282
3158.767980641609,1260
3160.463207720748,1276
3162.158152414606,1287
3163.8528150422862,1284
3165.5471959229726,1283
3167.2412953759303,1222
3168.9351137204976,1252
3170.628651276098,1234
3172.3219083622307,1235
3174.014885298474,1271
3175.707582404485,1210
3177.4000000000005,1275
3179.092138404835,1228
3180.7839979388846,1309
3182.47557892212,1312
3184.166881674594,1259
3185.8579065164386,1295
3187.5486537678626,1264
3189.2391237491547,1228
3190.9293167806827,1269
3192.6192331828934,1177
3194.3088732763117,1220
3195.998237381542,1234
3197.687325819268,1231
3199.376138910251,1272
3201.064676975334,1209
3202.7529403354347,1283
3204.4409293115523,1183
3206.1286442247647,1248
3207.816085396229,1172
3209.5032531471825,1205
3211.190147798936,1203
3212.8767696728846,1207
3214.5631190905015,1196
3216.2491963733373,1179
3217.9350018430214,1219
3219.6205358212637,1226
3221.305798629851,1188
3222.990790590651,1234
3224.6755120256103,1182
3226.359963256751,1218
3228.0441446061795,1142
3229.7280563960758,1210
3231.411698948703,1231
3233.0950725863995,1243
3234.778177631587,1256
3236.461014406761,1220
3238.1435832345005,1251
3239.8258844374595,1252
3241.507918338374,1222
3243.1896852600576,1231
3244.8711855254023,1241
3246.552419457381,1260
3248.233387379042,1212
3249.914089613516,1225
3251.59452648401,1190
3253.274698313813,1244
3254.95460542629,1243
3256.6342481448855,1258
3258.313626793125,1224
3259.9927416946084,1212
3261.6715931730196,1215
3263.3501815521176,1180
3265.0285071557437,1176
3266.706570307815,1214
3268.3843713323286,1242
3270.0619105533615,1235
3271.739188295068,1193
3273.4162048816834,1223
3275.0929606375184,1252
3276.769455886966,1271
3278.445690954498,1193
3280.1216661646613,1195
3281.797381842087,1212
3283.4728383114807,1251
3285.1480358976296,1251
3286.8229749253996,1234
3288.4976557197333,1225
3290.172078605655,1240
3291.846243908266,1233
3293.5201519527463,1178
3295.193803064357,1192
3296.8671975684374,1230
3298.5403357904024,1159
3300.21321805575,1214
3301.8858446900567,1243
3303.558216018975,1225
3305.23033236824,1192
3306.9021940636603,1216
3308.57380143113,1219
3310.2451547966184,1249
3311.916254486174,1216
3313.5871008259246,1199
3315.2576941420766,1187
3316.9280347609147,1256
3318.5981230088046,1211
3320.2679592121895,1212
3321.9375436975924,1179
3323.606876791612,1234
3325.27595882093,1220
3326.944790112305,1200
3328.6133709925753,1180
3330.2817017886573,1215
3331.949782827547,1205
3333.617614436319,1187
3335.2851969421245,1186
3336.952530672199,1255
3338.619615953853,1189
3340.286453114475,1249
3341.9530424815357,1210
3343.619384382583,1225
3345.2854791452437,1180
3346.951327097224,1242
3348.6169285663073,1252
3350.2822838803577,1234
3351.947393367319,1259
3353.61225735521,1186
3355.2768761721345,1246
3356.9412501462693,1232
3358.605379605873,1178
3360.2692648792827,1207
3361.9329062949146,1197
3363.596304181263,1151
