CollectionTime,7/11/2024 12:53:28 PM
ExposureUsed,3
CalibratedSpectrum
-962.7078968117929,767
-959.9714848408522,781
-957.2358232597828,781
-954.5009119013725,762
-951.7667505983302,756
-949.0333391832855,777
-946.3006774887896,756
-943.5687653473143,802
-940.837602591253,798
-938.1071890529199,785
-935.3775245645503,753
-932.6486089583007,804
-929.9204420662485,854
-927.1930237203925,841
-924.4663537526524,789
-921.7404319948689,800
-919.0152582788041,794
-916.2908324361409,856
-913.5671542984834,814
-910.8442236973568,793
-908.1220404642074,781
-905.4006044304027,836
-902.679915427231,813
-899.959973285902,814
-897.2407778375464,832
-894.5223289132158,805
-891.8046263438832,796
-889.0876699604426,826
-886.3714595937089,825
-883.6559950744183,807
-880.9412762332282,822
-878.2273029007168,813
-875.5140749073835,792
-872.8015920836489,830
-870.0898542598545,825
-867.3788612662631,814
-864.6686129330585,829
-861.9591090903457,777
-859.2503495681506,784
-856.5423341964203,849
-853.8350628050229,829
-851.1285352237478,814
-848.4227512823054,813
-845.7177108103272,818
-843.0134136373656,837
-840.3098595928943,824
-837.6070485063082,856
-834.9049802069229,887
-832.2036545239757,851
-829.5030712866244,828
-826.8032303239481,826
-824.1041314649472,795
-821.4057745385428,828
-818.7081593735775,825
-816.0112857988148,822
-813.3151536429393,811
-810.6197627345566,841
-807.9251129021936,854
-805.2312039742981,836
-802.5380357792392,862
-799.8456081453069,876
-797.1539209007124,892
-794.462973873588,805
-791.772766891987,873
-789.083299783884,902
-786.3945723771743,851
-783.7065844996748,870
-781.0193359791231,810
-778.3328266431781,877
-775.6470563194197,905
-772.9620248353489,884
-770.2777320183878,883
-767.5941776958798,867
-764.9113616950891,893
-762.2292838432011,903
-759.5479439673222,854
-756.8673418944801,829
-754.1874774516235,908
-751.5083504656222,921
-748.8299607632671,867
-746.15230817127,891
-743.475392516264,892
-740.7992136248035,891
-738.1237713233636,901
-735.4490654383407,898
-732.7750957960521,911
-730.1018622227365,869
-727.4293645445534,925
-724.7576025875837,859
-722.0865761778291,894
-719.4162851412126,942
-716.7467293035781,940
-714.0779084906909,940
-711.409822528237,942
-708.7424712418238,949
-706.0758544569796,946
-703.4099719991541,972
-700.7448236937178,934
-698.0804093659622,945
-695.4167288411002,990
-692.7537819442656,953
-690.0915685005134,958
-687.4300883348199,932
-684.7693412720819,965
-682.1093271371178,942
-679.4500457546669,957
-676.7914969493897,1003
-674.1336805458676,990
-671.4765963686034,1002
-668.8202442420206,959
-666.1646239904642,982
-663.5097354382001,946
-660.8555784094151,949
-658.2021527282176,969
-655.5494582186366,1004
-652.8974947046223,1001
-650.2462620100463,1000
-647.5957599587009,991
-644.9459883742998,1033
-642.2969470804776,1045
-639.6486359007902,1024
-637.0010546587141,1019
-634.3542031776476,1058
-631.7080812809096,989
-629.0626887917401,1009
-626.4180255333008,1030
-623.7740913286734,1014
-621.1308860008619,1040
-618.4884093727904,1021
-615.8466612673046,1061
-613.2056415071715,1062
-610.5653499150785,1056
-607.9257863136347,1056
-605.28695052537,1059
-602.6488423727357,1029
-600.0114616781036,1049
-597.3748082637674,1030
-594.7388819519412,1026
-592.1036825647604,1100
-589.4692099242818,1114
-586.8354638524829,1101
-584.2024441712624,1005
-581.5701507024403,1099
-578.9385832677575,1066
-576.3077416888759,1126
-573.6776257873787,1145
-571.0482353847704,1096
-568.4195703024757,1054
-565.7916303618415,1099
-563.164415384135,1081
-560.5379251905453,1104
-557.9121596021815,1105
-555.2871184400748,1085
-552.6628015251767,1122
-550.0392086783606,1057
-547.4163397204204,1093
-544.794194472071,1114
-542.1727727539491,1098
-539.5520743866118,1142
-536.9320991905377,1255
-534.3128469861261,1119
-531.6943175936979,1213
-529.0765108334947,1210
-526.4594265256793,1235
-523.8430644903358,1325
-521.2274245474689,1413
-518.612506517005,1455
-515.9983102187913,1425
-513.3848354725959,1423
-510.77208209810846,1463
-508.16004991493924,1528
-505.5487387426199,1645
-502.9381484006032,1685
-500.3282787082628,1817
-497.71912948489364,1821
-495.1107005497117,1761
-492.5029917218539,1628
-489.8960028203786,1483
-487.28973366426493,1494
-484.68418407241325,1441
-482.07935386364494,1353
-479.47524285670266,1342
-476.87185087025,1325
-474.2691777228715,1274
-471.66722323307334,1336
-469.0659872192821,1285
-466.4654694998459,1281
-463.86566989303384,1306
-461.26658821703614,1318
-458.66822428996414,1267
-456.07057792985,1252
-453.4736489546475,1223
-450.877437182231,1280
-448.28194243039627,1296
-445.68716451686,1274
-443.09310325926003,1236
-440.49975847515555,1249
-437.9071299820263,1295
-435.31521759727354,1301
-432.72402113821954,1305
-430.13354042210767,1307
-427.5437752661022,1295
-424.95472548728867,1306
-422.36639090267386,1321
-419.7787713291855,1374
-417.1918665836721,1419
-414.60567648290385,1358
-412.0202008435715,1350
-409.4354394822874,1393
-406.8513922155845,1374
-404.26805885991723,1392
-401.685439231661,1351
-399.103533147112,1389
-396.522340422488,1421
-393.9418608739278,1361
-391.3620943174908,1356
-388.7830405691583,1289
-386.2046994448317,1256
-383.6270707603344,1187
-381.05015433141045,1080
-378.473949973725,1055
-375.8984575028645,1041
-373.32367673433623,904
-370.74960748356875,857
-368.1762495659117,806
-365.60360279663576,696
-363.03166699093265,626
-360.4604419639154,567
-357.8899275306178,516
-355.32012350599507,476
-352.7510297049233,477
-350.1826459421999,470
-347.61497203254316,459
-345.04800779059235,480
-342.4817530309082,483
-339.91620756797226,493
-337.35137121618743,465
-334.7872437898774,527
-332.22382510328725,505
-329.66111497058273,475
-327.09911320585127,439
-324.53781962310075,486
-321.9772340362607,494
-319.4173562591816,463
-316.8581861056348,441
-314.2997233893127,455
-311.7419679238294,463
-309.1849195227194,451
-306.62857799943856,499
-304.0729431673641,486
-301.51801483979375,494
-298.963792829947,520
-296.41027695096386,492
-293.85746701590574,517
-291.3053628377552,546
-288.7539642294155,562
-286.2032710037115,495
-283.65328297338897,501
-281.1039999511146,597
-278.5554217494762,609
-276.007548180983,542
-273.4603790580651,522
-270.9139141930734,531
-268.3681533982807,522
-265.8230964858798,540
-263.27874326798565,549
-260.7350935566336,519
-258.1921471637804,542
-255.6499039013039,514
-253.10836358100266,533
-250.56752601459698,527
-248.02739101372765,594
-245.48795838995704,619
-242.94922795476816,640
-240.41119951956557,582
-237.8738728956746,656
-235.33724789434166,598
-232.80132432673452,608
-230.2661020039418,579
-227.73158073697357,581
-225.19776033676033,599
-222.66464061415422,673
-220.1322213799284,684
-217.60050244477725,623
-215.06948361931552,559
-212.53916471408013,649
-210.00954553952818,643
-207.48062590603843,646
-204.9524056239104,630
-202.4248845033651,697
-199.8980623545441,687
-197.37193898751036,723
-194.84651421224817,700
-192.32178783866232,708
-189.79775967657952,728
-187.27442953574644,710
-184.7517972258321,832
-182.2298625564256,751
-179.7086253370378,749
-177.18808537710026,717
-174.66824248596583,726
-172.14909647290835,693
-169.6306471471229,744
-167.11289431772548,768
-164.59583779375328,730
-162.07947738416453,703
-159.5638128978386,754
-157.04884414357605,820
-154.53457093009854,859
-152.02099306604828,872
-149.50811035998936,809
-146.99592262040665,829
-144.48442965570587,839
-141.97363127421409,853
-139.46352728417958,883
-136.95411749377126,1031
-134.44540171107985,1017
-131.93737974411636,960
-129.43005140081357,909
-126.92341648902493,965
-124.41747481652521,1153
-121.91222619101006,1309
-119.40767042009657,1796
-116.90380731132257,2163
-114.40063667214702,2129
-111.8981583099503,2002
-109.3963720320337,1944
-106.89527764561933,2335
-104.39487495785067,2810
-101.89516377579241,3351
-99.39614390642998,3199
-96.89781515667039,2618
-94.40017733334128,2580
-91.90323024319173,4013
-89.40697369289148,7649
-86.91140748903172,11836
-84.41653143812482,13183
-81.92234534660395,9425
-79.42884902082358,5250
-76.93604226705907,4261
-74.4439248915071,8164
-71.95249670028534,14599
-69.46175749943245,20254
-66.97170709490854,20702
-64.48234529259423,17263
-61.99367189829195,14628
-59.50568671772464,13472
-57.01838955653636,12273
-54.53178022029283,10043
-52.045858514480074,10682
-49.560624244506016,14410
-47.07607721569923,16665
-44.59221723330904,16292
-42.10904410250669,14436
-39.62655762838392,11815
-37.14475761595372,10739
-34.66364387015028,9741
-32.18321619582866,10023
-29.70347439776515,9427
-27.224418280657005,8667
-24.74604764912317,9836
-22.26836230770266,13531
-19.7913620608565,21971
-17.315046712966478,36075
-14.83941606833514,46220
-12.36446993118659,65037
-9.89020810566592,65037
-7.416630395839093,65037
-4.94373660569363,65037
-2.471526539137585,65037
-6.821210263296962E-13,65037
2.47084320796705,65037
4.941003281093458,65037
7.410480415786196,65037
9.879274808531363,65037
12.347386655893956,65037
14.814816154518212,65037
17.28156350112681,65037
19.74762889252179,65037
22.21301252558385,65037
24.67771459727237,20456
27.141735304626195,3887
29.605074844762612,2421
32.06773341487792,2443
34.52971121224755,2650
36.99100843422559,2613
39.45162527824516,2168
41.91156194181792,1442
44.370818622535126,1415
46.82939551806646,1399
49.287292826160524,1323
51.74451074464503,1718
54.201049471426245,2159
56.65690920448981,1733
59.112090141899785,1387
61.56659248179983,1298
64.02041642241159,1235
66.4735621620365,1229
68.92602989905402,1149
71.37781983192338,1098
73.82893215918205,1340
76.27936707944684,1410
78.72912479141326,1173
81.17820549385567,1047
83.62660938562783,1343
86.07433666566146,1303
88.5213875329681,978
90.96776218663751,866
93.41346082583925,924
95.85848364982041,1022
98.30283085790859,1240
100.7465026495089,1146
103.18949922410604,1048
105.63182078126385,1043
108.07346752062438,1079
110.51443964190923,902
112.95473734491827,826
115.39436082953114,895
117.83331029570547,958
120.27158594347827,989
122.7091879729652,1042
125.1461165843615,896
127.58237197794062,861
130.01795435405518,820
132.4528639131364,974
134.88710085569494,904
137.32066538231982,834
139.75355769367923,786
142.1857779905207,887
144.61732647366978,857
147.04820334403132,836
149.47840880258934,845
151.90794305040674,935
154.33680628862487,1162
156.76499871846443,1346
159.19252054122433,1424
161.61937195828352,1577
164.04555317109896,1744
166.47106438120693,1892
168.89590579022217,2040
171.320077599839,2200
173.7435800118302,2331
176.16641322804742,2539
178.58857745042144,2613
181.01007288096173,2763
183.43089972175687,2807
185.85105817497413,2862
188.27054844285988,2810
190.6893707277394,2807
193.10752523201643,2933
195.5250121581745,3182
197.9418317087751,3233
200.3579840864594,3181
202.7734694939469,3181
205.18828813403627,3211
207.6024402096051,3268
210.01592592360964,3334
212.42874547908548,3217
214.84089907914665,3310
217.2523869269868,3221
219.66320922587727,3221
222.0733661791695,3273
224.48285799029293,3272
226.8916848627572,3260
229.29984700014882,3309
231.7073446061355,3274
234.11417788446204,3185
236.520347038953,3153
238.92585227351185,3335
241.33069379212054,3514
243.73487179884035,3458
246.1383864978112,3482
248.541238093252,3477
250.9434267894609,3490
253.34495279081432,3457
255.74581630176783,3450
258.1460175268563,3481
260.54555667069314,3486
262.9444339379703,3424
265.3426495334594,3341
267.7402036620107,3359
270.1370965285529,3225
272.53332833809407,3121
274.9288992957214,3157
277.32380960660055,3063
279.718059475976,3088
282.1116491091717,3027
284.5045787115897,3191
286.89684848871195,3095
289.2884586460981,3029
291.67940938938807,3046
294.0697009242996,3130
296.4593334566299,3043
298.84830719225477,3106
301.23662233712923,3069
303.6242790972866,3036
306.01127767884,2975
308.39761828798066,2970
310.78330113097934,2926
313.16832641418534,2962
315.5526943440269,2767
317.9364051270112,2837
320.3194589697242,2833
322.70185607883093,2900
325.0835966610754,2740
327.4646809232805,2795
329.8451090723478,2808
332.2248813152577,2745
334.6039978590701,2771
336.9824589109231,2717
339.36026467803447,2642
341.7374153677,2725
344.113911187295,2700
346.48975234427337,2701
348.8649390461686,2606
351.2394715005918,2574
353.61334991523415,2655
355.9865744978655,2683
358.35914545633375,2592
360.73106299856715,2591
363.10232733257146,2689
365.47293866643247,2657
367.84289720831396,2696
370.2122031664593,2668
372.5808567491905,2685
374.9488581649083,2513
377.31620762209275,2654
379.6829053293021,2442
382.0489514951745,2617
384.4143463284262,2461
386.7790900378528,2509
389.14318283232853,2543
391.50662492080653,2506
393.86941651231916,2512
396.23155781597745,2470
398.5930490409713,2512
400.9538903965696,2561
403.3140820921202,2465
405.6736243370498,2565
408.03251734086336,2422
410.3907613131465,2465
412.74835646356166,2447
415.10530300185144,2445
417.4616011378372,2522
419.81725108141893,2439
422.1722530425758,2450
424.5266072313656,2422
426.880313857925,2457
429.2333731324701,2436
431.58578526529516,2482
433.9375504667738,2471
436.2886689473588,2343
438.63914091758113,2371
440.9889665880513,2440
443.33814616945835,2372
445.68667987257015,2437
448.03456790823395,2400
450.3818104873759,2349
452.72840782100013,2422
455.07436012019105,2422
457.41966759611057,2349
459.7643304600007,2439
462.10834892318155,2514
464.4517231970525,2435
466.79445349309174,2489
469.1365400228566,2458
471.4779829979826,2506
473.81878263018564,2343
476.15893913125876,2389
478.4984527130747,2438
480.8373235875855,2505
483.17555196682144,2462
485.5131380628919,2600
487.8500820879857,2659
490.1863842543697,2654
492.52204477439034,2848
494.8570638604725,3031
497.1914417251204,3176
499.52517858091653,3313
501.85827464052306,3504
504.19073011668036,3475
506.5225452222086,3583
508.85372017000566,3488
511.18425517304956,3332
513.514150444396,3496
515.8434061971808,4016
518.1720226446176,4604
520.4999999999999,4741
522.8273384766991,4598
525.1540382881666,4311
527.480099647932,3932
529.8055227696037,3484
532.1303078668694,2937
534.454455153496,2668
536.777964843328,2564
539.1008371502907,2511
541.4230722883866,2511
543.744670471698,2415
546.0656319143858,2418
548.3859568306899,2423
550.7056454349294,2401
553.0246979415016,2407
555.3431145648834,2389
557.6608955196306,2429
559.978041020377,2397
562.2945512818363,2389
564.6104265188006,2325
566.9256669461412,2393
569.2402727788082,2442
571.5542442318302,2450
573.8675815203156,2327
576.1802848594508,2325
578.4923544645015,2405
580.8037905508126,2405
583.114593333807,2513
585.4247630289875,2501
587.7342998519354,2412
590.0432040183106,2381
592.3514757438526,2522
594.6591152443794,2469
596.9661227357875,2378
599.2724984340531,2450
601.578242555231,2442
603.8833553154542,2426
606.1878369309362,2438
608.4916876179676,2330
610.7949075929192,2511
613.0974970722403,2461
615.3994562724587,2430
617.7007854101818,2416
620.0014847020951,2435
622.3015543649641,2435
624.6009946156324,2441
626.8998056710224,2469
629.1979877481361,2431
631.4955410640538,2387
633.7924658359349,2390
636.0887622810175,2472
638.3844306166192,2489
640.6794710601358,2337
642.9738838290426,2566
645.2676691408932,2495
647.5608272133207,2500
649.853358264037,2494
652.1452625108324,2523
654.4365401715764,2543
656.7271914642178,2556
659.0172166067838,2550
661.3066158173809,2489
663.5953893141935,2494
665.8835373154867,2491
668.1710600396028,2483
670.4579577049639,2436
672.7442305300709,2476
675.0298787335033,2502
677.3149025339197,2423
679.599302150058,2433
681.8830778007342,2550
684.1662297048437,2506
686.4487580813608,2505
688.7306631493387,2484
691.0119451279091,2489
693.2926042362834,2421
695.5726406937516,2570
697.8520547196814,2535
700.1308465335215,2495
702.4090163547982,2450
704.6865644031171,2453
706.9634908981619,2475
709.2397960596965,2494
711.5154801075631,2534
713.7905432616823,2514
716.0649857420548,2406
718.3388077687592,2436
720.612009561953,2475
722.8845913418733,2462
725.1565533288352,2447
727.427895743234,2576
729.6986188055427,2484
731.9687227363137,2542
734.238207756178,2464
736.5070740858458,2434
738.7753219461066,2436
741.0429515578281,2373
743.3099631419569,2502
745.5763569195191,2433
747.8421331116193,2482
750.1072919394409,2394
752.3718336242467,2488
754.6357583873777,2446
756.8990664502545,2470
759.1617580343765,2466
761.423833361321,2455
763.6852926527457,2398
765.9461361303862,2388
768.206364016058,2434
770.4659765316536,2408
772.7249738991469,2440
774.9833563405886,2441
777.2411240781092,2479
779.4982773339183,2436
781.7548163303044,2450
784.010741289634,2493
786.2660524343538,2438
788.5207499869881,2477
790.7748341701416,2507
793.0283052064964,2534
795.2811633188143,2502
797.5334087299362,2494
799.7850416627813,2511
802.0360623403484,2479
804.2864709857143,2458
806.5362678220353,2434
808.7854530725468,2442
811.0340269605625,2455
813.2819897094754,2401
815.5293415427581,2477
817.77608268396,2458
820.0222133567116,2497
822.2677337847211,2465
824.5126441917765,2545
826.7569448017433,2514
829.0006358385675,2500
831.2437175262731,2414
833.4861900889629,2542
835.7280537508192,2473
837.9693087361026,2440
840.2099552691533,2583
842.4499935743896,2452
844.689423876309,2472
846.9282463994886,2466
849.1664613685833,2482
851.4040690083276,2490
853.6410695435349,2474
855.877463199097,2325
858.1132501999847,2514
860.3484307712487,2492
862.5830051380175,2510
864.8169735254988,2435
867.0503361589791,2462
869.2830932638243,2455
871.5152450654786,2488
873.7467917894654,2461
875.9777336613873,2537
878.2080709069252,2458
880.4378037518389,2485
882.666932421968,2547
884.8954571432301,2522
887.1233781416219,2428
889.3506956432192,2458
891.5774098741766,2470
893.803521060728,2382
896.0290294291852,2491
898.2539352059397,2492
900.4782386174619,2416
902.7019398903011,2481
904.925039251085,2505
907.147536926521,2448
909.3694331433943,2446
911.59072812857,2456
913.8114221089921,2386
916.0315153116827,2486
918.2510079637437,2457
920.4699002923547,2388
922.6881925247761,2375
924.905884888345,2385
927.1229776104793,2367
929.3394709186747,2378
931.555365040506,2412
933.7706602036275,2425
935.9853566357709,2342
938.1994545647489,2362
940.4129542184515,2421
942.6258558248488,2433
944.8381596119883,2346
947.0498658079974,2289
949.2609746410825,2315
951.4714863395287,2377
953.6814011316998,2344
955.8907192460387,2312
958.0994409110671,2344
960.3075663553858,2371
962.5150958076741,2375
964.7220294966913,2370
966.928367651274,2295
969.1341105003388,2338
971.3392582728806,2287
973.5438111979742,2314
975.747769504772,2260
977.9511334225061,2290
980.153903180487,2289
982.3560790081052,2297
984.5576611348289,2234
986.7586497902058,2289
988.9590452038618,2216
991.158847605503,2221
993.3580572249133,2187
995.5566742919558,2161
997.7546990365728,2264
999.952131688785,2172
1002.1489724786926,2215
1004.3452216364743,2102
1006.5408793923874,2108
1008.7359459767691,2122
1010.9304216200343,2133
1013.1243065526781,2134
1015.3176010052733,2069
1017.510305208472,2060
1019.7024193930064,2025
1021.8939437896848,2116
1024.0848786293977,2110
1026.2752241431122,2017
1028.4649805618747,2041
1030.6541481168115,2098
1032.842727039127,2085
1035.0307175601051,1942
1037.2181199111074,2073
1039.4049343235752,1975
1041.591161029029,2017
1043.7768002590683,1960
1045.9618522453698,2037
1048.1463172196918,2100
1050.3301954138697,2021
1052.513487059818,2072
1054.69619238953,1994
1056.8783116350783,1992
1059.0598450286152,1960
1061.2407928023704,1982
1063.4211551886528,1986
1065.6009324198508,2000
1067.780124728432,2026
1069.9587323469414,1982
1072.1367555080046,1970
1074.314194444325,1996
1076.4910493886855,2011
1078.667320573947,2022
1080.843008233051,1955
1083.0181125990161,2009
1085.1926339049414,1929
1087.3665723840027,1988
1089.5399282694575,1894
1091.7127017946405,1952
1093.8848931929647,1945
1096.0565026979243,1966
1098.2275305430899,1885
1100.3979769621128,1900
1102.567842188722,1854
1104.737126456726,1866
1106.9058300000124,1886
1109.0739530525475,1846
1111.2414958483764,1820
1113.4084586216231,1920
1115.5748416064907,1785
1117.7406450372605,1894
1119.9058691482942,1862
1122.0705141740304,1892
1124.2345803489884,1901
1126.3980679077658,1891
1128.5609770850388,1860
1130.7233081155623,1909
1132.8850612341707,1824
1135.0462366757774,1897
1137.2068346753745,1905
1139.3668554680326,1942
1141.526299288901,1845
1143.68516637321,1824
1145.8434569562655,1872
1148.001171273455,1885
1150.158309560244,1920
1152.3148720521767,1848
1154.470858984876,1873
1156.626270594044,1880
1158.7811071154629,1878
1160.9353687849912,1885
1163.089055838569,1841
1165.242168512213,1788
1167.3947070420209,1827
1169.5466716641677,1898
1171.6980626149075,1889
1173.8488801305748,1855
1175.9991244475814,1855
1178.1487958024186,1805
1180.2978944316555,1803
1182.4464205719428,1831
1184.5943744600072,1809
1186.7417563326567,1819
1188.8885664267755,1898
1191.0348049793297,1812
1193.1804722273619,1828
1195.325568407995,1799
1197.4700937584303,1827
1199.614048515948,1818
1201.7574329179074,1862
1203.900247201746,1799
1206.042491604982,1874
1208.1841663652099,1874
1210.3252717201053,1836
1212.465807907422,1873
1214.6057751649923,1904
1216.7451737307279,1885
1218.8840038426192,1871
1221.0222657387353,1798
1223.1599596572241,1877
1225.2970858363137,1895
1227.4336445143094,1854
1229.5696359295966,1854
1231.705060320639,1895
1233.8399179259786,1854
1235.9742089842384,1862
1238.107933734118,1892
1240.2410924143974,1929
1242.373685263935,1967
1244.5057125216676,1883
1246.6371744266116,1892
1248.7680712178621,1878
1250.898403134593,1909
1253.028170416058,1856
1255.1573733015875,1941
1257.2860120305932,1838
1259.4140868425648,1886
1261.54159797707,1945
1263.6685456737569,1925
1265.7949301723515,1871
1267.9207517126597,1905
1270.046010534565,1929
1272.1707068780306,1919
1274.2948409830983,1927
1276.4184130898889,1932
1278.541423438603,1915
1280.6638722695184,1912
1282.785759822993,1877
1284.9070863394636,1878
1287.0278520594447,1941
1289.1480572235314,1903
1291.2677020723963,1976
1293.3867868467923,1930
1295.5053117875495,2002
1297.623277135579,1980
1299.740683131868,1988
1301.8575300174857,1961
1303.973818033578,1933
1306.0895474213703,2057
1308.2047184221678,1971
1310.3193312773528,1994
1312.4333862283888,2030
1314.5468835168163,2024
1316.659823384255,1986
1318.7722060724045,1963
1320.8840318230418,1961
1322.9953008780249,2019
1325.1060134792888,1966
1327.2161698688478,1932
1329.3257702887959,2022
1331.4348149813054,2016
1333.5433041886276,2001
1335.6512381530933,2009
1337.7586171171101,2048
1339.8654413231675,1981
1341.9717110138317,1990
1344.0774264317488,1960
1346.1825878196432,2026
1348.2871954203192,1929
1350.3912494766587,2025
1352.4947502316231,1999
1354.5976979282532,1956
1356.7000928096686,2009
1358.8019351190665,1969
1360.9032250997243,1922
1363.0039629949988,1940
1365.1041490483235,1927
1367.2037835032133,1903
1369.3028666032606,1984
1371.401398592137,1934
1373.4993797135926,2019
1375.5968102114575,1970
1377.6936903296396,1995
1379.7900203121262,2001
1381.8858004029835,1925
1383.9810308463561,2008
1386.075711886469,2112
1388.1698437676241,1942
1390.2634267342032,2013
1392.356461030667,1977
1394.4489469015557,2029
1396.5408845914872,2065
1398.6322743451592,1991
1400.7231164073469,2000
1402.813411022907,2005
1404.903158436773,2070
1406.9923588939578,2053
1409.0810126395531,2106
1411.1691199187303,2123
1413.2566809767386,2106
1415.343696058907,2050
1417.4301654106425,2084
1419.5160892774315,2068
1421.6014679048399,2076
1423.6863015385125,2089
1425.7705904241707,2129
1427.8543348076178,2119
1429.9375349347342,2228
1432.0201910514802,2136
1434.102303403894,2153
1436.1838722380944,2122
1438.2648978002767,2114
1440.3453803367174,2186
1442.4253200937692,2221
1444.5047173178677,2297
1446.5835722555234,2288
1448.6618851533285,2308
1450.739656257952,2335
1452.8168858161434,2368
1454.8935740747306,2379
1456.96972128062,2429
1459.045327680797,2449
1461.120393522327,2420
1463.1949190523528,2463
1465.2689045180973,2537
1467.3423501668608,2533
1469.415256246024,2614
1471.4876230030463,2625
1473.559450685465,2689
1475.6307395408976,2681
1477.7014898170391,2652
1479.771701761665,2740
1481.8413756226287,2812
1483.9105116478618,2788
1485.9791100853772,2822
1488.0471711832643,2886
1490.1146951896926,2879
1492.1816823529098,2878
1494.2481329212433,2984
1496.3140471430984,3001
1498.3794252669609,2972
1500.4442675413939,3085
1502.5085742150404,3104
1504.572345536622,3100
1506.6355817549388,3141
1508.6982831188702,3187
1510.7604498773744,3252
1512.8220822794883,3305
1514.8831805743293,3235
1516.9437450110909,3258
1519.003775839048,3350
1521.0632733075522,3210
1523.1222376660367,3353
1525.1806691640113,3263
1527.2385680510652,3440
1529.2959345768668,3529
1531.3527689911643,3441
1533.4090715437833,3551
1535.4648424846291,3635
1537.5200820636855,3637
1539.5747905310159,3664
1541.6289681367616,3706
1543.6826151311434,3756
1545.7357317644614,3796
1547.7883182870937,3917
1549.8403749494987,3921
1551.8919020022113,3957
1553.9428996958477,3951
1555.9933682811015,4045
1558.0433080087469,4133
1560.0927191296346,4224
1562.1416018946961,4173
1564.1899565549415,4112
1566.2377833614592,4071
1568.2850825654164,3928
1570.3318544180606,3913
1572.3780991707158,3797
1574.423817074788,3696
1576.4690083817595,3570
1578.5136733431923,3366
1580.5578122107272,3305
1582.601425236085,3214
1584.6445126710646,3047
1586.6870747675434,2934
1588.7291117774776,2850
1590.7706239529034,2722
1592.8116115459347,2621
1594.8520748087658,2617
1596.8920139936686,2535
1598.9314293529933,2488
1600.9703211391711,2484
1603.008689604711,2370
1605.0465350022005,2336
1607.0838575843068,2288
1609.1206576037753,2270
1611.1569353134305,2264
1613.1926909661765,2193
1615.2279248149953,2126
1617.2626371129481,2141
1619.2968281131757,2178
1621.3304980688963,2124
1623.3636472334088,2105
1625.39627586009,2030
1627.428384202396,2119
1629.459972513861,1993
1631.4910410480993,1990
1633.5215900588028,2016
1635.551619799744,1997
1637.5811305247717,1984
1639.6101224878166,1983
1641.6385959428862,1921
1643.6665511440683,1904
1645.693988345528,1936
1647.7209078015112,1960
1649.7473097663405,1950
1651.7731944944203,1900
1653.7985622402307,1886
1655.823413258333,1957
1657.847747803366,1884
1659.8715661300494,1981
1661.8948684931793,1974
1663.9176551476316,1910
1665.9399263483624,1891
1667.9616823504057,1907
1669.982923408873,1913
1672.0036497789574,1913
1674.0238617159293,1869
1676.043559475138,1915
1678.0627433120121,1927
1680.081413482059,1903
1682.0995702408654,1895
1684.117213844096,1882
1686.134344547495,1893
1688.1509626068864,1952
1690.1670682781705,1905
1692.182661817329,1877
1694.1977434804217,1864
1696.2123135235875,1887
1698.226372203043,1847
1700.2399197750851,1894
1702.2529564960905,1921
1704.2654826225112,1918
1706.277498410882,1969
1708.2890041178139,1971
1710.2999999999988,1837
1712.3104863142066,1824
1714.3204633172854,1794
1716.329931266163,1857
1718.3388904178469,1881
1720.3473410294214,1909
1722.3552833580516,1835
1724.3627176609807,1883
1726.3696441955308,1808
1728.3760632191033,1878
1730.3819749891782,1852
1732.3873797633146,1891
1734.3922777991502,1916
1736.3966693544012,1877
1738.4005546868639,1833
1740.4039340544127,1829
1742.406807715001,1852
1744.4091759266616,1874
1746.4110389475054,1801
1748.4123970357223,1787
1750.413250449582,1808
1752.4135994474318,1853
1754.4134442876993,1838
1756.4127852288902,1833
1758.4116225295893,1776
1760.4099564484595,1802
1762.407787244244,1791
1764.405115175764,1869
1766.4019405019203,1856
1768.3982634816916,1844
1770.3940843741357,1853
1772.3894034383907,1769
1774.3842209336717,1785
1776.378537119274,1769
1778.372352254571,1838
1780.3656665990156,1747
1782.3584804121397,1742
1784.3507939535534,1747
1786.3426074829463,1717
1788.3339212600863,1753
1790.3247355448211,1808
1792.3150505970766,1776
1794.3048666768573,1712
1796.2941840442477,1756
1798.2830029594106,1775
1800.2713236825884,1747
1802.2591464741004,1738
1804.2464715943465,1737
1806.2332993038058,1830
1808.2196298630352,1784
1810.2054635326708,1771
1812.190800573428,1758
1814.175641246101,1801
1816.1599858115628,1733
1818.1438345307652,1774
1820.127187664738,1824
1822.1100454745924,1758
1824.092408221516,1815
1826.0742761667766,1784
1828.055649571721,1823
1830.0365286977735,1734
1832.0169138064398,1743
1833.9968051593014,1731
1835.9762030180214,1747
1837.9551076443408,1770
1839.9335193000788,1810
1841.9114382471344,1709
1843.888864747485,1833
1845.8657990631878,1755
1847.842241456378,1729
1849.8181921892697,1719
1851.7936515241558,1708
1853.7686197234098,1774
1855.7430970494815,1718
1857.7170837649014,1734
1859.6905801322787,1812
1861.6635864143004,1748
1863.6361028737338,1711
1865.608129773424,1733
1867.5796673762961,1751
1869.5507159453537,1752
1871.521275743678,1759
1873.4913470344313,1745
1875.4609300808534,1782
1877.4300251462632,1742
1879.3986324940588,1758
1881.366752387717,1774
1883.3343850907936,1798
1885.3015308669228,1783
1887.268189979819,1834
1889.2343626932739,1748
1891.2000492711595,1829
1893.1652499774254,1809
1895.1299650761011,1799
1897.0941948312952,1833
1899.0579395071945,1801
1901.0211993680641,1811
1902.98397467825,1808
1904.9462657021745,1798
1906.9080727043415,1825
1908.869395949332,1815
1910.8302357018065,1748
1912.790592226504,1813
1914.7504657882428,1808
1916.7098566519212,1766
1918.6687650825133,1730
1920.6271913450764,1825
1922.5851357047422,1820
1924.5425984267245,1822
1926.499579776314,1760
1928.4560800188833,1780
1930.4120994198802,1849
1932.367638244833,1865
1934.32269675935,1741
1936.2772752291175,1783
1938.231373919899,1799
1940.1849930975404,1801
1942.1381330279637,1806
1944.0907939771696,1834
1946.0429762112412,1801
1947.9946799963363,1789
1949.9459055986945,1784
1951.896653284633,1807
1953.8469233205478,1774
1955.7967159729142,1741
1957.7460315082863,1795
1959.6948701932974,1796
1961.6432322946594,1870
1963.5911180791632,1813
1965.5385278136787,1863
1967.4854617651545,1846
1969.4319202006182,1808
1971.377903387176,1863
1973.3234115920136,1832
1975.268445082395,1796
1977.2130041256642,1791
1979.1570889892423,1802
1981.1006999406304,1816
1983.04383724741,1796
1984.986501177238,1800
1986.928691997853,1787
1988.8704099770712,1806
1990.811655382789,1784
1992.7524284829801,1792
1994.692729545698,1805
1996.6325588390755,1759
1998.5719166313224,1733
2000.5108031907307,1783
2002.4492187856677,1863
2004.387163684583,1833
2006.3246381560011,1779
2008.2616424685298,1793
2010.1981768908527,1737
2012.1342416917332,1787
2014.069837140014,1797
2016.0049635046162,1838
2017.9396210545406,1805
2019.8738100588666,1790
2021.8075307867502,1779
2023.740783507431,1773
2025.6735684902228,1751
2027.6058860045214,1788
2029.5377363198004,1773
2031.4691197056118,1796
2033.4000364315875,1776
2035.3304867674374,1763
2037.260470982952,1830
2039.189989347998,1697
2041.1190421325232,1840
2043.047629606554,1840
2044.9757520401945,1784
2046.9034097036288,1862
2048.8306028671195,1811
2050.7573318010086,1802
2052.683596775716,1818
2054.609398061742,1725
2056.5347359296647,1795
2058.4596106501403,1769
2060.384022493906,1800
2062.3079717317764,1740
2064.231458634646,1810
2066.1544834734873,1771
2068.077046519352,1765
2069.99914804337,1753
2071.9207883167524,1738
2073.8419676107865,1813
2075.7626861968406,1781
2077.6829443463607,1839
2079.6027423308715,1778
2081.522080421977,1800
2083.440958891362,1681
2085.359378010786,1818
2087.2773380520907,1821
2089.194839287196,1824
2091.111881988101,1747
2093.0284664268825,1836
2094.9445928756973,1819
2096.86026160678,1732
2098.775472892446,1731
2100.690227005088,1830
2102.604524217178,1810
2104.5183648012676,1833
2106.431749029985,1817
2108.34467717604,1814
2110.2571495122206,1866
2112.169166311393,1756
2114.080727846503,1781
2115.9918343905747,1761
2117.902486216711,1826
2119.8126835980956,1742
2121.722426807987,1820
2123.6317161197285,1809
2125.5405518067364,1797
2127.448934142509,1783
2129.356863400624,1811
2131.264339854737,1834
2133.1713637785815,1844
2135.077935445972,1823
2136.9840551308002,1787
2138.889723107037,1863
2140.7949396487334,1898
2142.699705030018,1821
2144.6040195250994,1925
2146.507883408264,1869
2148.4112969538774,1877
2150.3142604363848,1837
2152.2167741303097,1888
2154.1188383102535,1852
2156.0204532508997,1904
2157.9216192270064,1919
2159.822336513414,1783
2161.7226053850413,1803
2163.622426116884,1910
2165.5217989840185,1943
2167.4207242616,1879
2169.319202224862,1928
2171.2172331491165,1899
2173.1148173097563,1862
2175.0119549822507,1920
2176.90864644215,1881
2178.8048919650823,1928
2180.7006918267534,1933
2182.596046302952,1952
2184.4909556695407,1898
2186.3854202024645,1903
2188.279440177746,1861
2190.173015871487,1921
2192.066147559868,1877
2193.958835519149,1918
2195.851080025667,1893
2197.7428813558417,1885
2199.6342397861667,2018
2201.5251555932186,1961
2203.415629053651,1944
2205.3056604441986,1874
2207.19525004167,1919
2209.084398122958,1911
2210.9731049650327,1998
2212.861370844941,2018
2214.749196039812,1928
2216.636580826851,1970
2218.523525483344,1955
2220.410030286655,2000
2222.296095514226,2032
2224.1817214435805,1978
2226.066908352319,1995
2227.951656518121,2009
2229.835966218746,1995
2231.71983773203,1939
2233.6032713358913,1946
2235.486267308324,2011
2237.3688259274036,1972
2239.2509474712824,1975
2241.132632218193,2012
2243.013880446447,1950
2244.8946924344323,2025
2246.7750684606203,1969
2248.6550088035574,1947
2250.534513741871,2025
2252.413583554265,2025
2254.292218519526,2017
2256.170418916517,2002
2258.0481850241786,2058
2259.925517121534,1961
2261.8024154876825,1969
2263.678880401803,2008
2265.5549121431536,2044
2267.430510991071,2010
2269.305677224971,2013
2271.180411124348,1921
2273.0547129687766,1987
2274.9285830379076,1947
2276.8020216114737,1913
2278.6750289692845,1950
2280.5476053912294,1982
2282.4197511572766,1995
2284.2914665474727,2028
2286.162751841943,2156
2288.0336073208937,2168
2289.904033264608,2059
2291.774029953448,2002
2293.6435976678554,2052
2295.5127366883517,1952
2297.381447295534,1985
2299.2497297700825,1939
2301.1175843927526,1967
2302.9850114443825,1919
2304.852011205885,1858
2306.7185839582553,1889
2308.5847299825664,1812
2310.4504495599676,1798
2312.3157429716925,1727
2314.1806104990483,1789
2316.0450524234247,1810
2317.9090690262888,1853
2319.772660589186,1819
2321.635827393742,1800
2323.498569721661,1802
2325.3608878547248,1840
2327.2227820747967,1709
2329.0842526638157,1780
2330.945299903803,1792
2332.805924076857,1804
2334.6661254651535,1811
2336.525904350951,1783
2338.3852610165827,1821
2340.244195744464,1877
2342.102708817088,1730
2343.9608005170253,1900
2345.8184711269287,1756
2347.675720929526,1821
2349.532550207628,1851
2351.38895924412,1825
2353.24494832197,1835
2355.100517724223,1809
2356.955667734004,1765
2358.810398634514,1840
2360.664710709037,1810
2362.5186042409337,1776
2364.3720795136437,1864
2366.225136810686,1856
2368.0777764156583,1796
2369.929998612237,1721
2371.7818036841777,1785
2373.633191915315,1826
2375.484163589562,1958
2377.3347189909114,1793
2379.184858403434,1898
2381.03458211128,1845
2382.8838903986775,1859
2384.732783549936,1892
2386.5812618494406,1930
2388.4293255816588,1859
2390.2769750311327,1890
2392.1242104824883,1897
2393.971032220427,1857
2395.8174405297295,1857
2397.6634356952563,1837
2399.509018001947,1865
2401.3541877348193,1843
2403.1989451789705,1861
2405.043290619576,1875
2406.8872243418905,1820
2408.730746631247,1836
2410.5738577730594,1815
2412.4165580528183,1823
2414.258847756095,1858
2416.100727168537,1875
2417.9421965758734,1895
2419.783256263912,1850
2421.623906518538,1907
2423.4641476257157,1865
2425.303979871491,1894
2427.143403541984,1902
2428.9824189233977,1835
2430.821026302012,1881
2432.6592259641866,1885
2434.497018196361,1961
2436.33440328505,1896
2438.171381516851,1787
2440.00795317844,1850
2441.844118556569,1871
2443.6798779380724,1944
2445.5152316098606,1833
2447.3501798589255,1902
2449.1847229723357,1938
2451.0188612372403,1903
2452.8525949408663,1901
2454.6859243705203,1893
2456.518849813587,1890
2458.3513715575314,1876
2460.183489889895,1868
2462.015205098301,1821
2463.8465174704493,1904
2465.67742729412,1936
2467.5079348571717,1887
2469.338040447542,1927
2471.1677443532476,1885
2472.9970468623833,1882
2474.825948263123,1911
2476.6544488437207,1843
2478.482548892508,1857
2480.310248697896,1929
2482.137548548374,1954
2483.9644487325118,1868
2485.790949538956,1909
2487.617051256433,1919
2489.44275417375,1864
2491.26805857979,1903
2493.0929647635157,1969
2494.917473013971,1954
2496.741583620276,1913
2498.5652968716304,1965
2500.3886130573137,2006
2502.2115324666834,2026
2504.0340553891765,1935
2505.856182114308,1999
2507.6779129316733,1924
2509.499248130945,2001
2511.3201880018764,1957
2513.140732834298,1984
2514.9608829181198,1974
2516.780638543331,1957
2518.6,1977
2520.418967578273,1967
2522.237541568376,1940
2524.0557222606144,1971
2525.8735099453706,1958
2527.6909049131086,1988
2529.507907454368,2001
2531.32451785977,1958
2533.140736420014,1987
2534.9565634258774,2031
2536.771999168218,2086
2538.5870439379714,2029
2540.4016980261526,2063
2542.2159617238544,2054
2544.02983532225,2017
2545.8433191125914,2051
2547.656413386209,2060
2549.4691184345115,2067
2551.2814345489874,2118
2553.093362021204,2084
2554.904901142808,2101
2556.716052205523,2168
2558.526815501153,2108
2560.3371913215824,2136
2562.147179958771,2145
2563.956781704761,2051
2565.7659968516705,2158
2567.5748256916986,2139
2569.3832685171224,2179
2571.1913256202984,2160
2572.9989972936614,2231
2574.806283829725,2209
2576.613185521084,2239
2578.4197026604074,2172
2580.2258355404483,2207
2582.031584454035,2204
2583.836949694077,2324
2585.6419315535613,2227
2587.4465303255533,2220
2589.2507463032002,2289
2591.0545797797245,2235
2592.8580310484303,2318
2594.6611004026995,2267
2596.463788135992,2303
2598.266094541849,2274
2600.0680199138874,2348
2601.869564545807,2246
2603.670728731383,2339
2605.4715127644704,2289
2607.2719169390048,2263
2609.071941548998,2341
2610.8715868885433,2296
2612.670853251811,2244
2614.469740933052,2269
2616.268250226594,2281
2618.0663814268455,2287
2619.864134828292,2313
2621.6615107255006,2346
2623.458509413115,2254
2625.2551311858597,2262
2627.0513763385347,2279
2628.8472451660223,2271
2630.6427379632833,2212
2632.4378550253564,2288
2634.232596647359,2189
2636.026963124488,2169
2637.8209547520187,2240
2639.6145718253065,2241
2641.407814639785,2169
2643.200683490966,2157
2644.9931786744414,2091
2646.7853004858807,2189
2648.577049221034,2174
2650.3684251757277,2125
2652.1594286458712,2044
2653.9500599274484,2108
2655.740319316525,2118
2657.5302071092437,2095
2659.3197236018286,2100
2661.10886909058,2036
2662.8976438718782,2158
2664.686048242183,2093
2666.4740824980327,2001
2668.2617469360443,2091
2670.0490418529134,2126
2671.8359675454153,2034
2673.622524310403,2083
2675.408712444811,1993
2677.1945322456495,2018
2678.979984010009,2054
2680.76506803506,2055
2682.5497846180497,1995
2684.334134056306,2035
2686.1181166472343,1985
2687.9017326883213,2014
2689.6849824771293,2001
2691.4678663113013,1965
2693.2503844885596,1981
2695.032537306705,1974
2696.8143250636167,1998
2698.5957480572542,1986
2700.3768065856534,2006
2702.1575009469316,2038
2703.937831439283,1892
2705.717798360982,2001
2707.4974020103837,1972
2709.276642685917,2014
2711.055520686095,1965
2712.834036309506,1949
2714.612189854819,1921
2716.389981620782,1928
2718.1674119062204,1948
2719.944481010041,1934
2721.721189231226,1903
2723.4975368688415,1882
2725.273524222027,1898
2727.0491515900053,1906
2728.824419272075,1969
2730.5993275676146,1869
2732.3738767760838,1908
2734.148067197016,1886
2735.921899130031,1908
2737.6953728748194,1964
2739.468488731156,1915
2741.2412469988926,1952
2743.0136479779617,1864
2744.785691968372,1886
2746.5573792702116,1929
2748.3287101836504,1913
2750.099685008934,1858
2751.870304046388,1866
2753.640567596418,1918
2755.4104759595057,1896
2757.1800294362156,1902
2758.949228327187,1968
2760.7180729331412,1851
2762.486563554877,1960
2764.254700493272,1952
2766.022484049284,1922
2767.789914523947,1943
2769.5569922183786,1973
2771.3237174337705,1910
2773.090090471394,1920
2774.8561116326036,1940
2776.6217812188274,1921
2778.3870995315756,1859
2780.1520668724356,1926
2781.9166835430747,1912
2783.6809498452394,1888
2785.444866080754,1986
2787.2084325515225,1895
2788.971649559527,1868
2790.73451740683,1850
2792.4970363955713,1922
2794.2592068279705,1841
2796.0210290063264,1897
2797.7825032330147,1875
2799.543629810493,1836
2801.304409041296,1931
2803.0648412280366,1910
2804.8249266734088,1934
2806.5846656801846,1944
2808.344058551212,1929
2810.1031055894246,1905
2811.8618070978273,1901
2813.6201633795085,1942
2815.378174737636,1895
2817.1358414754536,1906
2818.893163896285,1964
2820.6501423035334,1878
2822.4067770006814,1849
2824.1630682912883,1938
2825.9190164789957,1955
2827.6746218675207,1963
2829.429884760661,1906
2831.184805462294,1892
2832.9393842763743,1924
2834.693621506936,1949
2836.4475174580916,2039
2838.201072434034,1951
2839.954286739034,1941
2841.707160677441,1957
2843.459694553685,1889
2845.2118886722724,1937
2846.96374333779,1969
2848.7152588549034,1975
2850.4664355283567,1944
2852.217273662973,1982
2853.9677735636546,1951
2855.7179355353833,1909
2857.4677598832186,1971
2859.217246912299,1968
2860.9663969278427,1881
2862.715210235146,1962
2864.4636871395846,1884
2866.211827946614,1919
2867.9596329617652,1944
2869.7071024906536,2005
2871.4542368389684,1942
2873.20103631248,1939
2874.947501217038,1905
2876.6936318585695,1935
2878.4394285430812,1936
2880.1848915766604,1897
2881.9300212654707,1958
2883.6748179157553,1932
2885.4192818338374,1939
2887.1634133261173,1863
2888.907212699077,1946
2890.6506802592744,1924
2892.393816313348,1992
2894.1366211680142,1905
2895.8790951300693,1933
2897.621238506388,1921
2899.363051603925,1828
2901.1045347297118,1903
2902.8456881908596,1999
2904.58651229456,1938
2906.327007348081,1927
2908.067173658772,1929
2909.8070115340597,1927
2911.5465212814497,1919
2913.285703208527,1936
2915.0245576229563,1946
2916.7630848324807,1849
2918.5012851449196,1838
2920.2391588681758,1884
2921.976706310227,1953
2923.7139277791334,1959
2925.4508235830313,1901
2927.187394030137,1918
2928.923639428745,1921
2930.6595600872306,1898
2932.395156314046,1925
2934.1304284177218,1984
2935.8653767068713,1902
2937.6000014901815,1957
2939.3343030764227,1897
2941.068281774442,1992
2942.8019378931644,1922
2944.5352717415976,1891
2946.2682836288236,1957
2948.0009738640065,1912
2949.7333427563885,1849
2951.465390615289,2014
2953.1971177501086,1970
2954.9285244703265,1942
2956.6596110855,1949
2958.3903779052657,1906
2960.1208252393385,1908
2961.8509533975125,1890
2963.5807626896617,1945
2965.3102534257378,1903
2967.0394259157715,1866
2968.768280469873,1940
2970.496817398232,1940
2972.2250370111146,1993
2973.952939618869,1882
2975.6805255319196,1982
2977.4077950607707,1934
2979.134748516006,1947
2980.861386208289,2024
2982.587708448359,1907
2984.313715547037,2036
2986.039407815222,1935
2987.764785563891,2027
2989.489849104102,1917
2991.2145987469908,1957
2992.9390348037705,1912
2994.6631575857346,1906
2996.3869674042576,1879
2998.1104645707887,1862
2999.83364939686,1896
3001.5565221940783,1928
3003.2790832741334,1931
3005.0013329487924,1886
3006.7232715298996,1851
3008.4448993293804,1910
3010.166216659239,1887
3011.887223831558,1876
3013.607921158498,1877
3015.3283089522993,1955
3017.0483875252826,1941
3018.7681571898443,1882
3020.4876182584626,1962
3022.2067710436927,2000
3023.9256158581707,1923
3025.644153014609,1976
3027.362382825801,1901
3029.0803056046193,1863
3030.797921664012,1846
3032.5152313170106,1911
3034.2322348767225,1886
3035.9489326563353,1891
3037.665324969115,1971
3039.3814121284063,1882
3041.097194447633,1930
3042.812672240299,1872
3044.5278458199855,1909
3046.2427155003525,1926
3047.9572815951406,1934
3049.671544418167,1890
3051.38550428333,1927
3053.0991615046073,1931
3054.812516396051,1882
3056.5255692717974,1894
3058.2383204460575,1872
3059.9507702331257,1945
3061.662918947372,1934
3063.3747669032446,1945
3065.0863144152736,1889
3066.7975617980674,1916
3068.508509366309,1868
3070.219157434767,1943
3071.9295063182844,1914
3073.639556331785,1875
3075.3493077902704,1876
3077.058761008821,1909
3078.7679163025964,1981
3080.476773986837,1923
3082.1853343768594,1923
3083.89359778806,1950
3085.6015645359153,1994
3087.3092349359786,1890
3089.016609303884,1931
3090.7236879553434,1917
3092.4304712061476,1919
3094.136959372166,1965
3095.843152769349,1933
3097.5490517137237,1928
3099.2546565213966,1948
3100.959967508554,1889
3102.66498499146,2013
3104.3697092864577,1995
3106.0741407099695,1929
3107.778279578498,1917
3109.482126208622,1979
3111.1856809170004,1900
3112.8889440203716,1948
3114.5919158355528,1993
3116.294596679439,1994
3117.996986869006,1928
3119.6990867213062,1992
3121.4008965534726,1979
3123.102416682717,1898
3124.803647426329,1972
3126.5045891016784,1894
3128.205242026213,1988
3129.90560651746,1989
3131.605682893025,1915
3133.3054714705922,1942
3135.0049725679282,1980
3136.7041865028714,2017
3138.4031135933465,1918
3140.101754157353,1915
3141.800108512971,1944
3143.498176978357,1906
3145.1959598717494,1970
3146.8934575114636,1866
3148.5906702158954,1863
3150.2875983035183,1896
3151.9842420928853,1848
3153.680601902627,1864
3155.376678051456,1879
3157.07247085816,1914
3158.767980641609,1929
3160.463207720748,1892
3162.158152414606,1900
3163.8528150422862,1938
3165.5471959229726,1900
3167.2412953759303,1880
3168.9351137204976,1957
3170.628651276098,1913
3172.3219083622307,1962
3174.014885298474,1911
3175.707582404485,1869
3177.4000000000005,1891
3179.092138404835,1945
3180.7839979388846,1893
3182.47557892212,1979
3184.166881674594,1918
3185.8579065164386,1915
3187.5486537678626,1929
3189.2391237491547,1945
3190.9293167806827,1905
3192.6192331828934,1956
3194.3088732763117,1890
3195.998237381542,1833
3197.687325819268,1945
3199.376138910251,1911
3201.064676975334,1881
3202.7529403354347,1892
3204.4409293115523,1949
3206.1286442247647,1866
3207.816085396229,1890
3209.5032531471825,1845
3211.190147798936,1875
3212.8767696728846,1877
3214.5631190905015,1830
3216.2491963733373,1907
3217.9350018430214,1912
3219.6205358212637,1900
3221.305798629851,1827
3222.990790590651,1854
3224.6755120256103,1873
3226.359963256751,1885
3228.0441446061795,1862
3229.7280563960758,1964
3231.411698948703,1903
3233.0950725863995,1837
3234.778177631587,1905
3236.461014406761,1935
3238.1435832345005,1863
3239.8258844374595,1847
3241.507918338374,1918
3243.1896852600576,1851
3244.8711855254023,1860
3246.552419457381,1856
3248.233387379042,1936
3249.914089613516,1864
3251.59452648401,1905
3253.274698313813,1936
3254.95460542629,1880
3256.6342481448855,1899
3258.313626793125,1836
3259.9927416946084,1941
3261.6715931730196,1876
3263.3501815521176,1918
3265.0285071557437,1829
3266.706570307815,1865
3268.3843713323286,1892
3270.0619105533615,1868
3271.739188295068,1853
3273.4162048816834,1864
3275.0929606375184,1873
3276.769455886966,1940
3278.445690954498,1919
3280.1216661646613,1855
3281.797381842087,1879
3283.4728383114807,1926
3285.1480358976296,1937
3286.8229749253996,1914
3288.4976557197333,1923
3290.172078605655,1843
3291.846243908266,1897
3293.5201519527463,1801
3295.193803064357,1841
3296.8671975684374,1818
3298.5403357904024,1901
3300.21321805575,1809
3301.8858446900567,1939
3303.558216018975,1876
3305.23033236824,1861
3306.9021940636603,1847
3308.57380143113,1843
3310.2451547966184,1872
3311.916254486174,1856
3313.5871008259246,1880
3315.2576941420766,1833
3316.9280347609147,1841
3318.5981230088046,1841
3320.2679592121895,1847
3321.9375436975924,1895
3323.606876791612,1826
3325.27595882093,1885
3326.944790112305,1803
3328.6133709925753,1869
3330.2817017886573,1860
3331.949782827547,1842
3333.617614436319,1795
3335.2851969421245,1898
3336.952530672199,1845
3338.619615953853,1890
3340.286453114475,1895
3341.9530424815357,1920
3343.619384382583,1921
3345.2854791452437,1916
3346.951327097224,1816
3348.6169285663073,1821
3350.2822838803577,1844
3351.947393367319,1913
3353.61225735521,1926
3355.2768761721345,1851
3356.9412501462693,1839
3358.605379605873,1823
3360.2692648792827,1835
3361.9329062949146,1857
3363.596304181263,1901
