CollectionTime,7/11/2024 12:54:27 PM
ExposureUsed,3
CalibratedSpectrum
-962.7078968117929,833
-959.9714848408522,887
-957.2358232597828,865
-954.5009119013725,896
-951.7667505983302,853
-949.0333391832855,855
-946.3006774887896,901
-943.5687653473143,852
-940.837602591253,885
-938.1071890529199,880
-935.3775245645503,865
-932.6486089583007,899
-929.9204420662485,884
-927.1930237203925,904
-924.4663537526524,885
-921.7404319948689,901
-919.0152582788041,934
-916.2908324361409,958
-913.5671542984834,917
-910.8442236973568,852
-908.1220404642074,877
-905.4006044304027,920
-902.679915427231,876
-899.959973285902,826
-897.2407778375464,882
-894.5223289132158,846
-891.8046263438832,875
-889.0876699604426,925
-886.3714595937089,856
-883.6559950744183,861
-880.9412762332282,893
-878.2273029007168,854
-875.5140749073835,863
-872.8015920836489,868
-870.0898542598545,834
-867.3788612662631,883
-864.6686129330585,893
-861.9591090903457,918
-859.2503495681506,859
-856.5423341964203,881
-853.8350628050229,865
-851.1285352237478,857
-848.4227512823054,907
-845.7177108103272,903
-843.0134136373656,908
-840.3098595928943,895
-837.6070485063082,942
-834.9049802069229,903
-832.2036545239757,885
-829.5030712866244,896
-826.8032303239481,911
-824.1041314649472,889
-821.4057745385428,919
-818.7081593735775,928
-816.0112857988148,906
-813.3151536429393,876
-810.6197627345566,932
-807.9251129021936,918
-805.2312039742981,903
-802.5380357792392,921
-799.8456081453069,939
-797.1539209007124,906
-794.462973873588,944
-791.772766891987,968
-789.083299783884,927
-786.3945723771743,954
-783.7065844996748,937
-781.0193359791231,926
-778.3328266431781,951
-775.6470563194197,927
-772.9620248353489,924
-770.2777320183878,908
-767.5941776958798,925
-764.9113616950891,917
-762.2292838432011,922
-759.5479439673222,891
-756.8673418944801,963
-754.1874774516235,937
-751.5083504656222,924
-748.8299607632671,937
-746.15230817127,974
-743.475392516264,923
-740.7992136248035,930
-738.1237713233636,896
-735.4490654383407,926
-732.7750957960521,936
-730.1018622227365,922
-727.4293645445534,960
-724.7576025875837,914
-722.0865761778291,950
-719.4162851412126,940
-716.7467293035781,999
-714.0779084906909,937
-711.409822528237,949
-708.7424712418238,998
-706.0758544569796,965
-703.4099719991541,1038
-700.7448236937178,990
-698.0804093659622,1054
-695.4167288411002,989
-692.7537819442656,981
-690.0915685005134,953
-687.4300883348199,1016
-684.7693412720819,1036
-682.1093271371178,971
-679.4500457546669,944
-676.7914969493897,970
-674.1336805458676,977
-671.4765963686034,990
-668.8202442420206,973
-666.1646239904642,974
-663.5097354382001,969
-660.8555784094151,1016
-658.2021527282176,1031
-655.5494582186366,1045
-652.8974947046223,1029
-650.2462620100463,999
-647.5957599587009,1029
-644.9459883742998,1039
-642.2969470804776,1036
-639.6486359007902,1050
-637.0010546587141,985
-634.3542031776476,1014
-631.7080812809096,1028
-629.0626887917401,1006
-626.4180255333008,1014
-623.7740913286734,1017
-621.1308860008619,1079
-618.4884093727904,1100
-615.8466612673046,1028
-613.2056415071715,1034
-610.5653499150785,1051
-607.9257863136347,1074
-605.28695052537,1078
-602.6488423727357,1044
-600.0114616781036,1081
-597.3748082637674,1048
-594.7388819519412,1051
-592.1036825647604,1107
-589.4692099242818,1111
-586.8354638524829,1079
-584.2024441712624,1075
-581.5701507024403,1049
-578.9385832677575,1037
-576.3077416888759,1105
-573.6776257873787,1130
-571.0482353847704,1087
-568.4195703024757,1030
-565.7916303618415,1077
-563.164415384135,1065
-560.5379251905453,1085
-557.9121596021815,1064
-555.2871184400748,1052
-552.6628015251767,1094
-550.0392086783606,1049
-547.4163397204204,1036
-544.794194472071,1123
-542.1727727539491,1071
-539.5520743866118,1157
-536.9320991905377,1149
-534.3128469861261,1124
-531.6943175936979,1171
-529.0765108334947,1135
-526.4594265256793,1179
-523.8430644903358,1316
-521.2274245474689,1418
-518.612506517005,1335
-515.9983102187913,1363
-513.3848354725959,1417
-510.77208209810846,1453
-508.16004991493924,1523
-505.5487387426199,1652
-502.9381484006032,1775
-500.3282787082628,1792
-497.71912948489364,1885
-495.1107005497117,1762
-492.5029917218539,1622
-489.8960028203786,1527
-487.28973366426493,1417
-484.68418407241325,1319
-482.07935386364494,1242
-479.47524285670266,1280
-476.87185087025,1330
-474.2691777228715,1250
-471.66722323307334,1245
-469.0659872192821,1245
-466.4654694998459,1227
-463.86566989303384,1266
-461.26658821703614,1209
-458.66822428996414,1228
-456.07057792985,1215
-453.4736489546475,1213
-450.877437182231,1220
-448.28194243039627,1186
-445.68716451686,1217
-443.09310325926003,1257
-440.49975847515555,1220
-437.9071299820263,1201
-435.31521759727354,1268
-432.72402113821954,1259
-430.13354042210767,1270
-427.5437752661022,1240
-424.95472548728867,1244
-422.36639090267386,1262
-419.7787713291855,1323
-417.1918665836721,1360
-414.60567648290385,1317
-412.0202008435715,1340
-409.4354394822874,1299
-406.8513922155845,1284
-404.26805885991723,1293
-401.685439231661,1315
-399.103533147112,1368
-396.522340422488,1313
-393.9418608739278,1243
-391.3620943174908,1205
-388.7830405691583,1213
-386.2046994448317,1159
-383.6270707603344,1123
-381.05015433141045,1055
-378.473949973725,938
-375.8984575028645,902
-373.32367673433623,888
-370.74960748356875,802
-368.1762495659117,752
-365.60360279663576,675
-363.03166699093265,572
-360.4604419639154,558
-357.8899275306178,525
-355.32012350599507,465
-352.7510297049233,465
-350.1826459421999,464
-347.61497203254316,469
-345.04800779059235,439
-342.4817530309082,482
-339.91620756797226,466
-337.35137121618743,477
-334.7872437898774,504
-332.22382510328725,524
-329.66111497058273,492
-327.09911320585127,472
-324.53781962310075,496
-321.9772340362607,486
-319.4173562591816,445
-316.8581861056348,435
-314.2997233893127,474
-311.7419679238294,457
-309.1849195227194,455
-306.62857799943856,528
-304.0729431673641,574
-301.51801483979375,533
-298.963792829947,528
-296.41027695096386,539
-293.85746701590574,561
-291.3053628377552,583
-288.7539642294155,554
-286.2032710037115,531
-283.65328297338897,531
-281.1039999511146,548
-278.5554217494762,578
-276.007548180983,587
-273.4603790580651,574
-270.9139141930734,557
-268.3681533982807,558
-265.8230964858798,579
-263.27874326798565,619
-260.7350935566336,609
-258.1921471637804,608
-255.6499039013039,578
-253.10836358100266,592
-250.56752601459698,591
-248.02739101372765,577
-245.48795838995704,600
-242.94922795476816,688
-240.41119951956557,663
-237.8738728956746,694
-235.33724789434166,668
-232.80132432673452,574
-230.2661020039418,614
-227.73158073697357,601
-225.19776033676033,603
-222.66464061415422,641
-220.1322213799284,600
-217.60050244477725,630
-215.06948361931552,595
-212.53916471408013,642
-210.00954553952818,682
-207.48062590603843,672
-204.9524056239104,692
-202.4248845033651,680
-199.8980623545441,701
-197.37193898751036,740
-194.84651421224817,709
-192.32178783866232,749
-189.79775967657952,758
-187.27442953574644,856
-184.7517972258321,782
-182.2298625564256,756
-179.7086253370378,700
-177.18808537710026,706
-174.66824248596583,701
-172.14909647290835,707
-169.6306471471229,805
-167.11289431772548,831
-164.59583779375328,843
-162.07947738416453,792
-159.5638128978386,799
-157.04884414357605,820
-154.53457093009854,935
-152.02099306604828,855
-149.50811035998936,798
-146.99592262040665,852
-144.48442965570587,917
-141.97363127421409,968
-139.46352728417958,1042
-136.95411749377126,1060
-134.44540171107985,985
-131.93737974411636,834
-129.43005140081357,788
-126.92341648902493,926
-124.41747481652521,1205
-121.91222619101006,1669
-119.40767042009657,1962
-116.90380731132257,2147
-114.40063667214702,1958
-111.8981583099503,1939
-109.3963720320337,2107
-106.89527764561933,2542
-104.39487495785067,3273
-101.89516377579241,3763
-99.39614390642998,3588
-96.89781515667039,2785
-94.40017733334128,2451
-91.90323024319173,4051
-89.40697369289148,7699
-86.91140748903172,12443
-84.41653143812482,13845
-81.92234534660395,10004
-79.42884902082358,5925
-76.93604226705907,4045
-74.4439248915071,7183
-71.95249670028534,12904
-69.46175749943245,18773
-66.97170709490854,19233
-64.48234529259423,15810
-61.99367189829195,13013
-59.50568671772464,11780
-57.01838955653636,9379
-54.53178022029283,6168
-52.045858514480074,5219
-49.560624244506016,5723
-47.07607721569923,6251
-44.59221723330904,7430
-42.10904410250669,9255
-39.62655762838392,10084
-37.14475761595372,10315
-34.66364387015028,9391
-32.18321619582866,8523
-29.70347439776515,7897
-27.224418280657005,6855
-24.74604764912317,7481
-22.26836230770266,10879
-19.7913620608565,18750
-17.315046712966478,30981
-14.83941606833514,39176
-12.36446993118659,65038
-9.89020810566592,65038
-7.416630395839093,65038
-4.94373660569363,65038
-2.471526539137585,65038
-6.821210263296962E-13,65038
2.47084320796705,65038
4.941003281093458,65038
7.410480415786196,65038
9.879274808531363,65038
12.347386655893956,65038
14.814816154518212,65038
17.28156350112681,65038
19.74762889252179,65038
22.21301252558385,65038
24.67771459727237,20534
27.141735304626195,4183
29.605074844762612,2482
32.06773341487792,2684
34.52971121224755,2735
36.99100843422559,2516
39.45162527824516,2236
41.91156194181792,1878
44.370818622535126,1774
46.82939551806646,1500
49.287292826160524,1472
51.74451074464503,1772
54.201049471426245,1987
56.65690920448981,2098
59.112090141899785,1647
61.56659248179983,1418
64.02041642241159,1165
66.4735621620365,1130
68.92602989905402,1097
71.37781983192338,1212
73.82893215918205,1496
76.27936707944684,1699
78.72912479141326,1353
81.17820549385567,1247
83.62660938562783,1323
86.07433666566146,1146
88.5213875329681,949
90.96776218663751,816
93.41346082583925,867
95.85848364982041,947
98.30283085790859,1279
100.7465026495089,1387
103.18949922410604,1163
105.63182078126385,1050
108.07346752062438,1012
110.51443964190923,1001
112.95473734491827,926
115.39436082953114,933
117.83331029570547,1161
120.27158594347827,1147
122.7091879729652,1232
125.1461165843615,1234
127.58237197794062,1071
130.01795435405518,1003
132.4528639131364,916
134.88710085569494,946
137.32066538231982,887
139.75355769367923,923
142.1857779905207,932
144.61732647366978,912
147.04820334403132,871
149.47840880258934,915
151.90794305040674,974
154.33680628862487,1178
156.76499871846443,1323
159.19252054122433,1522
161.61937195828352,1548
164.04555317109896,1655
166.47106438120693,1932
168.89590579022217,2066
171.320077599839,2192
173.7435800118302,2318
176.16641322804742,2437
178.58857745042144,2501
181.01007288096173,2665
183.43089972175687,2616
185.85105817497413,2730
188.27054844285988,2770
190.6893707277394,2680
193.10752523201643,2683
195.5250121581745,2898
197.9418317087751,2995
200.3579840864594,2837
202.7734694939469,2890
205.18828813403627,3007
207.6024402096051,3068
210.01592592360964,3163
212.42874547908548,3020
214.84089907914665,3005
217.2523869269868,2859
219.66320922587727,2901
222.0733661791695,2895
224.48285799029293,2854
226.8916848627572,2999
229.29984700014882,3051
231.7073446061355,2988
234.11417788446204,2959
236.520347038953,3069
238.92585227351185,3028
241.33069379212054,3104
243.73487179884035,3171
246.1383864978112,3168
248.541238093252,3122
250.9434267894609,3076
253.34495279081432,3144
255.74581630176783,3243
258.1460175268563,3126
260.54555667069314,3057
262.9444339379703,3081
265.3426495334594,3047
267.7402036620107,3051
270.1370965285529,2986
272.53332833809407,2955
274.9288992957214,2849
277.32380960660055,2758
279.718059475976,2690
282.1116491091717,2833
284.5045787115897,2685
286.89684848871195,2700
289.2884586460981,2704
291.67940938938807,2706
294.0697009242996,2732
296.4593334566299,2705
298.84830719225477,2695
301.23662233712923,2767
303.6242790972866,2610
306.01127767884,2687
308.39761828798066,2632
310.78330113097934,2597
313.16832641418534,2569
315.5526943440269,2477
317.9364051270112,2470
320.3194589697242,2655
322.70185607883093,2506
325.0835966610754,2493
327.4646809232805,2419
329.8451090723478,2418
332.2248813152577,2425
334.6039978590701,2409
336.9824589109231,2461
339.36026467803447,2447
341.7374153677,2335
344.113911187295,2386
346.48975234427337,2341
348.8649390461686,2388
351.2394715005918,2375
353.61334991523415,2329
355.9865744978655,2283
358.35914545633375,2289
360.73106299856715,2363
363.10232733257146,2376
365.47293866643247,2357
367.84289720831396,2258
370.2122031664593,2222
372.5808567491905,2270
374.9488581649083,2250
377.31620762209275,2145
379.6829053293021,2243
382.0489514951745,2220
384.4143463284262,2254
386.7790900378528,2128
389.14318283232853,2250
391.50662492080653,2194
393.86941651231916,2296
396.23155781597745,2309
398.5930490409713,2210
400.9538903965696,2231
403.3140820921202,2122
405.6736243370498,2209
408.03251734086336,2183
410.3907613131465,2163
412.74835646356166,2095
415.10530300185144,2144
417.4616011378372,2162
419.81725108141893,2161
422.1722530425758,2164
424.5266072313656,2096
426.880313857925,2039
429.2333731324701,2137
431.58578526529516,2106
433.9375504667738,2121
436.2886689473588,2092
438.63914091758113,2146
440.9889665880513,2133
443.33814616945835,2144
445.68667987257015,1993
448.03456790823395,2098
450.3818104873759,2053
452.72840782100013,2049
455.07436012019105,2071
457.41966759611057,2071
459.7643304600007,2123
462.10834892318155,2090
464.4517231970525,2053
466.79445349309174,2145
469.1365400228566,2085
471.4779829979826,2086
473.81878263018564,2095
476.15893913125876,2108
478.4984527130747,2096
480.8373235875855,2247
483.17555196682144,2199
485.5131380628919,2243
487.8500820879857,2368
490.1863842543697,2349
492.52204477439034,2508
494.8570638604725,2737
497.1914417251204,2868
499.52517858091653,3060
501.85827464052306,3186
504.19073011668036,3272
506.5225452222086,3210
508.85372017000566,3218
511.18425517304956,3139
513.514150444396,3199
515.8434061971808,3650
518.1720226446176,4234
520.4999999999999,4484
522.8273384766991,4214
525.1540382881666,4057
527.480099647932,3591
529.8055227696037,3071
532.1303078668694,2588
534.454455153496,2317
536.777964843328,2255
539.1008371502907,2183
541.4230722883866,2165
543.744670471698,2197
546.0656319143858,2165
548.3859568306899,2096
550.7056454349294,2117
553.0246979415016,2091
555.3431145648834,2102
557.6608955196306,2107
559.978041020377,2166
562.2945512818363,2070
564.6104265188006,2111
566.9256669461412,2046
569.2402727788082,2152
571.5542442318302,2136
573.8675815203156,2098
576.1802848594508,2033
578.4923544645015,2073
580.8037905508126,2101
583.114593333807,2104
585.4247630289875,2148
587.7342998519354,2086
590.0432040183106,2162
592.3514757438526,2066
594.6591152443794,2144
596.9661227357875,2075
599.2724984340531,2114
601.578242555231,2144
603.8833553154542,2121
606.1878369309362,2111
608.4916876179676,2104
610.7949075929192,2040
613.0974970722403,2106
615.3994562724587,2049
617.7007854101818,2078
620.0014847020951,2074
622.3015543649641,2155
624.6009946156324,2108
626.8998056710224,2091
629.1979877481361,2145
631.4955410640538,2130
633.7924658359349,2145
636.0887622810175,2091
638.3844306166192,2139
640.6794710601358,2164
642.9738838290426,2187
645.2676691408932,2122
647.5608272133207,2153
649.853358264037,2174
652.1452625108324,2199
654.4365401715764,2235
656.7271914642178,2175
659.0172166067838,2244
661.3066158173809,2157
663.5953893141935,2155
665.8835373154867,2129
668.1710600396028,2218
670.4579577049639,2179
672.7442305300709,2187
675.0298787335033,2131
677.3149025339197,2126
679.599302150058,2055
681.8830778007342,2136
684.1662297048437,2120
686.4487580813608,2122
688.7306631493387,2189
691.0119451279091,2224
693.2926042362834,2162
695.5726406937516,2137
697.8520547196814,2138
700.1308465335215,2135
702.4090163547982,2153
704.6865644031171,2130
706.9634908981619,2060
709.2397960596965,2153
711.5154801075631,2200
713.7905432616823,2185
716.0649857420548,2243
718.3388077687592,2119
720.612009561953,2107
722.8845913418733,2161
725.1565533288352,2137
727.427895743234,2146
729.6986188055427,2178
731.9687227363137,2199
734.238207756178,2181
736.5070740858458,2126
738.7753219461066,2208
741.0429515578281,2195
743.3099631419569,2089
745.5763569195191,2219
747.8421331116193,2076
750.1072919394409,2122
752.3718336242467,2167
754.6357583873777,2110
756.8990664502545,2172
759.1617580343765,2134
761.423833361321,2185
763.6852926527457,2217
765.9461361303862,2167
768.206364016058,2207
770.4659765316536,2278
772.7249738991469,2210
774.9833563405886,2179
777.2411240781092,2169
779.4982773339183,2112
781.7548163303044,2152
784.010741289634,2203
786.2660524343538,2226
788.5207499869881,2143
790.7748341701416,2193
793.0283052064964,2193
795.2811633188143,2173
797.5334087299362,2185
799.7850416627813,2197
802.0360623403484,2198
804.2864709857143,2142
806.5362678220353,2145
808.7854530725468,2267
811.0340269605625,2137
813.2819897094754,2150
815.5293415427581,2202
817.77608268396,2194
820.0222133567116,2248
822.2677337847211,2182
824.5126441917765,2219
826.7569448017433,2142
829.0006358385675,2103
831.2437175262731,2090
833.4861900889629,2188
835.7280537508192,2139
837.9693087361026,2160
840.2099552691533,2188
842.4499935743896,2208
844.689423876309,2120
846.9282463994886,2147
849.1664613685833,2235
851.4040690083276,2171
853.6410695435349,2188
855.877463199097,2227
858.1132501999847,2145
860.3484307712487,2245
862.5830051380175,2205
864.8169735254988,2177
867.0503361589791,2242
869.2830932638243,2275
871.5152450654786,2221
873.7467917894654,2245
875.9777336613873,2164
878.2080709069252,2225
880.4378037518389,2195
882.666932421968,2295
884.8954571432301,2208
887.1233781416219,2343
889.3506956432192,2243
891.5774098741766,2298
893.803521060728,2227
896.0290294291852,2223
898.2539352059397,2271
900.4782386174619,2270
902.7019398903011,2205
904.925039251085,2217
907.147536926521,2296
909.3694331433943,2260
911.59072812857,2149
913.8114221089921,2204
916.0315153116827,2186
918.2510079637437,2267
920.4699002923547,2200
922.6881925247761,2207
924.905884888345,2223
927.1229776104793,2158
929.3394709186747,2154
931.555365040506,2204
933.7706602036275,2202
935.9853566357709,2126
938.1994545647489,2170
940.4129542184515,2149
942.6258558248488,2139
944.8381596119883,2166
947.0498658079974,2168
949.2609746410825,2089
951.4714863395287,2100
953.6814011316998,2188
955.8907192460387,2128
958.0994409110671,2096
960.3075663553858,2122
962.5150958076741,2130
964.7220294966913,2122
966.928367651274,2137
969.1341105003388,2104
971.3392582728806,2156
973.5438111979742,2063
975.747769504772,2097
977.9511334225061,2108
980.153903180487,2124
982.3560790081052,2113
984.5576611348289,2084
986.7586497902058,2087
988.9590452038618,2038
991.158847605503,1992
993.3580572249133,2055
995.5566742919558,2033
997.7546990365728,2009
999.952131688785,1995
1002.1489724786926,1966
1004.3452216364743,1972
1006.5408793923874,1860
1008.7359459767691,1990
1010.9304216200343,1973
1013.1243065526781,1923
1015.3176010052733,1904
1017.510305208472,1857
1019.7024193930064,1892
1021.8939437896848,1916
1024.0848786293977,1845
1026.2752241431122,1870
1028.4649805618747,1848
1030.6541481168115,1913
1032.842727039127,1916
1035.0307175601051,1901
1037.2181199111074,1849
1039.4049343235752,1822
1041.591161029029,1831
1043.7768002590683,1824
1045.9618522453698,1863
1048.1463172196918,1865
1050.3301954138697,1927
1052.513487059818,1856
1054.69619238953,1850
1056.8783116350783,1864
1059.0598450286152,1821
1061.2407928023704,1883
1063.4211551886528,1827
1065.6009324198508,1761
1067.780124728432,1830
1069.9587323469414,1865
1072.1367555080046,1833
1074.314194444325,1840
1076.4910493886855,1781
1078.667320573947,1833
1080.843008233051,1777
1083.0181125990161,1814
1085.1926339049414,1827
1087.3665723840027,1830
1089.5399282694575,1769
1091.7127017946405,1804
1093.8848931929647,1748
1096.0565026979243,1738
1098.2275305430899,1804
1100.3979769621128,1804
1102.567842188722,1736
1104.737126456726,1671
1106.9058300000124,1776
1109.0739530525475,1766
1111.2414958483764,1723
1113.4084586216231,1776
1115.5748416064907,1793
1117.7406450372605,1743
1119.9058691482942,1735
1122.0705141740304,1822
1124.2345803489884,1775
1126.3980679077658,1689
1128.5609770850388,1784
1130.7233081155623,1766
1132.8850612341707,1697
1135.0462366757774,1749
1137.2068346753745,1759
1139.3668554680326,1776
1141.526299288901,1749
1143.68516637321,1771
1145.8434569562655,1776
1148.001171273455,1780
1150.158309560244,1679
1152.3148720521767,1779
1154.470858984876,1757
1156.626270594044,1777
1158.7811071154629,1712
1160.9353687849912,1752
1163.089055838569,1698
1165.242168512213,1703
1167.3947070420209,1740
1169.5466716641677,1658
1171.6980626149075,1746
1173.8488801305748,1744
1175.9991244475814,1682
1178.1487958024186,1747
1180.2978944316555,1755
1182.4464205719428,1762
1184.5943744600072,1605
1186.7417563326567,1716
1188.8885664267755,1742
1191.0348049793297,1693
1193.1804722273619,1761
1195.325568407995,1770
1197.4700937584303,1684
1199.614048515948,1648
1201.7574329179074,1752
1203.900247201746,1788
1206.042491604982,1670
1208.1841663652099,1697
1210.3252717201053,1751
1212.465807907422,1756
1214.6057751649923,1766
1216.7451737307279,1798
1218.8840038426192,1766
1221.0222657387353,1762
1223.1599596572241,1757
1225.2970858363137,1738
1227.4336445143094,1787
1229.5696359295966,1764
1231.705060320639,1776
1233.8399179259786,1785
1235.9742089842384,1847
1238.107933734118,1819
1240.2410924143974,1835
1242.373685263935,1836
1244.5057125216676,1767
1246.6371744266116,1776
1248.7680712178621,1791
1250.898403134593,1798
1253.028170416058,1797
1255.1573733015875,1806
1257.2860120305932,1857
1259.4140868425648,1794
1261.54159797707,1872
1263.6685456737569,1844
1265.7949301723515,1837
1267.9207517126597,1811
1270.046010534565,1828
1272.1707068780306,1887
1274.2948409830983,1806
1276.4184130898889,1832
1278.541423438603,1863
1280.6638722695184,1805
1282.785759822993,1867
1284.9070863394636,1846
1287.0278520594447,1845
1289.1480572235314,1875
1291.2677020723963,1890
1293.3867868467923,1857
1295.5053117875495,1874
1297.623277135579,1907
1299.740683131868,1982
1301.8575300174857,1881
1303.973818033578,1946
1306.0895474213703,1917
1308.2047184221678,1898
1310.3193312773528,1973
1312.4333862283888,1939
1314.5468835168163,1994
1316.659823384255,1942
1318.7722060724045,1983
1320.8840318230418,1959
1322.9953008780249,1963
1325.1060134792888,1941
1327.2161698688478,1961
1329.3257702887959,1969
1331.4348149813054,1902
1333.5433041886276,1919
1335.6512381530933,2017
1337.7586171171101,1958
1339.8654413231675,1888
1341.9717110138317,1828
1344.0774264317488,1985
1346.1825878196432,1929
1348.2871954203192,1948
1350.3912494766587,1948
1352.4947502316231,1918
1354.5976979282532,1871
1356.7000928096686,1855
1358.8019351190665,1888
1360.9032250997243,1949
1363.0039629949988,1891
1365.1041490483235,1908
1367.2037835032133,1896
1369.3028666032606,1955
1371.401398592137,1959
1373.4993797135926,1959
1375.5968102114575,1933
1377.6936903296396,1960
1379.7900203121262,1897
1381.8858004029835,1949
1383.9810308463561,1958
1386.075711886469,1957
1388.1698437676241,2026
1390.2634267342032,1994
1392.356461030667,2000
1394.4489469015557,2018
1396.5408845914872,2050
1398.6322743451592,2055
1400.7231164073469,2047
1402.813411022907,2067
1404.903158436773,2000
1406.9923588939578,1988
1409.0810126395531,1978
1411.1691199187303,2030
1413.2566809767386,2029
1415.343696058907,2059
1417.4301654106425,2088
1419.5160892774315,2089
1421.6014679048399,2062
1423.6863015385125,2087
1425.7705904241707,2074
1427.8543348076178,2110
1429.9375349347342,2089
1432.0201910514802,2093
1434.102303403894,2115
1436.1838722380944,2211
1438.2648978002767,2208
1440.3453803367174,2166
1442.4253200937692,2186
1444.5047173178677,2269
1446.5835722555234,2292
1448.6618851533285,2261
1450.739656257952,2250
1452.8168858161434,2300
1454.8935740747306,2400
1456.96972128062,2347
1459.045327680797,2301
1461.120393522327,2404
1463.1949190523528,2348
1465.2689045180973,2443
1467.3423501668608,2545
1469.415256246024,2611
1471.4876230030463,2612
1473.559450685465,2607
1475.6307395408976,2641
1477.7014898170391,2760
1479.771701761665,2719
1481.8413756226287,2693
1483.9105116478618,2738
1485.9791100853772,2776
1488.0471711832643,2845
1490.1146951896926,2819
1492.1816823529098,2818
1494.2481329212433,3030
1496.3140471430984,3012
1498.3794252669609,2974
1500.4442675413939,3073
1502.5085742150404,3018
1504.572345536622,3101
1506.6355817549388,3113
1508.6982831188702,3170
1510.7604498773744,3168
1512.8220822794883,3179
1514.8831805743293,3236
1516.9437450110909,3270
1519.003775839048,3283
1521.0632733075522,3447
1523.1222376660367,3466
1525.1806691640113,3378
1527.2385680510652,3413
1529.2959345768668,3438
1531.3527689911643,3400
1533.4090715437833,3521
1535.4648424846291,3593
1537.5200820636855,3656
1539.5747905310159,3662
1541.6289681367616,3748
1543.6826151311434,3794
1545.7357317644614,3825
1547.7883182870937,3853
1549.8403749494987,3843
1551.8919020022113,3925
1553.9428996958477,4068
1555.9933682811015,4081
1558.0433080087469,4189
1560.0927191296346,4265
1562.1416018946961,4262
1564.1899565549415,4164
1566.2377833614592,4167
1568.2850825654164,4125
1570.3318544180606,3991
1572.3780991707158,3925
1574.423817074788,3790
1576.4690083817595,3612
1578.5136733431923,3479
1580.5578122107272,3415
1582.601425236085,3223
1584.6445126710646,3095
1586.6870747675434,2967
1588.7291117774776,2888
1590.7706239529034,2832
1592.8116115459347,2758
1594.8520748087658,2652
1596.8920139936686,2503
1598.9314293529933,2463
1600.9703211391711,2428
1603.008689604711,2359
1605.0465350022005,2374
1607.0838575843068,2278
1609.1206576037753,2228
1611.1569353134305,2191
1613.1926909661765,2129
1615.2279248149953,2135
1617.2626371129481,2133
1619.2968281131757,2159
1621.3304980688963,2134
1623.3636472334088,2038
1625.39627586009,2092
1627.428384202396,2063
1629.459972513861,2103
1631.4910410480993,2040
1633.5215900588028,2058
1635.551619799744,2008
1637.5811305247717,2070
1639.6101224878166,2013
1641.6385959428862,1886
1643.6665511440683,1977
1645.693988345528,1984
1647.7209078015112,1945
1649.7473097663405,1966
1651.7731944944203,1952
1653.7985622402307,1901
1655.823413258333,1933
1657.847747803366,1989
1659.8715661300494,1983
1661.8948684931793,1941
1663.9176551476316,1956
1665.9399263483624,1931
1667.9616823504057,1944
1669.982923408873,1919
1672.0036497789574,1936
1674.0238617159293,1948
1676.043559475138,1971
1678.0627433120121,1937
1680.081413482059,1979
1682.0995702408654,1960
1684.117213844096,1923
1686.134344547495,2003
1688.1509626068864,1949
1690.1670682781705,1965
1692.182661817329,1917
1694.1977434804217,1933
1696.2123135235875,1861
1698.226372203043,1949
1700.2399197750851,1944
1702.2529564960905,1935
1704.2654826225112,1955
1706.277498410882,1994
1708.2890041178139,1984
1710.2999999999988,1909
1712.3104863142066,1918
1714.3204633172854,1895
1716.329931266163,1966
1718.3388904178469,1908
1720.3473410294214,1946
1722.3552833580516,1908
1724.3627176609807,1904
1726.3696441955308,1928
1728.3760632191033,2012
1730.3819749891782,1922
1732.3873797633146,1936
1734.3922777991502,1948
1736.3966693544012,1878
1738.4005546868639,1887
1740.4039340544127,1879
1742.406807715001,1847
1744.4091759266616,1864
1746.4110389475054,1874
1748.4123970357223,1862
1750.413250449582,1898
1752.4135994474318,1864
1754.4134442876993,1839
1756.4127852288902,1918
1758.4116225295893,1825
1760.4099564484595,1793
1762.407787244244,1810
1764.405115175764,1809
1766.4019405019203,1853
1768.3982634816916,1870
1770.3940843741357,1837
1772.3894034383907,1827
1774.3842209336717,1786
1776.378537119274,1864
1778.372352254571,1829
1780.3656665990156,1874
1782.3584804121397,1851
1784.3507939535534,1768
1786.3426074829463,1819
1788.3339212600863,1825
1790.3247355448211,1831
1792.3150505970766,1834
1794.3048666768573,1848
1796.2941840442477,1789
1798.2830029594106,1797
1800.2713236825884,1932
1802.2591464741004,1813
1804.2464715943465,1729
1806.2332993038058,1819
1808.2196298630352,1837
1810.2054635326708,1882
1812.190800573428,1816
1814.175641246101,1813
1816.1599858115628,1803
1818.1438345307652,1820
1820.127187664738,1820
1822.1100454745924,1852
1824.092408221516,1801
1826.0742761667766,1803
1828.055649571721,1804
1830.0365286977735,1891
1832.0169138064398,1844
1833.9968051593014,1855
1835.9762030180214,1759
1837.9551076443408,1889
1839.9335193000788,1811
1841.9114382471344,1789
1843.888864747485,1841
1845.8657990631878,1848
1847.842241456378,1785
1849.8181921892697,1805
1851.7936515241558,1826
1853.7686197234098,1797
1855.7430970494815,1740
1857.7170837649014,1746
1859.6905801322787,1807
1861.6635864143004,1885
1863.6361028737338,1827
1865.608129773424,1895
1867.5796673762961,1748
1869.5507159453537,1810
1871.521275743678,1829
1873.4913470344313,1879
1875.4609300808534,1876
1877.4300251462632,1791
1879.3986324940588,1870
1881.366752387717,1839
1883.3343850907936,1800
1885.3015308669228,1829
1887.268189979819,1868
1889.2343626932739,1890
1891.2000492711595,1840
1893.1652499774254,1843
1895.1299650761011,1879
1897.0941948312952,1832
1899.0579395071945,1853
1901.0211993680641,1898
1902.98397467825,1821
1904.9462657021745,1863
1906.9080727043415,1863
1908.869395949332,1802
1910.8302357018065,1806
1912.790592226504,1820
1914.7504657882428,1916
1916.7098566519212,1848
1918.6687650825133,1864
1920.6271913450764,1874
1922.5851357047422,1851
1924.5425984267245,1843
1926.499579776314,1838
1928.4560800188833,1830
1930.4120994198802,1886
1932.367638244833,1857
1934.32269675935,1949
1936.2772752291175,1893
1938.231373919899,1789
1940.1849930975404,1858
1942.1381330279637,1841
1944.0907939771696,1845
1946.0429762112412,1862
1947.9946799963363,1871
1949.9459055986945,1902
1951.896653284633,1902
1953.8469233205478,1832
1955.7967159729142,1773
1957.7460315082863,1906
1959.6948701932974,1815
1961.6432322946594,1838
1963.5911180791632,1817
1965.5385278136787,1857
1967.4854617651545,1840
1969.4319202006182,1829
1971.377903387176,1852
1973.3234115920136,1897
1975.268445082395,1799
1977.2130041256642,1832
1979.1570889892423,1865
1981.1006999406304,1850
1983.04383724741,1874
1984.986501177238,1896
1986.928691997853,1846
1988.8704099770712,1853
1990.811655382789,1792
1992.7524284829801,1859
1994.692729545698,1884
1996.6325588390755,1855
1998.5719166313224,1926
2000.5108031907307,1908
2002.4492187856677,1896
2004.387163684583,1875
2006.3246381560011,1860
2008.2616424685298,1863
2010.1981768908527,1835
2012.1342416917332,1905
2014.069837140014,1874
2016.0049635046162,1834
2017.9396210545406,1813
2019.8738100588666,1835
2021.8075307867502,1880
2023.740783507431,1859
2025.6735684902228,1786
2027.6058860045214,1873
2029.5377363198004,1871
2031.4691197056118,1781
2033.4000364315875,1840
2035.3304867674374,1830
2037.260470982952,1849
2039.189989347998,1848
2041.1190421325232,1841
2043.047629606554,1837
2044.9757520401945,1811
2046.9034097036288,1789
2048.8306028671195,1844
2050.7573318010086,1874
2052.683596775716,1794
2054.609398061742,1786
2056.5347359296647,1785
2058.4596106501403,1885
2060.384022493906,1848
2062.3079717317764,1858
2064.231458634646,1849
2066.1544834734873,1818
2068.077046519352,1858
2069.99914804337,1808
2071.9207883167524,1857
2073.8419676107865,1848
2075.7626861968406,1828
2077.6829443463607,1838
2079.6027423308715,1853
2081.522080421977,1854
2083.440958891362,1864
2085.359378010786,1830
2087.2773380520907,1786
2089.194839287196,1834
2091.111881988101,1819
2093.0284664268825,1833
2094.9445928756973,1879
2096.86026160678,1804
2098.775472892446,1898
2100.690227005088,1793
2102.604524217178,1868
2104.5183648012676,1846
2106.431749029985,1878
2108.34467717604,1782
2110.2571495122206,1819
2112.169166311393,1807
2114.080727846503,1852
2115.9918343905747,1820
2117.902486216711,1879
2119.8126835980956,1896
2121.722426807987,1869
2123.6317161197285,1859
2125.5405518067364,1854
2127.448934142509,1911
2129.356863400624,1860
2131.264339854737,1855
2133.1713637785815,1883
2135.077935445972,1853
2136.9840551308002,1852
2138.889723107037,1881
2140.7949396487334,1879
2142.699705030018,1881
2144.6040195250994,1899
2146.507883408264,1864
2148.4112969538774,1852
2150.3142604363848,1878
2152.2167741303097,1904
2154.1188383102535,1920
2156.0204532508997,1811
2157.9216192270064,1830
2159.822336513414,1942
2161.7226053850413,1888
2163.622426116884,1870
2165.5217989840185,1871
2167.4207242616,1844
2169.319202224862,1912
2171.2172331491165,1907
2173.1148173097563,1898
2175.0119549822507,1946
2176.90864644215,1899
2178.8048919650823,1946
2180.7006918267534,1958
2182.596046302952,1934
2184.4909556695407,1973
2186.3854202024645,1948
2188.279440177746,1970
2190.173015871487,1935
2192.066147559868,1965
2193.958835519149,1929
2195.851080025667,1834
2197.7428813558417,1968
2199.6342397861667,1858
2201.5251555932186,1905
2203.415629053651,1969
2205.3056604441986,1954
2207.19525004167,1940
2209.084398122958,1922
2210.9731049650327,1941
2212.861370844941,1905
2214.749196039812,1968
2216.636580826851,1921
2218.523525483344,2068
2220.410030286655,2020
2222.296095514226,1992
2224.1817214435805,2001
2226.066908352319,1989
2227.951656518121,2058
2229.835966218746,1966
2231.71983773203,1977
2233.6032713358913,2053
2235.486267308324,1985
2237.3688259274036,1952
2239.2509474712824,1987
2241.132632218193,1968
2243.013880446447,2022
2244.8946924344323,2017
2246.7750684606203,1902
2248.6550088035574,2022
2250.534513741871,2036
2252.413583554265,1980
2254.292218519526,1981
2256.170418916517,1905
2258.0481850241786,1928
2259.925517121534,1906
2261.8024154876825,1967
2263.678880401803,1954
2265.5549121431536,1954
2267.430510991071,1988
2269.305677224971,1955
2271.180411124348,1923
2273.0547129687766,1995
2274.9285830379076,1922
2276.8020216114737,1998
2278.6750289692845,1967
2280.5476053912294,2009
2282.4197511572766,1981
2284.2914665474727,2015
2286.162751841943,2067
2288.0336073208937,2016
2289.904033264608,1953
2291.774029953448,2011
2293.6435976678554,1899
2295.5127366883517,2013
2297.381447295534,1988
2299.2497297700825,1859
2301.1175843927526,1954
2302.9850114443825,1919
2304.852011205885,1867
2306.7185839582553,1783
2308.5847299825664,1877
2310.4504495599676,1814
2312.3157429716925,1809
2314.1806104990483,1781
2316.0450524234247,1844
2317.9090690262888,1735
2319.772660589186,1737
2321.635827393742,1792
2323.498569721661,1842
2325.3608878547248,1786
2327.2227820747967,1842
2329.0842526638157,1800
2330.945299903803,1747
2332.805924076857,1762
2334.6661254651535,1870
2336.525904350951,1811
2338.3852610165827,1789
2340.244195744464,1800
2342.102708817088,1841
2343.9608005170253,1836
2345.8184711269287,1794
2347.675720929526,1796
2349.532550207628,1884
2351.38895924412,1816
2353.24494832197,1726
2355.100517724223,1731
2356.955667734004,1777
2358.810398634514,1837
2360.664710709037,1839
2362.5186042409337,1784
2364.3720795136437,1867
2366.225136810686,1823
2368.0777764156583,1855
2369.929998612237,1819
2371.7818036841777,1800
2373.633191915315,1801
2375.484163589562,1866
2377.3347189909114,1854
2379.184858403434,1825
2381.03458211128,1934
2382.8838903986775,1906
2384.732783549936,1840
2386.5812618494406,1899
2388.4293255816588,1843
2390.2769750311327,1788
2392.1242104824883,1799
2393.971032220427,1838
2395.8174405297295,1798
2397.6634356952563,1837
2399.509018001947,1905
2401.3541877348193,1879
2403.1989451789705,1908
2405.043290619576,1775
2406.8872243418905,1830
2408.730746631247,1874
2410.5738577730594,1891
2412.4165580528183,1772
2414.258847756095,1836
2416.100727168537,1938
2417.9421965758734,1851
2419.783256263912,1814
2421.623906518538,1854
2423.4641476257157,1940
2425.303979871491,1928
2427.143403541984,1772
2428.9824189233977,1831
2430.821026302012,1819
2432.6592259641866,1777
2434.497018196361,1807
2436.33440328505,1839
2438.171381516851,1862
2440.00795317844,1888
2441.844118556569,1823
2443.6798779380724,1827
2445.5152316098606,1846
2447.3501798589255,1802
2449.1847229723357,1876
2451.0188612372403,1817
2452.8525949408663,1889
2454.6859243705203,1875
2456.518849813587,1808
2458.3513715575314,1785
2460.183489889895,1840
2462.015205098301,1826
2463.8465174704493,1926
2465.67742729412,1831
2467.5079348571717,1872
2469.338040447542,1823
2471.1677443532476,1863
2472.9970468623833,1848
2474.825948263123,1808
2476.6544488437207,1931
2478.482548892508,1880
2480.310248697896,1823
2482.137548548374,1840
2483.9644487325118,1815
2485.790949538956,1871
2487.617051256433,1849
2489.44275417375,1895
2491.26805857979,1852
2493.0929647635157,1912
2494.917473013971,1885
2496.741583620276,1893
2498.5652968716304,1899
2500.3886130573137,1926
2502.2115324666834,1846
2504.0340553891765,1952
2505.856182114308,1928
2507.6779129316733,1894
2509.499248130945,1908
2511.3201880018764,1889
2513.140732834298,1951
2514.9608829181198,1892
2516.780638543331,1956
2518.6,1943
2520.418967578273,1868
2522.237541568376,1949
2524.0557222606144,1938
2525.8735099453706,1911
2527.6909049131086,1907
2529.507907454368,1965
2531.32451785977,1973
2533.140736420014,2015
2534.9565634258774,2019
2536.771999168218,2001
2538.5870439379714,2009
2540.4016980261526,1972
2542.2159617238544,1943
2544.02983532225,1950
2545.8433191125914,2087
2547.656413386209,1954
2549.4691184345115,2020
2551.2814345489874,1926
2553.093362021204,2039
2554.904901142808,1945
2556.716052205523,2041
2558.526815501153,2069
2560.3371913215824,2115
2562.147179958771,2031
2563.956781704761,2049
2565.7659968516705,2063
2567.5748256916986,2077
2569.3832685171224,2105
2571.1913256202984,2111
2572.9989972936614,1984
2574.806283829725,2162
2576.613185521084,2116
2578.4197026604074,2140
2580.2258355404483,2123
2582.031584454035,2167
2583.836949694077,2131
2585.6419315535613,2137
2587.4465303255533,2167
2589.2507463032002,2217
2591.0545797797245,2188
2592.8580310484303,2209
2594.6611004026995,2178
2596.463788135992,2204
2598.266094541849,2184
2600.0680199138874,2181
2601.869564545807,2198
2603.670728731383,2201
2605.4715127644704,2189
2607.2719169390048,2232
2609.071941548998,2230
2610.8715868885433,2140
2612.670853251811,2223
2614.469740933052,2129
2616.268250226594,2208
2618.0663814268455,2234
2619.864134828292,2226
2621.6615107255006,2230
2623.458509413115,2097
2625.2551311858597,2147
2627.0513763385347,2161
2628.8472451660223,2125
2630.6427379632833,2182
2632.4378550253564,2158
2634.232596647359,2237
2636.026963124488,2232
2637.8209547520187,2139
2639.6145718253065,2135
2641.407814639785,2105
2643.200683490966,2082
2644.9931786744414,2177
2646.7853004858807,2055
2648.577049221034,2063
2650.3684251757277,2080
2652.1594286458712,1991
2653.9500599274484,1969
2655.740319316525,1995
2657.5302071092437,2045
2659.3197236018286,2063
2661.10886909058,2093
2662.8976438718782,2037
2664.686048242183,1943
2666.4740824980327,1955
2668.2617469360443,2025
2670.0490418529134,2071
2671.8359675454153,2005
2673.622524310403,1962
2675.408712444811,1916
2677.1945322456495,1923
2678.979984010009,2025
2680.76506803506,1992
2682.5497846180497,1907
2684.334134056306,1938
2686.1181166472343,1958
2687.9017326883213,1917
2689.6849824771293,1976
2691.4678663113013,1869
2693.2503844885596,1943
2695.032537306705,1914
2696.8143250636167,1846
2698.5957480572542,1861
2700.3768065856534,1861
2702.1575009469316,1842
2703.937831439283,1901
2705.717798360982,1844
2707.4974020103837,1824
2709.276642685917,1813
2711.055520686095,1836
2712.834036309506,1893
2714.612189854819,1871
2716.389981620782,1823
2718.1674119062204,1919
2719.944481010041,1856
2721.721189231226,1885
2723.4975368688415,1836
2725.273524222027,1879
2727.0491515900053,1818
2728.824419272075,1860
2730.5993275676146,1799
2732.3738767760838,1838
2734.148067197016,1768
2735.921899130031,1819
2737.6953728748194,1832
2739.468488731156,1812
2741.2412469988926,1709
2743.0136479779617,1845
2744.785691968372,1766
2746.5573792702116,1835
2748.3287101836504,1790
2750.099685008934,1757
2751.870304046388,1786
2753.640567596418,1792
2755.4104759595057,1865
2757.1800294362156,1864
2758.949228327187,1846
2760.7180729331412,1896
2762.486563554877,1829
2764.254700493272,1849
2766.022484049284,1775
2767.789914523947,1769
2769.5569922183786,1839
2771.3237174337705,1800
2773.090090471394,1802
2774.8561116326036,1781
2776.6217812188274,1807
2778.3870995315756,1760
2780.1520668724356,1736
2781.9166835430747,1762
2783.6809498452394,1775
2785.444866080754,1763
2787.2084325515225,1804
2788.971649559527,1804
2790.73451740683,1801
2792.4970363955713,1809
2794.2592068279705,1751
2796.0210290063264,1713
2797.7825032330147,1790
2799.543629810493,1788
2801.304409041296,1774
2803.0648412280366,1803
2804.8249266734088,1821
2806.5846656801846,1802
2808.344058551212,1797
2810.1031055894246,1850
2811.8618070978273,1788
2813.6201633795085,1833
2815.378174737636,1832
2817.1358414754536,1779
2818.893163896285,1770
2820.6501423035334,1812
2822.4067770006814,1811
2824.1630682912883,1778
2825.9190164789957,1796
2827.6746218675207,1838
2829.429884760661,1744
2831.184805462294,1839
2832.9393842763743,1816
2834.693621506936,1787
2836.4475174580916,1819
2838.201072434034,1807
2839.954286739034,1794
2841.707160677441,1802
2843.459694553685,1710
2845.2118886722724,1812
2846.96374333779,1856
2848.7152588549034,1796
2850.4664355283567,1804
2852.217273662973,1843
2853.9677735636546,1717
2855.7179355353833,1766
2857.4677598832186,1811
2859.217246912299,1807
2860.9663969278427,1781
2862.715210235146,1810
2864.4636871395846,1756
2866.211827946614,1785
2867.9596329617652,1776
2869.7071024906536,1836
2871.4542368389684,1775
2873.20103631248,1744
2874.947501217038,1712
2876.6936318585695,1763
2878.4394285430812,1736
2880.1848915766604,1763
2881.9300212654707,1764
2883.6748179157553,1793
2885.4192818338374,1814
2887.1634133261173,1728
2888.907212699077,1774
2890.6506802592744,1830
2892.393816313348,1769
2894.1366211680142,1808
2895.8790951300693,1891
2897.621238506388,1780
2899.363051603925,1842
2901.1045347297118,1820
2902.8456881908596,1768
2904.58651229456,1885
2906.327007348081,1806
2908.067173658772,1765
2909.8070115340597,1785
2911.5465212814497,1828
2913.285703208527,1786
2915.0245576229563,1779
2916.7630848324807,1760
2918.5012851449196,1778
2920.2391588681758,1757
2921.976706310227,1786
2923.7139277791334,1742
2925.4508235830313,1785
2927.187394030137,1753
2928.923639428745,1795
2930.6595600872306,1762
2932.395156314046,1836
2934.1304284177218,1750
2935.8653767068713,1766
2937.6000014901815,1861
2939.3343030764227,1703
2941.068281774442,1824
2942.8019378931644,1775
2944.5352717415976,1820
2946.2682836288236,1784
2948.0009738640065,1845
2949.7333427563885,1838
2951.465390615289,1784
2953.1971177501086,1797
2954.9285244703265,1802
2956.6596110855,1747
2958.3903779052657,1807
2960.1208252393385,1761
2961.8509533975125,1716
2963.5807626896617,1785
2965.3102534257378,1713
2967.0394259157715,1742
2968.768280469873,1793
2970.496817398232,1737
2972.2250370111146,1742
2973.952939618869,1848
2975.6805255319196,1813
2977.4077950607707,1814
2979.134748516006,1874
2980.861386208289,1810
2982.587708448359,1772
2984.313715547037,1758
2986.039407815222,1774
2987.764785563891,1763
2989.489849104102,1819
2991.2145987469908,1806
2992.9390348037705,1755
2994.6631575857346,1773
2996.3869674042576,1775
2998.1104645707887,1766
2999.83364939686,1725
3001.5565221940783,1711
3003.2790832741334,1757
3005.0013329487924,1761
3006.7232715298996,1766
3008.4448993293804,1738
3010.166216659239,1790
3011.887223831558,1736
3013.607921158498,1736
3015.3283089522993,1782
3017.0483875252826,1799
3018.7681571898443,1734
3020.4876182584626,1756
3022.2067710436927,1782
3023.9256158581707,1741
3025.644153014609,1890
3027.362382825801,1792
3029.0803056046193,1747
3030.797921664012,1750
3032.5152313170106,1838
3034.2322348767225,1773
3035.9489326563353,1717
3037.665324969115,1787
3039.3814121284063,1806
3041.097194447633,1739
3042.812672240299,1732
3044.5278458199855,1760
3046.2427155003525,1760
3047.9572815951406,1857
3049.671544418167,1754
3051.38550428333,1785
3053.0991615046073,1767
3054.812516396051,1786
3056.5255692717974,1782
3058.2383204460575,1738
3059.9507702331257,1801
3061.662918947372,1747
3063.3747669032446,1736
3065.0863144152736,1713
3066.7975617980674,1831
3068.508509366309,1792
3070.219157434767,1815
3071.9295063182844,1747
3073.639556331785,1805
3075.3493077902704,1782
3077.058761008821,1798
3078.7679163025964,1808
3080.476773986837,1795
3082.1853343768594,1832
3083.89359778806,1767
3085.6015645359153,1794
3087.3092349359786,1781
3089.016609303884,1759
3090.7236879553434,1804
3092.4304712061476,1709
3094.136959372166,1745
3095.843152769349,1760
3097.5490517137237,1744
3099.2546565213966,1793
3100.959967508554,1884
3102.66498499146,1752
3104.3697092864577,1857
3106.0741407099695,1748
3107.778279578498,1778
3109.482126208622,1798
3111.1856809170004,1814
3112.8889440203716,1786
3114.5919158355528,1785
3116.294596679439,1860
3117.996986869006,1822
3119.6990867213062,1763
3121.4008965534726,1802
3123.102416682717,1764
3124.803647426329,1858
3126.5045891016784,1839
3128.205242026213,1817
3129.90560651746,1875
3131.605682893025,1799
3133.3054714705922,1755
3135.0049725679282,1871
3136.7041865028714,1844
3138.4031135933465,1772
3140.101754157353,1788
3141.800108512971,1786
3143.498176978357,1789
3145.1959598717494,1741
3146.8934575114636,1715
3148.5906702158954,1778
3150.2875983035183,1819
3151.9842420928853,1718
3153.680601902627,1773
3155.376678051456,1762
3157.07247085816,1798
3158.767980641609,1823
3160.463207720748,1818
3162.158152414606,1791
3163.8528150422862,1802
3165.5471959229726,1801
3167.2412953759303,1737
3168.9351137204976,1756
3170.628651276098,1845
3172.3219083622307,1763
3174.014885298474,1731
3175.707582404485,1797
3177.4000000000005,1821
3179.092138404835,1807
3180.7839979388846,1819
3182.47557892212,1806
3184.166881674594,1774
3185.8579065164386,1742
3187.5486537678626,1803
3189.2391237491547,1744
3190.9293167806827,1766
3192.6192331828934,1746
3194.3088732763117,1826
3195.998237381542,1830
3197.687325819268,1767
3199.376138910251,1787
3201.064676975334,1699
3202.7529403354347,1674
3204.4409293115523,1791
3206.1286442247647,1787
3207.816085396229,1757
3209.5032531471825,1807
3211.190147798936,1726
3212.8767696728846,1731
3214.5631190905015,1774
3216.2491963733373,1716
3217.9350018430214,1797
3219.6205358212637,1690
3221.305798629851,1728
3222.990790590651,1697
3224.6755120256103,1691
3226.359963256751,1694
3228.0441446061795,1751
3229.7280563960758,1666
3231.411698948703,1739
3233.0950725863995,1716
3234.778177631587,1711
3236.461014406761,1754
3238.1435832345005,1723
3239.8258844374595,1686
3241.507918338374,1743
3243.1896852600576,1727
3244.8711855254023,1733
3246.552419457381,1736
3248.233387379042,1746
3249.914089613516,1708
3251.59452648401,1746
3253.274698313813,1741
3254.95460542629,1743
3256.6342481448855,1807
3258.313626793125,1733
3259.9927416946084,1749
3261.6715931730196,1699
3263.3501815521176,1708
3265.0285071557437,1690
3266.706570307815,1749
3268.3843713323286,1722
3270.0619105533615,1675
3271.739188295068,1715
3273.4162048816834,1698
3275.0929606375184,1734
3276.769455886966,1717
3278.445690954498,1689
3280.1216661646613,1763
3281.797381842087,1771
3283.4728383114807,1778
3285.1480358976296,1732
3286.8229749253996,1746
3288.4976557197333,1738
3290.172078605655,1737
3291.846243908266,1741
3293.5201519527463,1702
3295.193803064357,1724
3296.8671975684374,1667
3298.5403357904024,1717
3300.21321805575,1718
3301.8858446900567,1762
3303.558216018975,1740
3305.23033236824,1720
3306.9021940636603,1730
3308.57380143113,1754
3310.2451547966184,1691
3311.916254486174,1758
3313.5871008259246,1751
3315.2576941420766,1662
3316.9280347609147,1762
3318.5981230088046,1682
3320.2679592121895,1689
3321.9375436975924,1702
3323.606876791612,1771
3325.27595882093,1711
3326.944790112305,1714
3328.6133709925753,1691
3330.2817017886573,1643
3331.949782827547,1703
3333.617614436319,1696
3335.2851969421245,1753
3336.952530672199,1660
3338.619615953853,1709
3340.286453114475,1750
3341.9530424815357,1742
3343.619384382583,1713
3345.2854791452437,1703
3346.951327097224,1825
3348.6169285663073,1740
3350.2822838803577,1706
3351.947393367319,1729
3353.61225735521,1672
3355.2768761721345,1700
3356.9412501462693,1694
3358.605379605873,1743
3360.2692648792827,1734
3361.9329062949146,1738
3363.596304181263,1755
