CollectionTime,7/11/2024 12:22:49 PM
ExposureUsed,3
CalibratedSpectrum
-962.7078968117929,573
-959.9714848408522,625
-957.2358232597828,606
-954.5009119013725,595
-951.7667505983302,604
-949.0333391832855,599
-946.3006774887896,597
-943.5687653473143,636
-940.837602591253,607
-938.1071890529199,629
-935.3775245645503,598
-932.6486089583007,614
-929.9204420662485,636
-927.1930237203925,610
-924.4663537526524,611
-921.7404319948689,612
-919.0152582788041,592
-916.2908324361409,677
-913.5671542984834,638
-910.8442236973568,588
-908.1220404642074,601
-905.4006044304027,615
-902.679915427231,631
-899.959973285902,589
-897.2407778375464,614
-894.5223289132158,644
-891.8046263438832,587
-889.0876699604426,596
-886.3714595937089,623
-883.6559950744183,629
-880.9412762332282,578
-878.2273029007168,576
-875.5140749073835,603
-872.8015920836489,599
-870.0898542598545,613
-867.3788612662631,582
-864.6686129330585,594
-861.9591090903457,596
-859.2503495681506,583
-856.5423341964203,584
-853.8350628050229,598
-851.1285352237478,601
-848.4227512823054,597
-845.7177108103272,626
-843.0134136373656,620
-840.3098595928943,619
-837.6070485063082,637
-834.9049802069229,611
-832.2036545239757,622
-829.5030712866244,617
-826.8032303239481,602
-824.1041314649472,637
-821.4057745385428,630
-818.7081593735775,584
-816.0112857988148,618
-813.3151536429393,633
-810.6197627345566,583
-807.9251129021936,609
-805.2312039742981,593
-802.5380357792392,564
-799.8456081453069,596
-797.1539209007124,590
-794.462973873588,635
-791.772766891987,625
-789.083299783884,630
-786.3945723771743,636
-783.7065844996748,609
-781.0193359791231,615
-778.3328266431781,611
-775.6470563194197,596
-772.9620248353489,591
-770.2777320183878,598
-767.5941776958798,611
-764.9113616950891,626
-762.2292838432011,617
-759.5479439673222,644
-756.8673418944801,641
-754.1874774516235,644
-751.5083504656222,644
-748.8299607632671,635
-746.15230817127,648
-743.475392516264,635
-740.7992136248035,661
-738.1237713233636,675
-735.4490654383407,637
-732.7750957960521,659
-730.1018622227365,629
-727.4293645445534,645
-724.7576025875837,641
-722.0865761778291,646
-719.4162851412126,679
-716.7467293035781,661
-714.0779084906909,647
-711.409822528237,658
-708.7424712418238,681
-706.0758544569796,645
-703.4099719991541,685
-700.7448236937178,684
-698.0804093659622,670
-695.4167288411002,677
-692.7537819442656,657
-690.0915685005134,649
-687.4300883348199,650
-684.7693412720819,691
-682.1093271371178,685
-679.4500457546669,664
-676.7914969493897,668
-674.1336805458676,677
-671.4765963686034,699
-668.8202442420206,680
-666.1646239904642,691
-663.5097354382001,691
-660.8555784094151,715
-658.2021527282176,696
-655.5494582186366,713
-652.8974947046223,694
-650.2462620100463,714
-647.5957599587009,734
-644.9459883742998,753
-642.2969470804776,740
-639.6486359007902,728
-637.0010546587141,729
-634.3542031776476,713
-631.7080812809096,731
-629.0626887917401,752
-626.4180255333008,698
-623.7740913286734,731
-621.1308860008619,730
-618.4884093727904,690
-615.8466612673046,711
-613.2056415071715,701
-610.5653499150785,719
-607.9257863136347,726
-605.28695052537,719
-602.6488423727357,722
-600.0114616781036,685
-597.3748082637674,744
-594.7388819519412,800
-592.1036825647604,814
-589.4692099242818,785
-586.8354638524829,736
-584.2024441712624,766
-581.5701507024403,741
-578.9385832677575,772
-576.3077416888759,711
-573.6776257873787,730
-571.0482353847704,759
-568.4195703024757,747
-565.7916303618415,771
-563.164415384135,759
-560.5379251905453,734
-557.9121596021815,727
-555.2871184400748,731
-552.6628015251767,717
-550.0392086783606,784
-547.4163397204204,756
-544.794194472071,777
-542.1727727539491,770
-539.5520743866118,824
-536.9320991905377,836
-534.3128469861261,804
-531.6943175936979,782
-529.0765108334947,800
-526.4594265256793,885
-523.8430644903358,953
-521.2274245474689,1076
-518.612506517005,1089
-515.9983102187913,1091
-513.3848354725959,1080
-510.77208209810846,1164
-508.16004991493924,1225
-505.5487387426199,1497
-502.9381484006032,1545
-500.3282787082628,1447
-497.71912948489364,1463
-495.1107005497117,1382
-492.5029917218539,1216
-489.8960028203786,1139
-487.28973366426493,1006
-484.68418407241325,1006
-482.07935386364494,924
-479.47524285670266,898
-476.87185087025,885
-474.2691777228715,888
-471.66722323307334,902
-469.0659872192821,899
-466.4654694998459,886
-463.86566989303384,881
-461.26658821703614,899
-458.66822428996414,914
-456.07057792985,919
-453.4736489546475,902
-450.877437182231,901
-448.28194243039627,872
-445.68716451686,885
-443.09310325926003,932
-440.49975847515555,880
-437.9071299820263,865
-435.31521759727354,897
-432.72402113821954,881
-430.13354042210767,915
-427.5437752661022,909
-424.95472548728867,854
-422.36639090267386,913
-419.7787713291855,1006
-417.1918665836721,1026
-414.60567648290385,941
-412.0202008435715,924
-409.4354394822874,972
-406.8513922155845,1009
-404.26805885991723,1020
-401.685439231661,1011
-399.103533147112,983
-396.522340422488,967
-393.9418608739278,928
-391.3620943174908,954
-388.7830405691583,941
-386.2046994448317,894
-383.6270707603344,842
-381.05015433141045,803
-378.473949973725,743
-375.8984575028645,718
-373.32367673433623,695
-370.74960748356875,689
-368.1762495659117,636
-365.60360279663576,561
-363.03166699093265,515
-360.4604419639154,514
-357.8899275306178,521
-355.32012350599507,510
-352.7510297049233,488
-350.1826459421999,470
-347.61497203254316,442
-345.04800779059235,475
-342.4817530309082,487
-339.91620756797226,467
-337.35137121618743,509
-334.7872437898774,568
-332.22382510328725,590
-329.66111497058273,535
-327.09911320585127,494
-324.53781962310075,480
-321.9772340362607,476
-319.4173562591816,490
-316.8581861056348,484
-314.2997233893127,515
-311.7419679238294,488
-309.1849195227194,440
-306.62857799943856,506
-304.0729431673641,556
-301.51801483979375,554
-298.963792829947,575
-296.41027695096386,542
-293.85746701590574,545
-291.3053628377552,596
-288.7539642294155,557
-286.2032710037115,502
-283.65328297338897,527
-281.1039999511146,583
-278.5554217494762,562
-276.007548180983,629
-273.4603790580651,611
-270.9139141930734,565
-268.3681533982807,558
-265.8230964858798,583
-263.27874326798565,617
-260.7350935566336,678
-258.1921471637804,641
-255.6499039013039,576
-253.10836358100266,596
-250.56752601459698,613
-248.02739101372765,623
-245.48795838995704,609
-242.94922795476816,618
-240.41119951956557,629
-237.8738728956746,628
-235.33724789434166,617
-232.80132432673452,613
-230.2661020039418,629
-227.73158073697357,624
-225.19776033676033,692
-222.66464061415422,712
-220.1322213799284,694
-217.60050244477725,656
-215.06948361931552,630
-212.53916471408013,722
-210.00954553952818,692
-207.48062590603843,708
-204.9524056239104,694
-202.4248845033651,750
-199.8980623545441,789
-197.37193898751036,719
-194.84651421224817,714
-192.32178783866232,803
-189.79775967657952,835
-187.27442953574644,799
-184.7517972258321,767
-182.2298625564256,775
-179.7086253370378,917
-177.18808537710026,892
-174.66824248596583,825
-172.14909647290835,777
-169.6306471471229,856
-167.11289431772548,807
-164.59583779375328,788
-162.07947738416453,762
-159.5638128978386,842
-157.04884414357605,939
-154.53457093009854,1120
-152.02099306604828,1023
-149.50811035998936,795
-146.99592262040665,840
-144.48442965570587,936
-141.97363127421409,955
-139.46352728417958,1071
-136.95411749377126,1022
-134.44540171107985,862
-131.93737974411636,736
-129.43005140081357,824
-126.92341648902493,1025
-124.41747481652521,1195
-121.91222619101006,1315
-119.40767042009657,1561
-116.90380731132257,1640
-114.40063667214702,1413
-111.8981583099503,1279
-109.3963720320337,1051
-106.89527764561933,1071
-104.39487495785067,1401
-101.89516377579241,2397
-99.39614390642998,2988
-96.89781515667039,3346
-94.40017733334128,3037
-91.90323024319173,3554
-89.40697369289148,5041
-86.91140748903172,7712
-84.41653143812482,7807
-81.92234534660395,4719
-79.42884902082358,3460
-76.93604226705907,6199
-74.4439248915071,12960
-71.95249670028534,21170
-69.46175749943245,27574
-66.97170709490854,27206
-64.48234529259423,23049
-61.99367189829195,19475
-59.50568671772464,18890
-57.01838955653636,16359
-54.53178022029283,11686
-52.045858514480074,9404
-49.560624244506016,8760
-47.07607721569923,8665
-44.59221723330904,8570
-42.10904410250669,8685
-39.62655762838392,7430
-37.14475761595372,7078
-34.66364387015028,6475
-32.18321619582866,6746
-29.70347439776515,7271
-27.224418280657005,7311
-24.74604764912317,8664
-22.26836230770266,12585
-19.7913620608565,23614
-17.315046712966478,42214
-14.83941606833514,55390
-12.36446993118659,65039
-9.89020810566592,65039
-7.416630395839093,65039
-4.94373660569363,65039
-2.471526539137585,65039
-6.821210263296962E-13,65039
2.47084320796705,65039
4.941003281093458,65039
7.410480415786196,65039
9.879274808531363,65039
12.347386655893956,65039
14.814816154518212,65039
17.28156350112681,65039
19.74762889252179,65039
22.21301252558385,65039
24.67771459727237,21254
27.141735304626195,4217
29.605074844762612,2917
32.06773341487792,3151
34.52971121224755,2929
36.99100843422559,2901
39.45162527824516,2483
41.91156194181792,1864
44.370818622535126,1661
46.82939551806646,1671
49.287292826160524,1984
51.74451074464503,2426
54.201049471426245,2407
56.65690920448981,2263
59.112090141899785,1966
61.56659248179983,1610
64.02041642241159,1564
66.4735621620365,1558
68.92602989905402,1412
71.37781983192338,1366
73.82893215918205,1524
76.27936707944684,1636
78.72912479141326,1405
81.17820549385567,1251
83.62660938562783,1400
86.07433666566146,1558
88.5213875329681,1470
90.96776218663751,1156
93.41346082583925,967
95.85848364982041,1039
98.30283085790859,1334
100.7465026495089,1172
103.18949922410604,1144
105.63182078126385,1201
108.07346752062438,1191
110.51443964190923,957
112.95473734491827,953
115.39436082953114,1114
117.83331029570547,1001
120.27158594347827,969
122.7091879729652,1011
125.1461165843615,1063
127.58237197794062,925
130.01795435405518,990
132.4528639131364,1040
134.88710085569494,1101
137.32066538231982,963
139.75355769367923,1058
142.1857779905207,983
144.61732647366978,916
147.04820334403132,870
149.47840880258934,898
151.90794305040674,997
154.33680628862487,1163
156.76499871846443,1240
159.19252054122433,1308
161.61937195828352,1492
164.04555317109896,1622
166.47106438120693,1815
168.89590579022217,1967
171.320077599839,2036
173.7435800118302,2140
176.16641322804742,2309
178.58857745042144,2464
181.01007288096173,2480
183.43089972175687,2529
185.85105817497413,2449
188.27054844285988,2457
190.6893707277394,2435
193.10752523201643,2499
195.5250121581745,2519
197.9418317087751,2480
200.3579840864594,2567
202.7734694939469,2545
205.18828813403627,2642
207.6024402096051,2703
210.01592592360964,2801
212.42874547908548,2772
214.84089907914665,2637
217.2523869269868,2656
219.66320922587727,2542
222.0733661791695,2576
224.48285799029293,2706
226.8916848627572,2631
229.29984700014882,2728
231.7073446061355,2674
234.11417788446204,2659
236.520347038953,2810
238.92585227351185,2852
241.33069379212054,2932
243.73487179884035,3069
246.1383864978112,2951
248.541238093252,2888
250.9434267894609,2891
253.34495279081432,3004
255.74581630176783,3079
258.1460175268563,2972
260.54555667069314,2965
262.9444339379703,2954
265.3426495334594,2965
267.7402036620107,2896
270.1370965285529,2806
272.53332833809407,2702
274.9288992957214,2597
277.32380960660055,2522
279.718059475976,2447
282.1116491091717,2588
284.5045787115897,2441
286.89684848871195,2385
289.2884586460981,2392
291.67940938938807,2512
294.0697009242996,2436
296.4593334566299,2390
298.84830719225477,2404
301.23662233712923,2415
303.6242790972866,2399
306.01127767884,2294
308.39761828798066,2341
310.78330113097934,2293
313.16832641418534,2194
315.5526943440269,2208
317.9364051270112,2199
320.3194589697242,2229
322.70185607883093,2130
325.0835966610754,2155
327.4646809232805,2150
329.8451090723478,2169
332.2248813152577,2046
334.6039978590701,2081
336.9824589109231,2023
339.36026467803447,2092
341.7374153677,2067
344.113911187295,2011
346.48975234427337,1998
348.8649390461686,2034
351.2394715005918,2004
353.61334991523415,2004
355.9865744978655,1969
358.35914545633375,2000
360.73106299856715,2110
363.10232733257146,2024
365.47293866643247,1930
367.84289720831396,1942
370.2122031664593,1984
372.5808567491905,1945
374.9488581649083,1884
377.31620762209275,1893
379.6829053293021,1931
382.0489514951745,1911
384.4143463284262,1819
386.7790900378528,1831
389.14318283232853,1868
391.50662492080653,1909
393.86941651231916,2016
396.23155781597745,1849
398.5930490409713,1844
400.9538903965696,1933
403.3140820921202,1923
405.6736243370498,1839
408.03251734086336,1822
410.3907613131465,1877
412.74835646356166,1825
415.10530300185144,1893
417.4616011378372,1879
419.81725108141893,1845
422.1722530425758,1842
424.5266072313656,1863
426.880313857925,1804
429.2333731324701,1771
431.58578526529516,1866
433.9375504667738,1813
436.2886689473588,1806
438.63914091758113,1806
440.9889665880513,1801
443.33814616945835,1805
445.68667987257015,1733
448.03456790823395,1747
450.3818104873759,1756
452.72840782100013,1831
455.07436012019105,1849
457.41966759611057,1813
459.7643304600007,1780
462.10834892318155,1766
464.4517231970525,1799
466.79445349309174,1792
469.1365400228566,1871
471.4779829979826,1782
473.81878263018564,1764
476.15893913125876,1775
478.4984527130747,1796
480.8373235875855,1846
483.17555196682144,1892
485.5131380628919,1930
487.8500820879857,1935
490.1863842543697,2039
492.52204477439034,2228
494.8570638604725,2313
497.1914417251204,2541
499.52517858091653,2808
501.85827464052306,3080
504.19073011668036,3232
506.5225452222086,3048
508.85372017000566,3038
511.18425517304956,3006
513.514150444396,3012
515.8434061971808,3593
518.1720226446176,4277
520.4999999999999,4354
522.8273384766991,4077
525.1540382881666,3786
527.480099647932,3346
529.8055227696037,2793
532.1303078668694,2300
534.454455153496,2074
536.777964843328,1915
539.1008371502907,1864
541.4230722883866,1805
543.744670471698,1777
546.0656319143858,1843
548.3859568306899,1794
550.7056454349294,1743
553.0246979415016,1787
555.3431145648834,1793
557.6608955196306,1740
559.978041020377,1707
562.2945512818363,1699
564.6104265188006,1807
566.9256669461412,1819
569.2402727788082,1728
571.5542442318302,1814
573.8675815203156,1812
576.1802848594508,1747
578.4923544645015,1803
580.8037905508126,1860
583.114593333807,1834
585.4247630289875,1890
587.7342998519354,1808
590.0432040183106,1766
592.3514757438526,1881
594.6591152443794,1899
596.9661227357875,1815
599.2724984340531,1779
601.578242555231,1827
603.8833553154542,1810
606.1878369309362,1812
608.4916876179676,1830
610.7949075929192,1825
613.0974970722403,1859
615.3994562724587,1764
617.7007854101818,1796
620.0014847020951,1808
622.3015543649641,1803
624.6009946156324,1812
626.8998056710224,1830
629.1979877481361,1763
631.4955410640538,1805
633.7924658359349,1835
636.0887622810175,1833
638.3844306166192,1798
640.6794710601358,1878
642.9738838290426,1832
645.2676691408932,1804
647.5608272133207,1857
649.853358264037,1862
652.1452625108324,1911
654.4365401715764,1850
656.7271914642178,1885
659.0172166067838,1866
661.3066158173809,1875
663.5953893141935,1858
665.8835373154867,1923
668.1710600396028,1895
670.4579577049639,1850
672.7442305300709,1909
675.0298787335033,1848
677.3149025339197,1870
679.599302150058,1800
681.8830778007342,1868
684.1662297048437,1852
686.4487580813608,1881
688.7306631493387,1821
691.0119451279091,1844
693.2926042362834,1836
695.5726406937516,1817
697.8520547196814,1899
700.1308465335215,1827
702.4090163547982,1858
704.6865644031171,1872
706.9634908981619,1811
709.2397960596965,1854
711.5154801075631,1901
713.7905432616823,1864
716.0649857420548,1860
718.3388077687592,1844
720.612009561953,1884
722.8845913418733,1779
725.1565533288352,1851
727.427895743234,1844
729.6986188055427,1870
731.9687227363137,1790
734.238207756178,1846
736.5070740858458,1835
738.7753219461066,1814
741.0429515578281,1892
743.3099631419569,1822
745.5763569195191,1819
747.8421331116193,1801
750.1072919394409,1864
752.3718336242467,1824
754.6357583873777,1833
756.8990664502545,1908
759.1617580343765,1810
761.423833361321,1804
763.6852926527457,1767
765.9461361303862,1795
768.206364016058,1757
770.4659765316536,1906
772.7249738991469,1885
774.9833563405886,1931
777.2411240781092,1873
779.4982773339183,1818
781.7548163303044,1895
784.010741289634,1948
786.2660524343538,1976
788.5207499869881,1856
790.7748341701416,1878
793.0283052064964,1871
795.2811633188143,1835
797.5334087299362,1857
799.7850416627813,1928
802.0360623403484,1929
804.2864709857143,1807
806.5362678220353,1821
808.7854530725468,1827
811.0340269605625,1910
813.2819897094754,1874
815.5293415427581,1830
817.77608268396,1875
820.0222133567116,1870
822.2677337847211,1912
824.5126441917765,1907
826.7569448017433,1826
829.0006358385675,1849
831.2437175262731,1818
833.4861900889629,1906
835.7280537508192,1897
837.9693087361026,1831
840.2099552691533,1882
842.4499935743896,1879
844.689423876309,1932
846.9282463994886,1997
849.1664613685833,1878
851.4040690083276,1822
853.6410695435349,1834
855.877463199097,1846
858.1132501999847,1931
860.3484307712487,1895
862.5830051380175,1815
864.8169735254988,1897
867.0503361589791,1924
869.2830932638243,1883
871.5152450654786,1893
873.7467917894654,1880
875.9777336613873,1952
878.2080709069252,1899
880.4378037518389,1938
882.666932421968,1865
884.8954571432301,1931
887.1233781416219,1944
889.3506956432192,1944
891.5774098741766,1996
893.803521060728,1976
896.0290294291852,1899
898.2539352059397,1938
900.4782386174619,1940
902.7019398903011,1893
904.925039251085,1947
907.147536926521,1942
909.3694331433943,1936
911.59072812857,1992
913.8114221089921,1961
916.0315153116827,1943
918.2510079637437,1953
920.4699002923547,1873
922.6881925247761,1889
924.905884888345,1870
927.1229776104793,1941
929.3394709186747,1890
931.555365040506,1932
933.7706602036275,1849
935.9853566357709,1867
938.1994545647489,1903
940.4129542184515,1930
942.6258558248488,1915
944.8381596119883,1885
947.0498658079974,1886
949.2609746410825,1891
951.4714863395287,1898
953.6814011316998,1879
955.8907192460387,1872
958.0994409110671,1838
960.3075663553858,1835
962.5150958076741,1867
964.7220294966913,1923
966.928367651274,1808
969.1341105003388,1835
971.3392582728806,1841
973.5438111979742,1901
975.747769504772,1831
977.9511334225061,1794
980.153903180487,1885
982.3560790081052,1817
984.5576611348289,1798
986.7586497902058,1750
988.9590452038618,1792
991.158847605503,1775
993.3580572249133,1741
995.5566742919558,1715
997.7546990365728,1710
999.952131688785,1720
1002.1489724786926,1637
1004.3452216364743,1678
1006.5408793923874,1552
1008.7359459767691,1615
1010.9304216200343,1641
1013.1243065526781,1638
1015.3176010052733,1635
1017.510305208472,1603
1019.7024193930064,1645
1021.8939437896848,1670
1024.0848786293977,1562
1026.2752241431122,1616
1028.4649805618747,1587
1030.6541481168115,1616
1032.842727039127,1621
1035.0307175601051,1550
1037.2181199111074,1511
1039.4049343235752,1634
1041.591161029029,1602
1043.7768002590683,1619
1045.9618522453698,1503
1048.1463172196918,1522
1050.3301954138697,1543
1052.513487059818,1630
1054.69619238953,1570
1056.8783116350783,1602
1059.0598450286152,1578
1061.2407928023704,1548
1063.4211551886528,1584
1065.6009324198508,1496
1067.780124728432,1560
1069.9587323469414,1536
1072.1367555080046,1526
1074.314194444325,1477
1076.4910493886855,1542
1078.667320573947,1506
1080.843008233051,1550
1083.0181125990161,1523
1085.1926339049414,1479
1087.3665723840027,1483
1089.5399282694575,1424
1091.7127017946405,1535
1093.8848931929647,1483
1096.0565026979243,1515
1098.2275305430899,1491
1100.3979769621128,1422
1102.567842188722,1522
1104.737126456726,1450
1106.9058300000124,1412
1109.0739530525475,1424
1111.2414958483764,1437
1113.4084586216231,1463
1115.5748416064907,1433
1117.7406450372605,1472
1119.9058691482942,1431
1122.0705141740304,1451
1124.2345803489884,1439
1126.3980679077658,1501
1128.5609770850388,1541
1130.7233081155623,1475
1132.8850612341707,1461
1135.0462366757774,1442
1137.2068346753745,1411
1139.3668554680326,1460
1141.526299288901,1432
1143.68516637321,1384
1145.8434569562655,1380
1148.001171273455,1441
1150.158309560244,1423
1152.3148720521767,1408
1154.470858984876,1470
1156.626270594044,1461
1158.7811071154629,1425
1160.9353687849912,1382
1163.089055838569,1409
1165.242168512213,1397
1167.3947070420209,1457
1169.5466716641677,1435
1171.6980626149075,1419
1173.8488801305748,1387
1175.9991244475814,1397
1178.1487958024186,1430
1180.2978944316555,1449
1182.4464205719428,1405
1184.5943744600072,1378
1186.7417563326567,1353
1188.8885664267755,1355
1191.0348049793297,1376
1193.1804722273619,1373
1195.325568407995,1450
1197.4700937584303,1458
1199.614048515948,1430
1201.7574329179074,1438
1203.900247201746,1358
1206.042491604982,1423
1208.1841663652099,1463
1210.3252717201053,1370
1212.465807907422,1388
1214.6057751649923,1405
1216.7451737307279,1408
1218.8840038426192,1411
1221.0222657387353,1439
1223.1599596572241,1441
1225.2970858363137,1475
1227.4336445143094,1466
1229.5696359295966,1421
1231.705060320639,1433
1233.8399179259786,1456
1235.9742089842384,1467
1238.107933734118,1441
1240.2410924143974,1423
1242.373685263935,1480
1244.5057125216676,1426
1246.6371744266116,1499
1248.7680712178621,1457
1250.898403134593,1466
1253.028170416058,1517
1255.1573733015875,1454
1257.2860120305932,1466
1259.4140868425648,1474
1261.54159797707,1479
1263.6685456737569,1501
1265.7949301723515,1506
1267.9207517126597,1502
1270.046010534565,1524
1272.1707068780306,1490
1274.2948409830983,1507
1276.4184130898889,1555
1278.541423438603,1505
1280.6638722695184,1500
1282.785759822993,1526
1284.9070863394636,1536
1287.0278520594447,1600
1289.1480572235314,1549
1291.2677020723963,1547
1293.3867868467923,1583
1295.5053117875495,1584
1297.623277135579,1572
1299.740683131868,1538
1301.8575300174857,1618
1303.973818033578,1552
1306.0895474213703,1610
1308.2047184221678,1560
1310.3193312773528,1576
1312.4333862283888,1599
1314.5468835168163,1526
1316.659823384255,1545
1318.7722060724045,1619
1320.8840318230418,1619
1322.9953008780249,1626
1325.1060134792888,1641
1327.2161698688478,1605
1329.3257702887959,1578
1331.4348149813054,1636
1333.5433041886276,1605
1335.6512381530933,1541
1337.7586171171101,1602
1339.8654413231675,1532
1341.9717110138317,1595
1344.0774264317488,1629
1346.1825878196432,1528
1348.2871954203192,1587
1350.3912494766587,1599
1352.4947502316231,1577
1354.5976979282532,1606
1356.7000928096686,1600
1358.8019351190665,1575
1360.9032250997243,1559
1363.0039629949988,1568
1365.1041490483235,1645
1367.2037835032133,1558
1369.3028666032606,1574
1371.401398592137,1610
1373.4993797135926,1599
1375.5968102114575,1562
1377.6936903296396,1679
1379.7900203121262,1594
1381.8858004029835,1623
1383.9810308463561,1615
1386.075711886469,1605
1388.1698437676241,1623
1390.2634267342032,1584
1392.356461030667,1631
1394.4489469015557,1658
1396.5408845914872,1646
1398.6322743451592,1635
1400.7231164073469,1674
1402.813411022907,1653
1404.903158436773,1680
1406.9923588939578,1715
1409.0810126395531,1703
1411.1691199187303,1666
1413.2566809767386,1700
1415.343696058907,1710
1417.4301654106425,1728
1419.5160892774315,1751
1421.6014679048399,1664
1423.6863015385125,1682
1425.7705904241707,1771
1427.8543348076178,1720
1429.9375349347342,1685
1432.0201910514802,1768
1434.102303403894,1777
1436.1838722380944,1829
1438.2648978002767,1779
1440.3453803367174,1822
1442.4253200937692,1835
1444.5047173178677,1885
1446.5835722555234,1826
1448.6618851533285,1900
1450.739656257952,1910
1452.8168858161434,1982
1454.8935740747306,1990
1456.96972128062,2063
1459.045327680797,2085
1461.120393522327,2093
1463.1949190523528,2078
1465.2689045180973,2080
1467.3423501668608,2145
1469.415256246024,2206
1471.4876230030463,2217
1473.559450685465,2233
1475.6307395408976,2277
1477.7014898170391,2323
1479.771701761665,2325
1481.8413756226287,2357
1483.9105116478618,2467
1485.9791100853772,2463
1488.0471711832643,2487
1490.1146951896926,2508
1492.1816823529098,2556
1494.2481329212433,2474
1496.3140471430984,2624
1498.3794252669609,2722
1500.4442675413939,2716
1502.5085742150404,2671
1504.572345536622,2593
1506.6355817549388,2770
1508.6982831188702,2744
1510.7604498773744,2706
1512.8220822794883,2787
1514.8831805743293,2718
1516.9437450110909,2811
1519.003775839048,2789
1521.0632733075522,2792
1523.1222376660367,2952
1525.1806691640113,2835
1527.2385680510652,2863
1529.2959345768668,2940
1531.3527689911643,2916
1533.4090715437833,3011
1535.4648424846291,3045
1537.5200820636855,3075
1539.5747905310159,3131
1541.6289681367616,2981
1543.6826151311434,3085
1545.7357317644614,3124
1547.7883182870937,3274
1549.8403749494987,3135
1551.8919020022113,3301
1553.9428996958477,3359
1555.9933682811015,3389
1558.0433080087469,3482
1560.0927191296346,3546
1562.1416018946961,3529
1564.1899565549415,3566
1566.2377833614592,3605
1568.2850825654164,3424
1570.3318544180606,3399
1572.3780991707158,3267
1574.423817074788,3205
1576.4690083817595,3247
1578.5136733431923,3006
1580.5578122107272,2908
1582.601425236085,2804
1584.6445126710646,2630
1586.6870747675434,2493
1588.7291117774776,2480
1590.7706239529034,2340
1592.8116115459347,2243
1594.8520748087658,2286
1596.8920139936686,2180
1598.9314293529933,2094
1600.9703211391711,2005
1603.008689604711,1894
1605.0465350022005,1948
1607.0838575843068,1866
1609.1206576037753,1807
1611.1569353134305,1812
1613.1926909661765,1780
1615.2279248149953,1777
1617.2626371129481,1725
1619.2968281131757,1701
1621.3304980688963,1667
1623.3636472334088,1696
1625.39627586009,1666
1627.428384202396,1629
1629.459972513861,1639
1631.4910410480993,1571
1633.5215900588028,1615
1635.551619799744,1578
1637.5811305247717,1600
1639.6101224878166,1603
1641.6385959428862,1613
1643.6665511440683,1593
1645.693988345528,1539
1647.7209078015112,1577
1649.7473097663405,1561
1651.7731944944203,1514
1653.7985622402307,1568
1655.823413258333,1542
1657.847747803366,1524
1659.8715661300494,1495
1661.8948684931793,1495
1663.9176551476316,1494
1665.9399263483624,1527
1667.9616823504057,1503
1669.982923408873,1527
1672.0036497789574,1543
1674.0238617159293,1483
1676.043559475138,1498
1678.0627433120121,1498
1680.081413482059,1535
1682.0995702408654,1511
1684.117213844096,1527
1686.134344547495,1529
1688.1509626068864,1448
1690.1670682781705,1484
1692.182661817329,1460
1694.1977434804217,1472
1696.2123135235875,1473
1698.226372203043,1575
1700.2399197750851,1524
1702.2529564960905,1522
1704.2654826225112,1489
1706.277498410882,1441
1708.2890041178139,1470
1710.2999999999988,1480
1712.3104863142066,1453
1714.3204633172854,1517
1716.329931266163,1448
1718.3388904178469,1448
1720.3473410294214,1452
1722.3552833580516,1491
1724.3627176609807,1463
1726.3696441955308,1467
1728.3760632191033,1483
1730.3819749891782,1446
1732.3873797633146,1420
1734.3922777991502,1464
1736.3966693544012,1442
1738.4005546868639,1404
1740.4039340544127,1441
1742.406807715001,1409
1744.4091759266616,1427
1746.4110389475054,1374
1748.4123970357223,1375
1750.413250449582,1424
1752.4135994474318,1388
1754.4134442876993,1442
1756.4127852288902,1402
1758.4116225295893,1380
1760.4099564484595,1470
1762.407787244244,1446
1764.405115175764,1438
1766.4019405019203,1407
1768.3982634816916,1394
1770.3940843741357,1390
1772.3894034383907,1394
1774.3842209336717,1368
1776.378537119274,1386
1778.372352254571,1406
1780.3656665990156,1349
1782.3584804121397,1394
1784.3507939535534,1394
1786.3426074829463,1348
1788.3339212600863,1374
1790.3247355448211,1360
1792.3150505970766,1325
1794.3048666768573,1371
1796.2941840442477,1352
1798.2830029594106,1335
1800.2713236825884,1371
1802.2591464741004,1376
1804.2464715943465,1435
1806.2332993038058,1375
1808.2196298630352,1325
1810.2054635326708,1368
1812.190800573428,1316
1814.175641246101,1394
1816.1599858115628,1373
1818.1438345307652,1301
1820.127187664738,1323
1822.1100454745924,1382
1824.092408221516,1361
1826.0742761667766,1344
1828.055649571721,1397
1830.0365286977735,1336
1832.0169138064398,1321
1833.9968051593014,1301
1835.9762030180214,1367
1837.9551076443408,1331
1839.9335193000788,1317
1841.9114382471344,1375
1843.888864747485,1365
1845.8657990631878,1360
1847.842241456378,1335
1849.8181921892697,1333
1851.7936515241558,1284
1853.7686197234098,1364
1855.7430970494815,1345
1857.7170837649014,1331
1859.6905801322787,1336
1861.6635864143004,1345
1863.6361028737338,1313
1865.608129773424,1357
1867.5796673762961,1380
1869.5507159453537,1311
1871.521275743678,1353
1873.4913470344313,1416
1875.4609300808534,1409
1877.4300251462632,1338
1879.3986324940588,1401
1881.366752387717,1326
1883.3343850907936,1334
1885.3015308669228,1420
1887.268189979819,1303
1889.2343626932739,1347
1891.2000492711595,1330
1893.1652499774254,1340
1895.1299650761011,1353
1897.0941948312952,1404
1899.0579395071945,1412
1901.0211993680641,1353
1902.98397467825,1381
1904.9462657021745,1372
1906.9080727043415,1362
1908.869395949332,1395
1910.8302357018065,1373
1912.790592226504,1375
1914.7504657882428,1412
1916.7098566519212,1378
1918.6687650825133,1356
1920.6271913450764,1353
1922.5851357047422,1363
1924.5425984267245,1363
1926.499579776314,1333
1928.4560800188833,1379
1930.4120994198802,1393
1932.367638244833,1353
1934.32269675935,1329
1936.2772752291175,1327
1938.231373919899,1369
1940.1849930975404,1308
1942.1381330279637,1340
1944.0907939771696,1327
1946.0429762112412,1315
1947.9946799963363,1388
1949.9459055986945,1311
1951.896653284633,1374
1953.8469233205478,1370
1955.7967159729142,1341
1957.7460315082863,1336
1959.6948701932974,1361
1961.6432322946594,1407
1963.5911180791632,1406
1965.5385278136787,1326
1967.4854617651545,1330
1969.4319202006182,1345
1971.377903387176,1366
1973.3234115920136,1315
1975.268445082395,1312
1977.2130041256642,1371
1979.1570889892423,1367
1981.1006999406304,1368
1983.04383724741,1255
1984.986501177238,1323
1986.928691997853,1318
1988.8704099770712,1347
1990.811655382789,1330
1992.7524284829801,1291
1994.692729545698,1337
1996.6325588390755,1328
1998.5719166313224,1322
2000.5108031907307,1332
2002.4492187856677,1284
2004.387163684583,1326
2006.3246381560011,1313
2008.2616424685298,1324
2010.1981768908527,1273
2012.1342416917332,1325
2014.069837140014,1317
2016.0049635046162,1290
2017.9396210545406,1313
2019.8738100588666,1341
2021.8075307867502,1296
2023.740783507431,1278
2025.6735684902228,1301
2027.6058860045214,1322
2029.5377363198004,1314
2031.4691197056118,1287
2033.4000364315875,1325
2035.3304867674374,1322
2037.260470982952,1315
2039.189989347998,1296
2041.1190421325232,1295
2043.047629606554,1299
2044.9757520401945,1279
2046.9034097036288,1258
2048.8306028671195,1272
2050.7573318010086,1318
2052.683596775716,1278
2054.609398061742,1312
2056.5347359296647,1347
2058.4596106501403,1298
2060.384022493906,1333
2062.3079717317764,1240
2064.231458634646,1299
2066.1544834734873,1346
2068.077046519352,1282
2069.99914804337,1293
2071.9207883167524,1323
2073.8419676107865,1322
2075.7626861968406,1302
2077.6829443463607,1275
2079.6027423308715,1299
2081.522080421977,1291
2083.440958891362,1259
2085.359378010786,1342
2087.2773380520907,1294
2089.194839287196,1306
2091.111881988101,1278
2093.0284664268825,1316
2094.9445928756973,1350
2096.86026160678,1283
2098.775472892446,1299
2100.690227005088,1308
2102.604524217178,1262
2104.5183648012676,1301
2106.431749029985,1259
2108.34467717604,1318
2110.2571495122206,1239
2112.169166311393,1255
2114.080727846503,1270
2115.9918343905747,1292
2117.902486216711,1263
2119.8126835980956,1287
2121.722426807987,1291
2123.6317161197285,1259
2125.5405518067364,1315
2127.448934142509,1318
2129.356863400624,1338
2131.264339854737,1314
2133.1713637785815,1305
2135.077935445972,1326
2136.9840551308002,1344
2138.889723107037,1301
2140.7949396487334,1335
2142.699705030018,1292
2144.6040195250994,1339
2146.507883408264,1299
2148.4112969538774,1330
2150.3142604363848,1287
2152.2167741303097,1296
2154.1188383102535,1294
2156.0204532508997,1350
2157.9216192270064,1334
2159.822336513414,1317
2161.7226053850413,1290
2163.622426116884,1237
2165.5217989840185,1343
2167.4207242616,1338
2169.319202224862,1282
2171.2172331491165,1308
2173.1148173097563,1344
2175.0119549822507,1338
2176.90864644215,1363
2178.8048919650823,1304
2180.7006918267534,1350
2182.596046302952,1344
2184.4909556695407,1344
2186.3854202024645,1364
2188.279440177746,1330
2190.173015871487,1379
2192.066147559868,1360
2193.958835519149,1367
2195.851080025667,1331
2197.7428813558417,1348
2199.6342397861667,1342
2201.5251555932186,1388
2203.415629053651,1385
2205.3056604441986,1319
2207.19525004167,1359
2209.084398122958,1331
2210.9731049650327,1404
2212.861370844941,1350
2214.749196039812,1414
2216.636580826851,1394
2218.523525483344,1333
2220.410030286655,1415
2222.296095514226,1388
2224.1817214435805,1343
2226.066908352319,1407
2227.951656518121,1400
2229.835966218746,1377
2231.71983773203,1340
2233.6032713358913,1396
2235.486267308324,1376
2237.3688259274036,1361
2239.2509474712824,1358
2241.132632218193,1304
2243.013880446447,1332
2244.8946924344323,1371
2246.7750684606203,1349
2248.6550088035574,1324
2250.534513741871,1311
2252.413583554265,1372
2254.292218519526,1371
2256.170418916517,1387
2258.0481850241786,1342
2259.925517121534,1362
2261.8024154876825,1324
2263.678880401803,1361
2265.5549121431536,1383
2267.430510991071,1356
2269.305677224971,1364
2271.180411124348,1326
2273.0547129687766,1353
2274.9285830379076,1315
2276.8020216114737,1351
2278.6750289692845,1329
2280.5476053912294,1357
2282.4197511572766,1422
2284.2914665474727,1370
2286.162751841943,1415
2288.0336073208937,1403
2289.904033264608,1400
2291.774029953448,1361
2293.6435976678554,1356
2295.5127366883517,1347
2297.381447295534,1308
2299.2497297700825,1300
2301.1175843927526,1350
2302.9850114443825,1314
2304.852011205885,1227
2306.7185839582553,1238
2308.5847299825664,1255
2310.4504495599676,1201
2312.3157429716925,1233
2314.1806104990483,1159
2316.0450524234247,1242
2317.9090690262888,1226
2319.772660589186,1251
2321.635827393742,1189
2323.498569721661,1253
2325.3608878547248,1181
2327.2227820747967,1149
2329.0842526638157,1166
2330.945299903803,1191
2332.805924076857,1228
2334.6661254651535,1214
2336.525904350951,1239
2338.3852610165827,1183
2340.244195744464,1235
2342.102708817088,1228
2343.9608005170253,1161
2345.8184711269287,1243
2347.675720929526,1168
2349.532550207628,1227
2351.38895924412,1212
2353.24494832197,1221
2355.100517724223,1219
2356.955667734004,1218
2358.810398634514,1254
2360.664710709037,1221
2362.5186042409337,1282
2364.3720795136437,1209
2366.225136810686,1210
2368.0777764156583,1224
2369.929998612237,1198
2371.7818036841777,1246
2373.633191915315,1248
2375.484163589562,1289
2377.3347189909114,1201
2379.184858403434,1195
2381.03458211128,1236
2382.8838903986775,1262
2384.732783549936,1206
2386.5812618494406,1264
2388.4293255816588,1255
2390.2769750311327,1272
2392.1242104824883,1245
2393.971032220427,1233
2395.8174405297295,1239
2397.6634356952563,1244
2399.509018001947,1278
2401.3541877348193,1290
2403.1989451789705,1306
2405.043290619576,1246
2406.8872243418905,1285
2408.730746631247,1196
2410.5738577730594,1223
2412.4165580528183,1251
2414.258847756095,1167
2416.100727168537,1206
2417.9421965758734,1249
2419.783256263912,1226
2421.623906518538,1195
2423.4641476257157,1255
2425.303979871491,1235
2427.143403541984,1253
2428.9824189233977,1232
2430.821026302012,1259
2432.6592259641866,1203
2434.497018196361,1251
2436.33440328505,1249
2438.171381516851,1294
2440.00795317844,1271
2441.844118556569,1239
2443.6798779380724,1230
2445.5152316098606,1244
2447.3501798589255,1290
2449.1847229723357,1266
2451.0188612372403,1253
2452.8525949408663,1220
2454.6859243705203,1257
2456.518849813587,1259
2458.3513715575314,1264
2460.183489889895,1237
2462.015205098301,1271
2463.8465174704493,1304
2465.67742729412,1244
2467.5079348571717,1260
2469.338040447542,1291
2471.1677443532476,1225
2472.9970468623833,1282
2474.825948263123,1293
2476.6544488437207,1237
2478.482548892508,1290
2480.310248697896,1287
2482.137548548374,1263
2483.9644487325118,1246
2485.790949538956,1226
2487.617051256433,1205
2489.44275417375,1307
2491.26805857979,1280
2493.0929647635157,1228
2494.917473013971,1301
2496.741583620276,1291
2498.5652968716304,1228
2500.3886130573137,1272
2502.2115324666834,1309
2504.0340553891765,1296
2505.856182114308,1339
2507.6779129316733,1334
2509.499248130945,1370
2511.3201880018764,1310
2513.140732834298,1299
2514.9608829181198,1317
2516.780638543331,1303
2518.6,1351
2520.418967578273,1296
2522.237541568376,1335
2524.0557222606144,1324
2525.8735099453706,1296
2527.6909049131086,1353
2529.507907454368,1359
2531.32451785977,1331
2533.140736420014,1377
2534.9565634258774,1338
2536.771999168218,1376
2538.5870439379714,1351
2540.4016980261526,1426
2542.2159617238544,1412
2544.02983532225,1404
2545.8433191125914,1465
2547.656413386209,1414
2549.4691184345115,1371
2551.2814345489874,1473
2553.093362021204,1479
2554.904901142808,1465
2556.716052205523,1437
2558.526815501153,1461
2560.3371913215824,1454
2562.147179958771,1545
2563.956781704761,1567
2565.7659968516705,1543
2567.5748256916986,1528
2569.3832685171224,1511
2571.1913256202984,1549
2572.9989972936614,1535
2574.806283829725,1525
2576.613185521084,1569
2578.4197026604074,1549
2580.2258355404483,1575
2582.031584454035,1632
2583.836949694077,1570
2585.6419315535613,1564
2587.4465303255533,1684
2589.2507463032002,1682
2591.0545797797245,1549
2592.8580310484303,1627
2594.6611004026995,1649
2596.463788135992,1604
2598.266094541849,1637
2600.0680199138874,1651
2601.869564545807,1628
2603.670728731383,1624
2605.4715127644704,1626
2607.2719169390048,1633
2609.071941548998,1662
2610.8715868885433,1599
2612.670853251811,1632
2614.469740933052,1656
2616.268250226594,1639
2618.0663814268455,1589
2619.864134828292,1626
2621.6615107255006,1555
2623.458509413115,1619
2625.2551311858597,1670
2627.0513763385347,1533
2628.8472451660223,1627
2630.6427379632833,1592
2632.4378550253564,1600
2634.232596647359,1539
2636.026963124488,1557
2637.8209547520187,1546
2639.6145718253065,1527
2641.407814639785,1516
2643.200683490966,1544
2644.9931786744414,1506
2646.7853004858807,1536
2648.577049221034,1504
2650.3684251757277,1458
2652.1594286458712,1447
2653.9500599274484,1448
2655.740319316525,1401
2657.5302071092437,1449
2659.3197236018286,1464
2661.10886909058,1393
2662.8976438718782,1423
2664.686048242183,1408
2666.4740824980327,1466
2668.2617469360443,1414
2670.0490418529134,1354
2671.8359675454153,1424
2673.622524310403,1345
2675.408712444811,1410
2677.1945322456495,1371
2678.979984010009,1334
2680.76506803506,1392
2682.5497846180497,1418
2684.334134056306,1287
2686.1181166472343,1296
2687.9017326883213,1297
2689.6849824771293,1311
2691.4678663113013,1321
2693.2503844885596,1286
2695.032537306705,1281
2696.8143250636167,1222
2698.5957480572542,1240
2700.3768065856534,1305
2702.1575009469316,1299
2703.937831439283,1253
2705.717798360982,1270
2707.4974020103837,1255
2709.276642685917,1277
2711.055520686095,1266
2712.834036309506,1267
2714.612189854819,1202
2716.389981620782,1227
2718.1674119062204,1226
2719.944481010041,1268
2721.721189231226,1243
2723.4975368688415,1249
2725.273524222027,1245
2727.0491515900053,1270
2728.824419272075,1233
2730.5993275676146,1239
2732.3738767760838,1180
2734.148067197016,1242
2735.921899130031,1195
2737.6953728748194,1248
2739.468488731156,1250
2741.2412469988926,1243
2743.0136479779617,1199
2744.785691968372,1178
2746.5573792702116,1194
2748.3287101836504,1200
2750.099685008934,1194
2751.870304046388,1185
2753.640567596418,1224
2755.4104759595057,1226
2757.1800294362156,1195
2758.949228327187,1209
2760.7180729331412,1271
2762.486563554877,1247
2764.254700493272,1232
2766.022484049284,1207
2767.789914523947,1235
2769.5569922183786,1179
2771.3237174337705,1219
2773.090090471394,1184
2774.8561116326036,1196
2776.6217812188274,1201
2778.3870995315756,1158
2780.1520668724356,1187
2781.9166835430747,1172
2783.6809498452394,1197
2785.444866080754,1206
2787.2084325515225,1160
2788.971649559527,1162
2790.73451740683,1163
2792.4970363955713,1175
2794.2592068279705,1220
2796.0210290063264,1177
2797.7825032330147,1217
2799.543629810493,1211
2801.304409041296,1229
2803.0648412280366,1180
2804.8249266734088,1196
2806.5846656801846,1221
2808.344058551212,1186
2810.1031055894246,1238
2811.8618070978273,1204
2813.6201633795085,1186
2815.378174737636,1208
2817.1358414754536,1183
2818.893163896285,1175
2820.6501423035334,1178
2822.4067770006814,1192
2824.1630682912883,1175
2825.9190164789957,1220
2827.6746218675207,1163
2829.429884760661,1167
2831.184805462294,1172
2832.9393842763743,1171
2834.693621506936,1178
2836.4475174580916,1183
2838.201072434034,1232
2839.954286739034,1198
2841.707160677441,1142
2843.459694553685,1174
2845.2118886722724,1234
2846.96374333779,1206
2848.7152588549034,1191
2850.4664355283567,1180
2852.217273662973,1186
2853.9677735636546,1221
2855.7179355353833,1207
2857.4677598832186,1183
2859.217246912299,1217
2860.9663969278427,1178
2862.715210235146,1202
2864.4636871395846,1203
2866.211827946614,1183
2867.9596329617652,1157
2869.7071024906536,1173
2871.4542368389684,1213
2873.20103631248,1198
2874.947501217038,1190
2876.6936318585695,1188
2878.4394285430812,1180
2880.1848915766604,1189
2881.9300212654707,1213
2883.6748179157553,1164
2885.4192818338374,1193
2887.1634133261173,1225
2888.907212699077,1208
2890.6506802592744,1229
2892.393816313348,1214
2894.1366211680142,1216
2895.8790951300693,1190
2897.621238506388,1191
2899.363051603925,1185
2901.1045347297118,1182
2902.8456881908596,1180
2904.58651229456,1244
2906.327007348081,1174
2908.067173658772,1189
2909.8070115340597,1213
2911.5465212814497,1196
2913.285703208527,1184
2915.0245576229563,1207
2916.7630848324807,1185
2918.5012851449196,1244
2920.2391588681758,1190
2921.976706310227,1236
2923.7139277791334,1198
2925.4508235830313,1212
2927.187394030137,1173
2928.923639428745,1180
2930.6595600872306,1137
2932.395156314046,1155
2934.1304284177218,1159
2935.8653767068713,1197
2937.6000014901815,1181
2939.3343030764227,1175
2941.068281774442,1190
2942.8019378931644,1247
2944.5352717415976,1213
2946.2682836288236,1203
2948.0009738640065,1187
2949.7333427563885,1210
2951.465390615289,1180
2953.1971177501086,1237
2954.9285244703265,1172
2956.6596110855,1207
2958.3903779052657,1217
2960.1208252393385,1198
2961.8509533975125,1192
2963.5807626896617,1208
2965.3102534257378,1195
2967.0394259157715,1159
2968.768280469873,1205
2970.496817398232,1163
2972.2250370111146,1155
2973.952939618869,1211
2975.6805255319196,1222
2977.4077950607707,1252
2979.134748516006,1220
2980.861386208289,1216
2982.587708448359,1226
2984.313715547037,1194
2986.039407815222,1195
2987.764785563891,1194
2989.489849104102,1185
2991.2145987469908,1176
2992.9390348037705,1218
2994.6631575857346,1199
2996.3869674042576,1168
2998.1104645707887,1136
2999.83364939686,1175
3001.5565221940783,1183
3003.2790832741334,1176
3005.0013329487924,1174
3006.7232715298996,1218
3008.4448993293804,1147
3010.166216659239,1238
3011.887223831558,1194
3013.607921158498,1208
3015.3283089522993,1181
3017.0483875252826,1219
3018.7681571898443,1197
3020.4876182584626,1204
3022.2067710436927,1198
3023.9256158581707,1169
3025.644153014609,1165
3027.362382825801,1214
3029.0803056046193,1205
3030.797921664012,1173
3032.5152313170106,1168
3034.2322348767225,1215
3035.9489326563353,1180
3037.665324969115,1166
3039.3814121284063,1166
3041.097194447633,1212
3042.812672240299,1173
3044.5278458199855,1201
3046.2427155003525,1145
3047.9572815951406,1181
3049.671544418167,1178
3051.38550428333,1139
3053.0991615046073,1173
3054.812516396051,1215
3056.5255692717974,1186
3058.2383204460575,1201
3059.9507702331257,1135
3061.662918947372,1182
3063.3747669032446,1188
3065.0863144152736,1221
3066.7975617980674,1245
3068.508509366309,1227
3070.219157434767,1177
3071.9295063182844,1183
3073.639556331785,1216
3075.3493077902704,1139
3077.058761008821,1233
3078.7679163025964,1149
3080.476773986837,1183
3082.1853343768594,1194
3083.89359778806,1215
3085.6015645359153,1155
3087.3092349359786,1155
3089.016609303884,1139
3090.7236879553434,1193
3092.4304712061476,1215
3094.136959372166,1171
3095.843152769349,1160
3097.5490517137237,1208
3099.2546565213966,1194
3100.959967508554,1130
3102.66498499146,1163
3104.3697092864577,1181
3106.0741407099695,1183
3107.778279578498,1201
3109.482126208622,1203
3111.1856809170004,1208
3112.8889440203716,1197
3114.5919158355528,1166
3116.294596679439,1158
3117.996986869006,1199
3119.6990867213062,1232
3121.4008965534726,1195
3123.102416682717,1175
3124.803647426329,1195
3126.5045891016784,1199
3128.205242026213,1201
3129.90560651746,1260
3131.605682893025,1214
3133.3054714705922,1236
3135.0049725679282,1251
3136.7041865028714,1197
3138.4031135933465,1212
3140.101754157353,1158
3141.800108512971,1161
3143.498176978357,1161
3145.1959598717494,1193
3146.8934575114636,1177
3148.5906702158954,1179
3150.2875983035183,1181
3151.9842420928853,1175
3153.680601902627,1119
3155.376678051456,1176
3157.07247085816,1180
3158.767980641609,1168
3160.463207720748,1203
3162.158152414606,1145
3163.8528150422862,1190
3165.5471959229726,1193
3167.2412953759303,1192
3168.9351137204976,1195
3170.628651276098,1198
3172.3219083622307,1175
3174.014885298474,1158
3175.707582404485,1177
3177.4000000000005,1154
3179.092138404835,1157
3180.7839979388846,1182
3182.47557892212,1213
3184.166881674594,1215
3185.8579065164386,1174
3187.5486537678626,1188
3189.2391237491547,1221
3190.9293167806827,1164
3192.6192331828934,1176
3194.3088732763117,1149
3195.998237381542,1149
3197.687325819268,1149
3199.376138910251,1185
3201.064676975334,1178
3202.7529403354347,1125
3204.4409293115523,1145
3206.1286442247647,1126
3207.816085396229,1213
3209.5032531471825,1172
3211.190147798936,1114
3212.8767696728846,1139
3214.5631190905015,1140
3216.2491963733373,1210
3217.9350018430214,1115
3219.6205358212637,1100
3221.305798629851,1183
3222.990790590651,1142
3224.6755120256103,1151
3226.359963256751,1167
3228.0441446061795,1163
3229.7280563960758,1142
3231.411698948703,1133
3233.0950725863995,1153
3234.778177631587,1178
3236.461014406761,1172
3238.1435832345005,1122
3239.8258844374595,1177
3241.507918338374,1172
3243.1896852600576,1151
3244.8711855254023,1140
3246.552419457381,1168
3248.233387379042,1148
3249.914089613516,1147
3251.59452648401,1170
3253.274698313813,1157
3254.95460542629,1183
3256.6342481448855,1171
3258.313626793125,1169
3259.9927416946084,1108
3261.6715931730196,1102
3263.3501815521176,1179
3265.0285071557437,1125
3266.706570307815,1111
3268.3843713323286,1151
3270.0619105533615,1142
3271.739188295068,1149
3273.4162048816834,1171
3275.0929606375184,1163
3276.769455886966,1125
3278.445690954498,1198
3280.1216661646613,1182
3281.797381842087,1154
3283.4728383114807,1151
3285.1480358976296,1194
3286.8229749253996,1157
3288.4976557197333,1161
3290.172078605655,1106
3291.846243908266,1144
3293.5201519527463,1170
3295.193803064357,1147
3296.8671975684374,1099
3298.5403357904024,1103
3300.21321805575,1103
3301.8858446900567,1161
3303.558216018975,1129
3305.23033236824,1164
3306.9021940636603,1162
3308.57380143113,1175
3310.2451547966184,1154
3311.916254486174,1239
3313.5871008259246,1193
3315.2576941420766,1170
3316.9280347609147,1152
3318.5981230088046,1146
3320.2679592121895,1184
3321.9375436975924,1110
3323.606876791612,1086
3325.27595882093,1151
3326.944790112305,1149
3328.6133709925753,1181
3330.2817017886573,1148
3331.949782827547,1119
3333.617614436319,1192
3335.2851969421245,1189
3336.952530672199,1169
3338.619615953853,1174
3340.286453114475,1160
3341.9530424815357,1119
3343.619384382583,1192
3345.2854791452437,1162
3346.951327097224,1137
3348.6169285663073,1157
3350.2822838803577,1135
3351.947393367319,1166
3353.61225735521,1166
3355.2768761721345,1174
3356.9412501462693,1139
3358.605379605873,1163
3360.2692648792827,1143
3361.9329062949146,1110
3363.596304181263,1150
