CollectionTime,7/11/2024 12:20:31 PM
ExposureUsed,3
CalibratedSpectrum
-962.7078968117929,534
-959.9714848408522,579
-957.2358232597828,573
-954.5009119013725,589
-951.7667505983302,570
-949.0333391832855,580
-946.3006774887896,561
-943.5687653473143,595
-940.837602591253,583
-938.1071890529199,560
-935.3775245645503,625
-932.6486089583007,610
-929.9204420662485,579
-927.1930237203925,594
-924.4663537526524,575
-921.7404319948689,575
-919.0152582788041,631
-916.2908324361409,660
-913.5671542984834,589
-910.8442236973568,584
-908.1220404642074,584
-905.4006044304027,626
-902.679915427231,591
-899.959973285902,579
-897.2407778375464,578
-894.5223289132158,564
-891.8046263438832,544
-889.0876699604426,538
-886.3714595937089,522
-883.6559950744183,598
-880.9412762332282,550
-878.2273029007168,534
-875.5140749073835,538
-872.8015920836489,574
-870.0898542598545,558
-867.3788612662631,561
-864.6686129330585,581
-861.9591090903457,574
-859.2503495681506,574
-856.5423341964203,595
-853.8350628050229,556
-851.1285352237478,564
-848.4227512823054,571
-845.7177108103272,578
-843.0134136373656,572
-840.3098595928943,588
-837.6070485063082,620
-834.9049802069229,591
-832.2036545239757,588
-829.5030712866244,585
-826.8032303239481,551
-824.1041314649472,578
-821.4057745385428,556
-818.7081593735775,580
-816.0112857988148,576
-813.3151536429393,558
-810.6197627345566,577
-807.9251129021936,554
-805.2312039742981,583
-802.5380357792392,543
-799.8456081453069,588
-797.1539209007124,586
-794.462973873588,602
-791.772766891987,661
-789.083299783884,632
-786.3945723771743,583
-783.7065844996748,576
-781.0193359791231,577
-778.3328266431781,563
-775.6470563194197,569
-772.9620248353489,570
-770.2777320183878,592
-767.5941776958798,575
-764.9113616950891,548
-762.2292838432011,566
-759.5479439673222,587
-756.8673418944801,624
-754.1874774516235,610
-751.5083504656222,580
-748.8299607632671,579
-746.15230817127,592
-743.475392516264,592
-740.7992136248035,618
-738.1237713233636,616
-735.4490654383407,613
-732.7750957960521,605
-730.1018622227365,636
-727.4293645445534,577
-724.7576025875837,631
-722.0865761778291,605
-719.4162851412126,636
-716.7467293035781,667
-714.0779084906909,635
-711.409822528237,662
-708.7424712418238,639
-706.0758544569796,639
-703.4099719991541,666
-700.7448236937178,668
-698.0804093659622,686
-695.4167288411002,639
-692.7537819442656,635
-690.0915685005134,634
-687.4300883348199,660
-684.7693412720819,653
-682.1093271371178,695
-679.4500457546669,659
-676.7914969493897,639
-674.1336805458676,644
-671.4765963686034,662
-668.8202442420206,644
-666.1646239904642,672
-663.5097354382001,682
-660.8555784094151,667
-658.2021527282176,647
-655.5494582186366,684
-652.8974947046223,660
-650.2462620100463,677
-647.5957599587009,667
-644.9459883742998,677
-642.2969470804776,665
-639.6486359007902,696
-637.0010546587141,701
-634.3542031776476,696
-631.7080812809096,690
-629.0626887917401,701
-626.4180255333008,704
-623.7740913286734,687
-621.1308860008619,735
-618.4884093727904,678
-615.8466612673046,668
-613.2056415071715,676
-610.5653499150785,685
-607.9257863136347,669
-605.28695052537,659
-602.6488423727357,720
-600.0114616781036,682
-597.3748082637674,704
-594.7388819519412,678
-592.1036825647604,783
-589.4692099242818,802
-586.8354638524829,804
-584.2024441712624,727
-581.5701507024403,772
-578.9385832677575,774
-576.3077416888759,740
-573.6776257873787,743
-571.0482353847704,713
-568.4195703024757,711
-565.7916303618415,691
-563.164415384135,768
-560.5379251905453,711
-557.9121596021815,682
-555.2871184400748,687
-552.6628015251767,714
-550.0392086783606,717
-547.4163397204204,703
-544.794194472071,707
-542.1727727539491,743
-539.5520743866118,850
-536.9320991905377,856
-534.3128469861261,834
-531.6943175936979,823
-529.0765108334947,848
-526.4594265256793,887
-523.8430644903358,962
-521.2274245474689,1038
-518.612506517005,1057
-515.9983102187913,1064
-513.3848354725959,1090
-510.77208209810846,1200
-508.16004991493924,1251
-505.5487387426199,1480
-502.9381484006032,1583
-500.3282787082628,1452
-497.71912948489364,1432
-495.1107005497117,1306
-492.5029917218539,1198
-489.8960028203786,1059
-487.28973366426493,987
-484.68418407241325,947
-482.07935386364494,903
-479.47524285670266,905
-476.87185087025,895
-474.2691777228715,865
-471.66722323307334,849
-469.0659872192821,869
-466.4654694998459,853
-463.86566989303384,860
-461.26658821703614,885
-458.66822428996414,881
-456.07057792985,871
-453.4736489546475,897
-450.877437182231,867
-448.28194243039627,815
-445.68716451686,835
-443.09310325926003,863
-440.49975847515555,893
-437.9071299820263,854
-435.31521759727354,884
-432.72402113821954,901
-430.13354042210767,910
-427.5437752661022,874
-424.95472548728867,937
-422.36639090267386,933
-419.7787713291855,950
-417.1918665836721,985
-414.60567648290385,937
-412.0202008435715,912
-409.4354394822874,946
-406.8513922155845,921
-404.26805885991723,991
-401.685439231661,986
-399.103533147112,997
-396.522340422488,935
-393.9418608739278,854
-391.3620943174908,934
-388.7830405691583,896
-386.2046994448317,874
-383.6270707603344,829
-381.05015433141045,770
-378.473949973725,706
-375.8984575028645,703
-373.32367673433623,665
-370.74960748356875,707
-368.1762495659117,654
-365.60360279663576,575
-363.03166699093265,537
-360.4604419639154,552
-357.8899275306178,546
-355.32012350599507,519
-352.7510297049233,509
-350.1826459421999,448
-347.61497203254316,465
-345.04800779059235,504
-342.4817530309082,486
-339.91620756797226,507
-337.35137121618743,518
-334.7872437898774,567
-332.22382510328725,574
-329.66111497058273,537
-327.09911320585127,508
-324.53781962310075,502
-321.9772340362607,524
-319.4173562591816,493
-316.8581861056348,489
-314.2997233893127,529
-311.7419679238294,515
-309.1849195227194,487
-306.62857799943856,535
-304.0729431673641,565
-301.51801483979375,558
-298.963792829947,577
-296.41027695096386,566
-293.85746701590574,538
-291.3053628377552,578
-288.7539642294155,549
-286.2032710037115,545
-283.65328297338897,541
-281.1039999511146,618
-278.5554217494762,664
-276.007548180983,618
-273.4603790580651,647
-270.9139141930734,592
-268.3681533982807,526
-265.8230964858798,587
-263.27874326798565,604
-260.7350935566336,647
-258.1921471637804,618
-255.6499039013039,609
-253.10836358100266,657
-250.56752601459698,611
-248.02739101372765,649
-245.48795838995704,629
-242.94922795476816,635
-240.41119951956557,607
-237.8738728956746,657
-235.33724789434166,653
-232.80132432673452,631
-230.2661020039418,652
-227.73158073697357,591
-225.19776033676033,603
-222.66464061415422,639
-220.1322213799284,666
-217.60050244477725,616
-215.06948361931552,615
-212.53916471408013,675
-210.00954553952818,682
-207.48062590603843,695
-204.9524056239104,718
-202.4248845033651,798
-199.8980623545441,722
-197.37193898751036,765
-194.84651421224817,700
-192.32178783866232,780
-189.79775967657952,797
-187.27442953574644,791
-184.7517972258321,817
-182.2298625564256,844
-179.7086253370378,837
-177.18808537710026,810
-174.66824248596583,801
-172.14909647290835,767
-169.6306471471229,781
-167.11289431772548,852
-164.59583779375328,874
-162.07947738416453,816
-159.5638128978386,840
-157.04884414357605,900
-154.53457093009854,1035
-152.02099306604828,959
-149.50811035998936,752
-146.99592262040665,819
-144.48442965570587,938
-141.97363127421409,922
-139.46352728417958,992
-136.95411749377126,940
-134.44540171107985,945
-131.93737974411636,881
-129.43005140081357,792
-126.92341648902493,1090
-124.41747481652521,1307
-121.91222619101006,1493
-119.40767042009657,1740
-116.90380731132257,1868
-114.40063667214702,1931
-111.8981583099503,1726
-109.3963720320337,1282
-106.89527764561933,1320
-104.39487495785067,1524
-101.89516377579241,2418
-99.39614390642998,3141
-96.89781515667039,3240
-94.40017733334128,2844
-91.90323024319173,3686
-89.40697369289148,5496
-86.91140748903172,8024
-84.41653143812482,9161
-81.92234534660395,5946
-79.42884902082358,4167
-76.93604226705907,7144
-74.4439248915071,15107
-71.95249670028534,23827
-69.46175749943245,31156
-66.97170709490854,31363
-64.48234529259423,26817
-61.99367189829195,21534
-59.50568671772464,19053
-57.01838955653636,17933
-54.53178022029283,15121
-52.045858514480074,13232
-49.560624244506016,12879
-47.07607721569923,14923
-44.59221723330904,14113
-42.10904410250669,14269
-39.62655762838392,13139
-37.14475761595372,12521
-34.66364387015028,11315
-32.18321619582866,10542
-29.70347439776515,10959
-27.224418280657005,10315
-24.74604764912317,10683
-22.26836230770266,15259
-19.7913620608565,27933
-17.315046712966478,49495
-14.83941606833514,65038
-12.36446993118659,65038
-9.89020810566592,65038
-7.416630395839093,65038
-4.94373660569363,65038
-2.471526539137585,65038
-6.821210263296962E-13,65038
2.47084320796705,65038
4.941003281093458,65038
7.410480415786196,65038
9.879274808531363,65038
12.347386655893956,65038
14.814816154518212,65038
17.28156350112681,65038
19.74762889252179,65038
22.21301252558385,65038
24.67771459727237,21531
27.141735304626195,4530
29.605074844762612,3099
32.06773341487792,2858
34.52971121224755,2880
36.99100843422559,3423
39.45162527824516,3006
41.91156194181792,1829
44.370818622535126,1718
46.82939551806646,1429
49.287292826160524,1614
51.74451074464503,2032
54.201049471426245,2302
56.65690920448981,2463
59.112090141899785,2043
61.56659248179983,1787
64.02041642241159,1616
66.4735621620365,1566
68.92602989905402,1350
71.37781983192338,1401
73.82893215918205,1566
76.27936707944684,1597
78.72912479141326,1488
81.17820549385567,1429
83.62660938562783,1425
86.07433666566146,1648
88.5213875329681,1476
90.96776218663751,1194
93.41346082583925,935
95.85848364982041,1159
98.30283085790859,1447
100.7465026495089,1390
103.18949922410604,1145
105.63182078126385,1173
108.07346752062438,1151
110.51443964190923,920
112.95473734491827,903
115.39436082953114,1025
117.83331029570547,956
120.27158594347827,989
122.7091879729652,1096
125.1461165843615,1232
127.58237197794062,1065
130.01795435405518,947
132.4528639131364,951
134.88710085569494,1041
137.32066538231982,874
139.75355769367923,915
142.1857779905207,893
144.61732647366978,930
147.04820334403132,873
149.47840880258934,886
151.90794305040674,989
154.33680628862487,1221
156.76499871846443,1292
159.19252054122433,1363
161.61937195828352,1401
164.04555317109896,1567
166.47106438120693,1840
168.89590579022217,1945
171.320077599839,2036
173.7435800118302,2047
176.16641322804742,2259
178.58857745042144,2377
181.01007288096173,2464
183.43089972175687,2540
185.85105817497413,2493
188.27054844285988,2360
190.6893707277394,2500
193.10752523201643,2434
195.5250121581745,2493
197.9418317087751,2599
200.3579840864594,2541
202.7734694939469,2464
205.18828813403627,2612
207.6024402096051,2774
210.01592592360964,2781
212.42874547908548,2757
214.84089907914665,2635
217.2523869269868,2587
219.66320922587727,2649
222.0733661791695,2567
224.48285799029293,2486
226.8916848627572,2535
229.29984700014882,2602
231.7073446061355,2664
234.11417788446204,2626
236.520347038953,2637
238.92585227351185,2772
241.33069379212054,2860
243.73487179884035,2946
246.1383864978112,2949
248.541238093252,2939
250.9434267894609,2728
253.34495279081432,2993
255.74581630176783,3016
258.1460175268563,2933
260.54555667069314,2908
262.9444339379703,2917
265.3426495334594,2953
267.7402036620107,2811
270.1370965285529,2839
272.53332833809407,2681
274.9288992957214,2619
277.32380960660055,2562
279.718059475976,2466
282.1116491091717,2541
284.5045787115897,2513
286.89684848871195,2335
289.2884586460981,2412
291.67940938938807,2367
294.0697009242996,2381
296.4593334566299,2413
298.84830719225477,2378
301.23662233712923,2365
303.6242790972866,2396
306.01127767884,2346
308.39761828798066,2344
310.78330113097934,2290
313.16832641418534,2176
315.5526943440269,2168
317.9364051270112,2089
320.3194589697242,2137
322.70185607883093,2137
325.0835966610754,2187
327.4646809232805,2131
329.8451090723478,2090
332.2248813152577,2060
334.6039978590701,2014
336.9824589109231,2096
339.36026467803447,2045
341.7374153677,2030
344.113911187295,1995
346.48975234427337,1955
348.8649390461686,1993
351.2394715005918,2044
353.61334991523415,2033
355.9865744978655,1920
358.35914545633375,2051
360.73106299856715,2054
363.10232733257146,2043
365.47293866643247,1988
367.84289720831396,1904
370.2122031664593,1940
372.5808567491905,1933
374.9488581649083,1948
377.31620762209275,1799
379.6829053293021,1923
382.0489514951745,1889
384.4143463284262,1889
386.7790900378528,1911
389.14318283232853,1897
391.50662492080653,1877
393.86941651231916,1900
396.23155781597745,1887
398.5930490409713,1930
400.9538903965696,1857
403.3140820921202,1927
405.6736243370498,1934
408.03251734086336,1870
410.3907613131465,1881
412.74835646356166,1805
415.10530300185144,1843
417.4616011378372,1766
419.81725108141893,1791
422.1722530425758,1770
424.5266072313656,1846
426.880313857925,1783
429.2333731324701,1842
431.58578526529516,1761
433.9375504667738,1751
436.2886689473588,1756
438.63914091758113,1839
440.9889665880513,1831
443.33814616945835,1734
445.68667987257015,1715
448.03456790823395,1769
450.3818104873759,1800
452.72840782100013,1826
455.07436012019105,1777
457.41966759611057,1780
459.7643304600007,1737
462.10834892318155,1716
464.4517231970525,1806
466.79445349309174,1784
469.1365400228566,1787
471.4779829979826,1791
473.81878263018564,1818
476.15893913125876,1742
478.4984527130747,1873
480.8373235875855,1880
483.17555196682144,1873
485.5131380628919,1929
487.8500820879857,1946
490.1863842543697,2082
492.52204477439034,2221
494.8570638604725,2319
497.1914417251204,2574
499.52517858091653,2901
501.85827464052306,3112
504.19073011668036,3311
506.5225452222086,3346
508.85372017000566,3215
511.18425517304956,3179
513.514150444396,3139
515.8434061971808,3694
518.1720226446176,4354
520.4999999999999,4405
522.8273384766991,4125
525.1540382881666,3834
527.480099647932,3358
529.8055227696037,2837
532.1303078668694,2351
534.454455153496,2148
536.777964843328,1934
539.1008371502907,1939
541.4230722883866,1889
543.744670471698,1759
546.0656319143858,1861
548.3859568306899,1833
550.7056454349294,1734
553.0246979415016,1734
555.3431145648834,1706
557.6608955196306,1787
559.978041020377,1751
562.2945512818363,1738
564.6104265188006,1784
566.9256669461412,1836
569.2402727788082,1816
571.5542442318302,1743
573.8675815203156,1780
576.1802848594508,1758
578.4923544645015,1825
580.8037905508126,1717
583.114593333807,1836
585.4247630289875,1796
587.7342998519354,1724
590.0432040183106,1849
592.3514757438526,1829
594.6591152443794,1825
596.9661227357875,1837
599.2724984340531,1739
601.578242555231,1808
603.8833553154542,1766
606.1878369309362,1842
608.4916876179676,1760
610.7949075929192,1810
613.0974970722403,1779
615.3994562724587,1775
617.7007854101818,1817
620.0014847020951,1745
622.3015543649641,1772
624.6009946156324,1770
626.8998056710224,1757
629.1979877481361,1804
631.4955410640538,1784
633.7924658359349,1823
636.0887622810175,1820
638.3844306166192,1766
640.6794710601358,1797
642.9738838290426,1868
645.2676691408932,1830
647.5608272133207,1882
649.853358264037,1909
652.1452625108324,1866
654.4365401715764,1879
656.7271914642178,1879
659.0172166067838,1852
661.3066158173809,1858
663.5953893141935,1846
665.8835373154867,1856
668.1710600396028,1873
670.4579577049639,1822
672.7442305300709,1861
675.0298787335033,1799
677.3149025339197,1802
679.599302150058,1784
681.8830778007342,1857
684.1662297048437,1777
686.4487580813608,1888
688.7306631493387,1801
691.0119451279091,1840
693.2926042362834,1819
695.5726406937516,1853
697.8520547196814,1871
700.1308465335215,1931
702.4090163547982,1800
704.6865644031171,1807
706.9634908981619,1760
709.2397960596965,1848
711.5154801075631,1852
713.7905432616823,1813
716.0649857420548,1826
718.3388077687592,1824
720.612009561953,1773
722.8845913418733,1874
725.1565533288352,1818
727.427895743234,1845
729.6986188055427,1794
731.9687227363137,1802
734.238207756178,1836
736.5070740858458,1781
738.7753219461066,1743
741.0429515578281,1772
743.3099631419569,1821
745.5763569195191,1774
747.8421331116193,1778
750.1072919394409,1831
752.3718336242467,1858
754.6357583873777,1833
756.8990664502545,1786
759.1617580343765,1859
761.423833361321,1781
763.6852926527457,1865
765.9461361303862,1863
768.206364016058,1860
770.4659765316536,1882
772.7249738991469,1844
774.9833563405886,1815
777.2411240781092,1836
779.4982773339183,1851
781.7548163303044,1869
784.010741289634,1829
786.2660524343538,1882
788.5207499869881,1883
790.7748341701416,1928
793.0283052064964,1861
795.2811633188143,1828
797.5334087299362,1830
799.7850416627813,1842
802.0360623403484,1823
804.2864709857143,1823
806.5362678220353,1912
808.7854530725468,1837
811.0340269605625,1833
813.2819897094754,1847
815.5293415427581,1769
817.77608268396,1845
820.0222133567116,1874
822.2677337847211,1841
824.5126441917765,1829
826.7569448017433,1847
829.0006358385675,1886
831.2437175262731,1894
833.4861900889629,1850
835.7280537508192,1804
837.9693087361026,1811
840.2099552691533,1855
842.4499935743896,1835
844.689423876309,1885
846.9282463994886,1893
849.1664613685833,1907
851.4040690083276,1873
853.6410695435349,1778
855.877463199097,1793
858.1132501999847,1826
860.3484307712487,1872
862.5830051380175,1942
864.8169735254988,1866
867.0503361589791,1940
869.2830932638243,1909
871.5152450654786,1862
873.7467917894654,1900
875.9777336613873,1874
878.2080709069252,1860
880.4378037518389,1853
882.666932421968,1965
884.8954571432301,1914
887.1233781416219,1919
889.3506956432192,1921
891.5774098741766,1973
893.803521060728,1926
896.0290294291852,1868
898.2539352059397,1909
900.4782386174619,1901
902.7019398903011,1943
904.925039251085,1936
907.147536926521,1980
909.3694331433943,1922
911.59072812857,1963
913.8114221089921,1948
916.0315153116827,1949
918.2510079637437,1931
920.4699002923547,1896
922.6881925247761,1874
924.905884888345,1899
927.1229776104793,1816
929.3394709186747,1861
931.555365040506,1855
933.7706602036275,1891
935.9853566357709,1849
938.1994545647489,1839
940.4129542184515,1866
942.6258558248488,1914
944.8381596119883,1883
947.0498658079974,1839
949.2609746410825,1861
951.4714863395287,1810
953.6814011316998,1856
955.8907192460387,1869
958.0994409110671,1875
960.3075663553858,1846
962.5150958076741,1846
964.7220294966913,1859
966.928367651274,1840
969.1341105003388,1859
971.3392582728806,1790
973.5438111979742,1791
975.747769504772,1756
977.9511334225061,1769
980.153903180487,1802
982.3560790081052,1769
984.5576611348289,1839
986.7586497902058,1759
988.9590452038618,1742
991.158847605503,1742
993.3580572249133,1740
995.5566742919558,1765
997.7546990365728,1718
999.952131688785,1679
1002.1489724786926,1623
1004.3452216364743,1604
1006.5408793923874,1597
1008.7359459767691,1624
1010.9304216200343,1590
1013.1243065526781,1637
1015.3176010052733,1588
1017.510305208472,1589
1019.7024193930064,1584
1021.8939437896848,1549
1024.0848786293977,1556
1026.2752241431122,1621
1028.4649805618747,1540
1030.6541481168115,1594
1032.842727039127,1534
1035.0307175601051,1507
1037.2181199111074,1546
1039.4049343235752,1537
1041.591161029029,1502
1043.7768002590683,1553
1045.9618522453698,1526
1048.1463172196918,1510
1050.3301954138697,1540
1052.513487059818,1570
1054.69619238953,1560
1056.8783116350783,1527
1059.0598450286152,1511
1061.2407928023704,1491
1063.4211551886528,1445
1065.6009324198508,1471
1067.780124728432,1535
1069.9587323469414,1479
1072.1367555080046,1530
1074.314194444325,1469
1076.4910493886855,1500
1078.667320573947,1476
1080.843008233051,1453
1083.0181125990161,1454
1085.1926339049414,1454
1087.3665723840027,1440
1089.5399282694575,1511
1091.7127017946405,1479
1093.8848931929647,1395
1096.0565026979243,1394
1098.2275305430899,1431
1100.3979769621128,1434
1102.567842188722,1411
1104.737126456726,1407
1106.9058300000124,1449
1109.0739530525475,1432
1111.2414958483764,1447
1113.4084586216231,1484
1115.5748416064907,1402
1117.7406450372605,1424
1119.9058691482942,1358
1122.0705141740304,1378
1124.2345803489884,1450
1126.3980679077658,1434
1128.5609770850388,1367
1130.7233081155623,1407
1132.8850612341707,1380
1135.0462366757774,1415
1137.2068346753745,1423
1139.3668554680326,1332
1141.526299288901,1418
1143.68516637321,1370
1145.8434569562655,1362
1148.001171273455,1356
1150.158309560244,1330
1152.3148720521767,1368
1154.470858984876,1365
1156.626270594044,1368
1158.7811071154629,1371
1160.9353687849912,1330
1163.089055838569,1362
1165.242168512213,1357
1167.3947070420209,1380
1169.5466716641677,1360
1171.6980626149075,1403
1173.8488801305748,1331
1175.9991244475814,1363
1178.1487958024186,1385
1180.2978944316555,1381
1182.4464205719428,1402
1184.5943744600072,1303
1186.7417563326567,1401
1188.8885664267755,1370
1191.0348049793297,1360
1193.1804722273619,1375
1195.325568407995,1344
1197.4700937584303,1314
1199.614048515948,1378
1201.7574329179074,1360
1203.900247201746,1437
1206.042491604982,1372
1208.1841663652099,1384
1210.3252717201053,1378
1212.465807907422,1346
1214.6057751649923,1378
1216.7451737307279,1376
1218.8840038426192,1356
1221.0222657387353,1352
1223.1599596572241,1397
1225.2970858363137,1352
1227.4336445143094,1425
1229.5696359295966,1376
1231.705060320639,1445
1233.8399179259786,1373
1235.9742089842384,1443
1238.107933734118,1390
1240.2410924143974,1409
1242.373685263935,1461
1244.5057125216676,1412
1246.6371744266116,1426
1248.7680712178621,1373
1250.898403134593,1445
1253.028170416058,1417
1255.1573733015875,1467
1257.2860120305932,1439
1259.4140868425648,1490
1261.54159797707,1415
1263.6685456737569,1437
1265.7949301723515,1443
1267.9207517126597,1460
1270.046010534565,1426
1272.1707068780306,1430
1274.2948409830983,1457
1276.4184130898889,1446
1278.541423438603,1477
1280.6638722695184,1464
1282.785759822993,1474
1284.9070863394636,1472
1287.0278520594447,1452
1289.1480572235314,1469
1291.2677020723963,1455
1293.3867868467923,1542
1295.5053117875495,1491
1297.623277135579,1510
1299.740683131868,1504
1301.8575300174857,1582
1303.973818033578,1525
1306.0895474213703,1572
1308.2047184221678,1549
1310.3193312773528,1539
1312.4333862283888,1541
1314.5468835168163,1523
1316.659823384255,1536
1318.7722060724045,1537
1320.8840318230418,1554
1322.9953008780249,1520
1325.1060134792888,1545
1327.2161698688478,1585
1329.3257702887959,1571
1331.4348149813054,1577
1333.5433041886276,1496
1335.6512381530933,1536
1337.7586171171101,1555
1339.8654413231675,1556
1341.9717110138317,1532
1344.0774264317488,1533
1346.1825878196432,1583
1348.2871954203192,1576
1350.3912494766587,1552
1352.4947502316231,1582
1354.5976979282532,1529
1356.7000928096686,1563
1358.8019351190665,1530
1360.9032250997243,1525
1363.0039629949988,1526
1365.1041490483235,1462
1367.2037835032133,1509
1369.3028666032606,1566
1371.401398592137,1553
1373.4993797135926,1538
1375.5968102114575,1498
1377.6936903296396,1522
1379.7900203121262,1523
1381.8858004029835,1586
1383.9810308463561,1556
1386.075711886469,1528
1388.1698437676241,1527
1390.2634267342032,1595
1392.356461030667,1571
1394.4489469015557,1541
1396.5408845914872,1587
1398.6322743451592,1592
1400.7231164073469,1630
1402.813411022907,1573
1404.903158436773,1583
1406.9923588939578,1607
1409.0810126395531,1626
1411.1691199187303,1621
1413.2566809767386,1610
1415.343696058907,1600
1417.4301654106425,1653
1419.5160892774315,1702
1421.6014679048399,1690
1423.6863015385125,1602
1425.7705904241707,1640
1427.8543348076178,1690
1429.9375349347342,1681
1432.0201910514802,1715
1434.102303403894,1744
1436.1838722380944,1748
1438.2648978002767,1777
1440.3453803367174,1727
1442.4253200937692,1740
1444.5047173178677,1822
1446.5835722555234,1814
1448.6618851533285,1874
1450.739656257952,1894
1452.8168858161434,1868
1454.8935740747306,1913
1456.96972128062,1868
1459.045327680797,2050
1461.120393522327,2025
1463.1949190523528,1980
1465.2689045180973,2045
1467.3423501668608,2124
1469.415256246024,1999
1471.4876230030463,2173
1473.559450685465,2097
1475.6307395408976,2228
1477.7014898170391,2208
1479.771701761665,2171
1481.8413756226287,2255
1483.9105116478618,2339
1485.9791100853772,2368
1488.0471711832643,2347
1490.1146951896926,2410
1492.1816823529098,2528
1494.2481329212433,2392
1496.3140471430984,2529
1498.3794252669609,2520
1500.4442675413939,2463
1502.5085742150404,2523
1504.572345536622,2624
1506.6355817549388,2631
1508.6982831188702,2626
1510.7604498773744,2605
1512.8220822794883,2499
1514.8831805743293,2609
1516.9437450110909,2630
1519.003775839048,2673
1521.0632733075522,2707
1523.1222376660367,2611
1525.1806691640113,2675
1527.2385680510652,2744
1529.2959345768668,2703
1531.3527689911643,2747
1533.4090715437833,2784
1535.4648424846291,2820
1537.5200820636855,2834
1539.5747905310159,2863
1541.6289681367616,2866
1543.6826151311434,2868
1545.7357317644614,2910
1547.7883182870937,3022
1549.8403749494987,2852
1551.8919020022113,3025
1553.9428996958477,3007
1555.9933682811015,3115
1558.0433080087469,3163
1560.0927191296346,3195
1562.1416018946961,3303
1564.1899565549415,3322
1566.2377833614592,3269
1568.2850825654164,3258
1570.3318544180606,3124
1572.3780991707158,3190
1574.423817074788,3055
1576.4690083817595,2985
1578.5136733431923,2813
1580.5578122107272,2777
1582.601425236085,2591
1584.6445126710646,2489
1586.6870747675434,2403
1588.7291117774776,2305
1590.7706239529034,2260
1592.8116115459347,2181
1594.8520748087658,2076
1596.8920139936686,2054
1598.9314293529933,2017
1600.9703211391711,1922
1603.008689604711,1883
1605.0465350022005,1869
1607.0838575843068,1845
1609.1206576037753,1791
1611.1569353134305,1750
1613.1926909661765,1674
1615.2279248149953,1654
1617.2626371129481,1672
1619.2968281131757,1607
1621.3304980688963,1569
1623.3636472334088,1543
1625.39627586009,1565
1627.428384202396,1568
1629.459972513861,1488
1631.4910410480993,1519
1633.5215900588028,1555
1635.551619799744,1562
1637.5811305247717,1537
1639.6101224878166,1446
1641.6385959428862,1464
1643.6665511440683,1499
1645.693988345528,1461
1647.7209078015112,1414
1649.7473097663405,1481
1651.7731944944203,1549
1653.7985622402307,1538
1655.823413258333,1534
1657.847747803366,1451
1659.8715661300494,1428
1661.8948684931793,1465
1663.9176551476316,1499
1665.9399263483624,1398
1667.9616823504057,1448
1669.982923408873,1461
1672.0036497789574,1424
1674.0238617159293,1495
1676.043559475138,1453
1678.0627433120121,1449
1680.081413482059,1438
1682.0995702408654,1400
1684.117213844096,1436
1686.134344547495,1441
1688.1509626068864,1435
1690.1670682781705,1478
1692.182661817329,1452
1694.1977434804217,1466
1696.2123135235875,1453
1698.226372203043,1445
1700.2399197750851,1414
1702.2529564960905,1494
1704.2654826225112,1442
1706.277498410882,1467
1708.2890041178139,1428
1710.2999999999988,1453
1712.3104863142066,1394
1714.3204633172854,1421
1716.329931266163,1405
1718.3388904178469,1426
1720.3473410294214,1393
1722.3552833580516,1383
1724.3627176609807,1386
1726.3696441955308,1449
1728.3760632191033,1402
1730.3819749891782,1429
1732.3873797633146,1366
1734.3922777991502,1333
1736.3966693544012,1362
1738.4005546868639,1377
1740.4039340544127,1362
1742.406807715001,1314
1744.4091759266616,1398
1746.4110389475054,1391
1748.4123970357223,1323
1750.413250449582,1361
1752.4135994474318,1351
1754.4134442876993,1319
1756.4127852288902,1400
1758.4116225295893,1339
1760.4099564484595,1405
1762.407787244244,1362
1764.405115175764,1364
1766.4019405019203,1389
1768.3982634816916,1378
1770.3940843741357,1355
1772.3894034383907,1340
1774.3842209336717,1330
1776.378537119274,1328
1778.372352254571,1312
1780.3656665990156,1315
1782.3584804121397,1327
1784.3507939535534,1312
1786.3426074829463,1381
1788.3339212600863,1334
1790.3247355448211,1382
1792.3150505970766,1314
1794.3048666768573,1288
1796.2941840442477,1334
1798.2830029594106,1341
1800.2713236825884,1354
1802.2591464741004,1284
1804.2464715943465,1326
1806.2332993038058,1324
1808.2196298630352,1334
1810.2054635326708,1303
1812.190800573428,1331
1814.175641246101,1329
1816.1599858115628,1298
1818.1438345307652,1295
1820.127187664738,1312
1822.1100454745924,1355
1824.092408221516,1339
1826.0742761667766,1320
1828.055649571721,1312
1830.0365286977735,1286
1832.0169138064398,1397
1833.9968051593014,1331
1835.9762030180214,1304
1837.9551076443408,1314
1839.9335193000788,1263
1841.9114382471344,1303
1843.888864747485,1299
1845.8657990631878,1325
1847.842241456378,1307
1849.8181921892697,1279
1851.7936515241558,1347
1853.7686197234098,1289
1855.7430970494815,1304
1857.7170837649014,1315
1859.6905801322787,1307
1861.6635864143004,1315
1863.6361028737338,1323
1865.608129773424,1307
1867.5796673762961,1339
1869.5507159453537,1290
1871.521275743678,1366
1873.4913470344313,1334
1875.4609300808534,1336
1877.4300251462632,1348
1879.3986324940588,1368
1881.366752387717,1340
1883.3343850907936,1297
1885.3015308669228,1316
1887.268189979819,1315
1889.2343626932739,1341
1891.2000492711595,1324
1893.1652499774254,1328
1895.1299650761011,1362
1897.0941948312952,1319
1899.0579395071945,1388
1901.0211993680641,1399
1902.98397467825,1338
1904.9462657021745,1354
1906.9080727043415,1359
1908.869395949332,1380
1910.8302357018065,1377
1912.790592226504,1311
1914.7504657882428,1376
1916.7098566519212,1276
1918.6687650825133,1380
1920.6271913450764,1324
1922.5851357047422,1340
1924.5425984267245,1372
1926.499579776314,1336
1928.4560800188833,1386
1930.4120994198802,1311
1932.367638244833,1349
1934.32269675935,1326
1936.2772752291175,1330
1938.231373919899,1284
1940.1849930975404,1300
1942.1381330279637,1251
1944.0907939771696,1266
1946.0429762112412,1357
1947.9946799963363,1289
1949.9459055986945,1302
1951.896653284633,1329
1953.8469233205478,1291
1955.7967159729142,1294
1957.7460315082863,1361
1959.6948701932974,1271
1961.6432322946594,1315
1963.5911180791632,1306
1965.5385278136787,1328
1967.4854617651545,1353
1969.4319202006182,1282
1971.377903387176,1284
1973.3234115920136,1297
1975.268445082395,1342
1977.2130041256642,1313
1979.1570889892423,1338
1981.1006999406304,1311
1983.04383724741,1332
1984.986501177238,1358
1986.928691997853,1308
1988.8704099770712,1314
1990.811655382789,1226
1992.7524284829801,1248
1994.692729545698,1322
1996.6325588390755,1326
1998.5719166313224,1331
2000.5108031907307,1306
2002.4492187856677,1272
2004.387163684583,1326
2006.3246381560011,1342
2008.2616424685298,1318
2010.1981768908527,1290
2012.1342416917332,1271
2014.069837140014,1278
2016.0049635046162,1254
2017.9396210545406,1296
2019.8738100588666,1304
2021.8075307867502,1232
2023.740783507431,1252
2025.6735684902228,1283
2027.6058860045214,1239
2029.5377363198004,1256
2031.4691197056118,1302
2033.4000364315875,1287
2035.3304867674374,1290
2037.260470982952,1299
2039.189989347998,1303
2041.1190421325232,1227
2043.047629606554,1223
2044.9757520401945,1266
2046.9034097036288,1258
2048.8306028671195,1270
2050.7573318010086,1266
2052.683596775716,1294
2054.609398061742,1325
2056.5347359296647,1285
2058.4596106501403,1317
2060.384022493906,1283
2062.3079717317764,1248
2064.231458634646,1271
2066.1544834734873,1263
2068.077046519352,1211
2069.99914804337,1248
2071.9207883167524,1225
2073.8419676107865,1259
2075.7626861968406,1286
2077.6829443463607,1314
2079.6027423308715,1250
2081.522080421977,1216
2083.440958891362,1291
2085.359378010786,1248
2087.2773380520907,1229
2089.194839287196,1306
2091.111881988101,1280
2093.0284664268825,1242
2094.9445928756973,1256
2096.86026160678,1313
2098.775472892446,1259
2100.690227005088,1293
2102.604524217178,1302
2104.5183648012676,1242
2106.431749029985,1255
2108.34467717604,1254
2110.2571495122206,1315
2112.169166311393,1227
2114.080727846503,1301
2115.9918343905747,1268
2117.902486216711,1287
2119.8126835980956,1237
2121.722426807987,1258
2123.6317161197285,1275
2125.5405518067364,1274
2127.448934142509,1276
2129.356863400624,1260
2131.264339854737,1299
2133.1713637785815,1222
2135.077935445972,1358
2136.9840551308002,1303
2138.889723107037,1271
2140.7949396487334,1285
2142.699705030018,1240
2144.6040195250994,1218
2146.507883408264,1247
2148.4112969538774,1269
2150.3142604363848,1275
2152.2167741303097,1325
2154.1188383102535,1264
2156.0204532508997,1343
2157.9216192270064,1311
2159.822336513414,1294
2161.7226053850413,1295
2163.622426116884,1299
2165.5217989840185,1346
2167.4207242616,1337
2169.319202224862,1357
2171.2172331491165,1319
2173.1148173097563,1307
2175.0119549822507,1333
2176.90864644215,1297
2178.8048919650823,1341
2180.7006918267534,1277
2182.596046302952,1267
2184.4909556695407,1309
2186.3854202024645,1335
2188.279440177746,1334
2190.173015871487,1339
2192.066147559868,1330
2193.958835519149,1363
2195.851080025667,1317
2197.7428813558417,1446
2199.6342397861667,1334
2201.5251555932186,1337
2203.415629053651,1351
2205.3056604441986,1315
2207.19525004167,1381
2209.084398122958,1371
2210.9731049650327,1420
2212.861370844941,1346
2214.749196039812,1368
2216.636580826851,1395
2218.523525483344,1437
2220.410030286655,1381
2222.296095514226,1314
2224.1817214435805,1374
2226.066908352319,1394
2227.951656518121,1404
2229.835966218746,1409
2231.71983773203,1388
2233.6032713358913,1427
2235.486267308324,1434
2237.3688259274036,1328
2239.2509474712824,1359
2241.132632218193,1323
2243.013880446447,1403
2244.8946924344323,1373
2246.7750684606203,1408
2248.6550088035574,1401
2250.534513741871,1402
2252.413583554265,1395
2254.292218519526,1385
2256.170418916517,1356
2258.0481850241786,1334
2259.925517121534,1362
2261.8024154876825,1408
2263.678880401803,1375
2265.5549121431536,1381
2267.430510991071,1348
2269.305677224971,1367
2271.180411124348,1311
2273.0547129687766,1291
2274.9285830379076,1347
2276.8020216114737,1362
2278.6750289692845,1344
2280.5476053912294,1367
2282.4197511572766,1383
2284.2914665474727,1356
2286.162751841943,1412
2288.0336073208937,1466
2289.904033264608,1395
2291.774029953448,1405
2293.6435976678554,1421
2295.5127366883517,1387
2297.381447295534,1333
2299.2497297700825,1304
2301.1175843927526,1286
2302.9850114443825,1310
2304.852011205885,1222
2306.7185839582553,1205
2308.5847299825664,1168
2310.4504495599676,1163
2312.3157429716925,1188
2314.1806104990483,1206
2316.0450524234247,1150
2317.9090690262888,1212
2319.772660589186,1195
2321.635827393742,1129
2323.498569721661,1142
2325.3608878547248,1161
2327.2227820747967,1174
2329.0842526638157,1170
2330.945299903803,1151
2332.805924076857,1161
2334.6661254651535,1159
2336.525904350951,1176
2338.3852610165827,1175
2340.244195744464,1188
2342.102708817088,1193
2343.9608005170253,1186
2345.8184711269287,1220
2347.675720929526,1214
2349.532550207628,1194
2351.38895924412,1185
2353.24494832197,1215
2355.100517724223,1144
2356.955667734004,1183
2358.810398634514,1174
2360.664710709037,1170
2362.5186042409337,1179
2364.3720795136437,1195
2366.225136810686,1184
2368.0777764156583,1213
2369.929998612237,1140
2371.7818036841777,1211
2373.633191915315,1219
2375.484163589562,1236
2377.3347189909114,1197
2379.184858403434,1159
2381.03458211128,1187
2382.8838903986775,1178
2384.732783549936,1207
2386.5812618494406,1201
2388.4293255816588,1167
2390.2769750311327,1182
2392.1242104824883,1181
2393.971032220427,1229
2395.8174405297295,1194
2397.6634356952563,1205
2399.509018001947,1158
2401.3541877348193,1178
2403.1989451789705,1205
2405.043290619576,1206
2406.8872243418905,1199
2408.730746631247,1185
2410.5738577730594,1221
2412.4165580528183,1211
2414.258847756095,1234
2416.100727168537,1252
2417.9421965758734,1272
2419.783256263912,1193
2421.623906518538,1155
2423.4641476257157,1202
2425.303979871491,1256
2427.143403541984,1215
2428.9824189233977,1224
2430.821026302012,1201
2432.6592259641866,1199
2434.497018196361,1184
2436.33440328505,1187
2438.171381516851,1199
2440.00795317844,1183
2441.844118556569,1227
2443.6798779380724,1154
2445.5152316098606,1273
2447.3501798589255,1180
2449.1847229723357,1219
2451.0188612372403,1201
2452.8525949408663,1207
2454.6859243705203,1153
2456.518849813587,1178
2458.3513715575314,1198
2460.183489889895,1213
2462.015205098301,1228
2463.8465174704493,1166
2465.67742729412,1202
2467.5079348571717,1261
2469.338040447542,1219
2471.1677443532476,1261
2472.9970468623833,1231
2474.825948263123,1214
2476.6544488437207,1269
2478.482548892508,1196
2480.310248697896,1262
2482.137548548374,1240
2483.9644487325118,1290
2485.790949538956,1238
2487.617051256433,1225
2489.44275417375,1189
2491.26805857979,1288
2493.0929647635157,1221
2494.917473013971,1251
2496.741583620276,1250
2498.5652968716304,1282
2500.3886130573137,1271
2502.2115324666834,1251
2504.0340553891765,1250
2505.856182114308,1250
2507.6779129316733,1252
2509.499248130945,1251
2511.3201880018764,1346
2513.140732834298,1328
2514.9608829181198,1241
2516.780638543331,1271
2518.6,1312
2520.418967578273,1235
2522.237541568376,1273
2524.0557222606144,1315
2525.8735099453706,1262
2527.6909049131086,1260
2529.507907454368,1352
2531.32451785977,1303
2533.140736420014,1314
2534.9565634258774,1365
2536.771999168218,1321
2538.5870439379714,1329
2540.4016980261526,1352
2542.2159617238544,1364
2544.02983532225,1380
2545.8433191125914,1402
2547.656413386209,1418
2549.4691184345115,1366
2551.2814345489874,1400
2553.093362021204,1391
2554.904901142808,1394
2556.716052205523,1441
2558.526815501153,1482
2560.3371913215824,1469
2562.147179958771,1494
2563.956781704761,1455
2565.7659968516705,1482
2567.5748256916986,1443
2569.3832685171224,1466
2571.1913256202984,1508
2572.9989972936614,1510
2574.806283829725,1514
2576.613185521084,1515
2578.4197026604074,1503
2580.2258355404483,1482
2582.031584454035,1468
2583.836949694077,1570
2585.6419315535613,1501
2587.4465303255533,1567
2589.2507463032002,1505
2591.0545797797245,1578
2592.8580310484303,1577
2594.6611004026995,1551
2596.463788135992,1577
2598.266094541849,1528
2600.0680199138874,1585
2601.869564545807,1551
2603.670728731383,1533
2605.4715127644704,1602
2607.2719169390048,1534
2609.071941548998,1571
2610.8715868885433,1506
2612.670853251811,1543
2614.469740933052,1572
2616.268250226594,1527
2618.0663814268455,1522
2619.864134828292,1577
2621.6615107255006,1512
2623.458509413115,1496
2625.2551311858597,1580
2627.0513763385347,1534
2628.8472451660223,1512
2630.6427379632833,1519
2632.4378550253564,1475
2634.232596647359,1505
2636.026963124488,1460
2637.8209547520187,1463
2639.6145718253065,1525
2641.407814639785,1431
2643.200683490966,1473
2644.9931786744414,1501
2646.7853004858807,1439
2648.577049221034,1429
2650.3684251757277,1366
2652.1594286458712,1417
2653.9500599274484,1351
2655.740319316525,1394
2657.5302071092437,1330
2659.3197236018286,1400
2661.10886909058,1335
2662.8976438718782,1370
2664.686048242183,1355
2666.4740824980327,1328
2668.2617469360443,1371
2670.0490418529134,1327
2671.8359675454153,1376
2673.622524310403,1309
2675.408712444811,1340
2677.1945322456495,1265
2678.979984010009,1239
2680.76506803506,1309
2682.5497846180497,1287
2684.334134056306,1306
2686.1181166472343,1285
2687.9017326883213,1277
2689.6849824771293,1250
2691.4678663113013,1276
2693.2503844885596,1311
2695.032537306705,1269
2696.8143250636167,1249
2698.5957480572542,1236
2700.3768065856534,1255
2702.1575009469316,1264
2703.937831439283,1284
2705.717798360982,1247
2707.4974020103837,1228
2709.276642685917,1240
2711.055520686095,1221
2712.834036309506,1286
2714.612189854819,1217
2716.389981620782,1228
2718.1674119062204,1273
2719.944481010041,1263
2721.721189231226,1228
2723.4975368688415,1221
2725.273524222027,1215
2727.0491515900053,1250
2728.824419272075,1247
2730.5993275676146,1245
2732.3738767760838,1224
2734.148067197016,1143
2735.921899130031,1148
2737.6953728748194,1224
2739.468488731156,1165
2741.2412469988926,1165
2743.0136479779617,1259
2744.785691968372,1150
2746.5573792702116,1160
2748.3287101836504,1114
2750.099685008934,1208
2751.870304046388,1183
2753.640567596418,1153
2755.4104759595057,1174
2757.1800294362156,1195
2758.949228327187,1147
2760.7180729331412,1194
2762.486563554877,1167
2764.254700493272,1230
2766.022484049284,1182
2767.789914523947,1159
2769.5569922183786,1121
2771.3237174337705,1154
2773.090090471394,1118
2774.8561116326036,1144
2776.6217812188274,1211
2778.3870995315756,1192
2780.1520668724356,1230
2781.9166835430747,1140
2783.6809498452394,1190
2785.444866080754,1204
2787.2084325515225,1158
2788.971649559527,1114
2790.73451740683,1143
2792.4970363955713,1220
2794.2592068279705,1134
2796.0210290063264,1162
2797.7825032330147,1202
2799.543629810493,1214
2801.304409041296,1152
2803.0648412280366,1117
2804.8249266734088,1224
2806.5846656801846,1171
2808.344058551212,1138
2810.1031055894246,1170
2811.8618070978273,1138
2813.6201633795085,1145
2815.378174737636,1151
2817.1358414754536,1190
2818.893163896285,1194
2820.6501423035334,1149
2822.4067770006814,1153
2824.1630682912883,1178
2825.9190164789957,1186
2827.6746218675207,1194
2829.429884760661,1181
2831.184805462294,1156
2832.9393842763743,1158
2834.693621506936,1218
2836.4475174580916,1130
2838.201072434034,1135
2839.954286739034,1141
2841.707160677441,1176
2843.459694553685,1147
2845.2118886722724,1160
2846.96374333779,1164
2848.7152588549034,1156
2850.4664355283567,1145
2852.217273662973,1173
2853.9677735636546,1161
2855.7179355353833,1240
2857.4677598832186,1180
2859.217246912299,1177
2860.9663969278427,1176
2862.715210235146,1166
2864.4636871395846,1138
2866.211827946614,1152
2867.9596329617652,1112
2869.7071024906536,1128
2871.4542368389684,1137
2873.20103631248,1154
2874.947501217038,1172
2876.6936318585695,1126
2878.4394285430812,1150
2880.1848915766604,1143
2881.9300212654707,1171
2883.6748179157553,1133
2885.4192818338374,1132
2887.1634133261173,1177
2888.907212699077,1196
2890.6506802592744,1137
2892.393816313348,1179
2894.1366211680142,1167
2895.8790951300693,1170
2897.621238506388,1209
2899.363051603925,1172
2901.1045347297118,1133
2902.8456881908596,1175
2904.58651229456,1180
2906.327007348081,1175
2908.067173658772,1194
2909.8070115340597,1185
2911.5465212814497,1190
2913.285703208527,1195
2915.0245576229563,1095
2916.7630848324807,1175
2918.5012851449196,1153
2920.2391588681758,1176
2921.976706310227,1187
2923.7139277791334,1194
2925.4508235830313,1196
2927.187394030137,1182
2928.923639428745,1181
2930.6595600872306,1161
2932.395156314046,1157
2934.1304284177218,1193
2935.8653767068713,1154
2937.6000014901815,1159
2939.3343030764227,1171
2941.068281774442,1118
2942.8019378931644,1136
2944.5352717415976,1181
2946.2682836288236,1153
2948.0009738640065,1175
2949.7333427563885,1162
2951.465390615289,1168
2953.1971177501086,1182
2954.9285244703265,1157
2956.6596110855,1143
2958.3903779052657,1217
2960.1208252393385,1126
2961.8509533975125,1109
2963.5807626896617,1142
2965.3102534257378,1196
2967.0394259157715,1171
2968.768280469873,1145
2970.496817398232,1138
2972.2250370111146,1165
2973.952939618869,1162
2975.6805255319196,1196
2977.4077950607707,1155
2979.134748516006,1187
2980.861386208289,1216
2982.587708448359,1171
2984.313715547037,1187
2986.039407815222,1160
2987.764785563891,1192
2989.489849104102,1175
2991.2145987469908,1150
2992.9390348037705,1183
2994.6631575857346,1162
2996.3869674042576,1138
2998.1104645707887,1121
2999.83364939686,1154
3001.5565221940783,1155
3003.2790832741334,1118
3005.0013329487924,1131
3006.7232715298996,1110
3008.4448993293804,1124
3010.166216659239,1162
3011.887223831558,1135
3013.607921158498,1110
3015.3283089522993,1124
3017.0483875252826,1190
3018.7681571898443,1151
3020.4876182584626,1165
3022.2067710436927,1141
3023.9256158581707,1171
3025.644153014609,1154
3027.362382825801,1176
3029.0803056046193,1151
3030.797921664012,1168
3032.5152313170106,1147
3034.2322348767225,1162
3035.9489326563353,1118
3037.665324969115,1160
3039.3814121284063,1119
3041.097194447633,1134
3042.812672240299,1130
3044.5278458199855,1187
3046.2427155003525,1144
3047.9572815951406,1141
3049.671544418167,1110
3051.38550428333,1178
3053.0991615046073,1103
3054.812516396051,1158
3056.5255692717974,1163
3058.2383204460575,1162
3059.9507702331257,1219
3061.662918947372,1150
3063.3747669032446,1161
3065.0863144152736,1156
3066.7975617980674,1214
3068.508509366309,1183
3070.219157434767,1205
3071.9295063182844,1171
3073.639556331785,1191
3075.3493077902704,1178
3077.058761008821,1161
3078.7679163025964,1136
3080.476773986837,1163
3082.1853343768594,1199
3083.89359778806,1199
3085.6015645359153,1132
3087.3092349359786,1135
3089.016609303884,1148
3090.7236879553434,1143
3092.4304712061476,1138
3094.136959372166,1185
3095.843152769349,1233
3097.5490517137237,1183
3099.2546565213966,1180
3100.959967508554,1112
3102.66498499146,1188
3104.3697092864577,1131
3106.0741407099695,1124
3107.778279578498,1128
3109.482126208622,1123
3111.1856809170004,1119
3112.8889440203716,1134
3114.5919158355528,1150
3116.294596679439,1175
3117.996986869006,1114
3119.6990867213062,1186
3121.4008965534726,1168
3123.102416682717,1212
3124.803647426329,1175
3126.5045891016784,1133
3128.205242026213,1127
3129.90560651746,1177
3131.605682893025,1180
3133.3054714705922,1148
3135.0049725679282,1224
3136.7041865028714,1160
3138.4031135933465,1175
3140.101754157353,1167
3141.800108512971,1118
3143.498176978357,1114
3145.1959598717494,1121
3146.8934575114636,1148
3148.5906702158954,1120
3150.2875983035183,1106
3151.9842420928853,1131
3153.680601902627,1147
3155.376678051456,1160
3157.07247085816,1143
3158.767980641609,1205
3160.463207720748,1133
3162.158152414606,1211
3163.8528150422862,1168
3165.5471959229726,1155
3167.2412953759303,1173
3168.9351137204976,1162
3170.628651276098,1151
3172.3219083622307,1156
3174.014885298474,1124
3175.707582404485,1102
3177.4000000000005,1107
3179.092138404835,1199
3180.7839979388846,1144
3182.47557892212,1154
3184.166881674594,1164
3185.8579065164386,1134
3187.5486537678626,1166
3189.2391237491547,1163
3190.9293167806827,1133
3192.6192331828934,1159
3194.3088732763117,1117
3195.998237381542,1162
3197.687325819268,1058
3199.376138910251,1128
3201.064676975334,1155
3202.7529403354347,1150
3204.4409293115523,1097
3206.1286442247647,1151
3207.816085396229,1117
3209.5032531471825,1128
3211.190147798936,1108
3212.8767696728846,1116
3214.5631190905015,1112
3216.2491963733373,1165
3217.9350018430214,1092
3219.6205358212637,1123
3221.305798629851,1111
3222.990790590651,1154
3224.6755120256103,1080
3226.359963256751,1110
3228.0441446061795,1115
3229.7280563960758,1130
3231.411698948703,1150
3233.0950725863995,1163
3234.778177631587,1117
3236.461014406761,1152
3238.1435832345005,1145
3239.8258844374595,1138
3241.507918338374,1152
3243.1896852600576,1113
3244.8711855254023,1117
3246.552419457381,1161
3248.233387379042,1121
3249.914089613516,1119
3251.59452648401,1141
3253.274698313813,1144
3254.95460542629,1183
3256.6342481448855,1099
3258.313626793125,1115
3259.9927416946084,1123
3261.6715931730196,1111
3263.3501815521176,1066
3265.0285071557437,1097
3266.706570307815,1061
3268.3843713323286,1082
3270.0619105533615,1078
3271.739188295068,1130
3273.4162048816834,1154
3275.0929606375184,1115
3276.769455886966,1125
3278.445690954498,1125
3280.1216661646613,1137
3281.797381842087,1109
3283.4728383114807,1120
3285.1480358976296,1135
3286.8229749253996,1105
3288.4976557197333,1141
3290.172078605655,1075
3291.846243908266,1121
3293.5201519527463,1137
3295.193803064357,1078
3296.8671975684374,1167
3298.5403357904024,1162
3300.21321805575,1130
3301.8858446900567,1112
3303.558216018975,1143
3305.23033236824,1093
3306.9021940636603,1098
3308.57380143113,1114
3310.2451547966184,1129
3311.916254486174,1140
3313.5871008259246,1096
3315.2576941420766,1123
3316.9280347609147,1099
3318.5981230088046,1166
3320.2679592121895,1101
3321.9375436975924,1146
3323.606876791612,1102
3325.27595882093,1103
3326.944790112305,1123
3328.6133709925753,1098
3330.2817017886573,1105
3331.949782827547,1146
3333.617614436319,1124
3335.2851969421245,1117
3336.952530672199,1118
3338.619615953853,1134
3340.286453114475,1119
3341.9530424815357,1157
3343.619384382583,1127
3345.2854791452437,1156
3346.951327097224,1120
3348.6169285663073,1105
3350.2822838803577,1130
3351.947393367319,1074
3353.61225735521,1137
3355.2768761721345,1099
3356.9412501462693,1085
3358.605379605873,1097
3360.2692648792827,1111
3361.9329062949146,1144
3363.596304181263,1079
