CollectionTime,7/11/2024 12:23:19 PM
ExposureUsed,3
CalibratedSpectrum
-962.7078968117929,575
-959.9714848408522,605
-957.2358232597828,631
-954.5009119013725,577
-951.7667505983302,612
-949.0333391832855,606
-946.3006774887896,641
-943.5687653473143,644
-940.837602591253,636
-938.1071890529199,599
-935.3775245645503,577
-932.6486089583007,613
-929.9204420662485,650
-927.1930237203925,610
-924.4663537526524,599
-921.7404319948689,571
-919.0152582788041,623
-916.2908324361409,672
-913.5671542984834,640
-910.8442236973568,639
-908.1220404642074,608
-905.4006044304027,642
-902.679915427231,591
-899.959973285902,583
-897.2407778375464,594
-894.5223289132158,600
-891.8046263438832,607
-889.0876699604426,601
-886.3714595937089,597
-883.6559950744183,608
-880.9412762332282,594
-878.2273029007168,590
-875.5140749073835,584
-872.8015920836489,612
-870.0898542598545,620
-867.3788612662631,549
-864.6686129330585,586
-861.9591090903457,603
-859.2503495681506,585
-856.5423341964203,557
-853.8350628050229,590
-851.1285352237478,575
-848.4227512823054,592
-845.7177108103272,638
-843.0134136373656,596
-840.3098595928943,619
-837.6070485063082,632
-834.9049802069229,615
-832.2036545239757,606
-829.5030712866244,629
-826.8032303239481,636
-824.1041314649472,599
-821.4057745385428,619
-818.7081593735775,608
-816.0112857988148,629
-813.3151536429393,611
-810.6197627345566,624
-807.9251129021936,612
-805.2312039742981,589
-802.5380357792392,609
-799.8456081453069,657
-797.1539209007124,611
-794.462973873588,615
-791.772766891987,660
-789.083299783884,663
-786.3945723771743,627
-783.7065844996748,619
-781.0193359791231,633
-778.3328266431781,589
-775.6470563194197,594
-772.9620248353489,611
-770.2777320183878,622
-767.5941776958798,595
-764.9113616950891,643
-762.2292838432011,634
-759.5479439673222,656
-756.8673418944801,606
-754.1874774516235,647
-751.5083504656222,640
-748.8299607632671,624
-746.15230817127,648
-743.475392516264,635
-740.7992136248035,616
-738.1237713233636,632
-735.4490654383407,673
-732.7750957960521,668
-730.1018622227365,650
-727.4293645445534,668
-724.7576025875837,636
-722.0865761778291,651
-719.4162851412126,661
-716.7467293035781,736
-714.0779084906909,656
-711.409822528237,640
-708.7424712418238,670
-706.0758544569796,650
-703.4099719991541,675
-700.7448236937178,699
-698.0804093659622,696
-695.4167288411002,707
-692.7537819442656,667
-690.0915685005134,679
-687.4300883348199,665
-684.7693412720819,681
-682.1093271371178,712
-679.4500457546669,683
-676.7914969493897,683
-674.1336805458676,701
-671.4765963686034,697
-668.8202442420206,696
-666.1646239904642,672
-663.5097354382001,655
-660.8555784094151,705
-658.2021527282176,697
-655.5494582186366,713
-652.8974947046223,704
-650.2462620100463,706
-647.5957599587009,753
-644.9459883742998,724
-642.2969470804776,711
-639.6486359007902,753
-637.0010546587141,693
-634.3542031776476,732
-631.7080812809096,716
-629.0626887917401,763
-626.4180255333008,705
-623.7740913286734,707
-621.1308860008619,743
-618.4884093727904,744
-615.8466612673046,691
-613.2056415071715,697
-610.5653499150785,754
-607.9257863136347,739
-605.28695052537,772
-602.6488423727357,729
-600.0114616781036,758
-597.3748082637674,764
-594.7388819519412,739
-592.1036825647604,824
-589.4692099242818,830
-586.8354638524829,827
-584.2024441712624,759
-581.5701507024403,764
-578.9385832677575,786
-576.3077416888759,742
-573.6776257873787,768
-571.0482353847704,780
-568.4195703024757,787
-565.7916303618415,760
-563.164415384135,759
-560.5379251905453,739
-557.9121596021815,731
-555.2871184400748,748
-552.6628015251767,732
-550.0392086783606,757
-547.4163397204204,780
-544.794194472071,751
-542.1727727539491,757
-539.5520743866118,846
-536.9320991905377,843
-534.3128469861261,844
-531.6943175936979,824
-529.0765108334947,896
-526.4594265256793,947
-523.8430644903358,940
-521.2274245474689,1114
-518.612506517005,1091
-515.9983102187913,1095
-513.3848354725959,1095
-510.77208209810846,1172
-508.16004991493924,1287
-505.5487387426199,1407
-502.9381484006032,1483
-500.3282787082628,1461
-497.71912948489364,1448
-495.1107005497117,1323
-492.5029917218539,1247
-489.8960028203786,1091
-487.28973366426493,979
-484.68418407241325,925
-482.07935386364494,918
-479.47524285670266,888
-476.87185087025,889
-474.2691777228715,896
-471.66722323307334,912
-469.0659872192821,892
-466.4654694998459,892
-463.86566989303384,860
-461.26658821703614,842
-458.66822428996414,937
-456.07057792985,907
-453.4736489546475,939
-450.877437182231,936
-448.28194243039627,876
-445.68716451686,883
-443.09310325926003,854
-440.49975847515555,883
-437.9071299820263,827
-435.31521759727354,916
-432.72402113821954,942
-430.13354042210767,910
-427.5437752661022,886
-424.95472548728867,926
-422.36639090267386,953
-419.7787713291855,984
-417.1918665836721,1064
-414.60567648290385,988
-412.0202008435715,932
-409.4354394822874,1007
-406.8513922155845,972
-404.26805885991723,1012
-401.685439231661,1040
-399.103533147112,1024
-396.522340422488,972
-393.9418608739278,967
-391.3620943174908,891
-388.7830405691583,899
-386.2046994448317,878
-383.6270707603344,838
-381.05015433141045,789
-378.473949973725,726
-375.8984575028645,732
-373.32367673433623,707
-370.74960748356875,703
-368.1762495659117,644
-365.60360279663576,580
-363.03166699093265,541
-360.4604419639154,541
-357.8899275306178,518
-355.32012350599507,503
-352.7510297049233,486
-350.1826459421999,439
-347.61497203254316,434
-345.04800779059235,460
-342.4817530309082,465
-339.91620756797226,482
-337.35137121618743,537
-334.7872437898774,581
-332.22382510328725,563
-329.66111497058273,537
-327.09911320585127,489
-324.53781962310075,472
-321.9772340362607,491
-319.4173562591816,488
-316.8581861056348,468
-314.2997233893127,499
-311.7419679238294,527
-309.1849195227194,464
-306.62857799943856,516
-304.0729431673641,540
-301.51801483979375,511
-298.963792829947,514
-296.41027695096386,500
-293.85746701590574,525
-291.3053628377552,551
-288.7539642294155,555
-286.2032710037115,492
-283.65328297338897,492
-281.1039999511146,560
-278.5554217494762,589
-276.007548180983,594
-273.4603790580651,600
-270.9139141930734,562
-268.3681533982807,527
-265.8230964858798,558
-263.27874326798565,623
-260.7350935566336,612
-258.1921471637804,625
-255.6499039013039,576
-253.10836358100266,569
-250.56752601459698,615
-248.02739101372765,597
-245.48795838995704,589
-242.94922795476816,598
-240.41119951956557,558
-237.8738728956746,653
-235.33724789434166,611
-232.80132432673452,590
-230.2661020039418,587
-227.73158073697357,597
-225.19776033676033,589
-222.66464061415422,629
-220.1322213799284,652
-217.60050244477725,583
-215.06948361931552,596
-212.53916471408013,639
-210.00954553952818,640
-207.48062590603843,687
-204.9524056239104,604
-202.4248845033651,719
-199.8980623545441,753
-197.37193898751036,698
-194.84651421224817,735
-192.32178783866232,746
-189.79775967657952,766
-187.27442953574644,787
-184.7517972258321,741
-182.2298625564256,784
-179.7086253370378,812
-177.18808537710026,755
-174.66824248596583,783
-172.14909647290835,775
-169.6306471471229,755
-167.11289431772548,816
-164.59583779375328,786
-162.07947738416453,783
-159.5638128978386,803
-157.04884414357605,797
-154.53457093009854,928
-152.02099306604828,858
-149.50811035998936,712
-146.99592262040665,759
-144.48442965570587,844
-141.97363127421409,911
-139.46352728417958,923
-136.95411749377126,924
-134.44540171107985,860
-131.93737974411636,794
-129.43005140081357,748
-126.92341648902493,926
-124.41747481652521,1098
-121.91222619101006,1349
-119.40767042009657,1598
-116.90380731132257,1598
-114.40063667214702,1540
-111.8981583099503,1315
-109.3963720320337,1071
-106.89527764561933,1099
-104.39487495785067,1446
-101.89516377579241,2300
-99.39614390642998,2935
-96.89781515667039,3229
-94.40017733334128,3005
-91.90323024319173,3331
-89.40697369289148,4833
-86.91140748903172,7752
-84.41653143812482,7894
-81.92234534660395,5074
-79.42884902082358,3543
-76.93604226705907,5744
-74.4439248915071,12512
-71.95249670028534,20830
-69.46175749943245,27749
-66.97170709490854,27652
-64.48234529259423,24161
-61.99367189829195,21100
-59.50568671772464,20901
-57.01838955653636,17832
-54.53178022029283,13909
-52.045858514480074,12024
-49.560624244506016,12430
-47.07607721569923,13160
-44.59221723330904,13396
-42.10904410250669,13623
-39.62655762838392,12036
-37.14475761595372,10442
-34.66364387015028,8863
-32.18321619582866,8543
-29.70347439776515,8367
-27.224418280657005,8211
-24.74604764912317,8502
-22.26836230770266,11921
-19.7913620608565,21629
-17.315046712966478,39212
-14.83941606833514,52776
-12.36446993118659,65039
-9.89020810566592,65039
-7.416630395839093,65039
-4.94373660569363,65039
-2.471526539137585,65039
-6.821210263296962E-13,65039
2.47084320796705,65039
4.941003281093458,65039
7.410480415786196,65039
9.879274808531363,65039
12.347386655893956,65039
14.814816154518212,65039
17.28156350112681,65039
19.74762889252179,65039
22.21301252558385,65039
24.67771459727237,19806
27.141735304626195,4176
29.605074844762612,2995
32.06773341487792,2923
34.52971121224755,2748
36.99100843422559,2966
39.45162527824516,2722
41.91156194181792,1918
44.370818622535126,1528
46.82939551806646,1468
49.287292826160524,1641
51.74451074464503,1920
54.201049471426245,2226
56.65690920448981,2220
59.112090141899785,1910
61.56659248179983,1582
64.02041642241159,1496
66.4735621620365,1543
68.92602989905402,1327
71.37781983192338,1339
73.82893215918205,1415
76.27936707944684,1638
78.72912479141326,1445
81.17820549385567,1298
83.62660938562783,1357
86.07433666566146,1482
88.5213875329681,1387
90.96776218663751,1206
93.41346082583925,950
95.85848364982041,1104
98.30283085790859,1447
100.7465026495089,1301
103.18949922410604,1012
105.63182078126385,1060
108.07346752062438,1182
110.51443964190923,956
112.95473734491827,905
115.39436082953114,965
117.83331029570547,916
120.27158594347827,913
122.7091879729652,1022
125.1461165843615,1135
127.58237197794062,988
130.01795435405518,833
132.4528639131364,974
134.88710085569494,983
137.32066538231982,903
139.75355769367923,957
142.1857779905207,949
144.61732647366978,904
147.04820334403132,827
149.47840880258934,782
151.90794305040674,946
154.33680628862487,1132
156.76499871846443,1247
159.19252054122433,1344
161.61937195828352,1467
164.04555317109896,1619
166.47106438120693,1794
168.89590579022217,1909
171.320077599839,2002
173.7435800118302,2021
176.16641322804742,2300
178.58857745042144,2333
181.01007288096173,2466
183.43089972175687,2489
185.85105817497413,2415
188.27054844285988,2419
190.6893707277394,2452
193.10752523201643,2462
195.5250121581745,2469
197.9418317087751,2517
200.3579840864594,2540
202.7734694939469,2556
205.18828813403627,2583
207.6024402096051,2688
210.01592592360964,2727
212.42874547908548,2696
214.84089907914665,2670
217.2523869269868,2733
219.66320922587727,2613
222.0733661791695,2622
224.48285799029293,2615
226.8916848627572,2582
229.29984700014882,2619
231.7073446061355,2657
234.11417788446204,2681
236.520347038953,2769
238.92585227351185,2957
241.33069379212054,2979
243.73487179884035,2958
246.1383864978112,2890
248.541238093252,2942
250.9434267894609,3015
253.34495279081432,3018
255.74581630176783,3101
258.1460175268563,3033
260.54555667069314,2931
262.9444339379703,2907
265.3426495334594,2889
267.7402036620107,2902
270.1370965285529,2818
272.53332833809407,2817
274.9288992957214,2635
277.32380960660055,2567
279.718059475976,2528
282.1116491091717,2519
284.5045787115897,2417
286.89684848871195,2385
289.2884586460981,2321
291.67940938938807,2397
294.0697009242996,2499
296.4593334566299,2478
298.84830719225477,2494
301.23662233712923,2405
303.6242790972866,2503
306.01127767884,2392
308.39761828798066,2346
310.78330113097934,2306
313.16832641418534,2249
315.5526943440269,2190
317.9364051270112,2135
320.3194589697242,2155
322.70185607883093,2190
325.0835966610754,2174
327.4646809232805,2166
329.8451090723478,2124
332.2248813152577,2090
334.6039978590701,2101
336.9824589109231,2047
339.36026467803447,2076
341.7374153677,2099
344.113911187295,2002
346.48975234427337,2068
348.8649390461686,2051
351.2394715005918,2072
353.61334991523415,2036
355.9865744978655,2011
358.35914545633375,1989
360.73106299856715,2039
363.10232733257146,2066
365.47293866643247,2039
367.84289720831396,2050
370.2122031664593,2002
372.5808567491905,1965
374.9488581649083,1938
377.31620762209275,1928
379.6829053293021,1900
382.0489514951745,1946
384.4143463284262,1902
386.7790900378528,1935
389.14318283232853,1962
391.50662492080653,1946
393.86941651231916,1994
396.23155781597745,1908
398.5930490409713,1870
400.9538903965696,1920
403.3140820921202,1833
405.6736243370498,1899
408.03251734086336,1824
410.3907613131465,1884
412.74835646356166,1879
415.10530300185144,1838
417.4616011378372,1819
419.81725108141893,1805
422.1722530425758,1869
424.5266072313656,1837
426.880313857925,1766
429.2333731324701,1891
431.58578526529516,1846
433.9375504667738,1861
436.2886689473588,1826
438.63914091758113,1873
440.9889665880513,1833
443.33814616945835,1710
445.68667987257015,1782
448.03456790823395,1803
450.3818104873759,1796
452.72840782100013,1812
455.07436012019105,1742
457.41966759611057,1807
459.7643304600007,1794
462.10834892318155,1797
464.4517231970525,1796
466.79445349309174,1778
469.1365400228566,1794
471.4779829979826,1765
473.81878263018564,1798
476.15893913125876,1826
478.4984527130747,1884
480.8373235875855,1931
483.17555196682144,1874
485.5131380628919,1899
487.8500820879857,1913
490.1863842543697,2035
492.52204477439034,2149
494.8570638604725,2386
497.1914417251204,2633
499.52517858091653,2758
501.85827464052306,3077
504.19073011668036,3056
506.5225452222086,3126
508.85372017000566,3001
511.18425517304956,2905
513.514150444396,3050
515.8434061971808,3612
518.1720226446176,4177
520.4999999999999,4357
522.8273384766991,4099
525.1540382881666,3820
527.480099647932,3401
529.8055227696037,2822
532.1303078668694,2320
534.454455153496,2066
536.777964843328,1960
539.1008371502907,1848
541.4230722883866,1826
543.744670471698,1819
546.0656319143858,1829
548.3859568306899,1847
550.7056454349294,1811
553.0246979415016,1807
555.3431145648834,1848
557.6608955196306,1843
559.978041020377,1740
562.2945512818363,1794
564.6104265188006,1861
566.9256669461412,1877
569.2402727788082,1841
571.5542442318302,1754
573.8675815203156,1847
576.1802848594508,1767
578.4923544645015,1849
580.8037905508126,1777
583.114593333807,1869
585.4247630289875,1853
587.7342998519354,1798
590.0432040183106,1845
592.3514757438526,1887
594.6591152443794,1847
596.9661227357875,1758
599.2724984340531,1799
601.578242555231,1889
603.8833553154542,1874
606.1878369309362,1867
608.4916876179676,1782
610.7949075929192,1848
613.0974970722403,1857
615.3994562724587,1787
617.7007854101818,1803
620.0014847020951,1832
622.3015543649641,1820
624.6009946156324,1810
626.8998056710224,1827
629.1979877481361,1769
631.4955410640538,1843
633.7924658359349,1790
636.0887622810175,1822
638.3844306166192,1887
640.6794710601358,1861
642.9738838290426,1943
645.2676691408932,1901
647.5608272133207,1853
649.853358264037,1872
652.1452625108324,1871
654.4365401715764,1870
656.7271914642178,1882
659.0172166067838,1950
661.3066158173809,1891
663.5953893141935,1997
665.8835373154867,1946
668.1710600396028,1805
670.4579577049639,1893
672.7442305300709,1788
675.0298787335033,1777
677.3149025339197,1847
679.599302150058,1866
681.8830778007342,1821
684.1662297048437,1805
686.4487580813608,1924
688.7306631493387,1902
691.0119451279091,1860
693.2926042362834,1899
695.5726406937516,1875
697.8520547196814,1862
700.1308465335215,1839
702.4090163547982,1898
704.6865644031171,1883
706.9634908981619,1890
709.2397960596965,1861
711.5154801075631,1914
713.7905432616823,1885
716.0649857420548,1844
718.3388077687592,1866
720.612009561953,1818
722.8845913418733,1856
725.1565533288352,1841
727.427895743234,1844
729.6986188055427,1870
731.9687227363137,1815
734.238207756178,1812
736.5070740858458,1843
738.7753219461066,1868
741.0429515578281,1841
743.3099631419569,1842
745.5763569195191,1862
747.8421331116193,1877
750.1072919394409,1857
752.3718336242467,1827
754.6357583873777,1877
756.8990664502545,1784
759.1617580343765,1842
761.423833361321,1809
763.6852926527457,1814
765.9461361303862,1814
768.206364016058,1827
770.4659765316536,1894
772.7249738991469,1898
774.9833563405886,1879
777.2411240781092,1890
779.4982773339183,1787
781.7548163303044,1960
784.010741289634,1853
786.2660524343538,1868
788.5207499869881,1904
790.7748341701416,1937
793.0283052064964,1907
795.2811633188143,1886
797.5334087299362,1866
799.7850416627813,1835
802.0360623403484,1861
804.2864709857143,1874
806.5362678220353,1832
808.7854530725468,1880
811.0340269605625,1877
813.2819897094754,1895
815.5293415427581,1902
817.77608268396,1887
820.0222133567116,1906
822.2677337847211,1794
824.5126441917765,1922
826.7569448017433,1861
829.0006358385675,1891
831.2437175262731,1815
833.4861900889629,1900
835.7280537508192,1881
837.9693087361026,1914
840.2099552691533,1860
842.4499935743896,1920
844.689423876309,1884
846.9282463994886,1861
849.1664613685833,1859
851.4040690083276,1887
853.6410695435349,1880
855.877463199097,1904
858.1132501999847,1862
860.3484307712487,1900
862.5830051380175,1941
864.8169735254988,1929
867.0503361589791,1918
869.2830932638243,1927
871.5152450654786,1958
873.7467917894654,1929
875.9777336613873,1857
878.2080709069252,1864
880.4378037518389,1924
882.666932421968,1946
884.8954571432301,1963
887.1233781416219,1906
889.3506956432192,2002
891.5774098741766,1903
893.803521060728,1907
896.0290294291852,1972
898.2539352059397,1898
900.4782386174619,1877
902.7019398903011,1955
904.925039251085,1967
907.147536926521,1966
909.3694331433943,1985
911.59072812857,1874
913.8114221089921,1896
916.0315153116827,1969
918.2510079637437,1865
920.4699002923547,1951
922.6881925247761,1901
924.905884888345,1944
927.1229776104793,1937
929.3394709186747,1876
931.555365040506,1855
933.7706602036275,1806
935.9853566357709,1876
938.1994545647489,1915
940.4129542184515,1886
942.6258558248488,1870
944.8381596119883,1838
947.0498658079974,1899
949.2609746410825,1861
951.4714863395287,1831
953.6814011316998,1899
955.8907192460387,1889
958.0994409110671,1873
960.3075663553858,1857
962.5150958076741,1813
964.7220294966913,1878
966.928367651274,1801
969.1341105003388,1835
971.3392582728806,1793
973.5438111979742,1763
975.747769504772,1803
977.9511334225061,1818
980.153903180487,1800
982.3560790081052,1822
984.5576611348289,1747
986.7586497902058,1736
988.9590452038618,1821
991.158847605503,1817
993.3580572249133,1786
995.5566742919558,1704
997.7546990365728,1701
999.952131688785,1719
1002.1489724786926,1643
1004.3452216364743,1655
1006.5408793923874,1607
1008.7359459767691,1695
1010.9304216200343,1632
1013.1243065526781,1684
1015.3176010052733,1566
1017.510305208472,1611
1019.7024193930064,1555
1021.8939437896848,1591
1024.0848786293977,1638
1026.2752241431122,1628
1028.4649805618747,1541
1030.6541481168115,1620
1032.842727039127,1583
1035.0307175601051,1589
1037.2181199111074,1561
1039.4049343235752,1547
1041.591161029029,1520
1043.7768002590683,1585
1045.9618522453698,1559
1048.1463172196918,1533
1050.3301954138697,1591
1052.513487059818,1605
1054.69619238953,1582
1056.8783116350783,1516
1059.0598450286152,1552
1061.2407928023704,1579
1063.4211551886528,1501
1065.6009324198508,1564
1067.780124728432,1604
1069.9587323469414,1512
1072.1367555080046,1510
1074.314194444325,1534
1076.4910493886855,1524
1078.667320573947,1514
1080.843008233051,1509
1083.0181125990161,1415
1085.1926339049414,1494
1087.3665723840027,1500
1089.5399282694575,1516
1091.7127017946405,1541
1093.8848931929647,1511
1096.0565026979243,1473
1098.2275305430899,1435
1100.3979769621128,1504
1102.567842188722,1486
1104.737126456726,1429
1106.9058300000124,1449
1109.0739530525475,1498
1111.2414958483764,1490
1113.4084586216231,1476
1115.5748416064907,1495
1117.7406450372605,1407
1119.9058691482942,1452
1122.0705141740304,1420
1124.2345803489884,1468
1126.3980679077658,1452
1128.5609770850388,1477
1130.7233081155623,1497
1132.8850612341707,1450
1135.0462366757774,1432
1137.2068346753745,1504
1139.3668554680326,1428
1141.526299288901,1445
1143.68516637321,1396
1145.8434569562655,1460
1148.001171273455,1434
1150.158309560244,1414
1152.3148720521767,1456
1154.470858984876,1488
1156.626270594044,1386
1158.7811071154629,1452
1160.9353687849912,1449
1163.089055838569,1425
1165.242168512213,1442
1167.3947070420209,1411
1169.5466716641677,1427
1171.6980626149075,1366
1173.8488801305748,1344
1175.9991244475814,1435
1178.1487958024186,1417
1180.2978944316555,1422
1182.4464205719428,1406
1184.5943744600072,1465
1186.7417563326567,1436
1188.8885664267755,1389
1191.0348049793297,1367
1193.1804722273619,1414
1195.325568407995,1415
1197.4700937584303,1383
1199.614048515948,1369
1201.7574329179074,1419
1203.900247201746,1409
1206.042491604982,1420
1208.1841663652099,1416
1210.3252717201053,1416
1212.465807907422,1398
1214.6057751649923,1410
1216.7451737307279,1454
1218.8840038426192,1379
1221.0222657387353,1412
1223.1599596572241,1428
1225.2970858363137,1431
1227.4336445143094,1401
1229.5696359295966,1450
1231.705060320639,1436
1233.8399179259786,1425
1235.9742089842384,1432
1238.107933734118,1390
1240.2410924143974,1474
1242.373685263935,1469
1244.5057125216676,1446
1246.6371744266116,1566
1248.7680712178621,1454
1250.898403134593,1479
1253.028170416058,1559
1255.1573733015875,1476
1257.2860120305932,1475
1259.4140868425648,1488
1261.54159797707,1473
1263.6685456737569,1446
1265.7949301723515,1514
1267.9207517126597,1489
1270.046010534565,1588
1272.1707068780306,1505
1274.2948409830983,1483
1276.4184130898889,1466
1278.541423438603,1519
1280.6638722695184,1518
1282.785759822993,1556
1284.9070863394636,1460
1287.0278520594447,1499
1289.1480572235314,1539
1291.2677020723963,1512
1293.3867868467923,1518
1295.5053117875495,1559
1297.623277135579,1580
1299.740683131868,1540
1301.8575300174857,1577
1303.973818033578,1619
1306.0895474213703,1598
1308.2047184221678,1682
1310.3193312773528,1621
1312.4333862283888,1614
1314.5468835168163,1610
1316.659823384255,1613
1318.7722060724045,1637
1320.8840318230418,1609
1322.9953008780249,1584
1325.1060134792888,1519
1327.2161698688478,1584
1329.3257702887959,1559
1331.4348149813054,1569
1333.5433041886276,1543
1335.6512381530933,1637
1337.7586171171101,1581
1339.8654413231675,1659
1341.9717110138317,1597
1344.0774264317488,1625
1346.1825878196432,1632
1348.2871954203192,1619
1350.3912494766587,1605
1352.4947502316231,1521
1354.5976979282532,1552
1356.7000928096686,1640
1358.8019351190665,1556
1360.9032250997243,1627
1363.0039629949988,1594
1365.1041490483235,1557
1367.2037835032133,1594
1369.3028666032606,1631
1371.401398592137,1578
1373.4993797135926,1507
1375.5968102114575,1561
1377.6936903296396,1551
1379.7900203121262,1574
1381.8858004029835,1575
1383.9810308463561,1632
1386.075711886469,1605
1388.1698437676241,1615
1390.2634267342032,1560
1392.356461030667,1598
1394.4489469015557,1663
1396.5408845914872,1552
1398.6322743451592,1676
1400.7231164073469,1643
1402.813411022907,1582
1404.903158436773,1707
1406.9923588939578,1655
1409.0810126395531,1649
1411.1691199187303,1645
1413.2566809767386,1711
1415.343696058907,1716
1417.4301654106425,1700
1419.5160892774315,1701
1421.6014679048399,1728
1423.6863015385125,1669
1425.7705904241707,1744
1427.8543348076178,1822
1429.9375349347342,1778
1432.0201910514802,1756
1434.102303403894,1739
1436.1838722380944,1816
1438.2648978002767,1875
1440.3453803367174,1885
1442.4253200937692,1859
1444.5047173178677,1828
1446.5835722555234,1897
1448.6618851533285,1935
1450.739656257952,1956
1452.8168858161434,1958
1454.8935740747306,2023
1456.96972128062,1964
1459.045327680797,2064
1461.120393522327,2045
1463.1949190523528,2112
1465.2689045180973,2156
1467.3423501668608,2169
1469.415256246024,2231
1471.4876230030463,2281
1473.559450685465,2279
1475.6307395408976,2258
1477.7014898170391,2281
1479.771701761665,2451
1481.8413756226287,2434
1483.9105116478618,2404
1485.9791100853772,2389
1488.0471711832643,2491
1490.1146951896926,2443
1492.1816823529098,2595
1494.2481329212433,2615
1496.3140471430984,2694
1498.3794252669609,2705
1500.4442675413939,2593
1502.5085742150404,2679
1504.572345536622,2657
1506.6355817549388,2766
1508.6982831188702,2733
1510.7604498773744,2757
1512.8220822794883,2704
1514.8831805743293,2735
1516.9437450110909,2835
1519.003775839048,2896
1521.0632733075522,2800
1523.1222376660367,2858
1525.1806691640113,2867
1527.2385680510652,2858
1529.2959345768668,2913
1531.3527689911643,2980
1533.4090715437833,2958
1535.4648424846291,3035
1537.5200820636855,3051
1539.5747905310159,3099
1541.6289681367616,3188
1543.6826151311434,3075
1545.7357317644614,3264
1547.7883182870937,3211
1549.8403749494987,3234
1551.8919020022113,3394
1553.9428996958477,3404
1555.9933682811015,3478
1558.0433080087469,3416
1560.0927191296346,3619
1562.1416018946961,3485
1564.1899565549415,3491
1566.2377833614592,3514
1568.2850825654164,3508
1570.3318544180606,3395
1572.3780991707158,3315
1574.423817074788,3182
1576.4690083817595,3086
1578.5136733431923,2949
1580.5578122107272,2886
1582.601425236085,2757
1584.6445126710646,2660
1586.6870747675434,2504
1588.7291117774776,2464
1590.7706239529034,2321
1592.8116115459347,2318
1594.8520748087658,2180
1596.8920139936686,2101
1598.9314293529933,2111
1600.9703211391711,2043
1603.008689604711,1967
1605.0465350022005,1949
1607.0838575843068,1901
1609.1206576037753,1800
1611.1569353134305,1823
1613.1926909661765,1796
1615.2279248149953,1705
1617.2626371129481,1709
1619.2968281131757,1711
1621.3304980688963,1710
1623.3636472334088,1663
1625.39627586009,1663
1627.428384202396,1600
1629.459972513861,1632
1631.4910410480993,1643
1633.5215900588028,1623
1635.551619799744,1613
1637.5811305247717,1575
1639.6101224878166,1551
1641.6385959428862,1509
1643.6665511440683,1582
1645.693988345528,1554
1647.7209078015112,1525
1649.7473097663405,1508
1651.7731944944203,1510
1653.7985622402307,1524
1655.823413258333,1553
1657.847747803366,1431
1659.8715661300494,1506
1661.8948684931793,1542
1663.9176551476316,1499
1665.9399263483624,1406
1667.9616823504057,1510
1669.982923408873,1514
1672.0036497789574,1440
1674.0238617159293,1517
1676.043559475138,1481
1678.0627433120121,1447
1680.081413482059,1515
1682.0995702408654,1507
1684.117213844096,1499
1686.134344547495,1497
1688.1509626068864,1471
1690.1670682781705,1529
1692.182661817329,1417
1694.1977434804217,1462
1696.2123135235875,1482
1698.226372203043,1449
1700.2399197750851,1464
1702.2529564960905,1474
1704.2654826225112,1496
1706.277498410882,1423
1708.2890041178139,1441
1710.2999999999988,1456
1712.3104863142066,1520
1714.3204633172854,1404
1716.329931266163,1485
1718.3388904178469,1429
1720.3473410294214,1468
1722.3552833580516,1446
1724.3627176609807,1445
1726.3696441955308,1396
1728.3760632191033,1431
1730.3819749891782,1409
1732.3873797633146,1411
1734.3922777991502,1420
1736.3966693544012,1430
1738.4005546868639,1422
1740.4039340544127,1421
1742.406807715001,1416
1744.4091759266616,1396
1746.4110389475054,1406
1748.4123970357223,1407
1750.413250449582,1364
1752.4135994474318,1421
1754.4134442876993,1376
1756.4127852288902,1391
1758.4116225295893,1435
1760.4099564484595,1366
1762.407787244244,1423
1764.405115175764,1333
1766.4019405019203,1374
1768.3982634816916,1367
1770.3940843741357,1442
1772.3894034383907,1415
1774.3842209336717,1373
1776.378537119274,1346
1778.372352254571,1319
1780.3656665990156,1379
1782.3584804121397,1357
1784.3507939535534,1328
1786.3426074829463,1343
1788.3339212600863,1336
1790.3247355448211,1303
1792.3150505970766,1347
1794.3048666768573,1372
1796.2941840442477,1322
1798.2830029594106,1363
1800.2713236825884,1342
1802.2591464741004,1296
1804.2464715943465,1318
1806.2332993038058,1329
1808.2196298630352,1328
1810.2054635326708,1336
1812.190800573428,1363
1814.175641246101,1355
1816.1599858115628,1281
1818.1438345307652,1352
1820.127187664738,1323
1822.1100454745924,1333
1824.092408221516,1362
1826.0742761667766,1342
1828.055649571721,1330
1830.0365286977735,1398
1832.0169138064398,1326
1833.9968051593014,1317
1835.9762030180214,1317
1837.9551076443408,1336
1839.9335193000788,1410
1841.9114382471344,1295
1843.888864747485,1291
1845.8657990631878,1324
1847.842241456378,1348
1849.8181921892697,1315
1851.7936515241558,1290
1853.7686197234098,1333
1855.7430970494815,1327
1857.7170837649014,1307
1859.6905801322787,1318
1861.6635864143004,1331
1863.6361028737338,1314
1865.608129773424,1313
1867.5796673762961,1332
1869.5507159453537,1344
1871.521275743678,1330
1873.4913470344313,1328
1875.4609300808534,1320
1877.4300251462632,1300
1879.3986324940588,1389
1881.366752387717,1415
1883.3343850907936,1345
1885.3015308669228,1378
1887.268189979819,1397
1889.2343626932739,1436
1891.2000492711595,1372
1893.1652499774254,1362
1895.1299650761011,1318
1897.0941948312952,1396
1899.0579395071945,1349
1901.0211993680641,1350
1902.98397467825,1348
1904.9462657021745,1453
1906.9080727043415,1375
1908.869395949332,1371
1910.8302357018065,1397
1912.790592226504,1316
1914.7504657882428,1352
1916.7098566519212,1360
1918.6687650825133,1324
1920.6271913450764,1376
1922.5851357047422,1335
1924.5425984267245,1407
1926.499579776314,1405
1928.4560800188833,1361
1930.4120994198802,1349
1932.367638244833,1390
1934.32269675935,1386
1936.2772752291175,1358
1938.231373919899,1358
1940.1849930975404,1361
1942.1381330279637,1374
1944.0907939771696,1396
1946.0429762112412,1364
1947.9946799963363,1308
1949.9459055986945,1411
1951.896653284633,1287
1953.8469233205478,1369
1955.7967159729142,1347
1957.7460315082863,1338
1959.6948701932974,1343
1961.6432322946594,1379
1963.5911180791632,1332
1965.5385278136787,1374
1967.4854617651545,1357
1969.4319202006182,1389
1971.377903387176,1331
1973.3234115920136,1344
1975.268445082395,1332
1977.2130041256642,1363
1979.1570889892423,1375
1981.1006999406304,1344
1983.04383724741,1365
1984.986501177238,1318
1986.928691997853,1298
1988.8704099770712,1339
1990.811655382789,1391
1992.7524284829801,1309
1994.692729545698,1325
1996.6325588390755,1316
1998.5719166313224,1322
2000.5108031907307,1358
2002.4492187856677,1329
2004.387163684583,1292
2006.3246381560011,1391
2008.2616424685298,1323
2010.1981768908527,1274
2012.1342416917332,1325
2014.069837140014,1309
2016.0049635046162,1301
2017.9396210545406,1306
2019.8738100588666,1302
2021.8075307867502,1324
2023.740783507431,1299
2025.6735684902228,1348
2027.6058860045214,1305
2029.5377363198004,1271
2031.4691197056118,1281
2033.4000364315875,1287
2035.3304867674374,1347
2037.260470982952,1290
2039.189989347998,1305
2041.1190421325232,1271
2043.047629606554,1307
2044.9757520401945,1323
2046.9034097036288,1296
2048.8306028671195,1301
2050.7573318010086,1286
2052.683596775716,1292
2054.609398061742,1299
2056.5347359296647,1297
2058.4596106501403,1248
2060.384022493906,1337
2062.3079717317764,1264
2064.231458634646,1329
2066.1544834734873,1219
2068.077046519352,1325
2069.99914804337,1298
2071.9207883167524,1313
2073.8419676107865,1266
2075.7626861968406,1290
2077.6829443463607,1300
2079.6027423308715,1285
2081.522080421977,1349
2083.440958891362,1285
2085.359378010786,1311
2087.2773380520907,1307
2089.194839287196,1273
2091.111881988101,1253
2093.0284664268825,1277
2094.9445928756973,1294
2096.86026160678,1264
2098.775472892446,1275
2100.690227005088,1281
2102.604524217178,1323
2104.5183648012676,1291
2106.431749029985,1317
2108.34467717604,1340
2110.2571495122206,1272
2112.169166311393,1255
2114.080727846503,1275
2115.9918343905747,1305
2117.902486216711,1331
2119.8126835980956,1267
2121.722426807987,1348
2123.6317161197285,1282
2125.5405518067364,1276
2127.448934142509,1323
2129.356863400624,1280
2131.264339854737,1397
2133.1713637785815,1306
2135.077935445972,1274
2136.9840551308002,1308
2138.889723107037,1239
2140.7949396487334,1270
2142.699705030018,1299
2144.6040195250994,1303
2146.507883408264,1301
2148.4112969538774,1349
2150.3142604363848,1399
2152.2167741303097,1343
2154.1188383102535,1274
2156.0204532508997,1306
2157.9216192270064,1289
2159.822336513414,1312
2161.7226053850413,1331
2163.622426116884,1322
2165.5217989840185,1308
2167.4207242616,1284
2169.319202224862,1304
2171.2172331491165,1386
2173.1148173097563,1360
2175.0119549822507,1321
2176.90864644215,1310
2178.8048919650823,1344
2180.7006918267534,1347
2182.596046302952,1305
2184.4909556695407,1349
2186.3854202024645,1376
2188.279440177746,1301
2190.173015871487,1363
2192.066147559868,1354
2193.958835519149,1370
2195.851080025667,1324
2197.7428813558417,1383
2199.6342397861667,1331
2201.5251555932186,1340
2203.415629053651,1310
2205.3056604441986,1349
2207.19525004167,1357
2209.084398122958,1398
2210.9731049650327,1338
2212.861370844941,1378
2214.749196039812,1405
2216.636580826851,1365
2218.523525483344,1391
2220.410030286655,1387
2222.296095514226,1415
2224.1817214435805,1423
2226.066908352319,1414
2227.951656518121,1473
2229.835966218746,1401
2231.71983773203,1449
2233.6032713358913,1431
2235.486267308324,1390
2237.3688259274036,1383
2239.2509474712824,1347
2241.132632218193,1396
2243.013880446447,1350
2244.8946924344323,1377
2246.7750684606203,1351
2248.6550088035574,1339
2250.534513741871,1356
2252.413583554265,1410
2254.292218519526,1358
2256.170418916517,1431
2258.0481850241786,1435
2259.925517121534,1335
2261.8024154876825,1339
2263.678880401803,1446
2265.5549121431536,1438
2267.430510991071,1381
2269.305677224971,1476
2271.180411124348,1378
2273.0547129687766,1417
2274.9285830379076,1404
2276.8020216114737,1341
2278.6750289692845,1363
2280.5476053912294,1481
2282.4197511572766,1380
2284.2914665474727,1468
2286.162751841943,1371
2288.0336073208937,1475
2289.904033264608,1457
2291.774029953448,1410
2293.6435976678554,1376
2295.5127366883517,1385
2297.381447295534,1340
2299.2497297700825,1310
2301.1175843927526,1348
2302.9850114443825,1300
2304.852011205885,1261
2306.7185839582553,1255
2308.5847299825664,1297
2310.4504495599676,1203
2312.3157429716925,1223
2314.1806104990483,1234
2316.0450524234247,1207
2317.9090690262888,1205
2319.772660589186,1225
2321.635827393742,1209
2323.498569721661,1207
2325.3608878547248,1243
2327.2227820747967,1198
2329.0842526638157,1268
2330.945299903803,1218
2332.805924076857,1232
2334.6661254651535,1233
2336.525904350951,1220
2338.3852610165827,1267
2340.244195744464,1219
2342.102708817088,1203
2343.9608005170253,1190
2345.8184711269287,1202
2347.675720929526,1173
2349.532550207628,1211
2351.38895924412,1247
2353.24494832197,1223
2355.100517724223,1250
2356.955667734004,1212
2358.810398634514,1256
2360.664710709037,1265
2362.5186042409337,1291
2364.3720795136437,1220
2366.225136810686,1240
2368.0777764156583,1243
2369.929998612237,1224
2371.7818036841777,1281
2373.633191915315,1279
2375.484163589562,1270
2377.3347189909114,1255
2379.184858403434,1236
2381.03458211128,1217
2382.8838903986775,1228
2384.732783549936,1281
2386.5812618494406,1246
2388.4293255816588,1255
2390.2769750311327,1221
2392.1242104824883,1212
2393.971032220427,1268
2395.8174405297295,1275
2397.6634356952563,1289
2399.509018001947,1182
2401.3541877348193,1318
2403.1989451789705,1283
2405.043290619576,1256
2406.8872243418905,1258
2408.730746631247,1204
2410.5738577730594,1252
2412.4165580528183,1224
2414.258847756095,1263
2416.100727168537,1224
2417.9421965758734,1219
2419.783256263912,1237
2421.623906518538,1232
2423.4641476257157,1247
2425.303979871491,1231
2427.143403541984,1240
2428.9824189233977,1295
2430.821026302012,1194
2432.6592259641866,1246
2434.497018196361,1243
2436.33440328505,1242
2438.171381516851,1272
2440.00795317844,1236
2441.844118556569,1261
2443.6798779380724,1247
2445.5152316098606,1254
2447.3501798589255,1299
2449.1847229723357,1254
2451.0188612372403,1234
2452.8525949408663,1237
2454.6859243705203,1253
2456.518849813587,1299
2458.3513715575314,1254
2460.183489889895,1278
2462.015205098301,1305
2463.8465174704493,1264
2465.67742729412,1267
2467.5079348571717,1243
2469.338040447542,1294
2471.1677443532476,1309
2472.9970468623833,1260
2474.825948263123,1280
2476.6544488437207,1275
2478.482548892508,1261
2480.310248697896,1202
2482.137548548374,1299
2483.9644487325118,1280
2485.790949538956,1310
2487.617051256433,1307
2489.44275417375,1324
2491.26805857979,1288
2493.0929647635157,1305
2494.917473013971,1289
2496.741583620276,1316
2498.5652968716304,1405
2500.3886130573137,1361
2502.2115324666834,1296
2504.0340553891765,1348
2505.856182114308,1363
2507.6779129316733,1263
2509.499248130945,1291
2511.3201880018764,1333
2513.140732834298,1370
2514.9608829181198,1364
2516.780638543331,1298
2518.6,1311
2520.418967578273,1340
2522.237541568376,1307
2524.0557222606144,1334
2525.8735099453706,1379
2527.6909049131086,1372
2529.507907454368,1394
2531.32451785977,1324
2533.140736420014,1369
2534.9565634258774,1387
2536.771999168218,1383
2538.5870439379714,1397
2540.4016980261526,1414
2542.2159617238544,1390
2544.02983532225,1420
2545.8433191125914,1461
2547.656413386209,1450
2549.4691184345115,1450
2551.2814345489874,1460
2553.093362021204,1472
2554.904901142808,1447
2556.716052205523,1492
2558.526815501153,1531
2560.3371913215824,1486
2562.147179958771,1514
2563.956781704761,1497
2565.7659968516705,1526
2567.5748256916986,1498
2569.3832685171224,1515
2571.1913256202984,1533
2572.9989972936614,1579
2574.806283829725,1513
2576.613185521084,1578
2578.4197026604074,1587
2580.2258355404483,1615
2582.031584454035,1577
2583.836949694077,1590
2585.6419315535613,1598
2587.4465303255533,1628
2589.2507463032002,1603
2591.0545797797245,1618
2592.8580310484303,1620
2594.6611004026995,1704
2596.463788135992,1601
2598.266094541849,1595
2600.0680199138874,1587
2601.869564545807,1705
2603.670728731383,1609
2605.4715127644704,1696
2607.2719169390048,1654
2609.071941548998,1656
2610.8715868885433,1611
2612.670853251811,1633
2614.469740933052,1591
2616.268250226594,1665
2618.0663814268455,1604
2619.864134828292,1551
2621.6615107255006,1600
2623.458509413115,1622
2625.2551311858597,1588
2627.0513763385347,1601
2628.8472451660223,1613
2630.6427379632833,1627
2632.4378550253564,1555
2634.232596647359,1490
2636.026963124488,1578
2637.8209547520187,1512
2639.6145718253065,1526
2641.407814639785,1522
2643.200683490966,1499
2644.9931786744414,1544
2646.7853004858807,1516
2648.577049221034,1506
2650.3684251757277,1422
2652.1594286458712,1461
2653.9500599274484,1486
2655.740319316525,1424
2657.5302071092437,1424
2659.3197236018286,1399
2661.10886909058,1415
2662.8976438718782,1451
2664.686048242183,1401
2666.4740824980327,1379
2668.2617469360443,1401
2670.0490418529134,1401
2671.8359675454153,1364
2673.622524310403,1373
2675.408712444811,1328
2677.1945322456495,1340
2678.979984010009,1387
2680.76506803506,1345
2682.5497846180497,1271
2684.334134056306,1315
2686.1181166472343,1302
2687.9017326883213,1286
2689.6849824771293,1217
2691.4678663113013,1290
2693.2503844885596,1339
2695.032537306705,1354
2696.8143250636167,1289
2698.5957480572542,1302
2700.3768065856534,1313
2702.1575009469316,1309
2703.937831439283,1307
2705.717798360982,1304
2707.4974020103837,1254
2709.276642685917,1285
2711.055520686095,1263
2712.834036309506,1258
2714.612189854819,1288
2716.389981620782,1270
2718.1674119062204,1240
2719.944481010041,1228
2721.721189231226,1250
2723.4975368688415,1217
2725.273524222027,1212
2727.0491515900053,1195
2728.824419272075,1235
2730.5993275676146,1231
2732.3738767760838,1209
2734.148067197016,1202
2735.921899130031,1223
2737.6953728748194,1227
2739.468488731156,1220
2741.2412469988926,1253
2743.0136479779617,1184
2744.785691968372,1249
2746.5573792702116,1213
2748.3287101836504,1193
2750.099685008934,1220
2751.870304046388,1225
2753.640567596418,1218
2755.4104759595057,1222
2757.1800294362156,1227
2758.949228327187,1226
2760.7180729331412,1162
2762.486563554877,1247
2764.254700493272,1204
2766.022484049284,1213
2767.789914523947,1180
2769.5569922183786,1225
2771.3237174337705,1206
2773.090090471394,1137
2774.8561116326036,1256
2776.6217812188274,1184
2778.3870995315756,1177
2780.1520668724356,1231
2781.9166835430747,1174
2783.6809498452394,1238
2785.444866080754,1218
2787.2084325515225,1164
2788.971649559527,1193
2790.73451740683,1199
2792.4970363955713,1208
2794.2592068279705,1217
2796.0210290063264,1236
2797.7825032330147,1187
2799.543629810493,1179
2801.304409041296,1194
2803.0648412280366,1207
2804.8249266734088,1211
2806.5846656801846,1216
2808.344058551212,1244
2810.1031055894246,1206
2811.8618070978273,1230
2813.6201633795085,1275
2815.378174737636,1247
2817.1358414754536,1235
2818.893163896285,1187
2820.6501423035334,1234
2822.4067770006814,1195
2824.1630682912883,1214
2825.9190164789957,1180
2827.6746218675207,1189
2829.429884760661,1179
2831.184805462294,1172
2832.9393842763743,1246
2834.693621506936,1194
2836.4475174580916,1208
2838.201072434034,1244
2839.954286739034,1158
2841.707160677441,1161
2843.459694553685,1184
2845.2118886722724,1190
2846.96374333779,1172
2848.7152588549034,1162
2850.4664355283567,1226
2852.217273662973,1200
2853.9677735636546,1185
2855.7179355353833,1160
2857.4677598832186,1190
2859.217246912299,1189
2860.9663969278427,1235
2862.715210235146,1204
2864.4636871395846,1267
2866.211827946614,1176
2867.9596329617652,1139
2869.7071024906536,1194
2871.4542368389684,1186
2873.20103631248,1193
2874.947501217038,1204
2876.6936318585695,1203
2878.4394285430812,1117
2880.1848915766604,1248
2881.9300212654707,1190
2883.6748179157553,1212
2885.4192818338374,1209
2887.1634133261173,1174
2888.907212699077,1230
2890.6506802592744,1278
2892.393816313348,1225
2894.1366211680142,1199
2895.8790951300693,1201
2897.621238506388,1202
2899.363051603925,1218
2901.1045347297118,1194
2902.8456881908596,1146
2904.58651229456,1238
2906.327007348081,1208
2908.067173658772,1233
2909.8070115340597,1163
2911.5465212814497,1176
2913.285703208527,1219
2915.0245576229563,1276
2916.7630848324807,1218
2918.5012851449196,1242
2920.2391588681758,1201
2921.976706310227,1190
2923.7139277791334,1218
2925.4508235830313,1192
2927.187394030137,1213
2928.923639428745,1186
2930.6595600872306,1210
2932.395156314046,1209
2934.1304284177218,1177
2935.8653767068713,1178
2937.6000014901815,1157
2939.3343030764227,1197
2941.068281774442,1164
2942.8019378931644,1258
2944.5352717415976,1168
2946.2682836288236,1243
2948.0009738640065,1223
2949.7333427563885,1191
2951.465390615289,1238
2953.1971177501086,1227
2954.9285244703265,1174
2956.6596110855,1248
2958.3903779052657,1236
2960.1208252393385,1162
2961.8509533975125,1185
2963.5807626896617,1194
2965.3102534257378,1237
2967.0394259157715,1200
2968.768280469873,1138
2970.496817398232,1200
2972.2250370111146,1189
2973.952939618869,1195
2975.6805255319196,1251
2977.4077950607707,1216
2979.134748516006,1220
2980.861386208289,1242
2982.587708448359,1170
2984.313715547037,1214
2986.039407815222,1265
2987.764785563891,1185
2989.489849104102,1149
2991.2145987469908,1155
2992.9390348037705,1181
2994.6631575857346,1163
2996.3869674042576,1197
2998.1104645707887,1164
2999.83364939686,1187
3001.5565221940783,1164
3003.2790832741334,1214
3005.0013329487924,1221
3006.7232715298996,1163
3008.4448993293804,1191
3010.166216659239,1131
3011.887223831558,1177
3013.607921158498,1209
3015.3283089522993,1157
3017.0483875252826,1176
3018.7681571898443,1257
3020.4876182584626,1242
3022.2067710436927,1168
3023.9256158581707,1180
3025.644153014609,1101
3027.362382825801,1187
3029.0803056046193,1202
3030.797921664012,1190
3032.5152313170106,1150
3034.2322348767225,1147
3035.9489326563353,1170
3037.665324969115,1196
3039.3814121284063,1204
3041.097194447633,1200
3042.812672240299,1182
3044.5278458199855,1233
3046.2427155003525,1137
3047.9572815951406,1198
3049.671544418167,1153
3051.38550428333,1181
3053.0991615046073,1249
3054.812516396051,1191
3056.5255692717974,1229
3058.2383204460575,1167
3059.9507702331257,1193
3061.662918947372,1158
3063.3747669032446,1208
3065.0863144152736,1196
3066.7975617980674,1207
3068.508509366309,1248
3070.219157434767,1187
3071.9295063182844,1222
3073.639556331785,1133
3075.3493077902704,1197
3077.058761008821,1182
3078.7679163025964,1143
3080.476773986837,1205
3082.1853343768594,1158
3083.89359778806,1221
3085.6015645359153,1173
3087.3092349359786,1220
3089.016609303884,1149
3090.7236879553434,1227
3092.4304712061476,1215
3094.136959372166,1188
3095.843152769349,1182
3097.5490517137237,1159
3099.2546565213966,1166
3100.959967508554,1164
3102.66498499146,1207
3104.3697092864577,1219
3106.0741407099695,1194
3107.778279578498,1218
3109.482126208622,1171
3111.1856809170004,1202
3112.8889440203716,1204
3114.5919158355528,1209
3116.294596679439,1193
3117.996986869006,1191
3119.6990867213062,1201
3121.4008965534726,1212
3123.102416682717,1199
3124.803647426329,1168
3126.5045891016784,1228
3128.205242026213,1217
3129.90560651746,1131
3131.605682893025,1259
3133.3054714705922,1213
3135.0049725679282,1254
3136.7041865028714,1226
3138.4031135933465,1210
3140.101754157353,1204
3141.800108512971,1215
3143.498176978357,1220
3145.1959598717494,1165
3146.8934575114636,1190
3148.5906702158954,1149
3150.2875983035183,1204
3151.9842420928853,1196
3153.680601902627,1177
3155.376678051456,1151
3157.07247085816,1143
3158.767980641609,1166
3160.463207720748,1234
3162.158152414606,1197
3163.8528150422862,1202
3165.5471959229726,1199
3167.2412953759303,1149
3168.9351137204976,1118
3170.628651276098,1209
3172.3219083622307,1184
3174.014885298474,1189
3175.707582404485,1178
3177.4000000000005,1204
3179.092138404835,1237
3180.7839979388846,1181
3182.47557892212,1189
3184.166881674594,1221
3185.8579065164386,1201
3187.5486537678626,1167
3189.2391237491547,1238
3190.9293167806827,1209
3192.6192331828934,1191
3194.3088732763117,1192
3195.998237381542,1203
3197.687325819268,1164
3199.376138910251,1176
3201.064676975334,1205
3202.7529403354347,1189
3204.4409293115523,1213
3206.1286442247647,1174
3207.816085396229,1178
3209.5032531471825,1174
3211.190147798936,1190
3212.8767696728846,1118
3214.5631190905015,1068
3216.2491963733373,1138
3217.9350018430214,1141
3219.6205358212637,1144
3221.305798629851,1081
3222.990790590651,1171
3224.6755120256103,1125
3226.359963256751,1199
3228.0441446061795,1109
3229.7280563960758,1194
3231.411698948703,1150
3233.0950725863995,1224
3234.778177631587,1169
3236.461014406761,1142
3238.1435832345005,1171
3239.8258844374595,1124
3241.507918338374,1201
3243.1896852600576,1156
3244.8711855254023,1150
3246.552419457381,1160
3248.233387379042,1128
3249.914089613516,1151
3251.59452648401,1154
3253.274698313813,1215
3254.95460542629,1185
3256.6342481448855,1144
3258.313626793125,1166
3259.9927416946084,1134
3261.6715931730196,1121
3263.3501815521176,1130
3265.0285071557437,1146
3266.706570307815,1112
3268.3843713323286,1100
3270.0619105533615,1151
3271.739188295068,1186
3273.4162048816834,1136
3275.0929606375184,1126
3276.769455886966,1202
3278.445690954498,1170
3280.1216661646613,1143
3281.797381842087,1183
3283.4728383114807,1194
3285.1480358976296,1121
3286.8229749253996,1114
3288.4976557197333,1168
3290.172078605655,1212
3291.846243908266,1103
3293.5201519527463,1159
3295.193803064357,1139
3296.8671975684374,1179
3298.5403357904024,1126
3300.21321805575,1148
3301.8858446900567,1158
3303.558216018975,1130
3305.23033236824,1169
3306.9021940636603,1155
3308.57380143113,1162
3310.2451547966184,1161
3311.916254486174,1191
3313.5871008259246,1212
3315.2576941420766,1173
3316.9280347609147,1149
3318.5981230088046,1134
3320.2679592121895,1147
3321.9375436975924,1119
3323.606876791612,1178
3325.27595882093,1141
3326.944790112305,1160
3328.6133709925753,1147
3330.2817017886573,1149
3331.949782827547,1122
3333.617614436319,1172
3335.2851969421245,1157
3336.952530672199,1187
3338.619615953853,1164
3340.286453114475,1127
3341.9530424815357,1179
3343.619384382583,1143
3345.2854791452437,1194
3346.951327097224,1148
3348.6169285663073,1141
3350.2822838803577,1144
3351.947393367319,1189
3353.61225735521,1147
3355.2768761721345,1190
3356.9412501462693,1181
3358.605379605873,1160
3360.2692648792827,1148
3361.9329062949146,1138
3363.596304181263,1132
