CollectionTime,9/26/2024 8:42:48 AM
ExposureUsed,3
CalibratedSpectrum
-962.7078968117929,629
-959.9714848408522,680
-957.2358232597828,681
-954.5009119013725,707
-951.7667505983302,718
-949.0333391832855,648
-946.3006774887896,648
-943.5687653473143,689
-940.837602591253,784
-938.1071890529199,686
-935.3775245645503,672
-932.6486089583007,642
-929.9204420662485,721
-927.1930237203925,744
-924.4663537526524,754
-921.7404319948689,718
-919.0152582788041,697
-916.2908324361409,870
-913.5671542984834,749
-910.8442236973568,704
-908.1220404642074,743
-905.4006044304027,740
-902.679915427231,660
-899.959973285902,658
-897.2407778375464,764
-894.5223289132158,723
-891.8046263438832,682
-889.0876699604426,667
-886.3714595937089,702
-883.6559950744183,713
-880.9412762332282,722
-878.2273029007168,664
-875.5140749073835,660
-872.8015920836489,657
-870.0898542598545,688
-867.3788612662631,668
-864.6686129330585,663
-861.9591090903457,653
-859.2503495681506,561
-856.5423341964203,594
-853.8350628050229,635
-851.1285352237478,641
-848.4227512823054,656
-845.7177108103272,694
-843.0134136373656,712
-840.3098595928943,664
-837.6070485063082,694
-834.9049802069229,684
-832.2036545239757,720
-829.5030712866244,705
-826.8032303239481,695
-824.1041314649472,719
-821.4057745385428,647
-818.7081593735775,652
-816.0112857988148,675
-813.3151536429393,677
-810.6197627345566,680
-807.9251129021936,690
-805.2312039742981,732
-802.5380357792392,709
-799.8456081453069,661
-797.1539209007124,728
-794.462973873588,687
-791.772766891987,708
-789.083299783884,754
-786.3945723771743,786
-783.7065844996748,762
-781.0193359791231,765
-778.3328266431781,753
-775.6470563194197,717
-772.9620248353489,718
-770.2777320183878,638
-767.5941776958798,640
-764.9113616950891,622
-762.2292838432011,623
-759.5479439673222,687
-756.8673418944801,769
-754.1874774516235,730
-751.5083504656222,721
-748.8299607632671,737
-746.15230817127,786
-743.475392516264,752
-740.7992136248035,686
-738.1237713233636,699
-735.4490654383407,704
-732.7750957960521,687
-730.1018622227365,719
-727.4293645445534,749
-724.7576025875837,699
-722.0865761778291,700
-719.4162851412126,687
-716.7467293035781,791
-714.0779084906909,857
-711.409822528237,766
-708.7424712418238,735
-706.0758544569796,749
-703.4099719991541,743
-700.7448236937178,722
-698.0804093659622,721
-695.4167288411002,734
-692.7537819442656,757
-690.0915685005134,788
-687.4300883348199,806
-684.7693412720819,790
-682.1093271371178,688
-679.4500457546669,784
-676.7914969493897,784
-674.1336805458676,769
-671.4765963686034,727
-668.8202442420206,719
-666.1646239904642,740
-663.5097354382001,770
-660.8555784094151,760
-658.2021527282176,705
-655.5494582186366,740
-652.8974947046223,773
-650.2462620100463,800
-647.5957599587009,786
-644.9459883742998,871
-642.2969470804776,783
-639.6486359007902,780
-637.0010546587141,782
-634.3542031776476,747
-631.7080812809096,694
-629.0626887917401,831
-626.4180255333008,1001
-623.7740913286734,897
-621.1308860008619,798
-618.4884093727904,821
-615.8466612673046,830
-613.2056415071715,831
-610.5653499150785,844
-607.9257863136347,845
-605.28695052537,873
-602.6488423727357,830
-600.0114616781036,918
-597.3748082637674,1192
-594.7388819519412,1111
-592.1036825647604,915
-589.4692099242818,1034
-586.8354638524829,1062
-584.2024441712624,1065
-581.5701507024403,988
-578.9385832677575,895
-576.3077416888759,931
-573.6776257873787,1012
-571.0482353847704,985
-568.4195703024757,899
-565.7916303618415,893
-563.164415384135,835
-560.5379251905453,819
-557.9121596021815,874
-555.2871184400748,907
-552.6628015251767,893
-550.0392086783606,979
-547.4163397204204,951
-544.794194472071,941
-542.1727727539491,907
-539.5520743866118,905
-536.9320991905377,942
-534.3128469861261,1151
-531.6943175936979,1128
-529.0765108334947,1117
-526.4594265256793,1329
-523.8430644903358,1545
-521.2274245474689,1593
-518.612506517005,1785
-515.9983102187913,1837
-513.3848354725959,2014
-510.77208209810846,2155
-508.16004991493924,2236
-505.5487387426199,2405
-502.9381484006032,2239
-500.3282787082628,2009
-497.71912948489364,1800
-495.1107005497117,1540
-492.5029917218539,1441
-489.8960028203786,1299
-487.28973366426493,1062
-484.68418407241325,1105
-482.07935386364494,1122
-479.47524285670266,1079
-476.87185087025,1115
-474.2691777228715,1111
-471.66722323307334,1053
-469.0659872192821,1004
-466.4654694998459,1087
-463.86566989303384,1018
-461.26658821703614,1126
-458.66822428996414,1115
-456.07057792985,1092
-453.4736489546475,1190
-450.877437182231,1043
-448.28194243039627,984
-445.68716451686,1019
-443.09310325926003,1039
-440.49975847515555,1010
-437.9071299820263,1088
-435.31521759727354,1153
-432.72402113821954,1371
-430.13354042210767,1232
-427.5437752661022,1103
-424.95472548728867,1199
-422.36639090267386,1219
-419.7787713291855,1264
-417.1918665836721,1373
-414.60567648290385,1396
-412.0202008435715,1293
-409.4354394822874,1313
-406.8513922155845,1308
-404.26805885991723,1193
-401.685439231661,1171
-399.103533147112,1153
-396.522340422488,1202
-393.9418608739278,1135
-391.3620943174908,1072
-388.7830405691583,1226
-386.2046994448317,1098
-383.6270707603344,1165
-381.05015433141045,1158
-378.473949973725,988
-375.8984575028645,868
-373.32367673433623,906
-370.74960748356875,892
-368.1762495659117,837
-365.60360279663576,836
-363.03166699093265,927
-360.4604419639154,792
-357.8899275306178,794
-355.32012350599507,769
-352.7510297049233,747
-350.1826459421999,692
-347.61497203254316,646
-345.04800779059235,719
-342.4817530309082,891
-339.91620756797226,917
-337.35137121618743,873
-334.7872437898774,871
-332.22382510328725,1231
-329.66111497058273,1225
-327.09911320585127,787
-324.53781962310075,732
-321.9772340362607,784
-319.4173562591816,786
-316.8581861056348,721
-314.2997233893127,846
-311.7419679238294,873
-309.1849195227194,864
-306.62857799943856,856
-304.0729431673641,906
-301.51801483979375,1052
-298.963792829947,1057
-296.41027695096386,1064
-293.85746701590574,1167
-291.3053628377552,1057
-288.7539642294155,1204
-286.2032710037115,1394
-283.65328297338897,1449
-281.1039999511146,1690
-278.5554217494762,1932
-276.007548180983,1444
-273.4603790580651,1081
-270.9139141930734,1200
-268.3681533982807,1301
-265.8230964858798,1487
-263.27874326798565,1240
-260.7350935566336,1285
-258.1921471637804,1557
-255.6499039013039,1832
-253.10836358100266,1309
-250.56752601459698,1216
-248.02739101372765,1534
-245.48795838995704,1838
-242.94922795476816,1609
-240.41119951956557,1190
-237.8738728956746,1328
-235.33724789434166,1608
-232.80132432673452,1553
-230.2661020039418,1449
-227.73158073697357,1485
-225.19776033676033,1802
-222.66464061415422,1838
-220.1322213799284,1540
-217.60050244477725,1372
-215.06948361931552,1704
-212.53916471408013,2572
-210.00954553952818,2826
-207.48062590603843,1957
-204.9524056239104,1397
-202.4248845033651,1582
-199.8980623545441,1998
-197.37193898751036,2297
-194.84651421224817,1852
-192.32178783866232,1726
-189.79775967657952,2029
-187.27442953574644,2430
-184.7517972258321,2475
-182.2298625564256,2001
-179.7086253370378,1797
-177.18808537710026,2325
-174.66824248596583,2905
-172.14909647290835,3122
-169.6306471471229,2418
-167.11289431772548,1963
-164.59583779375328,1952
-162.07947738416453,2678
-159.5638128978386,3245
-157.04884414357605,3205
-154.53457093009854,2769
-152.02099306604828,2283
-149.50811035998936,2116
-146.99592262040665,2464
-144.48442965570587,3475
-141.97363127421409,5015
-139.46352728417958,5069
-136.95411749377126,4295
-134.44540171107985,3255
-131.93737974411636,2413
-129.43005140081357,3035
-126.92341648902493,4772
-124.41747481652521,7639
-121.91222619101006,9859
-119.40767042009657,9148
-116.90380731132257,6891
-114.40063667214702,4757
-111.8981583099503,3755
-109.3963720320337,4405
-106.89527764561933,7667
-104.39487495785067,14553
-101.89516377579241,21729
-99.39614390642998,22036
-96.89781515667039,21845
-94.40017733334128,17005
-91.90323024319173,13964
-89.40697369289148,12897
-86.91140748903172,12281
-84.41653143812482,17268
-81.92234534660395,28746
-79.42884902082358,38826
-76.93604226705907,36193
-74.4439248915071,29961
-71.95249670028534,34880
-69.46175749943245,51470
-66.97170709490854,65024
-64.48234529259423,65024
-61.99367189829195,65024
-59.50568671772464,65024
-57.01838955653636,59416
-54.53178022029283,38983
-52.045858514480074,32548
-49.560624244506016,29178
-47.07607721569923,28246
-44.59221723330904,25459
-42.10904410250669,23703
-39.62655762838392,23260
-37.14475761595372,27738
-34.66364387015028,37402
-32.18321619582866,51631
-29.70347439776515,64963
-27.224418280657005,65024
-24.74604764912317,65024
-22.26836230770266,65024
-19.7913620608565,65024
-17.315046712966478,65024
-14.83941606833514,65024
-12.36446993118659,65024
-9.89020810566592,65024
-7.416630395839093,65024
-4.94373660569363,65024
-2.471526539137585,65024
-6.821210263296962E-13,65024
2.47084320796705,65024
4.941003281093458,65024
7.410480415786196,65024
9.879274808531363,65024
12.347386655893956,65024
14.814816154518212,65024
17.28156350112681,65024
19.74762889252179,65024
22.21301252558385,29575
24.67771459727237,11235
27.141735304626195,13908
29.605074844762612,14854
32.06773341487792,11183
34.52971121224755,8672
36.99100843422559,10697
39.45162527824516,9480
41.91156194181792,7898
44.370818622535126,6844
46.82939551806646,7450
49.287292826160524,7048
51.74451074464503,7222
54.201049471426245,6189
56.65690920448981,5511
59.112090141899785,5571
61.56659248179983,5311
64.02041642241159,4843
66.4735621620365,5688
68.92602989905402,7377
71.37781983192338,7847
73.82893215918205,7073
76.27936707944684,5160
78.72912479141326,5471
81.17820549385567,5832
83.62660938562783,5155
86.07433666566146,5552
88.5213875329681,4132
90.96776218663751,3653
93.41346082583925,3093
95.85848364982041,3262
98.30283085790859,4721
100.7465026495089,4619
103.18949922410604,4093
105.63182078126385,3123
108.07346752062438,3251
110.51443964190923,2622
112.95473734491827,2773
115.39436082953114,3395
117.83331029570547,3837
120.27158594347827,3054
122.7091879729652,2571
125.1461165843615,2876
127.58237197794062,3781
130.01795435405518,3614
132.4528639131364,3302
134.88710085569494,4101
137.32066538231982,3564
139.75355769367923,2657
142.1857779905207,2821
144.61732647366978,3024
147.04820334403132,2623
149.47840880258934,2125
151.90794305040674,2384
154.33680628862487,2464
156.76499871846443,2269
159.19252054122433,2611
161.61937195828352,2786
164.04555317109896,2873
166.47106438120693,2931
168.89590579022217,3078
171.320077599839,3274
173.7435800118302,3833
176.16641322804742,4189
178.58857745042144,3668
181.01007288096173,3435
183.43089972175687,3837
185.85105817497413,3344
188.27054844285988,2965
190.6893707277394,3223
193.10752523201643,3390
195.5250121581745,3428
197.9418317087751,2975
200.3579840864594,3213
202.7734694939469,3467
205.18828813403627,3291
207.6024402096051,3282
210.01592592360964,3262
212.42874547908548,3071
214.84089907914665,3184
217.2523869269868,3181
219.66320922587727,3111
222.0733661791695,2915
224.48285799029293,3300
226.8916848627572,3485
229.29984700014882,3159
231.7073446061355,3303
234.11417788446204,3173
236.520347038953,3367
238.92585227351185,3422
241.33069379212054,3316
243.73487179884035,3230
246.1383864978112,3253
248.541238093252,3526
250.9434267894609,3418
253.34495279081432,3323
255.74581630176783,3169
258.1460175268563,3393
260.54555667069314,3524
262.9444339379703,3885
265.3426495334594,3805
267.7402036620107,3477
270.1370965285529,3388
272.53332833809407,3190
274.9288992957214,3128
277.32380960660055,3208
279.718059475976,3092
282.1116491091717,2797
284.5045787115897,2880
286.89684848871195,2906
289.2884586460981,2929
291.67940938938807,2956
294.0697009242996,3017
296.4593334566299,3156
298.84830719225477,3159
301.23662233712923,3039
303.6242790972866,2953
306.01127767884,2876
308.39761828798066,2775
310.78330113097934,2521
313.16832641418534,2538
315.5526943440269,2577
317.9364051270112,2853
320.3194589697242,2696
322.70185607883093,2567
325.0835966610754,2523
327.4646809232805,2584
329.8451090723478,2648
332.2248813152577,2495
334.6039978590701,2530
336.9824589109231,2357
339.36026467803447,2320
341.7374153677,2367
344.113911187295,2396
346.48975234427337,2535
348.8649390461686,2547
351.2394715005918,2332
353.61334991523415,2322
355.9865744978655,2313
358.35914545633375,2334
360.73106299856715,2309
363.10232733257146,2386
365.47293866643247,2410
367.84289720831396,2326
370.2122031664593,2227
372.5808567491905,2236
374.9488581649083,2213
377.31620762209275,2137
379.6829053293021,2147
382.0489514951745,2224
384.4143463284262,2232
386.7790900378528,2222
389.14318283232853,2261
391.50662492080653,2323
393.86941651231916,2460
396.23155781597745,2612
398.5930490409713,2297
400.9538903965696,2214
403.3140820921202,2276
405.6736243370498,2189
408.03251734086336,2196
410.3907613131465,2135
412.74835646356166,2186
415.10530300185144,2213
417.4616011378372,2197
419.81725108141893,2228
422.1722530425758,2107
424.5266072313656,2177
426.880313857925,1955
429.2333731324701,2051
431.58578526529516,2037
433.9375504667738,1989
436.2886689473588,2145
438.63914091758113,1988
440.9889665880513,1868
443.33814616945835,2042
445.68667987257015,2165
448.03456790823395,2075
450.3818104873759,2017
452.72840782100013,2077
455.07436012019105,2067
457.41966759611057,1983
459.7643304600007,2014
462.10834892318155,2077
464.4517231970525,2137
466.79445349309174,2069
469.1365400228566,2130
471.4779829979826,2110
473.81878263018564,2083
476.15893913125876,2207
478.4984527130747,2447
480.8373235875855,2400
483.17555196682144,2323
485.5131380628919,2390
487.8500820879857,2410
490.1863842543697,2483
492.52204477439034,2794
494.8570638604725,3044
497.1914417251204,3562
499.52517858091653,4120
501.85827464052306,4528
504.19073011668036,4809
506.5225452222086,4852
508.85372017000566,4973
511.18425517304956,5429
513.514150444396,6733
515.8434061971808,8555
518.1720226446176,8953
520.4999999999999,8598
522.8273384766991,7937
525.1540382881666,6849
527.480099647932,5503
529.8055227696037,4025
532.1303078668694,3006
534.454455153496,2561
536.777964843328,2437
539.1008371502907,2319
541.4230722883866,2333
543.744670471698,2189
546.0656319143858,2098
548.3859568306899,2218
550.7056454349294,2242
553.0246979415016,2344
555.3431145648834,2251
557.6608955196306,2076
559.978041020377,2197
562.2945512818363,2228
564.6104265188006,2084
566.9256669461412,2038
569.2402727788082,2123
571.5542442318302,2242
573.8675815203156,2038
576.1802848594508,2068
578.4923544645015,2088
580.8037905508126,2075
583.114593333807,2046
585.4247630289875,2076
587.7342998519354,2056
590.0432040183106,2126
592.3514757438526,1951
594.6591152443794,2065
596.9661227357875,2090
599.2724984340531,2061
601.578242555231,1943
603.8833553154542,2027
606.1878369309362,2104
608.4916876179676,2048
610.7949075929192,2079
613.0974970722403,2095
615.3994562724587,1994
617.7007854101818,2035
620.0014847020951,2019
622.3015543649641,1993
624.6009946156324,2080
626.8998056710224,1982
629.1979877481361,1975
631.4955410640538,2009
633.7924658359349,2043
636.0887622810175,2012
638.3844306166192,2018
640.6794710601358,2018
642.9738838290426,2091
645.2676691408932,2067
647.5608272133207,2068
649.853358264037,2013
652.1452625108324,2057
654.4365401715764,2069
656.7271914642178,2188
659.0172166067838,2207
661.3066158173809,2096
663.5953893141935,2064
665.8835373154867,2047
668.1710600396028,2133
670.4579577049639,2133
672.7442305300709,2088
675.0298787335033,2103
677.3149025339197,2094
679.599302150058,2027
681.8830778007342,2155
684.1662297048437,2079
686.4487580813608,2010
688.7306631493387,2063
691.0119451279091,2114
693.2926042362834,2117
695.5726406937516,2115
697.8520547196814,2084
700.1308465335215,1980
702.4090163547982,1923
704.6865644031171,2012
706.9634908981619,2057
709.2397960596965,2013
711.5154801075631,2024
713.7905432616823,2070
716.0649857420548,2063
718.3388077687592,1985
720.612009561953,1991
722.8845913418733,1963
725.1565533288352,2048
727.427895743234,2026
729.6986188055427,2080
731.9687227363137,2076
734.238207756178,2040
736.5070740858458,2042
738.7753219461066,2020
741.0429515578281,2033
743.3099631419569,1999
745.5763569195191,2012
747.8421331116193,2005
750.1072919394409,1976
752.3718336242467,2138
754.6357583873777,2020
756.8990664502545,2102
759.1617580343765,2057
761.423833361321,2042
763.6852926527457,2029
765.9461361303862,2059
768.206364016058,2145
770.4659765316536,2267
772.7249738991469,2057
774.9833563405886,2082
777.2411240781092,2063
779.4982773339183,2065
781.7548163303044,2090
784.010741289634,2129
786.2660524343538,2181
788.5207499869881,2291
790.7748341701416,2190
793.0283052064964,2152
795.2811633188143,2082
797.5334087299362,2067
799.7850416627813,2111
802.0360623403484,2069
804.2864709857143,2178
806.5362678220353,2157
808.7854530725468,2084
811.0340269605625,2032
813.2819897094754,2147
815.5293415427581,2123
817.77608268396,2076
820.0222133567116,2087
822.2677337847211,2182
824.5126441917765,2197
826.7569448017433,2116
829.0006358385675,2054
831.2437175262731,2058
833.4861900889629,2070
835.7280537508192,2019
837.9693087361026,2006
840.2099552691533,2031
842.4499935743896,1943
844.689423876309,2077
846.9282463994886,2106
849.1664613685833,1996
851.4040690083276,2072
853.6410695435349,2044
855.877463199097,2154
858.1132501999847,2059
860.3484307712487,2015
862.5830051380175,2081
864.8169735254988,1996
867.0503361589791,2010
869.2830932638243,2019
871.5152450654786,2083
873.7467917894654,2079
875.9777336613873,2096
878.2080709069252,2112
880.4378037518389,2005
882.666932421968,2123
884.8954571432301,2078
887.1233781416219,2178
889.3506956432192,2132
891.5774098741766,2086
893.803521060728,2111
896.0290294291852,2095
898.2539352059397,2089
900.4782386174619,2109
902.7019398903011,2115
904.925039251085,2109
907.147536926521,2119
909.3694331433943,2165
911.59072812857,2185
913.8114221089921,2125
916.0315153116827,2057
918.2510079637437,2054
920.4699002923547,2069
922.6881925247761,2058
924.905884888345,2254
927.1229776104793,1999
929.3394709186747,2029
931.555365040506,2062
933.7706602036275,2065
935.9853566357709,2163
938.1994545647489,2277
940.4129542184515,2195
942.6258558248488,2208
944.8381596119883,2264
947.0498658079974,2264
949.2609746410825,2230
951.4714863395287,2178
953.6814011316998,2174
955.8907192460387,2246
958.0994409110671,2228
960.3075663553858,2238
962.5150958076741,2187
964.7220294966913,2294
966.928367651274,2188
969.1341105003388,2161
971.3392582728806,2110
973.5438111979742,2106
975.747769504772,2076
977.9511334225061,1985
980.153903180487,2033
982.3560790081052,2112
984.5576611348289,2031
986.7586497902058,2052
988.9590452038618,2021
991.158847605503,2093
993.3580572249133,1952
995.5566742919558,1876
997.7546990365728,1984
999.952131688785,1905
1002.1489724786926,1798
1004.3452216364743,1841
1006.5408793923874,1802
1008.7359459767691,1756
1010.9304216200343,1749
1013.1243065526781,1693
1015.3176010052733,1611
1017.510305208472,1716
1019.7024193930064,1881
1021.8939437896848,1889
1024.0848786293977,1715
1026.2752241431122,1758
1028.4649805618747,1642
1030.6541481168115,1661
1032.842727039127,1605
1035.0307175601051,1584
1037.2181199111074,1550
1039.4049343235752,1624
1041.591161029029,1570
1043.7768002590683,1594
1045.9618522453698,1639
1048.1463172196918,1628
1050.3301954138697,1627
1052.513487059818,1605
1054.69619238953,1546
1056.8783116350783,1602
1059.0598450286152,1679
1061.2407928023704,1644
1063.4211551886528,1613
1065.6009324198508,1579
1067.780124728432,1573
1069.9587323469414,1566
1072.1367555080046,1575
1074.314194444325,1521
1076.4910493886855,1527
1078.667320573947,1572
1080.843008233051,1548
1083.0181125990161,1496
1085.1926339049414,1504
1087.3665723840027,1474
1089.5399282694575,1522
1091.7127017946405,1574
1093.8848931929647,1475
1096.0565026979243,1450
1098.2275305430899,1518
1100.3979769621128,1479
1102.567842188722,1502
1104.737126456726,1532
1106.9058300000124,1545
1109.0739530525475,1502
1111.2414958483764,1462
1113.4084586216231,1473
1115.5748416064907,1519
1117.7406450372605,1556
1119.9058691482942,1490
1122.0705141740304,1513
1124.2345803489884,1497
1126.3980679077658,1410
1128.5609770850388,1532
1130.7233081155623,1483
1132.8850612341707,1444
1135.0462366757774,1464
1137.2068346753745,1468
1139.3668554680326,1438
1141.526299288901,1430
1143.68516637321,1495
1145.8434569562655,1443
1148.001171273455,1454
1150.158309560244,1492
1152.3148720521767,1463
1154.470858984876,1495
1156.626270594044,1533
1158.7811071154629,1405
1160.9353687849912,1517
1163.089055838569,1496
1165.242168512213,1508
1167.3947070420209,1438
1169.5466716641677,1435
1171.6980626149075,1481
1173.8488801305748,1554
1175.9991244475814,1509
1178.1487958024186,1475
1180.2978944316555,1491
1182.4464205719428,1490
1184.5943744600072,1411
1186.7417563326567,1411
1188.8885664267755,1501
1191.0348049793297,1471
1193.1804722273619,1443
1195.325568407995,1479
1197.4700937584303,1502
1199.614048515948,1548
1201.7574329179074,1470
1203.900247201746,1425
1206.042491604982,1518
1208.1841663652099,1440
1210.3252717201053,1477
1212.465807907422,1524
1214.6057751649923,1543
1216.7451737307279,1488
1218.8840038426192,1470
1221.0222657387353,1555
1223.1599596572241,1509
1225.2970858363137,1477
1227.4336445143094,1467
1229.5696359295966,1493
1231.705060320639,1526
1233.8399179259786,1557
1235.9742089842384,1531
1238.107933734118,1522
1240.2410924143974,1491
1242.373685263935,1518
1244.5057125216676,1569
1246.6371744266116,1461
1248.7680712178621,1500
1250.898403134593,1519
1253.028170416058,1496
1255.1573733015875,1466
1257.2860120305932,1494
1259.4140868425648,1554
1261.54159797707,1625
1263.6685456737569,1578
1265.7949301723515,1631
1267.9207517126597,1494
1270.046010534565,1619
1272.1707068780306,1608
1274.2948409830983,1623
1276.4184130898889,1611
1278.541423438603,1698
1280.6638722695184,1624
1282.785759822993,1548
1284.9070863394636,1546
1287.0278520594447,1519
1289.1480572235314,1653
1291.2677020723963,1671
1293.3867868467923,1602
1295.5053117875495,1639
1297.623277135579,1664
1299.740683131868,1604
1301.8575300174857,1651
1303.973818033578,1716
1306.0895474213703,1645
1308.2047184221678,1704
1310.3193312773528,1691
1312.4333862283888,1755
1314.5468835168163,1683
1316.659823384255,1694
1318.7722060724045,1632
1320.8840318230418,1704
1322.9953008780249,1611
1325.1060134792888,1752
1327.2161698688478,1771
1329.3257702887959,1714
1331.4348149813054,1686
1333.5433041886276,1657
1335.6512381530933,1678
1337.7586171171101,1688
1339.8654413231675,1624
1341.9717110138317,1758
1344.0774264317488,1644
1346.1825878196432,1594
1348.2871954203192,1683
1350.3912494766587,1634
1352.4947502316231,1661
1354.5976979282532,1589
1356.7000928096686,1610
1358.8019351190665,1512
1360.9032250997243,1610
1363.0039629949988,1599
1365.1041490483235,1646
1367.2037835032133,1576
1369.3028666032606,1581
1371.401398592137,1630
1373.4993797135926,1635
1375.5968102114575,1574
1377.6936903296396,1592
1379.7900203121262,1610
1381.8858004029835,1645
1383.9810308463561,1586
1386.075711886469,1570
1388.1698437676241,1610
1390.2634267342032,1685
1392.356461030667,1670
1394.4489469015557,1653
1396.5408845914872,1600
1398.6322743451592,1606
1400.7231164073469,1618
1402.813411022907,1650
1404.903158436773,1631
1406.9923588939578,1625
1409.0810126395531,1614
1411.1691199187303,1689
1413.2566809767386,1630
1415.343696058907,1636
1417.4301654106425,1642
1419.5160892774315,1740
1421.6014679048399,1686
1423.6863015385125,1727
1425.7705904241707,1630
1427.8543348076178,1656
1429.9375349347342,1686
1432.0201910514802,1716
1434.102303403894,1691
1436.1838722380944,1734
1438.2648978002767,1687
1440.3453803367174,1736
1442.4253200937692,1727
1444.5047173178677,1790
1446.5835722555234,1753
1448.6618851533285,1788
1450.739656257952,1795
1452.8168858161434,1778
1454.8935740747306,1785
1456.96972128062,1807
1459.045327680797,1780
1461.120393522327,1782
1463.1949190523528,1808
1465.2689045180973,1863
1467.3423501668608,1917
1469.415256246024,1893
1471.4876230030463,1934
1473.559450685465,1882
1475.6307395408976,1929
1477.7014898170391,2031
1479.771701761665,1953
1481.8413756226287,1983
1483.9105116478618,2003
1485.9791100853772,2028
1488.0471711832643,2078
1490.1146951896926,2078
1492.1816823529098,2063
1494.2481329212433,2095
1496.3140471430984,2016
1498.3794252669609,2084
1500.4442675413939,2084
1502.5085742150404,2091
1504.572345536622,2141
1506.6355817549388,2098
1508.6982831188702,2138
1510.7604498773744,2182
1512.8220822794883,2111
1514.8831805743293,2167
1516.9437450110909,2085
1519.003775839048,2142
1521.0632733075522,2147
1523.1222376660367,2173
1525.1806691640113,2104
1527.2385680510652,2157
1529.2959345768668,2115
1531.3527689911643,2176
1533.4090715437833,2150
1535.4648424846291,2257
1537.5200820636855,2318
1539.5747905310159,2228
1541.6289681367616,2361
1543.6826151311434,2393
1545.7357317644614,2398
1547.7883182870937,2331
1549.8403749494987,2346
1551.8919020022113,2479
1553.9428996958477,2497
1555.9933682811015,2510
1558.0433080087469,2597
1560.0927191296346,2627
1562.1416018946961,2539
1564.1899565549415,2529
1566.2377833614592,2604
1568.2850825654164,2600
1570.3318544180606,2533
1572.3780991707158,2549
1574.423817074788,2374
1576.4690083817595,2436
1578.5136733431923,2335
1580.5578122107272,2211
1582.601425236085,2265
1584.6445126710646,2263
1586.6870747675434,2132
1588.7291117774776,2125
1590.7706239529034,1991
1592.8116115459347,1986
1594.8520748087658,1940
1596.8920139936686,1934
1598.9314293529933,1869
1600.9703211391711,1905
1603.008689604711,1783
1605.0465350022005,1777
1607.0838575843068,1726
1609.1206576037753,1667
1611.1569353134305,1784
1613.1926909661765,1695
1615.2279248149953,1707
1617.2626371129481,1756
1619.2968281131757,1622
1621.3304980688963,1555
1623.3636472334088,1597
1625.39627586009,1654
1627.428384202396,1565
1629.459972513861,1611
1631.4910410480993,1601
1633.5215900588028,1598
1635.551619799744,1502
1637.5811305247717,1487
1639.6101224878166,1518
1641.6385959428862,1548
1643.6665511440683,1438
1645.693988345528,1509
1647.7209078015112,1518
1649.7473097663405,1492
1651.7731944944203,1527
1653.7985622402307,1495
1655.823413258333,1487
1657.847747803366,1414
1659.8715661300494,1492
1661.8948684931793,1538
1663.9176551476316,1483
1665.9399263483624,1489
1667.9616823504057,1485
1669.982923408873,1463
1672.0036497789574,1473
1674.0238617159293,1494
1676.043559475138,1510
1678.0627433120121,1494
1680.081413482059,1513
1682.0995702408654,1492
1684.117213844096,1434
1686.134344547495,1457
1688.1509626068864,1476
1690.1670682781705,1440
1692.182661817329,1429
1694.1977434804217,1464
1696.2123135235875,1456
1698.226372203043,1510
1700.2399197750851,1517
1702.2529564960905,1457
1704.2654826225112,1488
1706.277498410882,1415
1708.2890041178139,1392
1710.2999999999988,1482
1712.3104863142066,1500
1714.3204633172854,1426
1716.329931266163,1422
1718.3388904178469,1450
1720.3473410294214,1539
1722.3552833580516,1527
1724.3627176609807,1416
1726.3696441955308,1438
1728.3760632191033,1425
1730.3819749891782,1496
1732.3873797633146,1414
1734.3922777991502,1456
1736.3966693544012,1428
1738.4005546868639,1423
1740.4039340544127,1396
1742.406807715001,1388
1744.4091759266616,1382
1746.4110389475054,1395
1748.4123970357223,1475
1750.413250449582,1425
1752.4135994474318,1432
1754.4134442876993,1431
1756.4127852288902,1352
1758.4116225295893,1372
1760.4099564484595,1421
1762.407787244244,1432
1764.405115175764,1429
1766.4019405019203,1443
1768.3982634816916,1371
1770.3940843741357,1369
1772.3894034383907,1472
1774.3842209336717,1481
1776.378537119274,1375
1778.372352254571,1337
1780.3656665990156,1389
1782.3584804121397,1451
1784.3507939535534,1438
1786.3426074829463,1404
1788.3339212600863,1382
1790.3247355448211,1408
1792.3150505970766,1398
1794.3048666768573,1462
1796.2941840442477,1357
1798.2830029594106,1335
1800.2713236825884,1373
1802.2591464741004,1356
1804.2464715943465,1338
1806.2332993038058,1388
1808.2196298630352,1388
1810.2054635326708,1434
1812.190800573428,1310
1814.175641246101,1341
1816.1599858115628,1361
1818.1438345307652,1438
1820.127187664738,1405
1822.1100454745924,1365
1824.092408221516,1359
1826.0742761667766,1378
1828.055649571721,1395
1830.0365286977735,1380
1832.0169138064398,1388
1833.9968051593014,1375
1835.9762030180214,1465
1837.9551076443408,1387
1839.9335193000788,1366
1841.9114382471344,1309
1843.888864747485,1372
1845.8657990631878,1363
1847.842241456378,1373
1849.8181921892697,1318
1851.7936515241558,1391
1853.7686197234098,1368
1855.7430970494815,1338
1857.7170837649014,1356
1859.6905801322787,1310
1861.6635864143004,1409
1863.6361028737338,1374
1865.608129773424,1408
1867.5796673762961,1386
1869.5507159453537,1458
1871.521275743678,1402
1873.4913470344313,1440
1875.4609300808534,1416
1877.4300251462632,1429
1879.3986324940588,1451
1881.366752387717,1401
1883.3343850907936,1442
1885.3015308669228,1405
1887.268189979819,1431
1889.2343626932739,1387
1891.2000492711595,1397
1893.1652499774254,1408
1895.1299650761011,1386
1897.0941948312952,1395
1899.0579395071945,1369
1901.0211993680641,1410
1902.98397467825,1449
1904.9462657021745,1443
1906.9080727043415,1418
1908.869395949332,1385
1910.8302357018065,1390
1912.790592226504,1417
1914.7504657882428,1388
1916.7098566519212,1399
1918.6687650825133,1428
1920.6271913450764,1367
1922.5851357047422,1416
1924.5425984267245,1358
1926.499579776314,1461
1928.4560800188833,1489
1930.4120994198802,1452
1932.367638244833,1425
1934.32269675935,1395
1936.2772752291175,1437
1938.231373919899,1367
1940.1849930975404,1460
1942.1381330279637,1426
1944.0907939771696,1388
1946.0429762112412,1393
1947.9946799963363,1396
1949.9459055986945,1335
1951.896653284633,1384
1953.8469233205478,1400
1955.7967159729142,1369
1957.7460315082863,1389
1959.6948701932974,1422
1961.6432322946594,1366
1963.5911180791632,1364
1965.5385278136787,1389
1967.4854617651545,1418
1969.4319202006182,1423
1971.377903387176,1391
1973.3234115920136,1348
1975.268445082395,1420
1977.2130041256642,1389
1979.1570889892423,1414
1981.1006999406304,1359
1983.04383724741,1357
1984.986501177238,1416
1986.928691997853,1431
1988.8704099770712,1439
1990.811655382789,1420
1992.7524284829801,1380
1994.692729545698,1386
1996.6325588390755,1419
1998.5719166313224,1344
2000.5108031907307,1397
2002.4492187856677,1327
2004.387163684583,1353
2006.3246381560011,1393
2008.2616424685298,1428
2010.1981768908527,1437
2012.1342416917332,1385
2014.069837140014,1321
2016.0049635046162,1354
2017.9396210545406,1381
2019.8738100588666,1356
2021.8075307867502,1321
2023.740783507431,1371
2025.6735684902228,1401
2027.6058860045214,1314
2029.5377363198004,1340
2031.4691197056118,1355
2033.4000364315875,1405
2035.3304867674374,1408
2037.260470982952,1364
2039.189989347998,1388
2041.1190421325232,1359
2043.047629606554,1372
2044.9757520401945,1338
2046.9034097036288,1364
2048.8306028671195,1382
2050.7573318010086,1386
2052.683596775716,1355
2054.609398061742,1381
2056.5347359296647,1414
2058.4596106501403,1365
2060.384022493906,1375
2062.3079717317764,1372
2064.231458634646,1339
2066.1544834734873,1327
2068.077046519352,1349
2069.99914804337,1349
2071.9207883167524,1373
2073.8419676107865,1317
2075.7626861968406,1369
2077.6829443463607,1289
2079.6027423308715,1285
2081.522080421977,1419
2083.440958891362,1278
2085.359378010786,1355
2087.2773380520907,1335
2089.194839287196,1368
2091.111881988101,1376
2093.0284664268825,1353
2094.9445928756973,1425
2096.86026160678,1316
2098.775472892446,1330
2100.690227005088,1348
2102.604524217178,1405
2104.5183648012676,1401
2106.431749029985,1349
2108.34467717604,1352
2110.2571495122206,1384
2112.169166311393,1320
2114.080727846503,1307
2115.9918343905747,1316
2117.902486216711,1338
2119.8126835980956,1377
2121.722426807987,1371
2123.6317161197285,1345
2125.5405518067364,1329
2127.448934142509,1391
2129.356863400624,1344
2131.264339854737,1391
2133.1713637785815,1431
2135.077935445972,1383
2136.9840551308002,1441
2138.889723107037,1405
2140.7949396487334,1344
2142.699705030018,1400
2144.6040195250994,1439
2146.507883408264,1387
2148.4112969538774,1380
2150.3142604363848,1371
2152.2167741303097,1394
2154.1188383102535,1366
2156.0204532508997,1407
2157.9216192270064,1341
2159.822336513414,1345
2161.7226053850413,1338
2163.622426116884,1364
2165.5217989840185,1406
2167.4207242616,1317
2169.319202224862,1396
2171.2172331491165,1360
2173.1148173097563,1358
2175.0119549822507,1341
2176.90864644215,1394
2178.8048919650823,1409
2180.7006918267534,1466
2182.596046302952,1405
2184.4909556695407,1382
2186.3854202024645,1384
2188.279440177746,1455
2190.173015871487,1402
2192.066147559868,1371
2193.958835519149,1400
2195.851080025667,1345
2197.7428813558417,1393
2199.6342397861667,1392
2201.5251555932186,1384
2203.415629053651,1355
2205.3056604441986,1456
2207.19525004167,1344
2209.084398122958,1434
2210.9731049650327,1439
2212.861370844941,1400
2214.749196039812,1419
2216.636580826851,1407
2218.523525483344,1443
2220.410030286655,1408
2222.296095514226,1469
2224.1817214435805,1434
2226.066908352319,1388
2227.951656518121,1397
2229.835966218746,1415
2231.71983773203,1384
2233.6032713358913,1386
2235.486267308324,1460
2237.3688259274036,1418
2239.2509474712824,1394
2241.132632218193,1415
2243.013880446447,1455
2244.8946924344323,1435
2246.7750684606203,1464
2248.6550088035574,1395
2250.534513741871,1378
2252.413583554265,1450
2254.292218519526,1470
2256.170418916517,1406
2258.0481850241786,1472
2259.925517121534,1393
2261.8024154876825,1415
2263.678880401803,1439
2265.5549121431536,1472
2267.430510991071,1442
2269.305677224971,1391
2271.180411124348,1455
2273.0547129687766,1409
2274.9285830379076,1362
2276.8020216114737,1355
2278.6750289692845,1459
2280.5476053912294,1461
2282.4197511572766,1436
2284.2914665474727,1470
2286.162751841943,1481
2288.0336073208937,1483
2289.904033264608,1494
2291.774029953448,1439
2293.6435976678554,1471
2295.5127366883517,1443
2297.381447295534,1451
2299.2497297700825,1451
2301.1175843927526,1392
2302.9850114443825,1312
2304.852011205885,1325
2306.7185839582553,1243
2308.5847299825664,1283
2310.4504495599676,1269
2312.3157429716925,1251
2314.1806104990483,1268
2316.0450524234247,1216
2317.9090690262888,1245
2319.772660589186,1260
2321.635827393742,1305
2323.498569721661,1222
2325.3608878547248,1260
2327.2227820747967,1293
2329.0842526638157,1238
2330.945299903803,1274
2332.805924076857,1252
2334.6661254651535,1200
2336.525904350951,1188
2338.3852610165827,1216
2340.244195744464,1213
2342.102708817088,1236
2343.9608005170253,1265
2345.8184711269287,1267
2347.675720929526,1246
2349.532550207628,1251
2351.38895924412,1297
2353.24494832197,1288
2355.100517724223,1263
2356.955667734004,1273
2358.810398634514,1226
2360.664710709037,1246
2362.5186042409337,1238
2364.3720795136437,1288
2366.225136810686,1268
2368.0777764156583,1265
2369.929998612237,1294
2371.7818036841777,1279
2373.633191915315,1299
2375.484163589562,1272
2377.3347189909114,1242
2379.184858403434,1195
2381.03458211128,1237
2382.8838903986775,1244
2384.732783549936,1290
2386.5812618494406,1279
2388.4293255816588,1305
2390.2769750311327,1261
2392.1242104824883,1217
2393.971032220427,1294
2395.8174405297295,1310
2397.6634356952563,1282
2399.509018001947,1241
2401.3541877348193,1262
2403.1989451789705,1229
2405.043290619576,1296
2406.8872243418905,1293
2408.730746631247,1262
2410.5738577730594,1253
2412.4165580528183,1292
2414.258847756095,1303
2416.100727168537,1237
2417.9421965758734,1254
2419.783256263912,1277
2421.623906518538,1299
2423.4641476257157,1344
2425.303979871491,1262
2427.143403541984,1272
2428.9824189233977,1339
2430.821026302012,1332
2432.6592259641866,1248
2434.497018196361,1313
2436.33440328505,1296
2438.171381516851,1315
2440.00795317844,1302
2441.844118556569,1276
2443.6798779380724,1294
2445.5152316098606,1314
2447.3501798589255,1317
2449.1847229723357,1320
2451.0188612372403,1265
2452.8525949408663,1293
2454.6859243705203,1258
2456.518849813587,1318
2458.3513715575314,1238
2460.183489889895,1292
2462.015205098301,1327
2463.8465174704493,1262
2465.67742729412,1251
2467.5079348571717,1310
2469.338040447542,1275
2471.1677443532476,1270
2472.9970468623833,1330
2474.825948263123,1260
2476.6544488437207,1256
2478.482548892508,1274
2480.310248697896,1241
2482.137548548374,1297
2483.9644487325118,1325
2485.790949538956,1343
2487.617051256433,1306
2489.44275417375,1296
2491.26805857979,1293
2493.0929647635157,1310
2494.917473013971,1270
2496.741583620276,1294
2498.5652968716304,1336
2500.3886130573137,1292
2502.2115324666834,1404
2504.0340553891765,1326
2505.856182114308,1346
2507.6779129316733,1324
2509.499248130945,1363
2511.3201880018764,1374
2513.140732834298,1318
2514.9608829181198,1289
2516.780638543331,1318
2518.6,1313
2520.418967578273,1335
2522.237541568376,1378
2524.0557222606144,1337
2525.8735099453706,1349
2527.6909049131086,1351
2529.507907454368,1339
2531.32451785977,1334
2533.140736420014,1270
2534.9565634258774,1307
2536.771999168218,1345
2538.5870439379714,1324
2540.4016980261526,1375
2542.2159617238544,1357
2544.02983532225,1371
2545.8433191125914,1378
2547.656413386209,1420
2549.4691184345115,1399
2551.2814345489874,1438
2553.093362021204,1397
2554.904901142808,1412
2556.716052205523,1423
2558.526815501153,1445
2560.3371913215824,1369
2562.147179958771,1468
2563.956781704761,1463
2565.7659968516705,1382
2567.5748256916986,1431
2569.3832685171224,1417
2571.1913256202984,1436
2572.9989972936614,1450
2574.806283829725,1423
2576.613185521084,1414
2578.4197026604074,1487
2580.2258355404483,1527
2582.031584454035,1482
2583.836949694077,1429
2585.6419315535613,1446
2587.4465303255533,1444
2589.2507463032002,1456
2591.0545797797245,1367
2592.8580310484303,1470
2594.6611004026995,1473
2596.463788135992,1503
2598.266094541849,1461
2600.0680199138874,1499
2601.869564545807,1499
2603.670728731383,1454
2605.4715127644704,1498
2607.2719169390048,1481
2609.071941548998,1448
2610.8715868885433,1439
2612.670853251811,1446
2614.469740933052,1443
2616.268250226594,1412
2618.0663814268455,1442
2619.864134828292,1490
2621.6615107255006,1393
2623.458509413115,1443
2625.2551311858597,1408
2627.0513763385347,1455
2628.8472451660223,1432
2630.6427379632833,1406
2632.4378550253564,1434
2634.232596647359,1357
2636.026963124488,1426
2637.8209547520187,1424
2639.6145718253065,1350
2641.407814639785,1323
2643.200683490966,1385
2644.9931786744414,1344
2646.7853004858807,1400
2648.577049221034,1416
2650.3684251757277,1397
2652.1594286458712,1412
2653.9500599274484,1366
2655.740319316525,1337
2657.5302071092437,1410
2659.3197236018286,1324
2661.10886909058,1293
2662.8976438718782,1329
2664.686048242183,1318
2666.4740824980327,1327
2668.2617469360443,1272
2670.0490418529134,1330
2671.8359675454153,1329
2673.622524310403,1340
2675.408712444811,1368
2677.1945322456495,1348
2678.979984010009,1304
2680.76506803506,1293
2682.5497846180497,1339
2684.334134056306,1302
2686.1181166472343,1331
2687.9017326883213,1232
2689.6849824771293,1251
2691.4678663113013,1257
2693.2503844885596,1276
2695.032537306705,1274
2696.8143250636167,1301
2698.5957480572542,1279
2700.3768065856534,1273
2702.1575009469316,1300
2703.937831439283,1245
2705.717798360982,1204
2707.4974020103837,1290
2709.276642685917,1266
2711.055520686095,1256
2712.834036309506,1212
2714.612189854819,1302
2716.389981620782,1295
2718.1674119062204,1234
2719.944481010041,1220
2721.721189231226,1293
2723.4975368688415,1326
2725.273524222027,1248
2727.0491515900053,1218
2728.824419272075,1253
2730.5993275676146,1263
2732.3738767760838,1268
2734.148067197016,1211
2735.921899130031,1287
2737.6953728748194,1226
2739.468488731156,1242
2741.2412469988926,1241
2743.0136479779617,1231
2744.785691968372,1213
2746.5573792702116,1261
2748.3287101836504,1221
2750.099685008934,1187
2751.870304046388,1278
2753.640567596418,1188
2755.4104759595057,1228
2757.1800294362156,1276
2758.949228327187,1248
2760.7180729331412,1252
2762.486563554877,1271
2764.254700493272,1220
2766.022484049284,1245
2767.789914523947,1250
2769.5569922183786,1304
2771.3237174337705,1229
2773.090090471394,1183
2774.8561116326036,1190
2776.6217812188274,1294
2778.3870995315756,1281
2780.1520668724356,1227
2781.9166835430747,1223
2783.6809498452394,1231
2785.444866080754,1228
2787.2084325515225,1195
2788.971649559527,1257
2790.73451740683,1215
2792.4970363955713,1259
2794.2592068279705,1241
2796.0210290063264,1282
2797.7825032330147,1258
2799.543629810493,1238
2801.304409041296,1231
2803.0648412280366,1191
2804.8249266734088,1240
2806.5846656801846,1271
2808.344058551212,1194
2810.1031055894246,1295
2811.8618070978273,1219
2813.6201633795085,1220
2815.378174737636,1224
2817.1358414754536,1187
2818.893163896285,1178
2820.6501423035334,1212
2822.4067770006814,1158
2824.1630682912883,1260
2825.9190164789957,1222
2827.6746218675207,1206
2829.429884760661,1227
2831.184805462294,1258
2832.9393842763743,1257
2834.693621506936,1221
2836.4475174580916,1219
2838.201072434034,1220
2839.954286739034,1215
2841.707160677441,1262
2843.459694553685,1240
2845.2118886722724,1233
2846.96374333779,1259
2848.7152588549034,1309
2850.4664355283567,1258
2852.217273662973,1288
2853.9677735636546,1309
2855.7179355353833,1217
2857.4677598832186,1269
2859.217246912299,1194
2860.9663969278427,1220
2862.715210235146,1189
2864.4636871395846,1218
2866.211827946614,1230
2867.9596329617652,1239
2869.7071024906536,1166
2871.4542368389684,1228
2873.20103631248,1225
2874.947501217038,1215
2876.6936318585695,1189
2878.4394285430812,1252
2880.1848915766604,1243
2881.9300212654707,1269
2883.6748179157553,1213
2885.4192818338374,1215
2887.1634133261173,1288
2888.907212699077,1347
2890.6506802592744,1266
2892.393816313348,1262
2894.1366211680142,1227
2895.8790951300693,1338
2897.621238506388,1213
2899.363051603925,1239
2901.1045347297118,1268
2902.8456881908596,1252
2904.58651229456,1232
2906.327007348081,1189
2908.067173658772,1187
2909.8070115340597,1182
2911.5465212814497,1197
2913.285703208527,1214
2915.0245576229563,1224
2916.7630848324807,1204
2918.5012851449196,1171
2920.2391588681758,1193
2921.976706310227,1212
2923.7139277791334,1189
2925.4508235830313,1263
2927.187394030137,1230
2928.923639428745,1229
2930.6595600872306,1206
2932.395156314046,1229
2934.1304284177218,1262
2935.8653767068713,1189
2937.6000014901815,1240
2939.3343030764227,1258
2941.068281774442,1177
2942.8019378931644,1227
2944.5352717415976,1276
2946.2682836288236,1232
2948.0009738640065,1240
2949.7333427563885,1259
2951.465390615289,1246
2953.1971177501086,1217
2954.9285244703265,1246
2956.6596110855,1198
2958.3903779052657,1239
2960.1208252393385,1222
2961.8509533975125,1193
2963.5807626896617,1250
2965.3102534257378,1202
2967.0394259157715,1224
2968.768280469873,1279
2970.496817398232,1220
2972.2250370111146,1223
2973.952939618869,1254
2975.6805255319196,1237
2977.4077950607707,1187
2979.134748516006,1194
2980.861386208289,1249
2982.587708448359,1249
2984.313715547037,1238
2986.039407815222,1178
2987.764785563891,1203
2989.489849104102,1214
2991.2145987469908,1186
2992.9390348037705,1253
2994.6631575857346,1172
2996.3869674042576,1222
2998.1104645707887,1171
2999.83364939686,1207
3001.5565221940783,1222
3003.2790832741334,1193
3005.0013329487924,1188
3006.7232715298996,1177
3008.4448993293804,1209
3010.166216659239,1203
3011.887223831558,1189
3013.607921158498,1221
3015.3283089522993,1246
3017.0483875252826,1188
3018.7681571898443,1211
3020.4876182584626,1229
3022.2067710436927,1191
3023.9256158581707,1227
3025.644153014609,1223
3027.362382825801,1246
3029.0803056046193,1209
3030.797921664012,1169
3032.5152313170106,1228
3034.2322348767225,1178
3035.9489326563353,1225
3037.665324969115,1199
3039.3814121284063,1208
3041.097194447633,1224
3042.812672240299,1188
3044.5278458199855,1190
3046.2427155003525,1158
3047.9572815951406,1192
3049.671544418167,1192
3051.38550428333,1228
3053.0991615046073,1222
3054.812516396051,1260
3056.5255692717974,1173
3058.2383204460575,1225
3059.9507702331257,1216
3061.662918947372,1237
3063.3747669032446,1191
3065.0863144152736,1212
3066.7975617980674,1187
3068.508509366309,1224
3070.219157434767,1176
3071.9295063182844,1211
3073.639556331785,1155
3075.3493077902704,1198
3077.058761008821,1165
3078.7679163025964,1161
3080.476773986837,1181
3082.1853343768594,1221
3083.89359778806,1219
3085.6015645359153,1204
3087.3092349359786,1179
3089.016609303884,1169
3090.7236879553434,1221
3092.4304712061476,1248
3094.136959372166,1212
3095.843152769349,1200
3097.5490517137237,1181
3099.2546565213966,1155
3100.959967508554,1232
3102.66498499146,1203
3104.3697092864577,1240
3106.0741407099695,1244
3107.778279578498,1223
3109.482126208622,1204
3111.1856809170004,1183
3112.8889440203716,1179
3114.5919158355528,1165
3116.294596679439,1194
3117.996986869006,1209
3119.6990867213062,1227
3121.4008965534726,1254
3123.102416682717,1243
3124.803647426329,1208
3126.5045891016784,1192
3128.205242026213,1212
3129.90560651746,1206
3131.605682893025,1247
3133.3054714705922,1219
3135.0049725679282,1226
3136.7041865028714,1186
3138.4031135933465,1173
3140.101754157353,1201
3141.800108512971,1213
3143.498176978357,1153
3145.1959598717494,1199
3146.8934575114636,1123
3148.5906702158954,1188
3150.2875983035183,1215
3151.9842420928853,1201
3153.680601902627,1202
3155.376678051456,1208
3157.07247085816,1207
3158.767980641609,1165
3160.463207720748,1176
3162.158152414606,1240
3163.8528150422862,1239
3165.5471959229726,1187
3167.2412953759303,1224
3168.9351137204976,1238
3170.628651276098,1194
3172.3219083622307,1221
3174.014885298474,1206
3175.707582404485,1161
3177.4000000000005,1216
3179.092138404835,1233
3180.7839979388846,1237
3182.47557892212,1207
3184.166881674594,1166
3185.8579065164386,1221
3187.5486537678626,1174
3189.2391237491547,1186
3190.9293167806827,1164
3192.6192331828934,1169
3194.3088732763117,1168
3195.998237381542,1137
3197.687325819268,1196
3199.376138910251,1188
3201.064676975334,1179
3202.7529403354347,1168
3204.4409293115523,1181
3206.1286442247647,1186
3207.816085396229,1195
3209.5032531471825,1151
3211.190147798936,1182
3212.8767696728846,1177
3214.5631190905015,1208
3216.2491963733373,1183
3217.9350018430214,1180
3219.6205358212637,1160
3221.305798629851,1153
3222.990790590651,1121
3224.6755120256103,1161
3226.359963256751,1183
3228.0441446061795,1164
3229.7280563960758,1148
3231.411698948703,1186
3233.0950725863995,1196
3234.778177631587,1186
3236.461014406761,1192
3238.1435832345005,1255
3239.8258844374595,1196
3241.507918338374,1123
3243.1896852600576,1161
3244.8711855254023,1161
3246.552419457381,1252
3248.233387379042,1162
3249.914089613516,1202
3251.59452648401,1193
3253.274698313813,1208
3254.95460542629,1206
3256.6342481448855,1197
3258.313626793125,1193
3259.9927416946084,1145
3261.6715931730196,1150
3263.3501815521176,1131
3265.0285071557437,1167
3266.706570307815,1143
3268.3843713323286,1112
3270.0619105533615,1219
3271.739188295068,1170
3273.4162048816834,1201
3275.0929606375184,1216
3276.769455886966,1169
3278.445690954498,1223
3280.1216661646613,1193
3281.797381842087,1218
3283.4728383114807,1198
3285.1480358976296,1164
3286.8229749253996,1156
3288.4976557197333,1185
3290.172078605655,1155
3291.846243908266,1188
3293.5201519527463,1143
3295.193803064357,1119
3296.8671975684374,1166
3298.5403357904024,1140
3300.21321805575,1135
3301.8858446900567,1136
3303.558216018975,1176
3305.23033236824,1204
3306.9021940636603,1151
3308.57380143113,1223
3310.2451547966184,1155
3311.916254486174,1213
3313.5871008259246,1176
3315.2576941420766,1164
3316.9280347609147,1197
3318.5981230088046,1187
3320.2679592121895,1194
3321.9375436975924,1220
3323.606876791612,1171
3325.27595882093,1152
3326.944790112305,1209
3328.6133709925753,1219
3330.2817017886573,1118
3331.949782827547,1177
3333.617614436319,1209
3335.2851969421245,1141
3336.952530672199,1164
3338.619615953853,1209
3340.286453114475,1156
3341.9530424815357,1236
3343.619384382583,1189
3345.2854791452437,1202
3346.951327097224,1203
3348.6169285663073,1178
3350.2822838803577,1164
3351.947393367319,1160
3353.61225735521,1160
3355.2768761721345,1166
3356.9412501462693,1145
3358.605379605873,1141
3360.2692648792827,1164
3361.9329062949146,1113
3363.596304181263,1116
