CollectionTime,9/26/2024 8:43:40 AM
ExposureUsed,3
CalibratedSpectrum
-962.7078968117929,635
-959.9714848408522,677
-957.2358232597828,665
-954.5009119013725,708
-951.7667505983302,714
-949.0333391832855,629
-946.3006774887896,639
-943.5687653473143,670
-940.837602591253,685
-938.1071890529199,656
-935.3775245645503,647
-932.6486089583007,678
-929.9204420662485,702
-927.1930237203925,763
-924.4663537526524,696
-921.7404319948689,673
-919.0152582788041,719
-916.2908324361409,891
-913.5671542984834,750
-910.8442236973568,702
-908.1220404642074,712
-905.4006044304027,723
-902.679915427231,666
-899.959973285902,674
-897.2407778375464,694
-894.5223289132158,692
-891.8046263438832,701
-889.0876699604426,662
-886.3714595937089,684
-883.6559950744183,755
-880.9412762332282,701
-878.2273029007168,661
-875.5140749073835,645
-872.8015920836489,669
-870.0898542598545,704
-867.3788612662631,689
-864.6686129330585,658
-861.9591090903457,629
-859.2503495681506,582
-856.5423341964203,588
-853.8350628050229,641
-851.1285352237478,676
-848.4227512823054,698
-845.7177108103272,681
-843.0134136373656,708
-840.3098595928943,680
-837.6070485063082,718
-834.9049802069229,687
-832.2036545239757,732
-829.5030712866244,750
-826.8032303239481,709
-824.1041314649472,697
-821.4057745385428,679
-818.7081593735775,640
-816.0112857988148,650
-813.3151536429393,678
-810.6197627345566,666
-807.9251129021936,701
-805.2312039742981,707
-802.5380357792392,697
-799.8456081453069,663
-797.1539209007124,710
-794.462973873588,673
-791.772766891987,716
-789.083299783884,744
-786.3945723771743,742
-783.7065844996748,700
-781.0193359791231,784
-778.3328266431781,772
-775.6470563194197,711
-772.9620248353489,720
-770.2777320183878,689
-767.5941776958798,654
-764.9113616950891,620
-762.2292838432011,656
-759.5479439673222,674
-756.8673418944801,746
-754.1874774516235,698
-751.5083504656222,709
-748.8299607632671,668
-746.15230817127,743
-743.475392516264,686
-740.7992136248035,665
-738.1237713233636,670
-735.4490654383407,731
-732.7750957960521,708
-730.1018622227365,731
-727.4293645445534,745
-724.7576025875837,708
-722.0865761778291,703
-719.4162851412126,705
-716.7467293035781,758
-714.0779084906909,843
-711.409822528237,765
-708.7424712418238,745
-706.0758544569796,745
-703.4099719991541,741
-700.7448236937178,730
-698.0804093659622,725
-695.4167288411002,777
-692.7537819442656,762
-690.0915685005134,797
-687.4300883348199,783
-684.7693412720819,774
-682.1093271371178,752
-679.4500457546669,754
-676.7914969493897,795
-674.1336805458676,738
-671.4765963686034,746
-668.8202442420206,662
-666.1646239904642,706
-663.5097354382001,750
-660.8555784094151,821
-658.2021527282176,737
-655.5494582186366,702
-652.8974947046223,763
-650.2462620100463,808
-647.5957599587009,783
-644.9459883742998,843
-642.2969470804776,812
-639.6486359007902,741
-637.0010546587141,766
-634.3542031776476,694
-631.7080812809096,740
-629.0626887917401,928
-626.4180255333008,1021
-623.7740913286734,897
-621.1308860008619,777
-618.4884093727904,811
-615.8466612673046,795
-613.2056415071715,838
-610.5653499150785,846
-607.9257863136347,858
-605.28695052537,769
-602.6488423727357,813
-600.0114616781036,953
-597.3748082637674,1056
-594.7388819519412,1073
-592.1036825647604,837
-589.4692099242818,939
-586.8354638524829,1086
-584.2024441712624,993
-581.5701507024403,985
-578.9385832677575,896
-576.3077416888759,952
-573.6776257873787,1015
-571.0482353847704,998
-568.4195703024757,864
-565.7916303618415,921
-563.164415384135,834
-560.5379251905453,797
-557.9121596021815,846
-555.2871184400748,834
-552.6628015251767,819
-550.0392086783606,917
-547.4163397204204,901
-544.794194472071,894
-542.1727727539491,936
-539.5520743866118,955
-536.9320991905377,1011
-534.3128469861261,1144
-531.6943175936979,1078
-529.0765108334947,1080
-526.4594265256793,1213
-523.8430644903358,1500
-521.2274245474689,1483
-518.612506517005,1610
-515.9983102187913,1640
-513.3848354725959,1896
-510.77208209810846,1964
-508.16004991493924,2097
-505.5487387426199,2197
-502.9381484006032,1995
-500.3282787082628,1762
-497.71912948489364,1590
-495.1107005497117,1425
-492.5029917218539,1294
-489.8960028203786,1151
-487.28973366426493,1023
-484.68418407241325,1077
-482.07935386364494,1059
-479.47524285670266,1009
-476.87185087025,1057
-474.2691777228715,1083
-471.66722323307334,1016
-469.0659872192821,981
-466.4654694998459,1025
-463.86566989303384,985
-461.26658821703614,1104
-458.66822428996414,1120
-456.07057792985,1055
-453.4736489546475,1185
-450.877437182231,1027
-448.28194243039627,963
-445.68716451686,1009
-443.09310325926003,962
-440.49975847515555,996
-437.9071299820263,1028
-435.31521759727354,1093
-432.72402113821954,1348
-430.13354042210767,1186
-427.5437752661022,1057
-424.95472548728867,1095
-422.36639090267386,1081
-419.7787713291855,1179
-417.1918665836721,1319
-414.60567648290385,1286
-412.0202008435715,1175
-409.4354394822874,1234
-406.8513922155845,1323
-404.26805885991723,1247
-401.685439231661,1140
-399.103533147112,1124
-396.522340422488,1221
-393.9418608739278,1135
-391.3620943174908,1079
-388.7830405691583,1140
-386.2046994448317,1067
-383.6270707603344,1098
-381.05015433141045,1119
-378.473949973725,934
-375.8984575028645,855
-373.32367673433623,846
-370.74960748356875,803
-368.1762495659117,773
-365.60360279663576,852
-363.03166699093265,885
-360.4604419639154,792
-357.8899275306178,694
-355.32012350599507,733
-352.7510297049233,729
-350.1826459421999,656
-347.61497203254316,629
-345.04800779059235,664
-342.4817530309082,853
-339.91620756797226,893
-337.35137121618743,855
-334.7872437898774,824
-332.22382510328725,1074
-329.66111497058273,1136
-327.09911320585127,816
-324.53781962310075,723
-321.9772340362607,738
-319.4173562591816,771
-316.8581861056348,718
-314.2997233893127,785
-311.7419679238294,893
-309.1849195227194,824
-306.62857799943856,807
-304.0729431673641,844
-301.51801483979375,1051
-298.963792829947,1021
-296.41027695096386,1036
-293.85746701590574,1056
-291.3053628377552,1064
-288.7539642294155,1091
-286.2032710037115,1308
-283.65328297338897,1430
-281.1039999511146,1661
-278.5554217494762,1943
-276.007548180983,1453
-273.4603790580651,998
-270.9139141930734,1157
-268.3681533982807,1273
-265.8230964858798,1481
-263.27874326798565,1200
-260.7350935566336,1110
-258.1921471637804,1332
-255.6499039013039,1652
-253.10836358100266,1305
-250.56752601459698,1189
-248.02739101372765,1488
-245.48795838995704,1717
-242.94922795476816,1559
-240.41119951956557,1129
-237.8738728956746,1199
-235.33724789434166,1486
-232.80132432673452,1538
-230.2661020039418,1324
-227.73158073697357,1428
-225.19776033676033,1737
-222.66464061415422,1726
-220.1322213799284,1422
-217.60050244477725,1317
-215.06948361931552,1591
-212.53916471408013,2267
-210.00954553952818,2695
-207.48062590603843,1731
-204.9524056239104,1297
-202.4248845033651,1359
-199.8980623545441,1885
-197.37193898751036,2057
-194.84651421224817,1802
-192.32178783866232,1583
-189.79775967657952,1772
-187.27442953574644,2269
-184.7517972258321,2315
-182.2298625564256,1909
-179.7086253370378,1740
-177.18808537710026,2111
-174.66824248596583,2669
-172.14909647290835,3003
-169.6306471471229,2197
-167.11289431772548,1794
-164.59583779375328,1791
-162.07947738416453,2456
-159.5638128978386,3018
-157.04884414357605,2932
-154.53457093009854,2523
-152.02099306604828,2108
-149.50811035998936,1926
-146.99592262040665,2240
-144.48442965570587,3316
-141.97363127421409,4370
-139.46352728417958,4255
-136.95411749377126,3553
-134.44540171107985,2962
-131.93737974411636,2167
-129.43005140081357,2778
-126.92341648902493,4149
-124.41747481652521,6580
-121.91222619101006,7794
-119.40767042009657,7454
-116.90380731132257,5902
-114.40063667214702,4399
-111.8981583099503,3498
-109.3963720320337,4097
-106.89527764561933,6220
-104.39487495785067,10883
-101.89516377579241,15139
-99.39614390642998,14922
-96.89781515667039,15070
-94.40017733334128,11383
-91.90323024319173,8565
-89.40697369289148,7886
-86.91140748903172,10866
-84.41653143812482,17631
-81.92234534660395,25143
-79.42884902082358,29598
-76.93604226705907,25351
-74.4439248915071,23287
-71.95249670028534,34933
-69.46175749943245,55850
-66.97170709490854,65025
-64.48234529259423,65025
-61.99367189829195,65025
-59.50568671772464,61466
-57.01838955653636,48631
-54.53178022029283,32535
-52.045858514480074,29881
-49.560624244506016,28140
-47.07607721569923,26943
-44.59221723330904,24228
-42.10904410250669,22415
-39.62655762838392,22109
-37.14475761595372,28479
-34.66364387015028,38446
-32.18321619582866,54483
-29.70347439776515,65025
-27.224418280657005,65025
-24.74604764912317,65025
-22.26836230770266,65025
-19.7913620608565,65025
-17.315046712966478,65025
-14.83941606833514,65025
-12.36446993118659,65025
-9.89020810566592,65025
-7.416630395839093,65025
-4.94373660569363,65025
-2.471526539137585,65025
-6.821210263296962E-13,65025
2.47084320796705,65025
4.941003281093458,65025
7.410480415786196,65025
9.879274808531363,65025
12.347386655893956,65025
14.814816154518212,65025
17.28156350112681,65025
19.74762889252179,65025
22.21301252558385,27196
24.67771459727237,10304
27.141735304626195,12948
29.605074844762612,13178
32.06773341487792,9943
34.52971121224755,8013
36.99100843422559,9490
39.45162527824516,8512
41.91156194181792,7274
44.370818622535126,6116
46.82939551806646,7146
49.287292826160524,6435
51.74451074464503,6875
54.201049471426245,6379
56.65690920448981,5805
59.112090141899785,5627
61.56659248179983,5192
64.02041642241159,4613
66.4735621620365,5455
68.92602989905402,7114
71.37781983192338,7023
73.82893215918205,6427
76.27936707944684,5031
78.72912479141326,4530
81.17820549385567,5213
83.62660938562783,4675
86.07433666566146,5118
88.5213875329681,3989
90.96776218663751,3273
93.41346082583925,2745
95.85848364982041,2988
98.30283085790859,4609
100.7465026495089,4498
103.18949922410604,3730
105.63182078126385,2840
108.07346752062438,2845
110.51443964190923,2541
112.95473734491827,2520
115.39436082953114,3226
117.83331029570547,3688
120.27158594347827,2877
122.7091879729652,2441
125.1461165843615,3109
127.58237197794062,4034
130.01795435405518,3382
132.4528639131364,2999
134.88710085569494,3731
137.32066538231982,3120
139.75355769367923,2329
142.1857779905207,2696
144.61732647366978,3027
147.04820334403132,2473
149.47840880258934,2053
151.90794305040674,2139
154.33680628862487,2313
156.76499871846443,2295
159.19252054122433,2490
161.61937195828352,2509
164.04555317109896,2750
166.47106438120693,2830
168.89590579022217,2873
171.320077599839,3339
173.7435800118302,3583
176.16641322804742,4008
178.58857745042144,3471
181.01007288096173,3075
183.43089972175687,3695
185.85105817497413,3187
188.27054844285988,3000
190.6893707277394,3221
193.10752523201643,3311
195.5250121581745,3209
197.9418317087751,2791
200.3579840864594,3101
202.7734694939469,3297
205.18828813403627,3216
207.6024402096051,3112
210.01592592360964,2978
212.42874547908548,2818
214.84089907914665,3031
217.2523869269868,3147
219.66320922587727,2933
222.0733661791695,2915
224.48285799029293,3171
226.8916848627572,3311
229.29984700014882,3060
231.7073446061355,2993
234.11417788446204,3081
236.520347038953,3222
238.92585227351185,3344
241.33069379212054,3228
243.73487179884035,3105
246.1383864978112,3016
248.541238093252,3276
250.9434267894609,3367
253.34495279081432,3266
255.74581630176783,3144
258.1460175268563,3188
260.54555667069314,3367
262.9444339379703,3802
265.3426495334594,3597
267.7402036620107,3397
270.1370965285529,3484
272.53332833809407,3169
274.9288992957214,3020
277.32380960660055,3151
279.718059475976,3024
282.1116491091717,2797
284.5045787115897,2584
286.89684848871195,2753
289.2884586460981,2781
291.67940938938807,2789
294.0697009242996,2839
296.4593334566299,2886
298.84830719225477,2956
301.23662233712923,2878
303.6242790972866,2799
306.01127767884,2708
308.39761828798066,2667
310.78330113097934,2432
313.16832641418534,2349
315.5526943440269,2367
317.9364051270112,2633
320.3194589697242,2464
322.70185607883093,2371
325.0835966610754,2407
327.4646809232805,2410
329.8451090723478,2472
332.2248813152577,2378
334.6039978590701,2485
336.9824589109231,2310
339.36026467803447,2162
341.7374153677,2314
344.113911187295,2454
346.48975234427337,2400
348.8649390461686,2368
351.2394715005918,2312
353.61334991523415,2229
355.9865744978655,2202
358.35914545633375,2249
360.73106299856715,2229
363.10232733257146,2343
365.47293866643247,2333
367.84289720831396,2148
370.2122031664593,2134
372.5808567491905,2230
374.9488581649083,2248
377.31620762209275,2144
379.6829053293021,2044
382.0489514951745,2113
384.4143463284262,2222
386.7790900378528,2103
389.14318283232853,2117
391.50662492080653,2141
393.86941651231916,2285
396.23155781597745,2455
398.5930490409713,2222
400.9538903965696,2059
403.3140820921202,2155
405.6736243370498,2065
408.03251734086336,2107
410.3907613131465,2105
412.74835646356166,2196
415.10530300185144,2062
417.4616011378372,2105
419.81725108141893,2115
422.1722530425758,2078
424.5266072313656,2024
426.880313857925,2031
429.2333731324701,1944
431.58578526529516,1974
433.9375504667738,1959
436.2886689473588,1945
438.63914091758113,1849
440.9889665880513,1825
443.33814616945835,1892
445.68667987257015,1978
448.03456790823395,1980
450.3818104873759,2018
452.72840782100013,1991
455.07436012019105,1919
457.41966759611057,1877
459.7643304600007,1915
462.10834892318155,1910
464.4517231970525,1946
466.79445349309174,1984
469.1365400228566,2048
471.4779829979826,2057
473.81878263018564,1986
476.15893913125876,2194
478.4984527130747,2293
480.8373235875855,2267
483.17555196682144,2183
485.5131380628919,2209
487.8500820879857,2223
490.1863842543697,2320
492.52204477439034,2547
494.8570638604725,2790
497.1914417251204,3188
499.52517858091653,3605
501.85827464052306,4116
504.19073011668036,4335
506.5225452222086,4466
508.85372017000566,4519
511.18425517304956,4986
513.514150444396,6374
515.8434061971808,8061
518.1720226446176,8307
520.4999999999999,8084
522.8273384766991,7531
525.1540382881666,6569
527.480099647932,5225
529.8055227696037,3696
532.1303078668694,2834
534.454455153496,2388
536.777964843328,2281
539.1008371502907,2193
541.4230722883866,2122
543.744670471698,2075
546.0656319143858,2047
548.3859568306899,2125
550.7056454349294,2231
553.0246979415016,2185
555.3431145648834,2127
557.6608955196306,2042
559.978041020377,2108
562.2945512818363,2113
564.6104265188006,1991
566.9256669461412,1984
569.2402727788082,1996
571.5542442318302,2045
573.8675815203156,2010
576.1802848594508,2038
578.4923544645015,2014
580.8037905508126,2017
583.114593333807,1958
585.4247630289875,1959
587.7342998519354,2059
590.0432040183106,2033
592.3514757438526,1930
594.6591152443794,2007
596.9661227357875,2076
599.2724984340531,2022
601.578242555231,1948
603.8833553154542,1944
606.1878369309362,1958
608.4916876179676,2039
610.7949075929192,1947
613.0974970722403,1923
615.3994562724587,1904
617.7007854101818,1955
620.0014847020951,1956
622.3015543649641,1909
624.6009946156324,1923
626.8998056710224,1891
629.1979877481361,1984
631.4955410640538,1940
633.7924658359349,1907
636.0887622810175,1947
638.3844306166192,1811
640.6794710601358,1930
642.9738838290426,2072
645.2676691408932,1951
647.5608272133207,1999
649.853358264037,1978
652.1452625108324,1988
654.4365401715764,2018
656.7271914642178,2121
659.0172166067838,2184
661.3066158173809,2032
663.5953893141935,1979
665.8835373154867,2031
668.1710600396028,2071
670.4579577049639,2137
672.7442305300709,2007
675.0298787335033,2049
677.3149025339197,1925
679.599302150058,2024
681.8830778007342,2039
684.1662297048437,2049
686.4487580813608,1987
688.7306631493387,2015
691.0119451279091,2076
693.2926042362834,1944
695.5726406937516,2008
697.8520547196814,2076
700.1308465335215,1959
702.4090163547982,1940
704.6865644031171,1981
706.9634908981619,1979
709.2397960596965,1999
711.5154801075631,1996
713.7905432616823,2050
716.0649857420548,1941
718.3388077687592,1980
720.612009561953,2014
722.8845913418733,1982
725.1565533288352,1946
727.427895743234,1894
729.6986188055427,1910
731.9687227363137,1919
734.238207756178,1908
736.5070740858458,1975
738.7753219461066,1991
741.0429515578281,1947
743.3099631419569,2033
745.5763569195191,1991
747.8421331116193,1938
750.1072919394409,1968
752.3718336242467,1959
754.6357583873777,1985
756.8990664502545,2048
759.1617580343765,2022
761.423833361321,2009
763.6852926527457,1881
765.9461361303862,1984
768.206364016058,1976
770.4659765316536,2079
772.7249738991469,2081
774.9833563405886,1998
777.2411240781092,1941
779.4982773339183,2001
781.7548163303044,2116
784.010741289634,2064
786.2660524343538,2105
788.5207499869881,2140
790.7748341701416,2047
793.0283052064964,2047
795.2811633188143,1981
797.5334087299362,1996
799.7850416627813,2062
802.0360623403484,2004
804.2864709857143,2043
806.5362678220353,2124
808.7854530725468,2013
811.0340269605625,2035
813.2819897094754,2090
815.5293415427581,2130
817.77608268396,2063
820.0222133567116,1978
822.2677337847211,2049
824.5126441917765,2107
826.7569448017433,1987
829.0006358385675,1886
831.2437175262731,1944
833.4861900889629,1912
835.7280537508192,1921
837.9693087361026,2003
840.2099552691533,1945
842.4499935743896,1895
844.689423876309,1928
846.9282463994886,1941
849.1664613685833,1938
851.4040690083276,1976
853.6410695435349,1891
855.877463199097,1972
858.1132501999847,1946
860.3484307712487,2029
862.5830051380175,1979
864.8169735254988,1906
867.0503361589791,1893
869.2830932638243,2005
871.5152450654786,1996
873.7467917894654,1983
875.9777336613873,1975
878.2080709069252,1947
880.4378037518389,1937
882.666932421968,2051
884.8954571432301,2078
887.1233781416219,2045
889.3506956432192,2007
891.5774098741766,1965
893.803521060728,2003
896.0290294291852,2032
898.2539352059397,1978
900.4782386174619,2036
902.7019398903011,2011
904.925039251085,2012
907.147536926521,2012
909.3694331433943,2019
911.59072812857,2077
913.8114221089921,2059
916.0315153116827,1984
918.2510079637437,1942
920.4699002923547,2002
922.6881925247761,2035
924.905884888345,2015
927.1229776104793,1990
929.3394709186747,2056
931.555365040506,1997
933.7706602036275,2020
935.9853566357709,2092
938.1994545647489,2218
940.4129542184515,2129
942.6258558248488,2094
944.8381596119883,2098
947.0498658079974,2212
949.2609746410825,2009
951.4714863395287,2106
953.6814011316998,2084
955.8907192460387,2093
958.0994409110671,2077
960.3075663553858,2083
962.5150958076741,2073
964.7220294966913,2140
966.928367651274,2017
969.1341105003388,2021
971.3392582728806,2084
973.5438111979742,2037
975.747769504772,2032
977.9511334225061,1986
980.153903180487,2002
982.3560790081052,1925
984.5576611348289,1983
986.7586497902058,1962
988.9590452038618,1940
991.158847605503,1932
993.3580572249133,1872
995.5566742919558,1806
997.7546990365728,1819
999.952131688785,1844
1002.1489724786926,1742
1004.3452216364743,1736
1006.5408793923874,1670
1008.7359459767691,1713
1010.9304216200343,1750
1013.1243065526781,1701
1015.3176010052733,1696
1017.510305208472,1743
1019.7024193930064,1778
1021.8939437896848,1785
1024.0848786293977,1619
1026.2752241431122,1633
1028.4649805618747,1612
1030.6541481168115,1666
1032.842727039127,1631
1035.0307175601051,1612
1037.2181199111074,1605
1039.4049343235752,1607
1041.591161029029,1566
1043.7768002590683,1590
1045.9618522453698,1620
1048.1463172196918,1636
1050.3301954138697,1598
1052.513487059818,1546
1054.69619238953,1550
1056.8783116350783,1596
1059.0598450286152,1560
1061.2407928023704,1597
1063.4211551886528,1577
1065.6009324198508,1573
1067.780124728432,1508
1069.9587323469414,1556
1072.1367555080046,1542
1074.314194444325,1535
1076.4910493886855,1526
1078.667320573947,1534
1080.843008233051,1457
1083.0181125990161,1491
1085.1926339049414,1479
1087.3665723840027,1532
1089.5399282694575,1513
1091.7127017946405,1493
1093.8848931929647,1447
1096.0565026979243,1503
1098.2275305430899,1437
1100.3979769621128,1522
1102.567842188722,1501
1104.737126456726,1480
1106.9058300000124,1540
1109.0739530525475,1465
1111.2414958483764,1466
1113.4084586216231,1448
1115.5748416064907,1497
1117.7406450372605,1478
1119.9058691482942,1489
1122.0705141740304,1537
1124.2345803489884,1450
1126.3980679077658,1464
1128.5609770850388,1449
1130.7233081155623,1421
1132.8850612341707,1426
1135.0462366757774,1410
1137.2068346753745,1418
1139.3668554680326,1469
1141.526299288901,1447
1143.68516637321,1451
1145.8434569562655,1460
1148.001171273455,1458
1150.158309560244,1466
1152.3148720521767,1486
1154.470858984876,1467
1156.626270594044,1426
1158.7811071154629,1470
1160.9353687849912,1414
1163.089055838569,1509
1165.242168512213,1504
1167.3947070420209,1397
1169.5466716641677,1418
1171.6980626149075,1487
1173.8488801305748,1537
1175.9991244475814,1428
1178.1487958024186,1500
1180.2978944316555,1485
1182.4464205719428,1476
1184.5943744600072,1485
1186.7417563326567,1475
1188.8885664267755,1427
1191.0348049793297,1402
1193.1804722273619,1390
1195.325568407995,1489
1197.4700937584303,1524
1199.614048515948,1389
1201.7574329179074,1377
1203.900247201746,1417
1206.042491604982,1397
1208.1841663652099,1383
1210.3252717201053,1428
1212.465807907422,1494
1214.6057751649923,1415
1216.7451737307279,1454
1218.8840038426192,1547
1221.0222657387353,1482
1223.1599596572241,1494
1225.2970858363137,1435
1227.4336445143094,1433
1229.5696359295966,1482
1231.705060320639,1474
1233.8399179259786,1481
1235.9742089842384,1523
1238.107933734118,1509
1240.2410924143974,1494
1242.373685263935,1491
1244.5057125216676,1514
1246.6371744266116,1479
1248.7680712178621,1522
1250.898403134593,1511
1253.028170416058,1541
1255.1573733015875,1506
1257.2860120305932,1507
1259.4140868425648,1594
1261.54159797707,1573
1263.6685456737569,1542
1265.7949301723515,1534
1267.9207517126597,1562
1270.046010534565,1565
1272.1707068780306,1601
1274.2948409830983,1603
1276.4184130898889,1590
1278.541423438603,1616
1280.6638722695184,1539
1282.785759822993,1569
1284.9070863394636,1577
1287.0278520594447,1613
1289.1480572235314,1633
1291.2677020723963,1627
1293.3867868467923,1655
1295.5053117875495,1623
1297.623277135579,1679
1299.740683131868,1648
1301.8575300174857,1662
1303.973818033578,1726
1306.0895474213703,1728
1308.2047184221678,1740
1310.3193312773528,1753
1312.4333862283888,1706
1314.5468835168163,1720
1316.659823384255,1701
1318.7722060724045,1672
1320.8840318230418,1655
1322.9953008780249,1669
1325.1060134792888,1751
1327.2161698688478,1739
1329.3257702887959,1750
1331.4348149813054,1729
1333.5433041886276,1665
1335.6512381530933,1676
1337.7586171171101,1673
1339.8654413231675,1693
1341.9717110138317,1663
1344.0774264317488,1692
1346.1825878196432,1728
1348.2871954203192,1633
1350.3912494766587,1667
1352.4947502316231,1708
1354.5976979282532,1645
1356.7000928096686,1573
1358.8019351190665,1670
1360.9032250997243,1571
1363.0039629949988,1628
1365.1041490483235,1610
1367.2037835032133,1628
1369.3028666032606,1634
1371.401398592137,1658
1373.4993797135926,1560
1375.5968102114575,1597
1377.6936903296396,1641
1379.7900203121262,1627
1381.8858004029835,1585
1383.9810308463561,1578
1386.075711886469,1605
1388.1698437676241,1601
1390.2634267342032,1708
1392.356461030667,1682
1394.4489469015557,1658
1396.5408845914872,1585
1398.6322743451592,1609
1400.7231164073469,1617
1402.813411022907,1636
1404.903158436773,1615
1406.9923588939578,1690
1409.0810126395531,1663
1411.1691199187303,1693
1413.2566809767386,1643
1415.343696058907,1601
1417.4301654106425,1725
1419.5160892774315,1687
1421.6014679048399,1708
1423.6863015385125,1667
1425.7705904241707,1652
1427.8543348076178,1641
1429.9375349347342,1667
1432.0201910514802,1636
1434.102303403894,1779
1436.1838722380944,1785
1438.2648978002767,1752
1440.3453803367174,1740
1442.4253200937692,1836
1444.5047173178677,1741
1446.5835722555234,1768
1448.6618851533285,1811
1450.739656257952,1782
1452.8168858161434,1827
1454.8935740747306,1902
1456.96972128062,1903
1459.045327680797,1952
1461.120393522327,1951
1463.1949190523528,1984
1465.2689045180973,1962
1467.3423501668608,2009
1469.415256246024,2003
1471.4876230030463,2001
1473.559450685465,1965
1475.6307395408976,2079
1477.7014898170391,2092
1479.771701761665,2081
1481.8413756226287,2143
1483.9105116478618,2019
1485.9791100853772,2165
1488.0471711832643,2157
1490.1146951896926,2158
1492.1816823529098,2221
1494.2481329212433,2170
1496.3140471430984,2123
1498.3794252669609,2216
1500.4442675413939,2258
1502.5085742150404,2252
1504.572345536622,2357
1506.6355817549388,2264
1508.6982831188702,2235
1510.7604498773744,2350
1512.8220822794883,2328
1514.8831805743293,2218
1516.9437450110909,2339
1519.003775839048,2313
1521.0632733075522,2309
1523.1222376660367,2345
1525.1806691640113,2358
1527.2385680510652,2308
1529.2959345768668,2302
1531.3527689911643,2433
1533.4090715437833,2382
1535.4648424846291,2440
1537.5200820636855,2429
1539.5747905310159,2447
1541.6289681367616,2465
1543.6826151311434,2545
1545.7357317644614,2480
1547.7883182870937,2544
1549.8403749494987,2615
1551.8919020022113,2671
1553.9428996958477,2715
1555.9933682811015,2741
1558.0433080087469,2765
1560.0927191296346,2873
1562.1416018946961,2791
1564.1899565549415,2928
1566.2377833614592,2871
1568.2850825654164,2895
1570.3318544180606,2838
1572.3780991707158,2730
1574.423817074788,2706
1576.4690083817595,2487
1578.5136733431923,2586
1580.5578122107272,2382
1582.601425236085,2465
1584.6445126710646,2286
1586.6870747675434,2296
1588.7291117774776,2243
1590.7706239529034,2147
1592.8116115459347,2064
1594.8520748087658,2036
1596.8920139936686,1907
1598.9314293529933,1896
1600.9703211391711,1914
1603.008689604711,1866
1605.0465350022005,1829
1607.0838575843068,1788
1609.1206576037753,1752
1611.1569353134305,1761
1613.1926909661765,1746
1615.2279248149953,1736
1617.2626371129481,1675
1619.2968281131757,1611
1621.3304980688963,1630
1623.3636472334088,1609
1625.39627586009,1573
1627.428384202396,1551
1629.459972513861,1549
1631.4910410480993,1545
1633.5215900588028,1578
1635.551619799744,1463
1637.5811305247717,1539
1639.6101224878166,1478
1641.6385959428862,1553
1643.6665511440683,1451
1645.693988345528,1469
1647.7209078015112,1494
1649.7473097663405,1483
1651.7731944944203,1495
1653.7985622402307,1532
1655.823413258333,1475
1657.847747803366,1407
1659.8715661300494,1447
1661.8948684931793,1483
1663.9176551476316,1488
1665.9399263483624,1437
1667.9616823504057,1433
1669.982923408873,1420
1672.0036497789574,1407
1674.0238617159293,1423
1676.043559475138,1465
1678.0627433120121,1442
1680.081413482059,1415
1682.0995702408654,1399
1684.117213844096,1410
1686.134344547495,1472
1688.1509626068864,1416
1690.1670682781705,1404
1692.182661817329,1404
1694.1977434804217,1390
1696.2123135235875,1472
1698.226372203043,1528
1700.2399197750851,1453
1702.2529564960905,1474
1704.2654826225112,1417
1706.277498410882,1418
1708.2890041178139,1411
1710.2999999999988,1442
1712.3104863142066,1390
1714.3204633172854,1461
1716.329931266163,1443
1718.3388904178469,1449
1720.3473410294214,1464
1722.3552833580516,1413
1724.3627176609807,1413
1726.3696441955308,1388
1728.3760632191033,1342
1730.3819749891782,1369
1732.3873797633146,1449
1734.3922777991502,1425
1736.3966693544012,1428
1738.4005546868639,1436
1740.4039340544127,1395
1742.406807715001,1376
1744.4091759266616,1339
1746.4110389475054,1419
1748.4123970357223,1422
1750.413250449582,1403
1752.4135994474318,1394
1754.4134442876993,1378
1756.4127852288902,1310
1758.4116225295893,1366
1760.4099564484595,1352
1762.407787244244,1353
1764.405115175764,1326
1766.4019405019203,1309
1768.3982634816916,1276
1770.3940843741357,1362
1772.3894034383907,1344
1774.3842209336717,1376
1776.378537119274,1340
1778.372352254571,1334
1780.3656665990156,1329
1782.3584804121397,1369
1784.3507939535534,1347
1786.3426074829463,1350
1788.3339212600863,1406
1790.3247355448211,1339
1792.3150505970766,1322
1794.3048666768573,1398
1796.2941840442477,1349
1798.2830029594106,1277
1800.2713236825884,1376
1802.2591464741004,1407
1804.2464715943465,1345
1806.2332993038058,1298
1808.2196298630352,1300
1810.2054635326708,1336
1812.190800573428,1340
1814.175641246101,1332
1816.1599858115628,1364
1818.1438345307652,1340
1820.127187664738,1383
1822.1100454745924,1378
1824.092408221516,1355
1826.0742761667766,1345
1828.055649571721,1347
1830.0365286977735,1304
1832.0169138064398,1328
1833.9968051593014,1357
1835.9762030180214,1338
1837.9551076443408,1398
1839.9335193000788,1342
1841.9114382471344,1305
1843.888864747485,1343
1845.8657990631878,1396
1847.842241456378,1330
1849.8181921892697,1312
1851.7936515241558,1378
1853.7686197234098,1296
1855.7430970494815,1325
1857.7170837649014,1298
1859.6905801322787,1345
1861.6635864143004,1321
1863.6361028737338,1371
1865.608129773424,1389
1867.5796673762961,1390
1869.5507159453537,1301
1871.521275743678,1350
1873.4913470344313,1300
1875.4609300808534,1322
1877.4300251462632,1347
1879.3986324940588,1383
1881.366752387717,1390
1883.3343850907936,1421
1885.3015308669228,1418
1887.268189979819,1410
1889.2343626932739,1359
1891.2000492711595,1413
1893.1652499774254,1334
1895.1299650761011,1420
1897.0941948312952,1384
1899.0579395071945,1431
1901.0211993680641,1347
1902.98397467825,1360
1904.9462657021745,1372
1906.9080727043415,1359
1908.869395949332,1351
1910.8302357018065,1340
1912.790592226504,1341
1914.7504657882428,1410
1916.7098566519212,1325
1918.6687650825133,1339
1920.6271913450764,1375
1922.5851357047422,1386
1924.5425984267245,1379
1926.499579776314,1408
1928.4560800188833,1413
1930.4120994198802,1408
1932.367638244833,1368
1934.32269675935,1418
1936.2772752291175,1390
1938.231373919899,1376
1940.1849930975404,1394
1942.1381330279637,1457
1944.0907939771696,1353
1946.0429762112412,1338
1947.9946799963363,1324
1949.9459055986945,1334
1951.896653284633,1374
1953.8469233205478,1329
1955.7967159729142,1340
1957.7460315082863,1349
1959.6948701932974,1358
1961.6432322946594,1360
1963.5911180791632,1320
1965.5385278136787,1347
1967.4854617651545,1355
1969.4319202006182,1321
1971.377903387176,1346
1973.3234115920136,1318
1975.268445082395,1362
1977.2130041256642,1311
1979.1570889892423,1291
1981.1006999406304,1363
1983.04383724741,1336
1984.986501177238,1326
1986.928691997853,1405
1988.8704099770712,1326
1990.811655382789,1375
1992.7524284829801,1361
1994.692729545698,1353
1996.6325588390755,1317
1998.5719166313224,1313
2000.5108031907307,1286
2002.4492187856677,1307
2004.387163684583,1320
2006.3246381560011,1325
2008.2616424685298,1327
2010.1981768908527,1314
2012.1342416917332,1343
2014.069837140014,1272
2016.0049635046162,1332
2017.9396210545406,1331
2019.8738100588666,1283
2021.8075307867502,1280
2023.740783507431,1308
2025.6735684902228,1317
2027.6058860045214,1353
2029.5377363198004,1288
2031.4691197056118,1344
2033.4000364315875,1362
2035.3304867674374,1379
2037.260470982952,1292
2039.189989347998,1323
2041.1190421325232,1309
2043.047629606554,1314
2044.9757520401945,1301
2046.9034097036288,1241
2048.8306028671195,1238
2050.7573318010086,1287
2052.683596775716,1280
2054.609398061742,1313
2056.5347359296647,1299
2058.4596106501403,1350
2060.384022493906,1299
2062.3079717317764,1290
2064.231458634646,1282
2066.1544834734873,1299
2068.077046519352,1274
2069.99914804337,1306
2071.9207883167524,1308
2073.8419676107865,1332
2075.7626861968406,1343
2077.6829443463607,1306
2079.6027423308715,1314
2081.522080421977,1328
2083.440958891362,1259
2085.359378010786,1317
2087.2773380520907,1325
2089.194839287196,1320
2091.111881988101,1224
2093.0284664268825,1358
2094.9445928756973,1313
2096.86026160678,1308
2098.775472892446,1319
2100.690227005088,1296
2102.604524217178,1378
2104.5183648012676,1332
2106.431749029985,1318
2108.34467717604,1295
2110.2571495122206,1395
2112.169166311393,1348
2114.080727846503,1271
2115.9918343905747,1269
2117.902486216711,1327
2119.8126835980956,1319
2121.722426807987,1371
2123.6317161197285,1281
2125.5405518067364,1258
2127.448934142509,1325
2129.356863400624,1347
2131.264339854737,1335
2133.1713637785815,1269
2135.077935445972,1297
2136.9840551308002,1315
2138.889723107037,1330
2140.7949396487334,1359
2142.699705030018,1264
2144.6040195250994,1388
2146.507883408264,1296
2148.4112969538774,1325
2150.3142604363848,1339
2152.2167741303097,1317
2154.1188383102535,1303
2156.0204532508997,1332
2157.9216192270064,1289
2159.822336513414,1266
2161.7226053850413,1296
2163.622426116884,1304
2165.5217989840185,1325
2167.4207242616,1318
2169.319202224862,1304
2171.2172331491165,1321
2173.1148173097563,1386
2175.0119549822507,1338
2176.90864644215,1269
2178.8048919650823,1319
2180.7006918267534,1322
2182.596046302952,1356
2184.4909556695407,1324
2186.3854202024645,1351
2188.279440177746,1314
2190.173015871487,1355
2192.066147559868,1333
2193.958835519149,1325
2195.851080025667,1303
2197.7428813558417,1321
2199.6342397861667,1265
2201.5251555932186,1257
2203.415629053651,1300
2205.3056604441986,1326
2207.19525004167,1321
2209.084398122958,1311
2210.9731049650327,1334
2212.861370844941,1367
2214.749196039812,1270
2216.636580826851,1349
2218.523525483344,1388
2220.410030286655,1318
2222.296095514226,1319
2224.1817214435805,1309
2226.066908352319,1320
2227.951656518121,1323
2229.835966218746,1344
2231.71983773203,1304
2233.6032713358913,1365
2235.486267308324,1344
2237.3688259274036,1387
2239.2509474712824,1333
2241.132632218193,1366
2243.013880446447,1352
2244.8946924344323,1390
2246.7750684606203,1331
2248.6550088035574,1354
2250.534513741871,1332
2252.413583554265,1372
2254.292218519526,1334
2256.170418916517,1333
2258.0481850241786,1405
2259.925517121534,1331
2261.8024154876825,1357
2263.678880401803,1318
2265.5549121431536,1386
2267.430510991071,1375
2269.305677224971,1311
2271.180411124348,1311
2273.0547129687766,1337
2274.9285830379076,1331
2276.8020216114737,1339
2278.6750289692845,1298
2280.5476053912294,1325
2282.4197511572766,1406
2284.2914665474727,1353
2286.162751841943,1358
2288.0336073208937,1402
2289.904033264608,1394
2291.774029953448,1418
2293.6435976678554,1347
2295.5127366883517,1375
2297.381447295534,1376
2299.2497297700825,1320
2301.1175843927526,1305
2302.9850114443825,1295
2304.852011205885,1253
2306.7185839582553,1263
2308.5847299825664,1202
2310.4504495599676,1260
2312.3157429716925,1196
2314.1806104990483,1221
2316.0450524234247,1261
2317.9090690262888,1241
2319.772660589186,1235
2321.635827393742,1268
2323.498569721661,1240
2325.3608878547248,1268
2327.2227820747967,1267
2329.0842526638157,1265
2330.945299903803,1250
2332.805924076857,1236
2334.6661254651535,1233
2336.525904350951,1211
2338.3852610165827,1223
2340.244195744464,1237
2342.102708817088,1185
2343.9608005170253,1215
2345.8184711269287,1232
2347.675720929526,1206
2349.532550207628,1244
2351.38895924412,1241
2353.24494832197,1264
2355.100517724223,1221
2356.955667734004,1226
2358.810398634514,1287
2360.664710709037,1229
2362.5186042409337,1197
2364.3720795136437,1270
2366.225136810686,1264
2368.0777764156583,1212
2369.929998612237,1236
2371.7818036841777,1258
2373.633191915315,1227
2375.484163589562,1197
2377.3347189909114,1250
2379.184858403434,1230
2381.03458211128,1285
2382.8838903986775,1272
2384.732783549936,1243
2386.5812618494406,1287
2388.4293255816588,1185
2390.2769750311327,1175
2392.1242104824883,1249
2393.971032220427,1254
2395.8174405297295,1222
2397.6634356952563,1252
2399.509018001947,1244
2401.3541877348193,1285
2403.1989451789705,1213
2405.043290619576,1301
2406.8872243418905,1243
2408.730746631247,1250
2410.5738577730594,1320
2412.4165580528183,1225
2414.258847756095,1239
2416.100727168537,1245
2417.9421965758734,1254
2419.783256263912,1285
2421.623906518538,1336
2423.4641476257157,1219
2425.303979871491,1254
2427.143403541984,1293
2428.9824189233977,1264
2430.821026302012,1243
2432.6592259641866,1299
2434.497018196361,1237
2436.33440328505,1215
2438.171381516851,1239
2440.00795317844,1208
2441.844118556569,1286
2443.6798779380724,1277
2445.5152316098606,1284
2447.3501798589255,1301
2449.1847229723357,1282
2451.0188612372403,1266
2452.8525949408663,1248
2454.6859243705203,1282
2456.518849813587,1249
2458.3513715575314,1284
2460.183489889895,1264
2462.015205098301,1279
2463.8465174704493,1273
2465.67742729412,1272
2467.5079348571717,1315
2469.338040447542,1328
2471.1677443532476,1286
2472.9970468623833,1190
2474.825948263123,1242
2476.6544488437207,1254
2478.482548892508,1317
2480.310248697896,1294
2482.137548548374,1271
2483.9644487325118,1293
2485.790949538956,1267
2487.617051256433,1296
2489.44275417375,1245
2491.26805857979,1272
2493.0929647635157,1286
2494.917473013971,1255
2496.741583620276,1302
2498.5652968716304,1292
2500.3886130573137,1301
2502.2115324666834,1351
2504.0340553891765,1303
2505.856182114308,1425
2507.6779129316733,1363
2509.499248130945,1316
2511.3201880018764,1326
2513.140732834298,1309
2514.9608829181198,1324
2516.780638543331,1324
2518.6,1285
2520.418967578273,1290
2522.237541568376,1302
2524.0557222606144,1273
2525.8735099453706,1255
2527.6909049131086,1295
2529.507907454368,1317
2531.32451785977,1288
2533.140736420014,1322
2534.9565634258774,1250
2536.771999168218,1357
2538.5870439379714,1349
2540.4016980261526,1340
2542.2159617238544,1334
2544.02983532225,1420
2545.8433191125914,1404
2547.656413386209,1407
2549.4691184345115,1389
2551.2814345489874,1422
2553.093362021204,1453
2554.904901142808,1389
2556.716052205523,1439
2558.526815501153,1404
2560.3371913215824,1398
2562.147179958771,1430
2563.956781704761,1432
2565.7659968516705,1433
2567.5748256916986,1437
2569.3832685171224,1448
2571.1913256202984,1485
2572.9989972936614,1428
2574.806283829725,1440
2576.613185521084,1505
2578.4197026604074,1510
2580.2258355404483,1470
2582.031584454035,1495
2583.836949694077,1491
2585.6419315535613,1504
2587.4465303255533,1482
2589.2507463032002,1472
2591.0545797797245,1473
2592.8580310484303,1509
2594.6611004026995,1549
2596.463788135992,1507
2598.266094541849,1456
2600.0680199138874,1488
2601.869564545807,1500
2603.670728731383,1429
2605.4715127644704,1497
2607.2719169390048,1444
2609.071941548998,1433
2610.8715868885433,1543
2612.670853251811,1488
2614.469740933052,1451
2616.268250226594,1428
2618.0663814268455,1488
2619.864134828292,1482
2621.6615107255006,1522
2623.458509413115,1455
2625.2551311858597,1454
2627.0513763385347,1410
2628.8472451660223,1441
2630.6427379632833,1406
2632.4378550253564,1417
2634.232596647359,1381
2636.026963124488,1515
2637.8209547520187,1407
2639.6145718253065,1444
2641.407814639785,1370
2643.200683490966,1369
2644.9931786744414,1369
2646.7853004858807,1399
2648.577049221034,1476
2650.3684251757277,1382
2652.1594286458712,1353
2653.9500599274484,1361
2655.740319316525,1380
2657.5302071092437,1357
2659.3197236018286,1289
2661.10886909058,1310
2662.8976438718782,1291
2664.686048242183,1322
2666.4740824980327,1332
2668.2617469360443,1372
2670.0490418529134,1263
2671.8359675454153,1334
2673.622524310403,1313
2675.408712444811,1301
2677.1945322456495,1307
2678.979984010009,1353
2680.76506803506,1300
2682.5497846180497,1248
2684.334134056306,1276
2686.1181166472343,1249
2687.9017326883213,1280
2689.6849824771293,1316
2691.4678663113013,1300
2693.2503844885596,1319
2695.032537306705,1312
2696.8143250636167,1368
2698.5957480572542,1281
2700.3768065856534,1241
2702.1575009469316,1229
2703.937831439283,1232
2705.717798360982,1262
2707.4974020103837,1157
2709.276642685917,1199
2711.055520686095,1228
2712.834036309506,1227
2714.612189854819,1207
2716.389981620782,1219
2718.1674119062204,1232
2719.944481010041,1204
2721.721189231226,1280
2723.4975368688415,1178
2725.273524222027,1213
2727.0491515900053,1187
2728.824419272075,1243
2730.5993275676146,1285
2732.3738767760838,1245
2734.148067197016,1215
2735.921899130031,1190
2737.6953728748194,1228
2739.468488731156,1189
2741.2412469988926,1229
2743.0136479779617,1223
2744.785691968372,1189
2746.5573792702116,1240
2748.3287101836504,1239
2750.099685008934,1210
2751.870304046388,1187
2753.640567596418,1245
2755.4104759595057,1189
2757.1800294362156,1210
2758.949228327187,1239
2760.7180729331412,1220
2762.486563554877,1135
2764.254700493272,1231
2766.022484049284,1207
2767.789914523947,1180
2769.5569922183786,1239
2771.3237174337705,1217
2773.090090471394,1169
2774.8561116326036,1173
2776.6217812188274,1187
2778.3870995315756,1162
2780.1520668724356,1188
2781.9166835430747,1140
2783.6809498452394,1211
2785.444866080754,1162
2787.2084325515225,1207
2788.971649559527,1179
2790.73451740683,1218
2792.4970363955713,1228
2794.2592068279705,1195
2796.0210290063264,1211
2797.7825032330147,1161
2799.543629810493,1217
2801.304409041296,1153
2803.0648412280366,1208
2804.8249266734088,1187
2806.5846656801846,1166
2808.344058551212,1240
2810.1031055894246,1175
2811.8618070978273,1160
2813.6201633795085,1159
2815.378174737636,1175
2817.1358414754536,1197
2818.893163896285,1179
2820.6501423035334,1188
2822.4067770006814,1210
2824.1630682912883,1196
2825.9190164789957,1199
2827.6746218675207,1178
2829.429884760661,1208
2831.184805462294,1154
2832.9393842763743,1218
2834.693621506936,1238
2836.4475174580916,1179
2838.201072434034,1229
2839.954286739034,1193
2841.707160677441,1228
2843.459694553685,1221
2845.2118886722724,1205
2846.96374333779,1226
2848.7152588549034,1183
2850.4664355283567,1209
2852.217273662973,1235
2853.9677735636546,1192
2855.7179355353833,1165
2857.4677598832186,1187
2859.217246912299,1220
2860.9663969278427,1203
2862.715210235146,1207
2864.4636871395846,1191
2866.211827946614,1189
2867.9596329617652,1176
2869.7071024906536,1172
2871.4542368389684,1154
2873.20103631248,1210
2874.947501217038,1158
2876.6936318585695,1157
2878.4394285430812,1222
2880.1848915766604,1225
2881.9300212654707,1197
2883.6748179157553,1178
2885.4192818338374,1234
2887.1634133261173,1186
2888.907212699077,1187
2890.6506802592744,1178
2892.393816313348,1179
2894.1366211680142,1185
2895.8790951300693,1181
2897.621238506388,1218
2899.363051603925,1206
2901.1045347297118,1193
2902.8456881908596,1217
2904.58651229456,1140
2906.327007348081,1193
2908.067173658772,1195
2909.8070115340597,1137
2911.5465212814497,1152
2913.285703208527,1163
2915.0245576229563,1219
2916.7630848324807,1175
2918.5012851449196,1192
2920.2391588681758,1185
2921.976706310227,1140
2923.7139277791334,1189
2925.4508235830313,1214
2927.187394030137,1225
2928.923639428745,1182
2930.6595600872306,1186
2932.395156314046,1158
2934.1304284177218,1213
2935.8653767068713,1188
2937.6000014901815,1152
2939.3343030764227,1241
2941.068281774442,1284
2942.8019378931644,1164
2944.5352717415976,1193
2946.2682836288236,1190
2948.0009738640065,1186
2949.7333427563885,1196
2951.465390615289,1190
2953.1971177501086,1166
2954.9285244703265,1173
2956.6596110855,1169
2958.3903779052657,1166
2960.1208252393385,1190
2961.8509533975125,1186
2963.5807626896617,1166
2965.3102534257378,1217
2967.0394259157715,1267
2968.768280469873,1205
2970.496817398232,1170
2972.2250370111146,1140
2973.952939618869,1198
2975.6805255319196,1170
2977.4077950607707,1207
2979.134748516006,1180
2980.861386208289,1163
2982.587708448359,1164
2984.313715547037,1209
2986.039407815222,1156
2987.764785563891,1178
2989.489849104102,1136
2991.2145987469908,1168
2992.9390348037705,1147
2994.6631575857346,1148
2996.3869674042576,1171
2998.1104645707887,1167
2999.83364939686,1151
3001.5565221940783,1125
3003.2790832741334,1143
3005.0013329487924,1134
3006.7232715298996,1156
3008.4448993293804,1131
3010.166216659239,1202
3011.887223831558,1167
3013.607921158498,1183
3015.3283089522993,1200
3017.0483875252826,1138
3018.7681571898443,1140
3020.4876182584626,1172
3022.2067710436927,1148
3023.9256158581707,1170
3025.644153014609,1189
3027.362382825801,1172
3029.0803056046193,1142
3030.797921664012,1161
3032.5152313170106,1154
3034.2322348767225,1241
3035.9489326563353,1172
3037.665324969115,1180
3039.3814121284063,1175
3041.097194447633,1232
3042.812672240299,1172
3044.5278458199855,1161
3046.2427155003525,1197
3047.9572815951406,1098
3049.671544418167,1135
3051.38550428333,1168
3053.0991615046073,1213
3054.812516396051,1171
3056.5255692717974,1149
3058.2383204460575,1146
3059.9507702331257,1194
3061.662918947372,1181
3063.3747669032446,1128
3065.0863144152736,1197
3066.7975617980674,1108
3068.508509366309,1150
3070.219157434767,1143
3071.9295063182844,1168
3073.639556331785,1144
3075.3493077902704,1146
3077.058761008821,1139
3078.7679163025964,1156
3080.476773986837,1153
3082.1853343768594,1167
3083.89359778806,1163
3085.6015645359153,1100
3087.3092349359786,1168
3089.016609303884,1198
3090.7236879553434,1181
3092.4304712061476,1148
3094.136959372166,1185
3095.843152769349,1160
3097.5490517137237,1158
3099.2546565213966,1175
3100.959967508554,1170
3102.66498499146,1185
3104.3697092864577,1204
3106.0741407099695,1185
3107.778279578498,1125
3109.482126208622,1189
3111.1856809170004,1129
3112.8889440203716,1126
3114.5919158355528,1185
3116.294596679439,1208
3117.996986869006,1156
3119.6990867213062,1191
3121.4008965534726,1197
3123.102416682717,1160
3124.803647426329,1203
3126.5045891016784,1150
3128.205242026213,1170
3129.90560651746,1184
3131.605682893025,1094
3133.3054714705922,1111
3135.0049725679282,1171
3136.7041865028714,1170
3138.4031135933465,1170
3140.101754157353,1101
3141.800108512971,1130
3143.498176978357,1181
3145.1959598717494,1141
3146.8934575114636,1139
3148.5906702158954,1175
3150.2875983035183,1132
3151.9842420928853,1117
3153.680601902627,1143
3155.376678051456,1153
3157.07247085816,1155
3158.767980641609,1157
3160.463207720748,1129
3162.158152414606,1186
3163.8528150422862,1176
3165.5471959229726,1155
3167.2412953759303,1185
3168.9351137204976,1162
3170.628651276098,1160
3172.3219083622307,1170
3174.014885298474,1146
3175.707582404485,1175
3177.4000000000005,1140
3179.092138404835,1131
3180.7839979388846,1167
3182.47557892212,1173
3184.166881674594,1155
3185.8579065164386,1180
3187.5486537678626,1139
3189.2391237491547,1130
3190.9293167806827,1126
3192.6192331828934,1135
3194.3088732763117,1151
3195.998237381542,1149
3197.687325819268,1166
3199.376138910251,1176
3201.064676975334,1141
3202.7529403354347,1120
3204.4409293115523,1193
3206.1286442247647,1165
3207.816085396229,1114
3209.5032531471825,1172
3211.190147798936,1140
3212.8767696728846,1145
3214.5631190905015,1145
3216.2491963733373,1139
3217.9350018430214,1116
3219.6205358212637,1106
3221.305798629851,1126
3222.990790590651,1098
3224.6755120256103,1098
3226.359963256751,1114
3228.0441446061795,1134
3229.7280563960758,1134
3231.411698948703,1158
3233.0950725863995,1171
3234.778177631587,1184
3236.461014406761,1141
3238.1435832345005,1196
3239.8258844374595,1150
3241.507918338374,1091
3243.1896852600576,1092
3244.8711855254023,1136
3246.552419457381,1184
3248.233387379042,1136
3249.914089613516,1172
3251.59452648401,1071
3253.274698313813,1112
3254.95460542629,1126
3256.6342481448855,1116
3258.313626793125,1103
3259.9927416946084,1147
3261.6715931730196,1100
3263.3501815521176,1118
3265.0285071557437,1121
3266.706570307815,1129
3268.3843713323286,1106
3270.0619105533615,1126
3271.739188295068,1113
3273.4162048816834,1140
3275.0929606375184,1199
3276.769455886966,1126
3278.445690954498,1118
3280.1216661646613,1145
3281.797381842087,1173
3283.4728383114807,1127
3285.1480358976296,1149
3286.8229749253996,1100
3288.4976557197333,1155
3290.172078605655,1143
3291.846243908266,1124
3293.5201519527463,1082
3295.193803064357,1095
3296.8671975684374,1103
3298.5403357904024,1125
3300.21321805575,1076
3301.8858446900567,1147
3303.558216018975,1181
3305.23033236824,1125
3306.9021940636603,1101
3308.57380143113,1141
3310.2451547966184,1129
3311.916254486174,1174
3313.5871008259246,1098
3315.2576941420766,1136
3316.9280347609147,1115
3318.5981230088046,1136
3320.2679592121895,1081
3321.9375436975924,1118
3323.606876791612,1096
3325.27595882093,1113
3326.944790112305,1092
3328.6133709925753,1121
3330.2817017886573,1111
3331.949782827547,1111
3333.617614436319,1101
3335.2851969421245,1176
3336.952530672199,1122
3338.619615953853,1100
3340.286453114475,1134
3341.9530424815357,1104
3343.619384382583,1108
3345.2854791452437,1138
3346.951327097224,1134
3348.6169285663073,1159
3350.2822838803577,1146
3351.947393367319,1101
3353.61225735521,1064
3355.2768761721345,1112
3356.9412501462693,1113
3358.605379605873,1076
3360.2692648792827,1131
3361.9329062949146,1124
3363.596304181263,1133
