CollectionTime,9/26/2024 8:42:25 AM
ExposureUsed,3
CalibratedSpectrum
-962.7078968117929,661
-959.9714848408522,704
-957.2358232597828,705
-954.5009119013725,727
-951.7667505983302,714
-949.0333391832855,665
-946.3006774887896,702
-943.5687653473143,728
-940.837602591253,805
-938.1071890529199,706
-935.3775245645503,688
-932.6486089583007,624
-929.9204420662485,711
-927.1930237203925,776
-924.4663537526524,782
-921.7404319948689,765
-919.0152582788041,744
-916.2908324361409,801
-913.5671542984834,798
-910.8442236973568,775
-908.1220404642074,732
-905.4006044304027,780
-902.679915427231,699
-899.959973285902,728
-897.2407778375464,720
-894.5223289132158,738
-891.8046263438832,653
-889.0876699604426,666
-886.3714595937089,657
-883.6559950744183,723
-880.9412762332282,734
-878.2273029007168,703
-875.5140749073835,673
-872.8015920836489,675
-870.0898542598545,684
-867.3788612662631,659
-864.6686129330585,677
-861.9591090903457,681
-859.2503495681506,580
-856.5423341964203,632
-853.8350628050229,671
-851.1285352237478,658
-848.4227512823054,632
-845.7177108103272,725
-843.0134136373656,769
-840.3098595928943,751
-837.6070485063082,719
-834.9049802069229,713
-832.2036545239757,700
-829.5030712866244,705
-826.8032303239481,747
-824.1041314649472,720
-821.4057745385428,637
-818.7081593735775,640
-816.0112857988148,671
-813.3151536429393,711
-810.6197627345566,723
-807.9251129021936,698
-805.2312039742981,715
-802.5380357792392,699
-799.8456081453069,683
-797.1539209007124,666
-794.462973873588,698
-791.772766891987,701
-789.083299783884,694
-786.3945723771743,725
-783.7065844996748,714
-781.0193359791231,739
-778.3328266431781,749
-775.6470563194197,669
-772.9620248353489,690
-770.2777320183878,716
-767.5941776958798,657
-764.9113616950891,614
-762.2292838432011,663
-759.5479439673222,653
-756.8673418944801,757
-754.1874774516235,754
-751.5083504656222,760
-748.8299607632671,751
-746.15230817127,839
-743.475392516264,817
-740.7992136248035,717
-738.1237713233636,707
-735.4490654383407,763
-732.7750957960521,699
-730.1018622227365,740
-727.4293645445534,748
-724.7576025875837,820
-722.0865761778291,777
-719.4162851412126,834
-716.7467293035781,825
-714.0779084906909,836
-711.409822528237,759
-708.7424712418238,718
-706.0758544569796,725
-703.4099719991541,723
-700.7448236937178,714
-698.0804093659622,742
-695.4167288411002,804
-692.7537819442656,785
-690.0915685005134,794
-687.4300883348199,801
-684.7693412720819,804
-682.1093271371178,750
-679.4500457546669,744
-676.7914969493897,830
-674.1336805458676,766
-671.4765963686034,769
-668.8202442420206,751
-666.1646239904642,767
-663.5097354382001,726
-660.8555784094151,723
-658.2021527282176,700
-655.5494582186366,754
-652.8974947046223,800
-650.2462620100463,803
-647.5957599587009,873
-644.9459883742998,932
-642.2969470804776,898
-639.6486359007902,869
-637.0010546587141,740
-634.3542031776476,729
-631.7080812809096,696
-629.0626887917401,855
-626.4180255333008,1058
-623.7740913286734,976
-621.1308860008619,777
-618.4884093727904,833
-615.8466612673046,835
-613.2056415071715,893
-610.5653499150785,843
-607.9257863136347,919
-605.28695052537,869
-602.6488423727357,820
-600.0114616781036,967
-597.3748082637674,1162
-594.7388819519412,1147
-592.1036825647604,952
-589.4692099242818,1015
-586.8354638524829,1117
-584.2024441712624,1060
-581.5701507024403,941
-578.9385832677575,860
-576.3077416888759,896
-573.6776257873787,957
-571.0482353847704,1034
-568.4195703024757,962
-565.7916303618415,889
-563.164415384135,806
-560.5379251905453,897
-557.9121596021815,997
-555.2871184400748,984
-552.6628015251767,961
-550.0392086783606,975
-547.4163397204204,1015
-544.794194472071,1046
-542.1727727539491,996
-539.5520743866118,962
-536.9320991905377,1017
-534.3128469861261,1175
-531.6943175936979,1156
-529.0765108334947,1188
-526.4594265256793,1410
-523.8430644903358,1562
-521.2274245474689,1658
-518.612506517005,1788
-515.9983102187913,1910
-513.3848354725959,2091
-510.77208209810846,2267
-508.16004991493924,2401
-505.5487387426199,2443
-502.9381484006032,2312
-500.3282787082628,2042
-497.71912948489364,1900
-495.1107005497117,1640
-492.5029917218539,1485
-489.8960028203786,1322
-487.28973366426493,1123
-484.68418407241325,1143
-482.07935386364494,1140
-479.47524285670266,1065
-476.87185087025,1074
-474.2691777228715,1126
-471.66722323307334,1167
-469.0659872192821,1121
-466.4654694998459,1098
-463.86566989303384,1047
-461.26658821703614,1054
-458.66822428996414,1059
-456.07057792985,1207
-453.4736489546475,1212
-450.877437182231,1119
-448.28194243039627,1012
-445.68716451686,1013
-443.09310325926003,1005
-440.49975847515555,1017
-437.9071299820263,1158
-435.31521759727354,1167
-432.72402113821954,1359
-430.13354042210767,1230
-427.5437752661022,1117
-424.95472548728867,1162
-422.36639090267386,1254
-419.7787713291855,1307
-417.1918665836721,1398
-414.60567648290385,1407
-412.0202008435715,1248
-409.4354394822874,1342
-406.8513922155845,1367
-404.26805885991723,1288
-401.685439231661,1137
-399.103533147112,1166
-396.522340422488,1215
-393.9418608739278,1172
-391.3620943174908,1176
-388.7830405691583,1240
-386.2046994448317,1177
-383.6270707603344,1315
-381.05015433141045,1320
-378.473949973725,1086
-375.8984575028645,983
-373.32367673433623,983
-370.74960748356875,924
-368.1762495659117,844
-365.60360279663576,925
-363.03166699093265,969
-360.4604419639154,887
-357.8899275306178,828
-355.32012350599507,767
-352.7510297049233,733
-350.1826459421999,701
-347.61497203254316,751
-345.04800779059235,774
-342.4817530309082,968
-339.91620756797226,1046
-337.35137121618743,1025
-334.7872437898774,1008
-332.22382510328725,1252
-329.66111497058273,1325
-327.09911320585127,985
-324.53781962310075,859
-321.9772340362607,773
-319.4173562591816,834
-316.8581861056348,799
-314.2997233893127,745
-311.7419679238294,808
-309.1849195227194,778
-306.62857799943856,821
-304.0729431673641,910
-301.51801483979375,1022
-298.963792829947,1039
-296.41027695096386,1074
-293.85746701590574,1252
-291.3053628377552,1308
-288.7539642294155,1304
-286.2032710037115,1400
-283.65328297338897,1564
-281.1039999511146,1936
-278.5554217494762,2584
-276.007548180983,1855
-273.4603790580651,1168
-270.9139141930734,1293
-268.3681533982807,1463
-265.8230964858798,1695
-263.27874326798565,1352
-260.7350935566336,1215
-258.1921471637804,1616
-255.6499039013039,1870
-253.10836358100266,1421
-250.56752601459698,1413
-248.02739101372765,1725
-245.48795838995704,1890
-242.94922795476816,1573
-240.41119951956557,1275
-237.8738728956746,1409
-235.33724789434166,1620
-232.80132432673452,1641
-230.2661020039418,1475
-227.73158073697357,1610
-225.19776033676033,2085
-222.66464061415422,2082
-220.1322213799284,1580
-217.60050244477725,1449
-215.06948361931552,1749
-212.53916471408013,2708
-210.00954553952818,3214
-207.48062590603843,2142
-204.9524056239104,1603
-202.4248845033651,1821
-199.8980623545441,2290
-197.37193898751036,2810
-194.84651421224817,2017
-192.32178783866232,1840
-189.79775967657952,2204
-187.27442953574644,2785
-184.7517972258321,2796
-182.2298625564256,2224
-179.7086253370378,2129
-177.18808537710026,2369
-174.66824248596583,3097
-172.14909647290835,3452
-169.6306471471229,2755
-167.11289431772548,2182
-164.59583779375328,2177
-162.07947738416453,2855
-159.5638128978386,3467
-157.04884414357605,3702
-154.53457093009854,3210
-152.02099306604828,2861
-149.50811035998936,2299
-146.99592262040665,2667
-144.48442965570587,3914
-141.97363127421409,5422
-139.46352728417958,5886
-136.95411749377126,5022
-134.44540171107985,3676
-131.93737974411636,2437
-129.43005140081357,2928
-126.92341648902493,4887
-124.41747481652521,8434
-121.91222619101006,11646
-119.40767042009657,11302
-116.90380731132257,8591
-114.40063667214702,5701
-111.8981583099503,4033
-109.3963720320337,4633
-106.89527764561933,8946
-104.39487495785067,16477
-101.89516377579241,24822
-99.39614390642998,25200
-96.89781515667039,23703
-94.40017733334128,17604
-91.90323024319173,14710
-89.40697369289148,13311
-86.91140748903172,10973
-84.41653143812482,16218
-81.92234534660395,29155
-79.42884902082358,44395
-76.93604226705907,46081
-74.4439248915071,42866
-71.95249670028534,47339
-69.46175749943245,65025
-66.97170709490854,65025
-64.48234529259423,65025
-61.99367189829195,65025
-59.50568671772464,65025
-57.01838955653636,65025
-54.53178022029283,65025
-52.045858514480074,65025
-49.560624244506016,65025
-47.07607721569923,39176
-44.59221723330904,32527
-42.10904410250669,29550
-39.62655762838392,27015
-37.14475761595372,27486
-34.66364387015028,36137
-32.18321619582866,45828
-29.70347439776515,56375
-27.224418280657005,65025
-24.74604764912317,65025
-22.26836230770266,65025
-19.7913620608565,65025
-17.315046712966478,65025
-14.83941606833514,65025
-12.36446993118659,65025
-9.89020810566592,65025
-7.416630395839093,65025
-4.94373660569363,65025
-2.471526539137585,65025
-6.821210263296962E-13,65025
2.47084320796705,65025
4.941003281093458,65025
7.410480415786196,65025
9.879274808531363,65025
12.347386655893956,65025
14.814816154518212,65025
17.28156350112681,65025
19.74762889252179,65025
22.21301252558385,61878
24.67771459727237,13433
27.141735304626195,12900
29.605074844762612,13330
32.06773341487792,11817
34.52971121224755,10900
36.99100843422559,11754
39.45162527824516,10296
41.91156194181792,9786
44.370818622535126,8136
46.82939551806646,8968
49.287292826160524,8980
51.74451074464503,8806
54.201049471426245,5967
56.65690920448981,4879
59.112090141899785,5390
61.56659248179983,5098
64.02041642241159,4907
66.4735621620365,6199
68.92602989905402,7357
71.37781983192338,7452
73.82893215918205,7094
76.27936707944684,6895
78.72912479141326,5866
81.17820549385567,6093
83.62660938562783,6259
86.07433666566146,6719
88.5213875329681,4685
90.96776218663751,4232
93.41346082583925,3846
95.85848364982041,4008
98.30283085790859,5325
100.7465026495089,5969
103.18949922410604,5350
105.63182078126385,3559
108.07346752062438,3029
110.51443964190923,2541
112.95473734491827,2925
115.39436082953114,3762
117.83331029570547,4672
120.27158594347827,3722
122.7091879729652,3259
125.1461165843615,3405
127.58237197794062,4189
130.01795435405518,3886
132.4528639131364,3349
134.88710085569494,4015
137.32066538231982,4227
139.75355769367923,3431
142.1857779905207,3177
144.61732647366978,3042
147.04820334403132,2857
149.47840880258934,2318
151.90794305040674,2654
154.33680628862487,2585
156.76499871846443,2597
159.19252054122433,2654
161.61937195828352,2875
164.04555317109896,3100
166.47106438120693,3263
168.89590579022217,3237
171.320077599839,3483
173.7435800118302,3602
176.16641322804742,3849
178.58857745042144,3721
181.01007288096173,3689
183.43089972175687,3825
185.85105817497413,3418
188.27054844285988,2975
190.6893707277394,3344
193.10752523201643,3473
195.5250121581745,3445
197.9418317087751,3174
200.3579840864594,3508
202.7734694939469,3777
205.18828813403627,3575
207.6024402096051,3413
210.01592592360964,3500
212.42874547908548,3351
214.84089907914665,3304
217.2523869269868,3317
219.66320922587727,3214
222.0733661791695,3151
224.48285799029293,3439
226.8916848627572,3503
229.29984700014882,3124
231.7073446061355,3248
234.11417788446204,3325
236.520347038953,3443
238.92585227351185,3667
241.33069379212054,3441
243.73487179884035,3362
246.1383864978112,3447
248.541238093252,3573
250.9434267894609,3786
253.34495279081432,3446
255.74581630176783,3465
258.1460175268563,3506
260.54555667069314,3555
262.9444339379703,3901
265.3426495334594,4047
267.7402036620107,3772
270.1370965285529,3468
272.53332833809407,3291
274.9288992957214,3353
277.32380960660055,3507
279.718059475976,3258
282.1116491091717,2903
284.5045787115897,2877
286.89684848871195,3003
289.2884586460981,3066
291.67940938938807,3096
294.0697009242996,2997
296.4593334566299,3232
298.84830719225477,3239
301.23662233712923,3038
303.6242790972866,2885
306.01127767884,2870
308.39761828798066,3002
310.78330113097934,2691
313.16832641418534,2675
315.5526943440269,2775
317.9364051270112,2803
320.3194589697242,2778
322.70185607883093,2558
325.0835966610754,2590
327.4646809232805,2572
329.8451090723478,2626
332.2248813152577,2622
334.6039978590701,2647
336.9824589109231,2453
339.36026467803447,2384
341.7374153677,2520
344.113911187295,2462
346.48975234427337,2541
348.8649390461686,2434
351.2394715005918,2409
353.61334991523415,2376
355.9865744978655,2393
358.35914545633375,2365
360.73106299856715,2394
363.10232733257146,2477
365.47293866643247,2478
367.84289720831396,2335
370.2122031664593,2280
372.5808567491905,2300
374.9488581649083,2286
377.31620762209275,2188
379.6829053293021,2254
382.0489514951745,2283
384.4143463284262,2425
386.7790900378528,2282
389.14318283232853,2350
391.50662492080653,2566
393.86941651231916,2474
396.23155781597745,2604
398.5930490409713,2572
400.9538903965696,2474
403.3140820921202,2268
405.6736243370498,2140
408.03251734086336,2243
410.3907613131465,2151
412.74835646356166,2223
415.10530300185144,2162
417.4616011378372,2221
419.81725108141893,2246
422.1722530425758,2242
424.5266072313656,2240
426.880313857925,2125
429.2333731324701,2165
431.58578526529516,2180
433.9375504667738,2006
436.2886689473588,2117
438.63914091758113,2113
440.9889665880513,2027
443.33814616945835,2017
445.68667987257015,2107
448.03456790823395,2055
450.3818104873759,2123
452.72840782100013,2218
455.07436012019105,2128
457.41966759611057,2019
459.7643304600007,2090
462.10834892318155,2050
464.4517231970525,2062
466.79445349309174,2064
469.1365400228566,2188
471.4779829979826,2216
473.81878263018564,2156
476.15893913125876,2242
478.4984527130747,2393
480.8373235875855,2271
483.17555196682144,2305
485.5131380628919,2446
487.8500820879857,2460
490.1863842543697,2607
492.52204477439034,2960
494.8570638604725,3362
497.1914417251204,3871
499.52517858091653,4436
501.85827464052306,4830
504.19073011668036,5103
506.5225452222086,5028
508.85372017000566,5273
511.18425517304956,5665
513.514150444396,7226
515.8434061971808,9035
518.1720226446176,9422
520.4999999999999,9054
522.8273384766991,8318
525.1540382881666,7205
527.480099647932,5968
529.8055227696037,4161
532.1303078668694,2970
534.454455153496,2749
536.777964843328,2516
539.1008371502907,2389
541.4230722883866,2469
543.744670471698,2302
546.0656319143858,2283
548.3859568306899,2258
550.7056454349294,2333
553.0246979415016,2556
555.3431145648834,2310
557.6608955196306,2151
559.978041020377,2341
562.2945512818363,2362
564.6104265188006,2235
566.9256669461412,2218
569.2402727788082,2243
571.5542442318302,2469
573.8675815203156,2209
576.1802848594508,2247
578.4923544645015,2196
580.8037905508126,2213
583.114593333807,2102
585.4247630289875,2215
587.7342998519354,2210
590.0432040183106,2251
592.3514757438526,2168
594.6591152443794,2152
596.9661227357875,2108
599.2724984340531,2187
601.578242555231,2205
603.8833553154542,2191
606.1878369309362,2159
608.4916876179676,2056
610.7949075929192,2140
613.0974970722403,2111
615.3994562724587,2025
617.7007854101818,2108
620.0014847020951,2164
622.3015543649641,2112
624.6009946156324,2132
626.8998056710224,2104
629.1979877481361,2078
631.4955410640538,2064
633.7924658359349,2072
636.0887622810175,2103
638.3844306166192,2085
640.6794710601358,2191
642.9738838290426,2181
645.2676691408932,2231
647.5608272133207,2056
649.853358264037,2135
652.1452625108324,2161
654.4365401715764,2166
656.7271914642178,2287
659.0172166067838,2297
661.3066158173809,2190
663.5953893141935,2168
665.8835373154867,2184
668.1710600396028,2339
670.4579577049639,2275
672.7442305300709,2108
675.0298787335033,2076
677.3149025339197,2135
679.599302150058,2165
681.8830778007342,2278
684.1662297048437,2180
686.4487580813608,2195
688.7306631493387,2189
691.0119451279091,2218
693.2926042362834,2155
695.5726406937516,2177
697.8520547196814,2234
700.1308465335215,2135
702.4090163547982,2046
704.6865644031171,2100
706.9634908981619,2130
709.2397960596965,2098
711.5154801075631,2198
713.7905432616823,2184
716.0649857420548,2087
718.3388077687592,2087
720.612009561953,2127
722.8845913418733,2070
725.1565533288352,2038
727.427895743234,2073
729.6986188055427,2031
731.9687227363137,2128
734.238207756178,2128
736.5070740858458,2109
738.7753219461066,2068
741.0429515578281,2138
743.3099631419569,2082
745.5763569195191,2038
747.8421331116193,2073
750.1072919394409,2085
752.3718336242467,2131
754.6357583873777,2137
756.8990664502545,2149
759.1617580343765,2088
761.423833361321,2056
763.6852926527457,2049
765.9461361303862,2065
768.206364016058,2069
770.4659765316536,2228
772.7249738991469,2148
774.9833563405886,2072
777.2411240781092,2105
779.4982773339183,2107
781.7548163303044,2131
784.010741289634,2130
786.2660524343538,2169
788.5207499869881,2249
790.7748341701416,2209
793.0283052064964,2236
795.2811633188143,2116
797.5334087299362,2193
799.7850416627813,2236
802.0360623403484,2255
804.2864709857143,2259
806.5362678220353,2181
808.7854530725468,2069
811.0340269605625,2172
813.2819897094754,2273
815.5293415427581,2190
817.77608268396,2201
820.0222133567116,2036
822.2677337847211,2201
824.5126441917765,2284
826.7569448017433,2164
829.0006358385675,2104
831.2437175262731,2157
833.4861900889629,2101
835.7280537508192,2050
837.9693087361026,2113
840.2099552691533,2044
842.4499935743896,2047
844.689423876309,2135
846.9282463994886,2115
849.1664613685833,1993
851.4040690083276,2065
853.6410695435349,2124
855.877463199097,2125
858.1132501999847,2135
860.3484307712487,2183
862.5830051380175,2144
864.8169735254988,2088
867.0503361589791,2104
869.2830932638243,2181
871.5152450654786,2051
873.7467917894654,2107
875.9777336613873,2212
878.2080709069252,2122
880.4378037518389,2160
882.666932421968,2158
884.8954571432301,2273
887.1233781416219,2413
889.3506956432192,2128
891.5774098741766,2166
893.803521060728,2158
896.0290294291852,2114
898.2539352059397,2155
900.4782386174619,2201
902.7019398903011,2155
904.925039251085,2146
907.147536926521,2128
909.3694331433943,2165
911.59072812857,2282
913.8114221089921,2113
916.0315153116827,2107
918.2510079637437,2146
920.4699002923547,2120
922.6881925247761,2130
924.905884888345,2174
927.1229776104793,2157
929.3394709186747,2146
931.555365040506,2095
933.7706602036275,2127
935.9853566357709,2279
938.1994545647489,2344
940.4129542184515,2298
942.6258558248488,2252
944.8381596119883,2343
947.0498658079974,2278
949.2609746410825,2245
951.4714863395287,2186
953.6814011316998,2286
955.8907192460387,2168
958.0994409110671,2302
960.3075663553858,2374
962.5150958076741,2373
964.7220294966913,2302
966.928367651274,2157
969.1341105003388,2137
971.3392582728806,2161
973.5438111979742,2169
975.747769504772,2199
977.9511334225061,2079
980.153903180487,2218
982.3560790081052,2219
984.5576611348289,2244
986.7586497902058,2161
988.9590452038618,2096
991.158847605503,2049
993.3580572249133,1987
995.5566742919558,1973
997.7546990365728,1905
999.952131688785,1807
1002.1489724786926,1823
1004.3452216364743,1756
1006.5408793923874,1768
1008.7359459767691,1735
1010.9304216200343,1713
1013.1243065526781,1721
1015.3176010052733,1749
1017.510305208472,1706
1019.7024193930064,1796
1021.8939437896848,1868
1024.0848786293977,1685
1026.2752241431122,1708
1028.4649805618747,1666
1030.6541481168115,1660
1032.842727039127,1614
1035.0307175601051,1691
1037.2181199111074,1723
1039.4049343235752,1680
1041.591161029029,1643
1043.7768002590683,1695
1045.9618522453698,1642
1048.1463172196918,1719
1050.3301954138697,1663
1052.513487059818,1661
1054.69619238953,1608
1056.8783116350783,1598
1059.0598450286152,1758
1061.2407928023704,1700
1063.4211551886528,1623
1065.6009324198508,1582
1067.780124728432,1621
1069.9587323469414,1590
1072.1367555080046,1558
1074.314194444325,1601
1076.4910493886855,1677
1078.667320573947,1510
1080.843008233051,1616
1083.0181125990161,1568
1085.1926339049414,1580
1087.3665723840027,1569
1089.5399282694575,1568
1091.7127017946405,1502
1093.8848931929647,1553
1096.0565026979243,1588
1098.2275305430899,1575
1100.3979769621128,1545
1102.567842188722,1520
1104.737126456726,1492
1106.9058300000124,1537
1109.0739530525475,1542
1111.2414958483764,1547
1113.4084586216231,1495
1115.5748416064907,1507
1117.7406450372605,1618
1119.9058691482942,1545
1122.0705141740304,1512
1124.2345803489884,1533
1126.3980679077658,1510
1128.5609770850388,1462
1130.7233081155623,1451
1132.8850612341707,1471
1135.0462366757774,1478
1137.2068346753745,1498
1139.3668554680326,1473
1141.526299288901,1498
1143.68516637321,1483
1145.8434569562655,1476
1148.001171273455,1572
1150.158309560244,1447
1152.3148720521767,1463
1154.470858984876,1554
1156.626270594044,1515
1158.7811071154629,1508
1160.9353687849912,1493
1163.089055838569,1558
1165.242168512213,1554
1167.3947070420209,1481
1169.5466716641677,1549
1171.6980626149075,1595
1173.8488801305748,1577
1175.9991244475814,1492
1178.1487958024186,1492
1180.2978944316555,1497
1182.4464205719428,1501
1184.5943744600072,1482
1186.7417563326567,1466
1188.8885664267755,1471
1191.0348049793297,1407
1193.1804722273619,1468
1195.325568407995,1535
1197.4700937584303,1476
1199.614048515948,1494
1201.7574329179074,1481
1203.900247201746,1484
1206.042491604982,1473
1208.1841663652099,1490
1210.3252717201053,1474
1212.465807907422,1536
1214.6057751649923,1505
1216.7451737307279,1513
1218.8840038426192,1596
1221.0222657387353,1604
1223.1599596572241,1556
1225.2970858363137,1494
1227.4336445143094,1513
1229.5696359295966,1499
1231.705060320639,1528
1233.8399179259786,1551
1235.9742089842384,1540
1238.107933734118,1619
1240.2410924143974,1565
1242.373685263935,1535
1244.5057125216676,1491
1246.6371744266116,1519
1248.7680712178621,1555
1250.898403134593,1563
1253.028170416058,1604
1255.1573733015875,1513
1257.2860120305932,1542
1259.4140868425648,1631
1261.54159797707,1608
1263.6685456737569,1587
1265.7949301723515,1653
1267.9207517126597,1540
1270.046010534565,1551
1272.1707068780306,1608
1274.2948409830983,1560
1276.4184130898889,1687
1278.541423438603,1640
1280.6638722695184,1604
1282.785759822993,1566
1284.9070863394636,1578
1287.0278520594447,1603
1289.1480572235314,1615
1291.2677020723963,1648
1293.3867868467923,1725
1295.5053117875495,1624
1297.623277135579,1622
1299.740683131868,1599
1301.8575300174857,1695
1303.973818033578,1672
1306.0895474213703,1705
1308.2047184221678,1690
1310.3193312773528,1733
1312.4333862283888,1659
1314.5468835168163,1698
1316.659823384255,1703
1318.7722060724045,1705
1320.8840318230418,1683
1322.9953008780249,1688
1325.1060134792888,1688
1327.2161698688478,1679
1329.3257702887959,1705
1331.4348149813054,1637
1333.5433041886276,1611
1335.6512381530933,1682
1337.7586171171101,1669
1339.8654413231675,1665
1341.9717110138317,1635
1344.0774264317488,1644
1346.1825878196432,1664
1348.2871954203192,1654
1350.3912494766587,1659
1352.4947502316231,1649
1354.5976979282532,1670
1356.7000928096686,1590
1358.8019351190665,1637
1360.9032250997243,1596
1363.0039629949988,1570
1365.1041490483235,1544
1367.2037835032133,1583
1369.3028666032606,1607
1371.401398592137,1651
1373.4993797135926,1592
1375.5968102114575,1611
1377.6936903296396,1646
1379.7900203121262,1633
1381.8858004029835,1646
1383.9810308463561,1610
1386.075711886469,1634
1388.1698437676241,1652
1390.2634267342032,1595
1392.356461030667,1694
1394.4489469015557,1640
1396.5408845914872,1581
1398.6322743451592,1628
1400.7231164073469,1612
1402.813411022907,1634
1404.903158436773,1645
1406.9923588939578,1665
1409.0810126395531,1674
1411.1691199187303,1653
1413.2566809767386,1608
1415.343696058907,1630
1417.4301654106425,1727
1419.5160892774315,1687
1421.6014679048399,1654
1423.6863015385125,1665
1425.7705904241707,1701
1427.8543348076178,1663
1429.9375349347342,1693
1432.0201910514802,1655
1434.102303403894,1682
1436.1838722380944,1730
1438.2648978002767,1729
1440.3453803367174,1668
1442.4253200937692,1750
1444.5047173178677,1816
1446.5835722555234,1791
1448.6618851533285,1789
1450.739656257952,1748
1452.8168858161434,1815
1454.8935740747306,1789
1456.96972128062,1843
1459.045327680797,1773
1461.120393522327,1822
1463.1949190523528,1892
1465.2689045180973,1785
1467.3423501668608,1813
1469.415256246024,1832
1471.4876230030463,1843
1473.559450685465,1902
1475.6307395408976,1978
1477.7014898170391,2006
1479.771701761665,1989
1481.8413756226287,1965
1483.9105116478618,1950
1485.9791100853772,1998
1488.0471711832643,1891
1490.1146951896926,1911
1492.1816823529098,2019
1494.2481329212433,1955
1496.3140471430984,2041
1498.3794252669609,2010
1500.4442675413939,2045
1502.5085742150404,2052
1504.572345536622,2035
1506.6355817549388,2084
1508.6982831188702,2016
1510.7604498773744,2054
1512.8220822794883,2051
1514.8831805743293,2066
1516.9437450110909,2057
1519.003775839048,2064
1521.0632733075522,2046
1523.1222376660367,2046
1525.1806691640113,1995
1527.2385680510652,2062
1529.2959345768668,2087
1531.3527689911643,2032
1533.4090715437833,2060
1535.4648424846291,2078
1537.5200820636855,2088
1539.5747905310159,2098
1541.6289681367616,2141
1543.6826151311434,2209
1545.7357317644614,2198
1547.7883182870937,2190
1549.8403749494987,2240
1551.8919020022113,2341
1553.9428996958477,2359
1555.9933682811015,2443
1558.0433080087469,2365
1560.0927191296346,2380
1562.1416018946961,2404
1564.1899565549415,2406
1566.2377833614592,2440
1568.2850825654164,2401
1570.3318544180606,2450
1572.3780991707158,2369
1574.423817074788,2212
1576.4690083817595,2217
1578.5136733431923,2179
1580.5578122107272,2132
1582.601425236085,2121
1584.6445126710646,2104
1586.6870747675434,2030
1588.7291117774776,1949
1590.7706239529034,1937
1592.8116115459347,1871
1594.8520748087658,1900
1596.8920139936686,1808
1598.9314293529933,1843
1600.9703211391711,1766
1603.008689604711,1659
1605.0465350022005,1779
1607.0838575843068,1816
1609.1206576037753,1629
1611.1569353134305,1666
1613.1926909661765,1678
1615.2279248149953,1675
1617.2626371129481,1606
1619.2968281131757,1595
1621.3304980688963,1623
1623.3636472334088,1632
1625.39627586009,1593
1627.428384202396,1565
1629.459972513861,1567
1631.4910410480993,1646
1633.5215900588028,1580
1635.551619799744,1539
1637.5811305247717,1551
1639.6101224878166,1445
1641.6385959428862,1518
1643.6665511440683,1509
1645.693988345528,1507
1647.7209078015112,1510
1649.7473097663405,1518
1651.7731944944203,1547
1653.7985622402307,1551
1655.823413258333,1514
1657.847747803366,1496
1659.8715661300494,1515
1661.8948684931793,1564
1663.9176551476316,1570
1665.9399263483624,1498
1667.9616823504057,1486
1669.982923408873,1461
1672.0036497789574,1515
1674.0238617159293,1488
1676.043559475138,1458
1678.0627433120121,1477
1680.081413482059,1572
1682.0995702408654,1506
1684.117213844096,1481
1686.134344547495,1526
1688.1509626068864,1499
1690.1670682781705,1440
1692.182661817329,1510
1694.1977434804217,1502
1696.2123135235875,1520
1698.226372203043,1592
1700.2399197750851,1593
1702.2529564960905,1549
1704.2654826225112,1468
1706.277498410882,1447
1708.2890041178139,1461
1710.2999999999988,1521
1712.3104863142066,1464
1714.3204633172854,1453
1716.329931266163,1448
1718.3388904178469,1478
1720.3473410294214,1544
1722.3552833580516,1474
1724.3627176609807,1504
1726.3696441955308,1490
1728.3760632191033,1448
1730.3819749891782,1488
1732.3873797633146,1469
1734.3922777991502,1465
1736.3966693544012,1425
1738.4005546868639,1433
1740.4039340544127,1454
1742.406807715001,1493
1744.4091759266616,1450
1746.4110389475054,1458
1748.4123970357223,1462
1750.413250449582,1421
1752.4135994474318,1377
1754.4134442876993,1389
1756.4127852288902,1456
1758.4116225295893,1488
1760.4099564484595,1461
1762.407787244244,1535
1764.405115175764,1386
1766.4019405019203,1438
1768.3982634816916,1419
1770.3940843741357,1462
1772.3894034383907,1468
1774.3842209336717,1495
1776.378537119274,1413
1778.372352254571,1406
1780.3656665990156,1443
1782.3584804121397,1389
1784.3507939535534,1418
1786.3426074829463,1430
1788.3339212600863,1362
1790.3247355448211,1379
1792.3150505970766,1451
1794.3048666768573,1408
1796.2941840442477,1455
1798.2830029594106,1444
1800.2713236825884,1450
1802.2591464741004,1449
1804.2464715943465,1403
1806.2332993038058,1420
1808.2196298630352,1449
1810.2054635326708,1409
1812.190800573428,1371
1814.175641246101,1392
1816.1599858115628,1389
1818.1438345307652,1446
1820.127187664738,1432
1822.1100454745924,1443
1824.092408221516,1406
1826.0742761667766,1403
1828.055649571721,1408
1830.0365286977735,1415
1832.0169138064398,1421
1833.9968051593014,1436
1835.9762030180214,1501
1837.9551076443408,1503
1839.9335193000788,1433
1841.9114382471344,1386
1843.888864747485,1376
1845.8657990631878,1386
1847.842241456378,1358
1849.8181921892697,1392
1851.7936515241558,1453
1853.7686197234098,1400
1855.7430970494815,1362
1857.7170837649014,1425
1859.6905801322787,1368
1861.6635864143004,1459
1863.6361028737338,1435
1865.608129773424,1417
1867.5796673762961,1405
1869.5507159453537,1445
1871.521275743678,1426
1873.4913470344313,1429
1875.4609300808534,1492
1877.4300251462632,1404
1879.3986324940588,1407
1881.366752387717,1420
1883.3343850907936,1423
1885.3015308669228,1464
1887.268189979819,1458
1889.2343626932739,1416
1891.2000492711595,1426
1893.1652499774254,1486
1895.1299650761011,1439
1897.0941948312952,1441
1899.0579395071945,1476
1901.0211993680641,1475
1902.98397467825,1439
1904.9462657021745,1471
1906.9080727043415,1442
1908.869395949332,1471
1910.8302357018065,1418
1912.790592226504,1408
1914.7504657882428,1393
1916.7098566519212,1451
1918.6687650825133,1438
1920.6271913450764,1349
1922.5851357047422,1376
1924.5425984267245,1421
1926.499579776314,1486
1928.4560800188833,1429
1930.4120994198802,1437
1932.367638244833,1541
1934.32269675935,1501
1936.2772752291175,1466
1938.231373919899,1419
1940.1849930975404,1439
1942.1381330279637,1477
1944.0907939771696,1481
1946.0429762112412,1474
1947.9946799963363,1463
1949.9459055986945,1455
1951.896653284633,1402
1953.8469233205478,1372
1955.7967159729142,1388
1957.7460315082863,1403
1959.6948701932974,1409
1961.6432322946594,1379
1963.5911180791632,1389
1965.5385278136787,1392
1967.4854617651545,1479
1969.4319202006182,1430
1971.377903387176,1473
1973.3234115920136,1446
1975.268445082395,1397
1977.2130041256642,1437
1979.1570889892423,1495
1981.1006999406304,1389
1983.04383724741,1408
1984.986501177238,1482
1986.928691997853,1456
1988.8704099770712,1456
1990.811655382789,1418
1992.7524284829801,1430
1994.692729545698,1444
1996.6325588390755,1429
1998.5719166313224,1447
2000.5108031907307,1423
2002.4492187856677,1380
2004.387163684583,1418
2006.3246381560011,1375
2008.2616424685298,1405
2010.1981768908527,1437
2012.1342416917332,1400
2014.069837140014,1336
2016.0049635046162,1434
2017.9396210545406,1394
2019.8738100588666,1431
2021.8075307867502,1386
2023.740783507431,1459
2025.6735684902228,1438
2027.6058860045214,1415
2029.5377363198004,1417
2031.4691197056118,1424
2033.4000364315875,1421
2035.3304867674374,1436
2037.260470982952,1414
2039.189989347998,1390
2041.1190421325232,1429
2043.047629606554,1365
2044.9757520401945,1413
2046.9034097036288,1375
2048.8306028671195,1353
2050.7573318010086,1393
2052.683596775716,1372
2054.609398061742,1399
2056.5347359296647,1439
2058.4596106501403,1423
2060.384022493906,1381
2062.3079717317764,1401
2064.231458634646,1382
2066.1544834734873,1381
2068.077046519352,1403
2069.99914804337,1451
2071.9207883167524,1409
2073.8419676107865,1405
2075.7626861968406,1430
2077.6829443463607,1415
2079.6027423308715,1388
2081.522080421977,1393
2083.440958891362,1387
2085.359378010786,1385
2087.2773380520907,1338
2089.194839287196,1401
2091.111881988101,1411
2093.0284664268825,1400
2094.9445928756973,1355
2096.86026160678,1359
2098.775472892446,1383
2100.690227005088,1398
2102.604524217178,1444
2104.5183648012676,1409
2106.431749029985,1427
2108.34467717604,1335
2110.2571495122206,1444
2112.169166311393,1428
2114.080727846503,1450
2115.9918343905747,1380
2117.902486216711,1396
2119.8126835980956,1350
2121.722426807987,1433
2123.6317161197285,1374
2125.5405518067364,1381
2127.448934142509,1448
2129.356863400624,1451
2131.264339854737,1422
2133.1713637785815,1442
2135.077935445972,1359
2136.9840551308002,1432
2138.889723107037,1398
2140.7949396487334,1354
2142.699705030018,1440
2144.6040195250994,1406
2146.507883408264,1401
2148.4112969538774,1468
2150.3142604363848,1377
2152.2167741303097,1431
2154.1188383102535,1422
2156.0204532508997,1512
2157.9216192270064,1437
2159.822336513414,1405
2161.7226053850413,1425
2163.622426116884,1396
2165.5217989840185,1460
2167.4207242616,1454
2169.319202224862,1422
2171.2172331491165,1454
2173.1148173097563,1495
2175.0119549822507,1443
2176.90864644215,1365
2178.8048919650823,1472
2180.7006918267534,1419
2182.596046302952,1413
2184.4909556695407,1437
2186.3854202024645,1394
2188.279440177746,1409
2190.173015871487,1417
2192.066147559868,1505
2193.958835519149,1424
2195.851080025667,1465
2197.7428813558417,1431
2199.6342397861667,1455
2201.5251555932186,1455
2203.415629053651,1455
2205.3056604441986,1427
2207.19525004167,1399
2209.084398122958,1438
2210.9731049650327,1429
2212.861370844941,1493
2214.749196039812,1457
2216.636580826851,1481
2218.523525483344,1418
2220.410030286655,1426
2222.296095514226,1497
2224.1817214435805,1466
2226.066908352319,1479
2227.951656518121,1463
2229.835966218746,1426
2231.71983773203,1460
2233.6032713358913,1498
2235.486267308324,1449
2237.3688259274036,1489
2239.2509474712824,1427
2241.132632218193,1441
2243.013880446447,1452
2244.8946924344323,1494
2246.7750684606203,1463
2248.6550088035574,1414
2250.534513741871,1484
2252.413583554265,1404
2254.292218519526,1449
2256.170418916517,1448
2258.0481850241786,1384
2259.925517121534,1462
2261.8024154876825,1413
2263.678880401803,1442
2265.5549121431536,1434
2267.430510991071,1483
2269.305677224971,1415
2271.180411124348,1438
2273.0547129687766,1414
2274.9285830379076,1420
2276.8020216114737,1412
2278.6750289692845,1417
2280.5476053912294,1416
2282.4197511572766,1497
2284.2914665474727,1468
2286.162751841943,1484
2288.0336073208937,1469
2289.904033264608,1408
2291.774029953448,1431
2293.6435976678554,1450
2295.5127366883517,1401
2297.381447295534,1338
2299.2497297700825,1353
2301.1175843927526,1360
2302.9850114443825,1368
2304.852011205885,1369
2306.7185839582553,1383
2308.5847299825664,1278
2310.4504495599676,1273
2312.3157429716925,1322
2314.1806104990483,1301
2316.0450524234247,1268
2317.9090690262888,1254
2319.772660589186,1335
2321.635827393742,1260
2323.498569721661,1263
2325.3608878547248,1228
2327.2227820747967,1242
2329.0842526638157,1295
2330.945299903803,1284
2332.805924076857,1265
2334.6661254651535,1289
2336.525904350951,1261
2338.3852610165827,1293
2340.244195744464,1231
2342.102708817088,1237
2343.9608005170253,1281
2345.8184711269287,1257
2347.675720929526,1273
2349.532550207628,1259
2351.38895924412,1296
2353.24494832197,1254
2355.100517724223,1304
2356.955667734004,1289
2358.810398634514,1347
2360.664710709037,1337
2362.5186042409337,1293
2364.3720795136437,1246
2366.225136810686,1316
2368.0777764156583,1262
2369.929998612237,1266
2371.7818036841777,1321
2373.633191915315,1365
2375.484163589562,1259
2377.3347189909114,1295
2379.184858403434,1263
2381.03458211128,1238
2382.8838903986775,1320
2384.732783549936,1367
2386.5812618494406,1333
2388.4293255816588,1277
2390.2769750311327,1245
2392.1242104824883,1260
2393.971032220427,1304
2395.8174405297295,1287
2397.6634356952563,1319
2399.509018001947,1283
2401.3541877348193,1242
2403.1989451789705,1305
2405.043290619576,1342
2406.8872243418905,1295
2408.730746631247,1245
2410.5738577730594,1286
2412.4165580528183,1296
2414.258847756095,1303
2416.100727168537,1304
2417.9421965758734,1292
2419.783256263912,1287
2421.623906518538,1284
2423.4641476257157,1304
2425.303979871491,1297
2427.143403541984,1319
2428.9824189233977,1301
2430.821026302012,1288
2432.6592259641866,1354
2434.497018196361,1254
2436.33440328505,1328
2438.171381516851,1339
2440.00795317844,1266
2441.844118556569,1297
2443.6798779380724,1317
2445.5152316098606,1231
2447.3501798589255,1316
2449.1847229723357,1370
2451.0188612372403,1302
2452.8525949408663,1313
2454.6859243705203,1341
2456.518849813587,1271
2458.3513715575314,1303
2460.183489889895,1305
2462.015205098301,1329
2463.8465174704493,1298
2465.67742729412,1283
2467.5079348571717,1420
2469.338040447542,1277
2471.1677443532476,1250
2472.9970468623833,1360
2474.825948263123,1284
2476.6544488437207,1324
2478.482548892508,1274
2480.310248697896,1298
2482.137548548374,1343
2483.9644487325118,1273
2485.790949538956,1291
2487.617051256433,1264
2489.44275417375,1215
2491.26805857979,1326
2493.0929647635157,1293
2494.917473013971,1302
2496.741583620276,1254
2498.5652968716304,1376
2500.3886130573137,1322
2502.2115324666834,1336
2504.0340553891765,1295
2505.856182114308,1360
2507.6779129316733,1365
2509.499248130945,1320
2511.3201880018764,1378
2513.140732834298,1341
2514.9608829181198,1297
2516.780638543331,1384
2518.6,1298
2520.418967578273,1402
2522.237541568376,1373
2524.0557222606144,1353
2525.8735099453706,1367
2527.6909049131086,1406
2529.507907454368,1373
2531.32451785977,1340
2533.140736420014,1357
2534.9565634258774,1361
2536.771999168218,1391
2538.5870439379714,1391
2540.4016980261526,1387
2542.2159617238544,1366
2544.02983532225,1364
2545.8433191125914,1384
2547.656413386209,1390
2549.4691184345115,1404
2551.2814345489874,1369
2553.093362021204,1406
2554.904901142808,1396
2556.716052205523,1441
2558.526815501153,1449
2560.3371913215824,1489
2562.147179958771,1442
2563.956781704761,1378
2565.7659968516705,1417
2567.5748256916986,1477
2569.3832685171224,1423
2571.1913256202984,1432
2572.9989972936614,1389
2574.806283829725,1411
2576.613185521084,1420
2578.4197026604074,1444
2580.2258355404483,1467
2582.031584454035,1405
2583.836949694077,1450
2585.6419315535613,1462
2587.4465303255533,1430
2589.2507463032002,1474
2591.0545797797245,1408
2592.8580310484303,1410
2594.6611004026995,1405
2596.463788135992,1440
2598.266094541849,1499
2600.0680199138874,1482
2601.869564545807,1466
2603.670728731383,1422
2605.4715127644704,1420
2607.2719169390048,1404
2609.071941548998,1445
2610.8715868885433,1442
2612.670853251811,1456
2614.469740933052,1440
2616.268250226594,1428
2618.0663814268455,1389
2619.864134828292,1477
2621.6615107255006,1459
2623.458509413115,1377
2625.2551311858597,1447
2627.0513763385347,1395
2628.8472451660223,1446
2630.6427379632833,1440
2632.4378550253564,1435
2634.232596647359,1405
2636.026963124488,1377
2637.8209547520187,1411
2639.6145718253065,1385
2641.407814639785,1368
2643.200683490966,1367
2644.9931786744414,1403
2646.7853004858807,1465
2648.577049221034,1428
2650.3684251757277,1382
2652.1594286458712,1380
2653.9500599274484,1341
2655.740319316525,1356
2657.5302071092437,1337
2659.3197236018286,1308
2661.10886909058,1341
2662.8976438718782,1362
2664.686048242183,1374
2666.4740824980327,1356
2668.2617469360443,1312
2670.0490418529134,1321
2671.8359675454153,1334
2673.622524310403,1341
2675.408712444811,1302
2677.1945322456495,1301
2678.979984010009,1349
2680.76506803506,1285
2682.5497846180497,1253
2684.334134056306,1268
2686.1181166472343,1309
2687.9017326883213,1290
2689.6849824771293,1272
2691.4678663113013,1307
2693.2503844885596,1376
2695.032537306705,1326
2696.8143250636167,1341
2698.5957480572542,1322
2700.3768065856534,1276
2702.1575009469316,1297
2703.937831439283,1279
2705.717798360982,1237
2707.4974020103837,1269
2709.276642685917,1314
2711.055520686095,1315
2712.834036309506,1239
2714.612189854819,1306
2716.389981620782,1265
2718.1674119062204,1251
2719.944481010041,1270
2721.721189231226,1275
2723.4975368688415,1273
2725.273524222027,1267
2727.0491515900053,1249
2728.824419272075,1260
2730.5993275676146,1288
2732.3738767760838,1279
2734.148067197016,1283
2735.921899130031,1219
2737.6953728748194,1213
2739.468488731156,1267
2741.2412469988926,1257
2743.0136479779617,1264
2744.785691968372,1279
2746.5573792702116,1290
2748.3287101836504,1189
2750.099685008934,1284
2751.870304046388,1246
2753.640567596418,1269
2755.4104759595057,1280
2757.1800294362156,1300
2758.949228327187,1301
2760.7180729331412,1295
2762.486563554877,1283
2764.254700493272,1255
2766.022484049284,1243
2767.789914523947,1243
2769.5569922183786,1249
2771.3237174337705,1207
2773.090090471394,1272
2774.8561116326036,1270
2776.6217812188274,1289
2778.3870995315756,1256
2780.1520668724356,1237
2781.9166835430747,1243
2783.6809498452394,1251
2785.444866080754,1309
2787.2084325515225,1219
2788.971649559527,1256
2790.73451740683,1246
2792.4970363955713,1296
2794.2592068279705,1280
2796.0210290063264,1199
2797.7825032330147,1303
2799.543629810493,1235
2801.304409041296,1246
2803.0648412280366,1283
2804.8249266734088,1216
2806.5846656801846,1203
2808.344058551212,1235
2810.1031055894246,1256
2811.8618070978273,1293
2813.6201633795085,1246
2815.378174737636,1246
2817.1358414754536,1269
2818.893163896285,1264
2820.6501423035334,1272
2822.4067770006814,1219
2824.1630682912883,1326
2825.9190164789957,1266
2827.6746218675207,1303
2829.429884760661,1254
2831.184805462294,1245
2832.9393842763743,1338
2834.693621506936,1258
2836.4475174580916,1312
2838.201072434034,1289
2839.954286739034,1260
2841.707160677441,1193
2843.459694553685,1228
2845.2118886722724,1289
2846.96374333779,1225
2848.7152588549034,1262
2850.4664355283567,1277
2852.217273662973,1279
2853.9677735636546,1260
2855.7179355353833,1238
2857.4677598832186,1225
2859.217246912299,1233
2860.9663969278427,1251
2862.715210235146,1249
2864.4636871395846,1262
2866.211827946614,1229
2867.9596329617652,1242
2869.7071024906536,1192
2871.4542368389684,1257
2873.20103631248,1266
2874.947501217038,1241
2876.6936318585695,1206
2878.4394285430812,1320
2880.1848915766604,1299
2881.9300212654707,1305
2883.6748179157553,1275
2885.4192818338374,1291
2887.1634133261173,1243
2888.907212699077,1222
2890.6506802592744,1261
2892.393816313348,1260
2894.1366211680142,1247
2895.8790951300693,1245
2897.621238506388,1230
2899.363051603925,1232
2901.1045347297118,1236
2902.8456881908596,1289
2904.58651229456,1198
2906.327007348081,1189
2908.067173658772,1235
2909.8070115340597,1223
2911.5465212814497,1229
2913.285703208527,1301
2915.0245576229563,1268
2916.7630848324807,1213
2918.5012851449196,1277
2920.2391588681758,1262
2921.976706310227,1260
2923.7139277791334,1257
2925.4508235830313,1197
2927.187394030137,1294
2928.923639428745,1297
2930.6595600872306,1271
2932.395156314046,1258
2934.1304284177218,1282
2935.8653767068713,1278
2937.6000014901815,1322
2939.3343030764227,1314
2941.068281774442,1282
2942.8019378931644,1282
2944.5352717415976,1313
2946.2682836288236,1225
2948.0009738640065,1213
2949.7333427563885,1228
2951.465390615289,1309
2953.1971177501086,1262
2954.9285244703265,1247
2956.6596110855,1276
2958.3903779052657,1287
2960.1208252393385,1286
2961.8509533975125,1240
2963.5807626896617,1198
2965.3102534257378,1201
2967.0394259157715,1255
2968.768280469873,1231
2970.496817398232,1334
2972.2250370111146,1224
2973.952939618869,1228
2975.6805255319196,1273
2977.4077950607707,1252
2979.134748516006,1258
2980.861386208289,1220
2982.587708448359,1284
2984.313715547037,1245
2986.039407815222,1219
2987.764785563891,1230
2989.489849104102,1210
2991.2145987469908,1270
2992.9390348037705,1249
2994.6631575857346,1279
2996.3869674042576,1253
2998.1104645707887,1257
2999.83364939686,1285
3001.5565221940783,1252
3003.2790832741334,1275
3005.0013329487924,1154
3006.7232715298996,1209
3008.4448993293804,1250
3010.166216659239,1235
3011.887223831558,1246
3013.607921158498,1205
3015.3283089522993,1238
3017.0483875252826,1257
3018.7681571898443,1308
3020.4876182584626,1207
3022.2067710436927,1212
3023.9256158581707,1254
3025.644153014609,1231
3027.362382825801,1224
3029.0803056046193,1211
3030.797921664012,1269
3032.5152313170106,1240
3034.2322348767225,1192
3035.9489326563353,1229
3037.665324969115,1234
3039.3814121284063,1240
3041.097194447633,1221
3042.812672240299,1300
3044.5278458199855,1205
3046.2427155003525,1179
3047.9572815951406,1221
3049.671544418167,1208
3051.38550428333,1238
3053.0991615046073,1218
3054.812516396051,1247
3056.5255692717974,1277
3058.2383204460575,1256
3059.9507702331257,1285
3061.662918947372,1231
3063.3747669032446,1256
3065.0863144152736,1280
3066.7975617980674,1230
3068.508509366309,1244
3070.219157434767,1272
3071.9295063182844,1234
3073.639556331785,1229
3075.3493077902704,1180
3077.058761008821,1203
3078.7679163025964,1223
3080.476773986837,1214
3082.1853343768594,1289
3083.89359778806,1272
3085.6015645359153,1262
3087.3092349359786,1209
3089.016609303884,1243
3090.7236879553434,1208
3092.4304712061476,1229
3094.136959372166,1242
3095.843152769349,1296
3097.5490517137237,1200
3099.2546565213966,1243
3100.959967508554,1228
3102.66498499146,1288
3104.3697092864577,1274
3106.0741407099695,1213
3107.778279578498,1210
3109.482126208622,1240
3111.1856809170004,1213
3112.8889440203716,1246
3114.5919158355528,1203
3116.294596679439,1251
3117.996986869006,1211
3119.6990867213062,1205
3121.4008965534726,1219
3123.102416682717,1242
3124.803647426329,1236
3126.5045891016784,1266
3128.205242026213,1199
3129.90560651746,1214
3131.605682893025,1254
3133.3054714705922,1188
3135.0049725679282,1262
3136.7041865028714,1183
3138.4031135933465,1213
3140.101754157353,1262
3141.800108512971,1230
3143.498176978357,1196
3145.1959598717494,1194
3146.8934575114636,1250
3148.5906702158954,1187
3150.2875983035183,1220
3151.9842420928853,1258
3153.680601902627,1229
3155.376678051456,1173
3157.07247085816,1226
3158.767980641609,1263
3160.463207720748,1181
3162.158152414606,1226
3163.8528150422862,1242
3165.5471959229726,1213
3167.2412953759303,1157
3168.9351137204976,1210
3170.628651276098,1171
3172.3219083622307,1224
3174.014885298474,1186
3175.707582404485,1190
3177.4000000000005,1236
3179.092138404835,1248
3180.7839979388846,1235
3182.47557892212,1243
3184.166881674594,1239
3185.8579065164386,1205
3187.5486537678626,1246
3189.2391237491547,1224
3190.9293167806827,1236
3192.6192331828934,1169
3194.3088732763117,1229
3195.998237381542,1196
3197.687325819268,1215
3199.376138910251,1209
3201.064676975334,1251
3202.7529403354347,1248
3204.4409293115523,1165
3206.1286442247647,1216
3207.816085396229,1166
3209.5032531471825,1172
3211.190147798936,1231
3212.8767696728846,1237
3214.5631190905015,1194
3216.2491963733373,1270
3217.9350018430214,1189
3219.6205358212637,1151
3221.305798629851,1225
3222.990790590651,1201
3224.6755120256103,1173
3226.359963256751,1205
3228.0441446061795,1143
3229.7280563960758,1198
3231.411698948703,1258
3233.0950725863995,1266
3234.778177631587,1215
3236.461014406761,1226
3238.1435832345005,1278
3239.8258844374595,1219
3241.507918338374,1160
3243.1896852600576,1237
3244.8711855254023,1145
3246.552419457381,1200
3248.233387379042,1156
3249.914089613516,1241
3251.59452648401,1208
3253.274698313813,1191
3254.95460542629,1153
3256.6342481448855,1175
3258.313626793125,1230
3259.9927416946084,1201
3261.6715931730196,1168
3263.3501815521176,1149
3265.0285071557437,1190
3266.706570307815,1210
3268.3843713323286,1237
3270.0619105533615,1211
3271.739188295068,1243
3273.4162048816834,1225
3275.0929606375184,1204
3276.769455886966,1209
3278.445690954498,1174
3280.1216661646613,1259
3281.797381842087,1226
3283.4728383114807,1169
3285.1480358976296,1252
3286.8229749253996,1158
3288.4976557197333,1245
3290.172078605655,1238
3291.846243908266,1233
3293.5201519527463,1188
3295.193803064357,1184
3296.8671975684374,1233
3298.5403357904024,1166
3300.21321805575,1174
3301.8858446900567,1234
3303.558216018975,1230
3305.23033236824,1212
3306.9021940636603,1181
3308.57380143113,1181
3310.2451547966184,1210
3311.916254486174,1216
3313.5871008259246,1206
3315.2576941420766,1201
3316.9280347609147,1204
3318.5981230088046,1131
3320.2679592121895,1178
3321.9375436975924,1190
3323.606876791612,1203
3325.27595882093,1194
3326.944790112305,1168
3328.6133709925753,1176
3330.2817017886573,1149
3331.949782827547,1197
3333.617614436319,1216
3335.2851969421245,1193
3336.952530672199,1173
3338.619615953853,1195
3340.286453114475,1255
3341.9530424815357,1228
3343.619384382583,1226
3345.2854791452437,1196
3346.951327097224,1222
3348.6169285663073,1276
3350.2822838803577,1227
3351.947393367319,1175
3353.61225735521,1137
3355.2768761721345,1212
3356.9412501462693,1185
3358.605379605873,1208
3360.2692648792827,1227
3361.9329062949146,1194
3363.596304181263,1147
