CollectionTime,9/26/2024 8:45:19 AM
ExposureUsed,3
CalibratedSpectrum
-962.7078968117929,709
-959.9714848408522,740
-957.2358232597828,757
-954.5009119013725,731
-951.7667505983302,686
-949.0333391832855,653
-946.3006774887896,700
-943.5687653473143,718
-940.837602591253,756
-938.1071890529199,727
-935.3775245645503,723
-932.6486089583007,736
-929.9204420662485,769
-927.1930237203925,846
-924.4663537526524,746
-921.7404319948689,746
-919.0152582788041,757
-916.2908324361409,854
-913.5671542984834,850
-910.8442236973568,799
-908.1220404642074,727
-905.4006044304027,747
-902.679915427231,720
-899.959973285902,765
-897.2407778375464,757
-894.5223289132158,719
-891.8046263438832,724
-889.0876699604426,698
-886.3714595937089,735
-883.6559950744183,773
-880.9412762332282,798
-878.2273029007168,733
-875.5140749073835,707
-872.8015920836489,680
-870.0898542598545,698
-867.3788612662631,762
-864.6686129330585,701
-861.9591090903457,626
-859.2503495681506,647
-856.5423341964203,665
-853.8350628050229,732
-851.1285352237478,756
-848.4227512823054,785
-845.7177108103272,713
-843.0134136373656,732
-840.3098595928943,755
-837.6070485063082,779
-834.9049802069229,733
-832.2036545239757,775
-829.5030712866244,814
-826.8032303239481,728
-824.1041314649472,735
-821.4057745385428,745
-818.7081593735775,688
-816.0112857988148,711
-813.3151536429393,687
-810.6197627345566,709
-807.9251129021936,745
-805.2312039742981,786
-802.5380357792392,763
-799.8456081453069,728
-797.1539209007124,789
-794.462973873588,835
-791.772766891987,759
-789.083299783884,762
-786.3945723771743,783
-783.7065844996748,791
-781.0193359791231,814
-778.3328266431781,777
-775.6470563194197,758
-772.9620248353489,773
-770.2777320183878,797
-767.5941776958798,755
-764.9113616950891,728
-762.2292838432011,679
-759.5479439673222,720
-756.8673418944801,778
-754.1874774516235,796
-751.5083504656222,765
-748.8299607632671,756
-746.15230817127,828
-743.475392516264,762
-740.7992136248035,758
-738.1237713233636,757
-735.4490654383407,791
-732.7750957960521,757
-730.1018622227365,744
-727.4293645445534,792
-724.7576025875837,797
-722.0865761778291,766
-719.4162851412126,790
-716.7467293035781,860
-714.0779084906909,930
-711.409822528237,788
-708.7424712418238,779
-706.0758544569796,790
-703.4099719991541,787
-700.7448236937178,784
-698.0804093659622,814
-695.4167288411002,847
-692.7537819442656,847
-690.0915685005134,896
-687.4300883348199,868
-684.7693412720819,858
-682.1093271371178,773
-679.4500457546669,820
-676.7914969493897,823
-674.1336805458676,824
-671.4765963686034,803
-668.8202442420206,758
-666.1646239904642,753
-663.5097354382001,786
-660.8555784094151,834
-658.2021527282176,825
-655.5494582186366,761
-652.8974947046223,811
-650.2462620100463,881
-647.5957599587009,866
-644.9459883742998,922
-642.2969470804776,912
-639.6486359007902,856
-637.0010546587141,850
-634.3542031776476,783
-631.7080812809096,801
-629.0626887917401,961
-626.4180255333008,1157
-623.7740913286734,1008
-621.1308860008619,832
-618.4884093727904,825
-615.8466612673046,842
-613.2056415071715,874
-610.5653499150785,872
-607.9257863136347,890
-605.28695052537,828
-602.6488423727357,937
-600.0114616781036,990
-597.3748082637674,1134
-594.7388819519412,1210
-592.1036825647604,968
-589.4692099242818,1056
-586.8354638524829,1197
-584.2024441712624,1146
-581.5701507024403,1069
-578.9385832677575,914
-576.3077416888759,930
-573.6776257873787,1116
-571.0482353847704,1084
-568.4195703024757,964
-565.7916303618415,876
-563.164415384135,896
-560.5379251905453,828
-557.9121596021815,879
-555.2871184400748,875
-552.6628015251767,854
-550.0392086783606,950
-547.4163397204204,962
-544.794194472071,938
-542.1727727539491,1042
-539.5520743866118,1066
-536.9320991905377,1096
-534.3128469861261,1188
-531.6943175936979,1176
-529.0765108334947,1168
-526.4594265256793,1285
-523.8430644903358,1559
-521.2274245474689,1571
-518.612506517005,1534
-515.9983102187913,1622
-513.3848354725959,1763
-510.77208209810846,1907
-508.16004991493924,1940
-505.5487387426199,2028
-502.9381484006032,1920
-500.3282787082628,1736
-497.71912948489364,1656
-495.1107005497117,1459
-492.5029917218539,1369
-489.8960028203786,1208
-487.28973366426493,1083
-484.68418407241325,1143
-482.07935386364494,1152
-479.47524285670266,1107
-476.87185087025,1114
-474.2691777228715,1078
-471.66722323307334,1069
-469.0659872192821,1060
-466.4654694998459,1115
-463.86566989303384,1087
-461.26658821703614,1164
-458.66822428996414,1138
-456.07057792985,1206
-453.4736489546475,1139
-450.877437182231,1070
-448.28194243039627,1075
-445.68716451686,1043
-443.09310325926003,1057
-440.49975847515555,1080
-437.9071299820263,1116
-435.31521759727354,1159
-432.72402113821954,1495
-430.13354042210767,1251
-427.5437752661022,1159
-424.95472548728867,1190
-422.36639090267386,1204
-419.7787713291855,1235
-417.1918665836721,1396
-414.60567648290385,1296
-412.0202008435715,1244
-409.4354394822874,1277
-406.8513922155845,1390
-404.26805885991723,1278
-401.685439231661,1183
-399.103533147112,1236
-396.522340422488,1214
-393.9418608739278,1124
-391.3620943174908,1108
-388.7830405691583,1180
-386.2046994448317,1159
-383.6270707603344,1245
-381.05015433141045,1193
-378.473949973725,991
-375.8984575028645,882
-373.32367673433623,855
-370.74960748356875,788
-368.1762495659117,788
-365.60360279663576,815
-363.03166699093265,881
-360.4604419639154,774
-357.8899275306178,680
-355.32012350599507,691
-352.7510297049233,677
-350.1826459421999,667
-347.61497203254316,636
-345.04800779059235,685
-342.4817530309082,815
-339.91620756797226,903
-337.35137121618743,899
-334.7872437898774,824
-332.22382510328725,1116
-329.66111497058273,1174
-327.09911320585127,821
-324.53781962310075,723
-321.9772340362607,813
-319.4173562591816,820
-316.8581861056348,720
-314.2997233893127,776
-311.7419679238294,943
-309.1849195227194,898
-306.62857799943856,903
-304.0729431673641,941
-301.51801483979375,1017
-298.963792829947,999
-296.41027695096386,1019
-293.85746701590574,1072
-291.3053628377552,1033
-288.7539642294155,1097
-286.2032710037115,1322
-283.65328297338897,1427
-281.1039999511146,1850
-278.5554217494762,2220
-276.007548180983,1592
-273.4603790580651,1022
-270.9139141930734,1132
-268.3681533982807,1305
-265.8230964858798,1547
-263.27874326798565,1305
-260.7350935566336,1110
-258.1921471637804,1262
-255.6499039013039,1512
-253.10836358100266,1139
-250.56752601459698,1144
-248.02739101372765,1268
-245.48795838995704,1553
-242.94922795476816,1391
-240.41119951956557,1080
-237.8738728956746,1225
-235.33724789434166,1428
-232.80132432673452,1378
-230.2661020039418,1361
-227.73158073697357,1459
-225.19776033676033,1740
-222.66464061415422,1768
-220.1322213799284,1391
-217.60050244477725,1336
-215.06948361931552,1386
-212.53916471408013,2091
-210.00954553952818,2386
-207.48062590603843,1537
-204.9524056239104,1237
-202.4248845033651,1409
-199.8980623545441,1907
-197.37193898751036,2149
-194.84651421224817,1755
-192.32178783866232,1537
-189.79775967657952,1824
-187.27442953574644,2322
-184.7517972258321,2368
-182.2298625564256,2078
-179.7086253370378,1879
-177.18808537710026,2054
-174.66824248596583,2702
-172.14909647290835,3072
-169.6306471471229,2422
-167.11289431772548,1971
-164.59583779375328,1950
-162.07947738416453,2507
-159.5638128978386,3076
-157.04884414357605,2891
-154.53457093009854,2531
-152.02099306604828,2269
-149.50811035998936,1945
-146.99592262040665,2350
-144.48442965570587,3480
-141.97363127421409,4391
-139.46352728417958,4108
-136.95411749377126,3580
-134.44540171107985,3054
-131.93737974411636,2141
-129.43005140081357,2595
-126.92341648902493,3832
-124.41747481652521,6093
-121.91222619101006,7325
-119.40767042009657,7254
-116.90380731132257,5956
-114.40063667214702,4300
-111.8981583099503,3453
-109.3963720320337,3836
-106.89527764561933,5441
-104.39487495785067,8653
-101.89516377579241,11407
-99.39614390642998,9772
-96.89781515667039,9012
-94.40017733334128,5954
-91.90323024319173,4082
-89.40697369289148,4501
-86.91140748903172,7556
-84.41653143812482,13567
-81.92234534660395,21052
-79.42884902082358,28080
-76.93604226705907,28908
-74.4439248915071,33094
-71.95249670028534,49373
-69.46175749943245,65024
-66.97170709490854,65024
-64.48234529259423,65024
-61.99367189829195,65024
-59.50568671772464,65024
-57.01838955653636,52110
-54.53178022029283,36521
-52.045858514480074,33654
-49.560624244506016,29426
-47.07607721569923,27477
-44.59221723330904,27841
-42.10904410250669,25102
-39.62655762838392,23266
-37.14475761595372,29809
-34.66364387015028,38234
-32.18321619582866,55039
-29.70347439776515,65024
-27.224418280657005,65024
-24.74604764912317,65024
-22.26836230770266,65024
-19.7913620608565,65024
-17.315046712966478,65024
-14.83941606833514,65024
-12.36446993118659,65024
-9.89020810566592,65024
-7.416630395839093,65024
-4.94373660569363,65024
-2.471526539137585,65024
-6.821210263296962E-13,65024
2.47084320796705,65024
4.941003281093458,65024
7.410480415786196,65024
9.879274808531363,65024
12.347386655893956,65024
14.814816154518212,65024
17.28156350112681,65024
19.74762889252179,65024
22.21301252558385,24704
24.67771459727237,9266
27.141735304626195,12241
29.605074844762612,11234
32.06773341487792,8511
34.52971121224755,7231
36.99100843422559,8793
39.45162527824516,8045
41.91156194181792,7755
44.370818622535126,6412
46.82939551806646,7441
49.287292826160524,7247
51.74451074464503,7397
54.201049471426245,6365
56.65690920448981,6199
59.112090141899785,5722
61.56659248179983,4767
64.02041642241159,4099
66.4735621620365,5137
68.92602989905402,6536
71.37781983192338,6070
73.82893215918205,6051
76.27936707944684,5119
78.72912479141326,4509
81.17820549385567,5334
83.62660938562783,5053
86.07433666566146,5325
88.5213875329681,3947
90.96776218663751,3183
93.41346082583925,2824
95.85848364982041,3265
98.30283085790859,4912
100.7465026495089,4780
103.18949922410604,3969
105.63182078126385,2616
108.07346752062438,2600
110.51443964190923,2464
112.95473734491827,2646
115.39436082953114,3334
117.83331029570547,3838
120.27158594347827,2901
122.7091879729652,2663
125.1461165843615,3592
127.58237197794062,4089
130.01795435405518,2940
132.4528639131364,2720
134.88710085569494,3518
137.32066538231982,3036
139.75355769367923,2437
142.1857779905207,2720
144.61732647366978,2772
147.04820334403132,2459
149.47840880258934,2060
151.90794305040674,2189
154.33680628862487,2325
156.76499871846443,2393
159.19252054122433,2511
161.61937195828352,2543
164.04555317109896,2888
166.47106438120693,2831
168.89590579022217,2969
171.320077599839,3364
173.7435800118302,3587
176.16641322804742,3720
178.58857745042144,3440
181.01007288096173,3102
183.43089972175687,3456
185.85105817497413,3341
188.27054844285988,3009
190.6893707277394,3207
193.10752523201643,3106
195.5250121581745,3043
197.9418317087751,3003
200.3579840864594,3234
202.7734694939469,3331
205.18828813403627,3329
207.6024402096051,3204
210.01592592360964,3091
212.42874547908548,2933
214.84089907914665,3090
217.2523869269868,3388
219.66320922587727,3129
222.0733661791695,3053
224.48285799029293,3174
226.8916848627572,3267
229.29984700014882,3062
231.7073446061355,3024
234.11417788446204,3181
236.520347038953,3227
238.92585227351185,3496
241.33069379212054,3168
243.73487179884035,3202
246.1383864978112,3030
248.541238093252,3383
250.9434267894609,3512
253.34495279081432,3519
255.74581630176783,3194
258.1460175268563,3301
260.54555667069314,3448
262.9444339379703,3613
265.3426495334594,3626
267.7402036620107,3614
270.1370965285529,3564
272.53332833809407,3214
274.9288992957214,3173
277.32380960660055,3202
279.718059475976,3084
282.1116491091717,2842
284.5045787115897,2751
286.89684848871195,2879
289.2884586460981,2723
291.67940938938807,2876
294.0697009242996,2957
296.4593334566299,3137
298.84830719225477,3149
301.23662233712923,2928
303.6242790972866,2822
306.01127767884,2834
308.39761828798066,2758
310.78330113097934,2530
313.16832641418534,2427
315.5526943440269,2522
317.9364051270112,2721
320.3194589697242,2635
322.70185607883093,2413
325.0835966610754,2496
327.4646809232805,2511
329.8451090723478,2580
332.2248813152577,2478
334.6039978590701,2456
336.9824589109231,2477
339.36026467803447,2344
341.7374153677,2415
344.113911187295,2413
346.48975234427337,2452
348.8649390461686,2370
351.2394715005918,2368
353.61334991523415,2325
355.9865744978655,2228
358.35914545633375,2246
360.73106299856715,2243
363.10232733257146,2287
365.47293866643247,2333
367.84289720831396,2331
370.2122031664593,2239
372.5808567491905,2262
374.9488581649083,2237
377.31620762209275,2218
379.6829053293021,2144
382.0489514951745,2250
384.4143463284262,2370
386.7790900378528,2254
389.14318283232853,2262
391.50662492080653,2375
393.86941651231916,2283
396.23155781597745,2448
398.5930490409713,2375
400.9538903965696,2205
403.3140820921202,2261
405.6736243370498,2215
408.03251734086336,2196
410.3907613131465,2161
412.74835646356166,2169
415.10530300185144,2150
417.4616011378372,2188
419.81725108141893,2175
422.1722530425758,2100
424.5266072313656,2180
426.880313857925,2081
429.2333731324701,1995
431.58578526529516,2017
433.9375504667738,1974
436.2886689473588,2038
438.63914091758113,1967
440.9889665880513,1948
443.33814616945835,1919
445.68667987257015,2001
448.03456790823395,2102
450.3818104873759,2049
452.72840782100013,2084
455.07436012019105,2019
457.41966759611057,1947
459.7643304600007,1971
462.10834892318155,1982
464.4517231970525,2123
466.79445349309174,2088
469.1365400228566,2042
471.4779829979826,2080
473.81878263018564,2026
476.15893913125876,2066
478.4984527130747,2351
480.8373235875855,2217
483.17555196682144,2299
485.5131380628919,2279
487.8500820879857,2293
490.1863842543697,2317
492.52204477439034,2630
494.8570638604725,2937
497.1914417251204,3146
499.52517858091653,3501
501.85827464052306,3820
504.19073011668036,4049
506.5225452222086,3990
508.85372017000566,4152
511.18425517304956,4638
513.514150444396,5851
515.8434061971808,7714
518.1720226446176,8230
520.4999999999999,7871
522.8273384766991,7264
525.1540382881666,6398
527.480099647932,5124
529.8055227696037,3734
532.1303078668694,2826
534.454455153496,2424
536.777964843328,2360
539.1008371502907,2237
541.4230722883866,2256
543.744670471698,2184
546.0656319143858,2133
548.3859568306899,2350
550.7056454349294,2366
553.0246979415016,2235
555.3431145648834,2245
557.6608955196306,2151
559.978041020377,2142
562.2945512818363,2140
564.6104265188006,2093
566.9256669461412,2042
569.2402727788082,2151
571.5542442318302,2173
573.8675815203156,2024
576.1802848594508,1996
578.4923544645015,2020
580.8037905508126,2132
583.114593333807,1977
585.4247630289875,1990
587.7342998519354,2110
590.0432040183106,2151
592.3514757438526,2025
594.6591152443794,2068
596.9661227357875,2148
599.2724984340531,2059
601.578242555231,2054
603.8833553154542,2060
606.1878369309362,2052
608.4916876179676,2112
610.7949075929192,1992
613.0974970722403,2041
615.3994562724587,2017
617.7007854101818,2024
620.0014847020951,2012
622.3015543649641,2034
624.6009946156324,2044
626.8998056710224,1988
629.1979877481361,1993
631.4955410640538,1912
633.7924658359349,2029
636.0887622810175,2019
638.3844306166192,1954
640.6794710601358,2106
642.9738838290426,2212
645.2676691408932,2121
647.5608272133207,2008
649.853358264037,2071
652.1452625108324,2206
654.4365401715764,2133
656.7271914642178,2206
659.0172166067838,2194
661.3066158173809,2116
663.5953893141935,2105
665.8835373154867,2034
668.1710600396028,2188
670.4579577049639,2190
672.7442305300709,2057
675.0298787335033,2107
677.3149025339197,2067
679.599302150058,2131
681.8830778007342,2124
684.1662297048437,2161
686.4487580813608,2082
688.7306631493387,2120
691.0119451279091,2089
693.2926042362834,2087
695.5726406937516,2083
697.8520547196814,2176
700.1308465335215,1973
702.4090163547982,1987
704.6865644031171,2027
706.9634908981619,2073
709.2397960596965,2108
711.5154801075631,2050
713.7905432616823,2164
716.0649857420548,2113
718.3388077687592,2089
720.612009561953,2147
722.8845913418733,1998
725.1565533288352,2028
727.427895743234,1945
729.6986188055427,1973
731.9687227363137,2019
734.238207756178,2002
736.5070740858458,2009
738.7753219461066,2012
741.0429515578281,2091
743.3099631419569,2101
745.5763569195191,2076
747.8421331116193,2103
750.1072919394409,2139
752.3718336242467,2172
754.6357583873777,2061
756.8990664502545,2099
759.1617580343765,2136
761.423833361321,2015
763.6852926527457,1970
765.9461361303862,2002
768.206364016058,2148
770.4659765316536,2167
772.7249738991469,2166
774.9833563405886,2101
777.2411240781092,2113
779.4982773339183,2131
781.7548163303044,2078
784.010741289634,2074
786.2660524343538,2189
788.5207499869881,2157
790.7748341701416,2063
793.0283052064964,2106
795.2811633188143,2017
797.5334087299362,2134
799.7850416627813,2201
802.0360623403484,2180
804.2864709857143,2163
806.5362678220353,2142
808.7854530725468,2157
811.0340269605625,2150
813.2819897094754,2126
815.5293415427581,2123
817.77608268396,2126
820.0222133567116,2128
822.2677337847211,2225
824.5126441917765,2226
826.7569448017433,2062
829.0006358385675,2024
831.2437175262731,2051
833.4861900889629,1983
835.7280537508192,2006
837.9693087361026,2026
840.2099552691533,2047
842.4499935743896,1990
844.689423876309,1995
846.9282463994886,2009
849.1664613685833,2045
851.4040690083276,2046
853.6410695435349,2061
855.877463199097,1955
858.1132501999847,2043
860.3484307712487,2056
862.5830051380175,2048
864.8169735254988,2100
867.0503361589791,2040
869.2830932638243,2107
871.5152450654786,2085
873.7467917894654,2027
875.9777336613873,2110
878.2080709069252,2130
880.4378037518389,2020
882.666932421968,2142
884.8954571432301,2136
887.1233781416219,2170
889.3506956432192,2112
891.5774098741766,2077
893.803521060728,2076
896.0290294291852,2068
898.2539352059397,2070
900.4782386174619,2173
902.7019398903011,2186
904.925039251085,2119
907.147536926521,2065
909.3694331433943,2130
911.59072812857,2106
913.8114221089921,2024
916.0315153116827,2023
918.2510079637437,2022
920.4699002923547,2103
922.6881925247761,2052
924.905884888345,2081
927.1229776104793,2001
929.3394709186747,2103
931.555365040506,2076
933.7706602036275,2025
935.9853566357709,2210
938.1994545647489,2112
940.4129542184515,2186
942.6258558248488,2121
944.8381596119883,2173
947.0498658079974,2293
949.2609746410825,2099
951.4714863395287,2135
953.6814011316998,2160
955.8907192460387,2108
958.0994409110671,2148
960.3075663553858,2219
962.5150958076741,2234
964.7220294966913,2175
966.928367651274,2079
969.1341105003388,2103
971.3392582728806,2046
973.5438111979742,2038
975.747769504772,2056
977.9511334225061,2027
980.153903180487,2061
982.3560790081052,2174
984.5576611348289,2137
986.7586497902058,2118
988.9590452038618,1997
991.158847605503,2010
993.3580572249133,2026
995.5566742919558,1872
997.7546990365728,1917
999.952131688785,1909
1002.1489724786926,1794
1004.3452216364743,1834
1006.5408793923874,1781
1008.7359459767691,1791
1010.9304216200343,1743
1013.1243065526781,1865
1015.3176010052733,1798
1017.510305208472,1747
1019.7024193930064,1821
1021.8939437896848,1774
1024.0848786293977,1695
1026.2752241431122,1713
1028.4649805618747,1711
1030.6541481168115,1731
1032.842727039127,1694
1035.0307175601051,1665
1037.2181199111074,1655
1039.4049343235752,1613
1041.591161029029,1663
1043.7768002590683,1592
1045.9618522453698,1582
1048.1463172196918,1666
1050.3301954138697,1647
1052.513487059818,1703
1054.69619238953,1658
1056.8783116350783,1682
1059.0598450286152,1733
1061.2407928023704,1688
1063.4211551886528,1597
1065.6009324198508,1674
1067.780124728432,1634
1069.9587323469414,1624
1072.1367555080046,1579
1074.314194444325,1686
1076.4910493886855,1659
1078.667320573947,1585
1080.843008233051,1562
1083.0181125990161,1559
1085.1926339049414,1601
1087.3665723840027,1591
1089.5399282694575,1558
1091.7127017946405,1621
1093.8848931929647,1620
1096.0565026979243,1623
1098.2275305430899,1575
1100.3979769621128,1533
1102.567842188722,1588
1104.737126456726,1556
1106.9058300000124,1576
1109.0739530525475,1582
1111.2414958483764,1553
1113.4084586216231,1532
1115.5748416064907,1610
1117.7406450372605,1633
1119.9058691482942,1574
1122.0705141740304,1630
1124.2345803489884,1467
1126.3980679077658,1489
1128.5609770850388,1485
1130.7233081155623,1541
1132.8850612341707,1505
1135.0462366757774,1539
1137.2068346753745,1480
1139.3668554680326,1550
1141.526299288901,1513
1143.68516637321,1515
1145.8434569562655,1547
1148.001171273455,1604
1150.158309560244,1534
1152.3148720521767,1512
1154.470858984876,1587
1156.626270594044,1550
1158.7811071154629,1543
1160.9353687849912,1537
1163.089055838569,1562
1165.242168512213,1558
1167.3947070420209,1623
1169.5466716641677,1527
1171.6980626149075,1547
1173.8488801305748,1572
1175.9991244475814,1537
1178.1487958024186,1592
1180.2978944316555,1667
1182.4464205719428,1595
1184.5943744600072,1494
1186.7417563326567,1528
1188.8885664267755,1540
1191.0348049793297,1578
1193.1804722273619,1600
1195.325568407995,1598
1197.4700937584303,1563
1199.614048515948,1580
1201.7574329179074,1550
1203.900247201746,1577
1206.042491604982,1511
1208.1841663652099,1579
1210.3252717201053,1541
1212.465807907422,1487
1214.6057751649923,1528
1216.7451737307279,1570
1218.8840038426192,1622
1221.0222657387353,1612
1223.1599596572241,1526
1225.2970858363137,1610
1227.4336445143094,1555
1229.5696359295966,1616
1231.705060320639,1665
1233.8399179259786,1673
1235.9742089842384,1575
1238.107933734118,1635
1240.2410924143974,1637
1242.373685263935,1653
1244.5057125216676,1591
1246.6371744266116,1686
1248.7680712178621,1633
1250.898403134593,1581
1253.028170416058,1628
1255.1573733015875,1601
1257.2860120305932,1658
1259.4140868425648,1611
1261.54159797707,1670
1263.6685456737569,1727
1265.7949301723515,1642
1267.9207517126597,1626
1270.046010534565,1686
1272.1707068780306,1676
1274.2948409830983,1684
1276.4184130898889,1727
1278.541423438603,1723
1280.6638722695184,1750
1282.785759822993,1717
1284.9070863394636,1746
1287.0278520594447,1737
1289.1480572235314,1701
1291.2677020723963,1753
1293.3867868467923,1772
1295.5053117875495,1773
1297.623277135579,1751
1299.740683131868,1839
1301.8575300174857,1888
1303.973818033578,1798
1306.0895474213703,1832
1308.2047184221678,1852
1310.3193312773528,1916
1312.4333862283888,1805
1314.5468835168163,1892
1316.659823384255,1833
1318.7722060724045,1842
1320.8840318230418,1834
1322.9953008780249,1820
1325.1060134792888,1848
1327.2161698688478,1768
1329.3257702887959,1862
1331.4348149813054,1809
1333.5433041886276,1810
1335.6512381530933,1800
1337.7586171171101,1769
1339.8654413231675,1793
1341.9717110138317,1799
1344.0774264317488,1796
1346.1825878196432,1820
1348.2871954203192,1763
1350.3912494766587,1745
1352.4947502316231,1746
1354.5976979282532,1724
1356.7000928096686,1716
1358.8019351190665,1813
1360.9032250997243,1765
1363.0039629949988,1747
1365.1041490483235,1720
1367.2037835032133,1689
1369.3028666032606,1784
1371.401398592137,1765
1373.4993797135926,1723
1375.5968102114575,1701
1377.6936903296396,1732
1379.7900203121262,1717
1381.8858004029835,1688
1383.9810308463561,1667
1386.075711886469,1681
1388.1698437676241,1655
1390.2634267342032,1724
1392.356461030667,1720
1394.4489469015557,1748
1396.5408845914872,1697
1398.6322743451592,1689
1400.7231164073469,1719
1402.813411022907,1733
1404.903158436773,1740
1406.9923588939578,1725
1409.0810126395531,1756
1411.1691199187303,1799
1413.2566809767386,1729
1415.343696058907,1714
1417.4301654106425,1749
1419.5160892774315,1809
1421.6014679048399,1822
1423.6863015385125,1828
1425.7705904241707,1754
1427.8543348076178,1760
1429.9375349347342,1730
1432.0201910514802,1756
1434.102303403894,1852
1436.1838722380944,1824
1438.2648978002767,1797
1440.3453803367174,1821
1442.4253200937692,1838
1444.5047173178677,1926
1446.5835722555234,1853
1448.6618851533285,1934
1450.739656257952,1868
1452.8168858161434,1926
1454.8935740747306,1982
1456.96972128062,1978
1459.045327680797,2044
1461.120393522327,1975
1463.1949190523528,1984
1465.2689045180973,2147
1467.3423501668608,2079
1469.415256246024,2041
1471.4876230030463,1999
1473.559450685465,2173
1475.6307395408976,2191
1477.7014898170391,2263
1479.771701761665,2264
1481.8413756226287,2171
1483.9105116478618,2184
1485.9791100853772,2282
1488.0471711832643,2341
1490.1146951896926,2326
1492.1816823529098,2405
1494.2481329212433,2359
1496.3140471430984,2339
1498.3794252669609,2283
1500.4442675413939,2415
1502.5085742150404,2423
1504.572345536622,2464
1506.6355817549388,2412
1508.6982831188702,2439
1510.7604498773744,2391
1512.8220822794883,2468
1514.8831805743293,2463
1516.9437450110909,2395
1519.003775839048,2463
1521.0632733075522,2436
1523.1222376660367,2463
1525.1806691640113,2458
1527.2385680510652,2426
1529.2959345768668,2476
1531.3527689911643,2556
1533.4090715437833,2629
1535.4648424846291,2668
1537.5200820636855,2648
1539.5747905310159,2767
1541.6289681367616,2700
1543.6826151311434,2863
1545.7357317644614,2867
1547.7883182870937,2825
1549.8403749494987,2772
1551.8919020022113,2949
1553.9428996958477,3022
1555.9933682811015,3067
1558.0433080087469,3029
1560.0927191296346,2952
1562.1416018946961,2995
1564.1899565549415,3014
1566.2377833614592,3012
1568.2850825654164,3000
1570.3318544180606,2945
1572.3780991707158,2865
1574.423817074788,2737
1576.4690083817595,2691
1578.5136733431923,2568
1580.5578122107272,2454
1582.601425236085,2502
1584.6445126710646,2486
1586.6870747675434,2312
1588.7291117774776,2265
1590.7706239529034,2314
1592.8116115459347,2221
1594.8520748087658,2141
1596.8920139936686,2088
1598.9314293529933,2051
1600.9703211391711,1968
1603.008689604711,2006
1605.0465350022005,1934
1607.0838575843068,1964
1609.1206576037753,1828
1611.1569353134305,1789
1613.1926909661765,1817
1615.2279248149953,1725
1617.2626371129481,1821
1619.2968281131757,1741
1621.3304980688963,1832
1623.3636472334088,1722
1625.39627586009,1710
1627.428384202396,1669
1629.459972513861,1639
1631.4910410480993,1662
1633.5215900588028,1682
1635.551619799744,1645
1637.5811305247717,1632
1639.6101224878166,1588
1641.6385959428862,1601
1643.6665511440683,1539
1645.693988345528,1550
1647.7209078015112,1540
1649.7473097663405,1581
1651.7731944944203,1580
1653.7985622402307,1598
1655.823413258333,1583
1657.847747803366,1547
1659.8715661300494,1533
1661.8948684931793,1530
1663.9176551476316,1574
1665.9399263483624,1591
1667.9616823504057,1523
1669.982923408873,1559
1672.0036497789574,1522
1674.0238617159293,1513
1676.043559475138,1532
1678.0627433120121,1528
1680.081413482059,1553
1682.0995702408654,1583
1684.117213844096,1547
1686.134344547495,1521
1688.1509626068864,1538
1690.1670682781705,1499
1692.182661817329,1547
1694.1977434804217,1550
1696.2123135235875,1620
1698.226372203043,1547
1700.2399197750851,1605
1702.2529564960905,1583
1704.2654826225112,1554
1706.277498410882,1477
1708.2890041178139,1472
1710.2999999999988,1520
1712.3104863142066,1497
1714.3204633172854,1485
1716.329931266163,1493
1718.3388904178469,1492
1720.3473410294214,1491
1722.3552833580516,1559
1724.3627176609807,1513
1726.3696441955308,1506
1728.3760632191033,1437
1730.3819749891782,1428
1732.3873797633146,1452
1734.3922777991502,1511
1736.3966693544012,1482
1738.4005546868639,1443
1740.4039340544127,1504
1742.406807715001,1442
1744.4091759266616,1462
1746.4110389475054,1495
1748.4123970357223,1474
1750.413250449582,1424
1752.4135994474318,1419
1754.4134442876993,1432
1756.4127852288902,1361
1758.4116225295893,1480
1760.4099564484595,1388
1762.407787244244,1468
1764.405115175764,1436
1766.4019405019203,1441
1768.3982634816916,1442
1770.3940843741357,1406
1772.3894034383907,1448
1774.3842209336717,1445
1776.378537119274,1385
1778.372352254571,1398
1780.3656665990156,1431
1782.3584804121397,1423
1784.3507939535534,1418
1786.3426074829463,1416
1788.3339212600863,1418
1790.3247355448211,1421
1792.3150505970766,1358
1794.3048666768573,1451
1796.2941840442477,1430
1798.2830029594106,1419
1800.2713236825884,1478
1802.2591464741004,1449
1804.2464715943465,1391
1806.2332993038058,1374
1808.2196298630352,1452
1810.2054635326708,1376
1812.190800573428,1459
1814.175641246101,1409
1816.1599858115628,1438
1818.1438345307652,1440
1820.127187664738,1416
1822.1100454745924,1436
1824.092408221516,1435
1826.0742761667766,1399
1828.055649571721,1444
1830.0365286977735,1427
1832.0169138064398,1403
1833.9968051593014,1414
1835.9762030180214,1422
1837.9551076443408,1429
1839.9335193000788,1403
1841.9114382471344,1426
1843.888864747485,1412
1845.8657990631878,1458
1847.842241456378,1373
1849.8181921892697,1353
1851.7936515241558,1376
1853.7686197234098,1391
1855.7430970494815,1441
1857.7170837649014,1384
1859.6905801322787,1384
1861.6635864143004,1402
1863.6361028737338,1431
1865.608129773424,1456
1867.5796673762961,1418
1869.5507159453537,1433
1871.521275743678,1433
1873.4913470344313,1397
1875.4609300808534,1476
1877.4300251462632,1479
1879.3986324940588,1498
1881.366752387717,1480
1883.3343850907936,1503
1885.3015308669228,1443
1887.268189979819,1503
1889.2343626932739,1490
1891.2000492711595,1453
1893.1652499774254,1453
1895.1299650761011,1430
1897.0941948312952,1436
1899.0579395071945,1506
1901.0211993680641,1485
1902.98397467825,1446
1904.9462657021745,1433
1906.9080727043415,1430
1908.869395949332,1491
1910.8302357018065,1491
1912.790592226504,1445
1914.7504657882428,1442
1916.7098566519212,1483
1918.6687650825133,1464
1920.6271913450764,1432
1922.5851357047422,1451
1924.5425984267245,1422
1926.499579776314,1464
1928.4560800188833,1479
1930.4120994198802,1480
1932.367638244833,1492
1934.32269675935,1508
1936.2772752291175,1468
1938.231373919899,1423
1940.1849930975404,1506
1942.1381330279637,1472
1944.0907939771696,1447
1946.0429762112412,1408
1947.9946799963363,1448
1949.9459055986945,1473
1951.896653284633,1441
1953.8469233205478,1483
1955.7967159729142,1453
1957.7460315082863,1405
1959.6948701932974,1442
1961.6432322946594,1457
1963.5911180791632,1458
1965.5385278136787,1433
1967.4854617651545,1465
1969.4319202006182,1460
1971.377903387176,1393
1973.3234115920136,1403
1975.268445082395,1386
1977.2130041256642,1411
1979.1570889892423,1462
1981.1006999406304,1435
1983.04383724741,1368
1984.986501177238,1390
1986.928691997853,1479
1988.8704099770712,1419
1990.811655382789,1420
1992.7524284829801,1436
1994.692729545698,1440
1996.6325588390755,1389
1998.5719166313224,1401
2000.5108031907307,1463
2002.4492187856677,1401
2004.387163684583,1461
2006.3246381560011,1436
2008.2616424685298,1430
2010.1981768908527,1409
2012.1342416917332,1429
2014.069837140014,1437
2016.0049635046162,1399
2017.9396210545406,1380
2019.8738100588666,1384
2021.8075307867502,1406
2023.740783507431,1432
2025.6735684902228,1438
2027.6058860045214,1420
2029.5377363198004,1450
2031.4691197056118,1395
2033.4000364315875,1389
2035.3304867674374,1415
2037.260470982952,1448
2039.189989347998,1395
2041.1190421325232,1369
2043.047629606554,1395
2044.9757520401945,1320
2046.9034097036288,1404
2048.8306028671195,1338
2050.7573318010086,1420
2052.683596775716,1420
2054.609398061742,1384
2056.5347359296647,1422
2058.4596106501403,1484
2060.384022493906,1409
2062.3079717317764,1395
2064.231458634646,1368
2066.1544834734873,1392
2068.077046519352,1308
2069.99914804337,1439
2071.9207883167524,1449
2073.8419676107865,1390
2075.7626861968406,1392
2077.6829443463607,1364
2079.6027423308715,1434
2081.522080421977,1382
2083.440958891362,1372
2085.359378010786,1380
2087.2773380520907,1327
2089.194839287196,1403
2091.111881988101,1357
2093.0284664268825,1398
2094.9445928756973,1392
2096.86026160678,1435
2098.775472892446,1429
2100.690227005088,1356
2102.604524217178,1412
2104.5183648012676,1425
2106.431749029985,1346
2108.34467717604,1437
2110.2571495122206,1422
2112.169166311393,1467
2114.080727846503,1387
2115.9918343905747,1316
2117.902486216711,1378
2119.8126835980956,1417
2121.722426807987,1359
2123.6317161197285,1394
2125.5405518067364,1363
2127.448934142509,1374
2129.356863400624,1390
2131.264339854737,1436
2133.1713637785815,1376
2135.077935445972,1420
2136.9840551308002,1405
2138.889723107037,1382
2140.7949396487334,1353
2142.699705030018,1395
2144.6040195250994,1395
2146.507883408264,1413
2148.4112969538774,1354
2150.3142604363848,1400
2152.2167741303097,1418
2154.1188383102535,1338
2156.0204532508997,1435
2157.9216192270064,1390
2159.822336513414,1385
2161.7226053850413,1342
2163.622426116884,1403
2165.5217989840185,1365
2167.4207242616,1326
2169.319202224862,1378
2171.2172331491165,1372
2173.1148173097563,1414
2175.0119549822507,1414
2176.90864644215,1368
2178.8048919650823,1446
2180.7006918267534,1420
2182.596046302952,1407
2184.4909556695407,1353
2186.3854202024645,1445
2188.279440177746,1407
2190.173015871487,1391
2192.066147559868,1412
2193.958835519149,1375
2195.851080025667,1337
2197.7428813558417,1373
2199.6342397861667,1345
2201.5251555932186,1352
2203.415629053651,1365
2205.3056604441986,1349
2207.19525004167,1398
2209.084398122958,1375
2210.9731049650327,1411
2212.861370844941,1421
2214.749196039812,1366
2216.636580826851,1412
2218.523525483344,1467
2220.410030286655,1420
2222.296095514226,1409
2224.1817214435805,1385
2226.066908352319,1411
2227.951656518121,1412
2229.835966218746,1376
2231.71983773203,1372
2233.6032713358913,1407
2235.486267308324,1389
2237.3688259274036,1389
2239.2509474712824,1426
2241.132632218193,1432
2243.013880446447,1412
2244.8946924344323,1412
2246.7750684606203,1427
2248.6550088035574,1449
2250.534513741871,1488
2252.413583554265,1447
2254.292218519526,1447
2256.170418916517,1391
2258.0481850241786,1434
2259.925517121534,1415
2261.8024154876825,1396
2263.678880401803,1408
2265.5549121431536,1435
2267.430510991071,1424
2269.305677224971,1400
2271.180411124348,1395
2273.0547129687766,1425
2274.9285830379076,1437
2276.8020216114737,1441
2278.6750289692845,1460
2280.5476053912294,1419
2282.4197511572766,1493
2284.2914665474727,1478
2286.162751841943,1433
2288.0336073208937,1482
2289.904033264608,1414
2291.774029953448,1522
2293.6435976678554,1428
2295.5127366883517,1404
2297.381447295534,1400
2299.2497297700825,1373
2301.1175843927526,1360
2302.9850114443825,1431
2304.852011205885,1412
2306.7185839582553,1332
2308.5847299825664,1339
2310.4504495599676,1309
2312.3157429716925,1323
2314.1806104990483,1309
2316.0450524234247,1322
2317.9090690262888,1325
2319.772660589186,1294
2321.635827393742,1297
2323.498569721661,1287
2325.3608878547248,1282
2327.2227820747967,1281
2329.0842526638157,1289
2330.945299903803,1281
2332.805924076857,1332
2334.6661254651535,1366
2336.525904350951,1301
2338.3852610165827,1333
2340.244195744464,1257
2342.102708817088,1225
2343.9608005170253,1293
2345.8184711269287,1283
2347.675720929526,1259
2349.532550207628,1295
2351.38895924412,1286
2353.24494832197,1340
2355.100517724223,1296
2356.955667734004,1342
2358.810398634514,1276
2360.664710709037,1360
2362.5186042409337,1354
2364.3720795136437,1293
2366.225136810686,1289
2368.0777764156583,1277
2369.929998612237,1362
2371.7818036841777,1359
2373.633191915315,1374
2375.484163589562,1358
2377.3347189909114,1329
2379.184858403434,1302
2381.03458211128,1364
2382.8838903986775,1350
2384.732783549936,1356
2386.5812618494406,1297
2388.4293255816588,1322
2390.2769750311327,1288
2392.1242104824883,1321
2393.971032220427,1317
2395.8174405297295,1377
2397.6634356952563,1317
2399.509018001947,1321
2401.3541877348193,1360
2403.1989451789705,1357
2405.043290619576,1348
2406.8872243418905,1344
2408.730746631247,1309
2410.5738577730594,1332
2412.4165580528183,1365
2414.258847756095,1337
2416.100727168537,1325
2417.9421965758734,1340
2419.783256263912,1370
2421.623906518538,1324
2423.4641476257157,1368
2425.303979871491,1321
2427.143403541984,1343
2428.9824189233977,1376
2430.821026302012,1311
2432.6592259641866,1274
2434.497018196361,1315
2436.33440328505,1358
2438.171381516851,1408
2440.00795317844,1375
2441.844118556569,1334
2443.6798779380724,1331
2445.5152316098606,1300
2447.3501798589255,1360
2449.1847229723357,1298
2451.0188612372403,1272
2452.8525949408663,1333
2454.6859243705203,1336
2456.518849813587,1275
2458.3513715575314,1369
2460.183489889895,1335
2462.015205098301,1364
2463.8465174704493,1333
2465.67742729412,1369
2467.5079348571717,1369
2469.338040447542,1336
2471.1677443532476,1345
2472.9970468623833,1360
2474.825948263123,1376
2476.6544488437207,1374
2478.482548892508,1366
2480.310248697896,1372
2482.137548548374,1327
2483.9644487325118,1351
2485.790949538956,1328
2487.617051256433,1314
2489.44275417375,1337
2491.26805857979,1358
2493.0929647635157,1357
2494.917473013971,1330
2496.741583620276,1419
2498.5652968716304,1415
2500.3886130573137,1339
2502.2115324666834,1398
2504.0340553891765,1341
2505.856182114308,1398
2507.6779129316733,1400
2509.499248130945,1355
2511.3201880018764,1391
2513.140732834298,1424
2514.9608829181198,1369
2516.780638543331,1380
2518.6,1380
2520.418967578273,1411
2522.237541568376,1438
2524.0557222606144,1396
2525.8735099453706,1408
2527.6909049131086,1386
2529.507907454368,1446
2531.32451785977,1366
2533.140736420014,1296
2534.9565634258774,1380
2536.771999168218,1422
2538.5870439379714,1444
2540.4016980261526,1465
2542.2159617238544,1485
2544.02983532225,1446
2545.8433191125914,1433
2547.656413386209,1508
2549.4691184345115,1519
2551.2814345489874,1441
2553.093362021204,1543
2554.904901142808,1533
2556.716052205523,1545
2558.526815501153,1548
2560.3371913215824,1526
2562.147179958771,1513
2563.956781704761,1522
2565.7659968516705,1571
2567.5748256916986,1572
2569.3832685171224,1566
2571.1913256202984,1565
2572.9989972936614,1568
2574.806283829725,1579
2576.613185521084,1619
2578.4197026604074,1620
2580.2258355404483,1605
2582.031584454035,1584
2583.836949694077,1555
2585.6419315535613,1524
2587.4465303255533,1563
2589.2507463032002,1607
2591.0545797797245,1602
2592.8580310484303,1603
2594.6611004026995,1580
2596.463788135992,1510
2598.266094541849,1594
2600.0680199138874,1626
2601.869564545807,1592
2603.670728731383,1562
2605.4715127644704,1554
2607.2719169390048,1563
2609.071941548998,1514
2610.8715868885433,1582
2612.670853251811,1526
2614.469740933052,1610
2616.268250226594,1547
2618.0663814268455,1509
2619.864134828292,1608
2621.6615107255006,1575
2623.458509413115,1601
2625.2551311858597,1537
2627.0513763385347,1539
2628.8472451660223,1548
2630.6427379632833,1546
2632.4378550253564,1544
2634.232596647359,1492
2636.026963124488,1570
2637.8209547520187,1555
2639.6145718253065,1556
2641.407814639785,1541
2643.200683490966,1495
2644.9931786744414,1571
2646.7853004858807,1444
2648.577049221034,1441
2650.3684251757277,1447
2652.1594286458712,1428
2653.9500599274484,1462
2655.740319316525,1448
2657.5302071092437,1410
2659.3197236018286,1409
2661.10886909058,1423
2662.8976438718782,1400
2664.686048242183,1438
2666.4740824980327,1445
2668.2617469360443,1434
2670.0490418529134,1459
2671.8359675454153,1407
2673.622524310403,1423
2675.408712444811,1387
2677.1945322456495,1370
2678.979984010009,1395
2680.76506803506,1379
2682.5497846180497,1379
2684.334134056306,1357
2686.1181166472343,1354
2687.9017326883213,1400
2689.6849824771293,1352
2691.4678663113013,1364
2693.2503844885596,1367
2695.032537306705,1429
2696.8143250636167,1433
2698.5957480572542,1359
2700.3768065856534,1380
2702.1575009469316,1340
2703.937831439283,1320
2705.717798360982,1308
2707.4974020103837,1380
2709.276642685917,1370
2711.055520686095,1301
2712.834036309506,1270
2714.612189854819,1308
2716.389981620782,1278
2718.1674119062204,1298
2719.944481010041,1306
2721.721189231226,1317
2723.4975368688415,1365
2725.273524222027,1298
2727.0491515900053,1339
2728.824419272075,1293
2730.5993275676146,1336
2732.3738767760838,1329
2734.148067197016,1266
2735.921899130031,1238
2737.6953728748194,1257
2739.468488731156,1246
2741.2412469988926,1255
2743.0136479779617,1236
2744.785691968372,1281
2746.5573792702116,1344
2748.3287101836504,1275
2750.099685008934,1284
2751.870304046388,1287
2753.640567596418,1278
2755.4104759595057,1302
2757.1800294362156,1290
2758.949228327187,1292
2760.7180729331412,1271
2762.486563554877,1289
2764.254700493272,1285
2766.022484049284,1308
2767.789914523947,1330
2769.5569922183786,1255
2771.3237174337705,1217
2773.090090471394,1299
2774.8561116326036,1329
2776.6217812188274,1261
2778.3870995315756,1311
2780.1520668724356,1283
2781.9166835430747,1321
2783.6809498452394,1278
2785.444866080754,1278
2787.2084325515225,1274
2788.971649559527,1241
2790.73451740683,1257
2792.4970363955713,1260
2794.2592068279705,1284
2796.0210290063264,1285
2797.7825032330147,1297
2799.543629810493,1250
2801.304409041296,1225
2803.0648412280366,1289
2804.8249266734088,1253
2806.5846656801846,1307
2808.344058551212,1295
2810.1031055894246,1298
2811.8618070978273,1262
2813.6201633795085,1299
2815.378174737636,1237
2817.1358414754536,1284
2818.893163896285,1226
2820.6501423035334,1283
2822.4067770006814,1310
2824.1630682912883,1237
2825.9190164789957,1297
2827.6746218675207,1241
2829.429884760661,1323
2831.184805462294,1270
2832.9393842763743,1256
2834.693621506936,1307
2836.4475174580916,1262
2838.201072434034,1288
2839.954286739034,1279
2841.707160677441,1246
2843.459694553685,1277
2845.2118886722724,1257
2846.96374333779,1281
2848.7152588549034,1303
2850.4664355283567,1260
2852.217273662973,1309
2853.9677735636546,1244
2855.7179355353833,1279
2857.4677598832186,1287
2859.217246912299,1187
2860.9663969278427,1265
2862.715210235146,1319
2864.4636871395846,1307
2866.211827946614,1237
2867.9596329617652,1235
2869.7071024906536,1236
2871.4542368389684,1274
2873.20103631248,1336
2874.947501217038,1295
2876.6936318585695,1256
2878.4394285430812,1323
2880.1848915766604,1279
2881.9300212654707,1311
2883.6748179157553,1245
2885.4192818338374,1284
2887.1634133261173,1258
2888.907212699077,1303
2890.6506802592744,1285
2892.393816313348,1333
2894.1366211680142,1256
2895.8790951300693,1264
2897.621238506388,1262
2899.363051603925,1260
2901.1045347297118,1236
2902.8456881908596,1243
2904.58651229456,1307
2906.327007348081,1253
2908.067173658772,1274
2909.8070115340597,1278
2911.5465212814497,1284
2913.285703208527,1239
2915.0245576229563,1277
2916.7630848324807,1216
2918.5012851449196,1304
2920.2391588681758,1255
2921.976706310227,1272
2923.7139277791334,1252
2925.4508235830313,1289
2927.187394030137,1231
2928.923639428745,1248
2930.6595600872306,1259
2932.395156314046,1246
2934.1304284177218,1271
2935.8653767068713,1256
2937.6000014901815,1301
2939.3343030764227,1233
2941.068281774442,1347
2942.8019378931644,1301
2944.5352717415976,1278
2946.2682836288236,1268
2948.0009738640065,1238
2949.7333427563885,1282
2951.465390615289,1270
2953.1971177501086,1263
2954.9285244703265,1323
2956.6596110855,1283
2958.3903779052657,1237
2960.1208252393385,1221
2961.8509533975125,1280
2963.5807626896617,1233
2965.3102534257378,1235
2967.0394259157715,1236
2968.768280469873,1305
2970.496817398232,1226
2972.2250370111146,1266
2973.952939618869,1253
2975.6805255319196,1242
2977.4077950607707,1241
2979.134748516006,1298
2980.861386208289,1245
2982.587708448359,1214
2984.313715547037,1268
2986.039407815222,1293
2987.764785563891,1243
2989.489849104102,1266
2991.2145987469908,1232
2992.9390348037705,1265
2994.6631575857346,1223
2996.3869674042576,1298
2998.1104645707887,1253
2999.83364939686,1259
3001.5565221940783,1224
3003.2790832741334,1214
3005.0013329487924,1185
3006.7232715298996,1182
3008.4448993293804,1274
3010.166216659239,1214
3011.887223831558,1197
3013.607921158498,1243
3015.3283089522993,1230
3017.0483875252826,1218
3018.7681571898443,1228
3020.4876182584626,1267
3022.2067710436927,1248
3023.9256158581707,1290
3025.644153014609,1251
3027.362382825801,1235
3029.0803056046193,1263
3030.797921664012,1275
3032.5152313170106,1320
3034.2322348767225,1286
3035.9489326563353,1243
3037.665324969115,1209
3039.3814121284063,1234
3041.097194447633,1251
3042.812672240299,1267
3044.5278458199855,1254
3046.2427155003525,1199
3047.9572815951406,1213
3049.671544418167,1224
3051.38550428333,1272
3053.0991615046073,1270
3054.812516396051,1247
3056.5255692717974,1302
3058.2383204460575,1234
3059.9507702331257,1274
3061.662918947372,1313
3063.3747669032446,1247
3065.0863144152736,1219
3066.7975617980674,1235
3068.508509366309,1264
3070.219157434767,1241
3071.9295063182844,1277
3073.639556331785,1273
3075.3493077902704,1241
3077.058761008821,1242
3078.7679163025964,1213
3080.476773986837,1255
3082.1853343768594,1251
3083.89359778806,1230
3085.6015645359153,1221
3087.3092349359786,1233
3089.016609303884,1253
3090.7236879553434,1237
3092.4304712061476,1180
3094.136959372166,1273
3095.843152769349,1293
3097.5490517137237,1208
3099.2546565213966,1251
3100.959967508554,1243
3102.66498499146,1267
3104.3697092864577,1215
3106.0741407099695,1249
3107.778279578498,1204
3109.482126208622,1289
3111.1856809170004,1194
3112.8889440203716,1248
3114.5919158355528,1241
3116.294596679439,1276
3117.996986869006,1284
3119.6990867213062,1233
3121.4008965534726,1222
3123.102416682717,1271
3124.803647426329,1286
3126.5045891016784,1239
3128.205242026213,1200
3129.90560651746,1230
3131.605682893025,1216
3133.3054714705922,1300
3135.0049725679282,1285
3136.7041865028714,1206
3138.4031135933465,1259
3140.101754157353,1246
3141.800108512971,1270
3143.498176978357,1219
3145.1959598717494,1205
3146.8934575114636,1246
3148.5906702158954,1252
3150.2875983035183,1234
3151.9842420928853,1254
3153.680601902627,1298
3155.376678051456,1270
3157.07247085816,1210
3158.767980641609,1264
3160.463207720748,1175
3162.158152414606,1197
3163.8528150422862,1208
3165.5471959229726,1218
3167.2412953759303,1281
3168.9351137204976,1257
3170.628651276098,1252
3172.3219083622307,1221
3174.014885298474,1251
3175.707582404485,1264
3177.4000000000005,1259
3179.092138404835,1222
3180.7839979388846,1261
3182.47557892212,1242
3184.166881674594,1264
3185.8579065164386,1177
3187.5486537678626,1247
3189.2391237491547,1226
3190.9293167806827,1240
3192.6192331828934,1205
3194.3088732763117,1199
3195.998237381542,1193
3197.687325819268,1183
3199.376138910251,1211
3201.064676975334,1195
3202.7529403354347,1286
3204.4409293115523,1219
3206.1286442247647,1188
3207.816085396229,1215
3209.5032531471825,1239
3211.190147798936,1209
3212.8767696728846,1195
3214.5631190905015,1210
3216.2491963733373,1132
3217.9350018430214,1191
3219.6205358212637,1209
3221.305798629851,1164
3222.990790590651,1229
3224.6755120256103,1206
3226.359963256751,1190
3228.0441446061795,1240
3229.7280563960758,1192
3231.411698948703,1219
3233.0950725863995,1236
3234.778177631587,1239
3236.461014406761,1228
3238.1435832345005,1235
3239.8258844374595,1228
3241.507918338374,1174
3243.1896852600576,1229
3244.8711855254023,1227
3246.552419457381,1238
3248.233387379042,1153
3249.914089613516,1259
3251.59452648401,1184
3253.274698313813,1184
3254.95460542629,1204
3256.6342481448855,1283
3258.313626793125,1247
3259.9927416946084,1227
3261.6715931730196,1243
3263.3501815521176,1234
3265.0285071557437,1197
3266.706570307815,1217
3268.3843713323286,1221
3270.0619105533615,1205
3271.739188295068,1210
3273.4162048816834,1226
3275.0929606375184,1196
3276.769455886966,1222
3278.445690954498,1202
3280.1216661646613,1224
3281.797381842087,1201
3283.4728383114807,1247
3285.1480358976296,1235
3286.8229749253996,1217
3288.4976557197333,1201
3290.172078605655,1296
3291.846243908266,1175
3293.5201519527463,1217
3295.193803064357,1207
3296.8671975684374,1202
3298.5403357904024,1179
3300.21321805575,1219
3301.8858446900567,1251
3303.558216018975,1203
3305.23033236824,1196
3306.9021940636603,1154
3308.57380143113,1191
3310.2451547966184,1199
3311.916254486174,1212
3313.5871008259246,1191
3315.2576941420766,1207
3316.9280347609147,1281
3318.5981230088046,1246
3320.2679592121895,1203
3321.9375436975924,1144
3323.606876791612,1213
3325.27595882093,1232
3326.944790112305,1190
3328.6133709925753,1215
3330.2817017886573,1185
3331.949782827547,1189
3333.617614436319,1182
3335.2851969421245,1179
3336.952530672199,1205
3338.619615953853,1278
3340.286453114475,1262
3341.9530424815357,1265
3343.619384382583,1209
3345.2854791452437,1205
3346.951327097224,1201
3348.6169285663073,1185
3350.2822838803577,1216
3351.947393367319,1249
3353.61225735521,1252
3355.2768761721345,1215
3356.9412501462693,1199
3358.605379605873,1227
3360.2692648792827,1199
3361.9329062949146,1206
3363.596304181263,1121
