CollectionTime,9/26/2024 8:42:58 AM
ExposureUsed,3
CalibratedSpectrum
-962.7078968117929,596
-959.9714848408522,621
-957.2358232597828,637
-954.5009119013725,685
-951.7667505983302,722
-949.0333391832855,627
-946.3006774887896,644
-943.5687653473143,690
-940.837602591253,744
-938.1071890529199,682
-935.3775245645503,658
-932.6486089583007,654
-929.9204420662485,703
-927.1930237203925,736
-924.4663537526524,716
-921.7404319948689,697
-919.0152582788041,722
-916.2908324361409,820
-913.5671542984834,735
-910.8442236973568,677
-908.1220404642074,724
-905.4006044304027,688
-902.679915427231,630
-899.959973285902,641
-897.2407778375464,725
-894.5223289132158,688
-891.8046263438832,686
-889.0876699604426,617
-886.3714595937089,640
-883.6559950744183,687
-880.9412762332282,726
-878.2273029007168,657
-875.5140749073835,651
-872.8015920836489,657
-870.0898542598545,636
-867.3788612662631,666
-864.6686129330585,642
-861.9591090903457,622
-859.2503495681506,557
-856.5423341964203,606
-853.8350628050229,611
-851.1285352237478,623
-848.4227512823054,645
-845.7177108103272,689
-843.0134136373656,725
-840.3098595928943,679
-837.6070485063082,714
-834.9049802069229,665
-832.2036545239757,660
-829.5030712866244,735
-826.8032303239481,728
-824.1041314649472,642
-821.4057745385428,613
-818.7081593735775,632
-816.0112857988148,637
-813.3151536429393,685
-810.6197627345566,680
-807.9251129021936,693
-805.2312039742981,689
-802.5380357792392,628
-799.8456081453069,626
-797.1539209007124,624
-794.462973873588,667
-791.772766891987,661
-789.083299783884,724
-786.3945723771743,712
-783.7065844996748,717
-781.0193359791231,729
-778.3328266431781,745
-775.6470563194197,708
-772.9620248353489,682
-770.2777320183878,642
-767.5941776958798,589
-764.9113616950891,596
-762.2292838432011,618
-759.5479439673222,656
-756.8673418944801,744
-754.1874774516235,662
-751.5083504656222,674
-748.8299607632671,693
-746.15230817127,799
-743.475392516264,733
-740.7992136248035,686
-738.1237713233636,677
-735.4490654383407,653
-732.7750957960521,662
-730.1018622227365,704
-727.4293645445534,712
-724.7576025875837,719
-722.0865761778291,719
-719.4162851412126,715
-716.7467293035781,805
-714.0779084906909,820
-711.409822528237,700
-708.7424712418238,697
-706.0758544569796,757
-703.4099719991541,730
-700.7448236937178,709
-698.0804093659622,694
-695.4167288411002,755
-692.7537819442656,723
-690.0915685005134,716
-687.4300883348199,706
-684.7693412720819,716
-682.1093271371178,700
-679.4500457546669,725
-676.7914969493897,786
-674.1336805458676,752
-671.4765963686034,691
-668.8202442420206,723
-666.1646239904642,687
-663.5097354382001,702
-660.8555784094151,702
-658.2021527282176,666
-655.5494582186366,718
-652.8974947046223,741
-650.2462620100463,738
-647.5957599587009,789
-644.9459883742998,851
-642.2969470804776,773
-639.6486359007902,779
-637.0010546587141,732
-634.3542031776476,715
-631.7080812809096,695
-629.0626887917401,783
-626.4180255333008,900
-623.7740913286734,857
-621.1308860008619,762
-618.4884093727904,830
-615.8466612673046,781
-613.2056415071715,825
-610.5653499150785,822
-607.9257863136347,819
-605.28695052537,790
-602.6488423727357,787
-600.0114616781036,891
-597.3748082637674,1039
-594.7388819519412,1010
-592.1036825647604,866
-589.4692099242818,879
-586.8354638524829,1008
-584.2024441712624,1010
-581.5701507024403,885
-578.9385832677575,831
-576.3077416888759,873
-573.6776257873787,930
-571.0482353847704,924
-568.4195703024757,889
-565.7916303618415,901
-563.164415384135,837
-560.5379251905453,802
-557.9121596021815,918
-555.2871184400748,926
-552.6628015251767,901
-550.0392086783606,874
-547.4163397204204,913
-544.794194472071,910
-542.1727727539491,863
-539.5520743866118,910
-536.9320991905377,964
-534.3128469861261,1038
-531.6943175936979,988
-529.0765108334947,1075
-526.4594265256793,1349
-523.8430644903358,1441
-521.2274245474689,1633
-518.612506517005,1697
-515.9983102187913,1774
-513.3848354725959,1849
-510.77208209810846,1971
-508.16004991493924,2216
-505.5487387426199,2259
-502.9381484006032,2073
-500.3282787082628,1931
-497.71912948489364,1746
-495.1107005497117,1536
-492.5029917218539,1524
-489.8960028203786,1319
-487.28973366426493,1105
-484.68418407241325,1063
-482.07935386364494,1016
-479.47524285670266,1000
-476.87185087025,1056
-474.2691777228715,1104
-471.66722323307334,1019
-469.0659872192821,1052
-466.4654694998459,1060
-463.86566989303384,996
-461.26658821703614,1013
-458.66822428996414,1063
-456.07057792985,1172
-453.4736489546475,1192
-450.877437182231,1035
-448.28194243039627,996
-445.68716451686,939
-443.09310325926003,943
-440.49975847515555,1006
-437.9071299820263,1095
-435.31521759727354,1126
-432.72402113821954,1231
-430.13354042210767,1121
-427.5437752661022,1070
-424.95472548728867,1098
-422.36639090267386,1170
-419.7787713291855,1240
-417.1918665836721,1271
-414.60567648290385,1290
-412.0202008435715,1260
-409.4354394822874,1234
-406.8513922155845,1165
-404.26805885991723,1191
-401.685439231661,1047
-399.103533147112,1046
-396.522340422488,1105
-393.9418608739278,1046
-391.3620943174908,1128
-388.7830405691583,1188
-386.2046994448317,1070
-383.6270707603344,1056
-381.05015433141045,1088
-378.473949973725,921
-375.8984575028645,846
-373.32367673433623,865
-370.74960748356875,821
-368.1762495659117,777
-365.60360279663576,810
-363.03166699093265,854
-360.4604419639154,812
-357.8899275306178,715
-355.32012350599507,687
-352.7510297049233,635
-350.1826459421999,633
-347.61497203254316,700
-345.04800779059235,717
-342.4817530309082,827
-339.91620756797226,883
-337.35137121618743,835
-334.7872437898774,860
-332.22382510328725,1114
-329.66111497058273,1054
-327.09911320585127,776
-324.53781962310075,720
-321.9772340362607,707
-319.4173562591816,745
-316.8581861056348,703
-314.2997233893127,699
-311.7419679238294,745
-309.1849195227194,728
-306.62857799943856,711
-304.0729431673641,801
-301.51801483979375,947
-298.963792829947,954
-296.41027695096386,982
-293.85746701590574,996
-291.3053628377552,1049
-288.7539642294155,1160
-286.2032710037115,1269
-283.65328297338897,1319
-281.1039999511146,1506
-278.5554217494762,1821
-276.007548180983,1358
-273.4603790580651,930
-270.9139141930734,1084
-268.3681533982807,1210
-265.8230964858798,1274
-263.27874326798565,1043
-260.7350935566336,1108
-258.1921471637804,1433
-255.6499039013039,1568
-253.10836358100266,1252
-250.56752601459698,1197
-248.02739101372765,1395
-245.48795838995704,1572
-242.94922795476816,1424
-240.41119951956557,1131
-237.8738728956746,1145
-235.33724789434166,1330
-232.80132432673452,1324
-230.2661020039418,1210
-227.73158073697357,1246
-225.19776033676033,1564
-222.66464061415422,1610
-220.1322213799284,1371
-217.60050244477725,1236
-215.06948361931552,1575
-212.53916471408013,2400
-210.00954553952818,2677
-207.48062590603843,1822
-204.9524056239104,1362
-202.4248845033651,1537
-199.8980623545441,1875
-197.37193898751036,2167
-194.84651421224817,1672
-192.32178783866232,1497
-189.79775967657952,1769
-187.27442953574644,2133
-184.7517972258321,2214
-182.2298625564256,1775
-179.7086253370378,1657
-177.18808537710026,2113
-174.66824248596583,2555
-172.14909647290835,2671
-169.6306471471229,2085
-167.11289431772548,1659
-164.59583779375328,1814
-162.07947738416453,2312
-159.5638128978386,2771
-157.04884414357605,2688
-154.53457093009854,2447
-152.02099306604828,2154
-149.50811035998936,1956
-146.99592262040665,2088
-144.48442965570587,2823
-141.97363127421409,4045
-139.46352728417958,4376
-136.95411749377126,3657
-134.44540171107985,2902
-131.93737974411636,2087
-129.43005140081357,2576
-126.92341648902493,4167
-124.41747481652521,6686
-121.91222619101006,8403
-119.40767042009657,8136
-116.90380731132257,5738
-114.40063667214702,4209
-111.8981583099503,3078
-109.3963720320337,3818
-106.89527764561933,7162
-104.39487495785067,12888
-101.89516377579241,18524
-99.39614390642998,18243
-96.89781515667039,17492
-94.40017733334128,13594
-91.90323024319173,11674
-89.40697369289148,11634
-86.91140748903172,12693
-84.41653143812482,18975
-81.92234534660395,27328
-79.42884902082358,33577
-76.93604226705907,27954
-74.4439248915071,22153
-71.95249670028534,28549
-69.46175749943245,46160
-66.97170709490854,65025
-64.48234529259423,65025
-61.99367189829195,65025
-59.50568671772464,60394
-57.01838955653636,49394
-54.53178022029283,33369
-52.045858514480074,27740
-49.560624244506016,24593
-47.07607721569923,24413
-44.59221723330904,23406
-42.10904410250669,22830
-39.62655762838392,21164
-37.14475761595372,22246
-34.66364387015028,28319
-32.18321619582866,36979
-29.70347439776515,45762
-27.224418280657005,60316
-24.74604764912317,65025
-22.26836230770266,65025
-19.7913620608565,65025
-17.315046712966478,65025
-14.83941606833514,65025
-12.36446993118659,65025
-9.89020810566592,65025
-7.416630395839093,65025
-4.94373660569363,65025
-2.471526539137585,65025
-6.821210263296962E-13,65025
2.47084320796705,65025
4.941003281093458,65025
7.410480415786196,65025
9.879274808531363,65025
12.347386655893956,65025
14.814816154518212,65025
17.28156350112681,65025
19.74762889252179,65025
22.21301252558385,29976
24.67771459727237,10039
27.141735304626195,11312
29.605074844762612,13142
32.06773341487792,10735
34.52971121224755,8657
36.99100843422559,9832
39.45162527824516,8090
41.91156194181792,7033
44.370818622535126,6044
46.82939551806646,6211
49.287292826160524,6021
51.74451074464503,6637
54.201049471426245,5449
56.65690920448981,4694
59.112090141899785,4643
61.56659248179983,4567
64.02041642241159,3902
66.4735621620365,4964
68.92602989905402,6324
71.37781983192338,6841
73.82893215918205,5997
76.27936707944684,4668
78.72912479141326,4681
81.17820549385567,4598
83.62660938562783,4708
86.07433666566146,4989
88.5213875329681,3629
90.96776218663751,3220
93.41346082583925,2866
95.85848364982041,2953
98.30283085790859,3891
100.7465026495089,4024
103.18949922410604,3656
105.63182078126385,2834
108.07346752062438,2828
110.51443964190923,2144
112.95473734491827,2280
115.39436082953114,2818
117.83331029570547,3440
120.27158594347827,2743
122.7091879729652,2445
125.1461165843615,2490
127.58237197794062,3136
130.01795435405518,3223
132.4528639131364,2861
134.88710085569494,3629
137.32066538231982,3506
139.75355769367923,2591
142.1857779905207,2466
144.61732647366978,2477
147.04820334403132,2321
149.47840880258934,1933
151.90794305040674,2097
154.33680628862487,2210
156.76499871846443,2111
159.19252054122433,2362
161.61937195828352,2542
164.04555317109896,2639
166.47106438120693,2633
168.89590579022217,2749
171.320077599839,2799
173.7435800118302,3243
176.16641322804742,3555
178.58857745042144,3286
181.01007288096173,3378
183.43089972175687,3507
185.85105817497413,2895
188.27054844285988,2821
190.6893707277394,3006
193.10752523201643,3271
195.5250121581745,3161
197.9418317087751,2770
200.3579840864594,3049
202.7734694939469,3364
205.18828813403627,3216
207.6024402096051,3009
210.01592592360964,3216
212.42874547908548,3013
214.84089907914665,3081
217.2523869269868,3220
219.66320922587727,2997
222.0733661791695,2907
224.48285799029293,3181
226.8916848627572,3253
229.29984700014882,2968
231.7073446061355,3133
234.11417788446204,3135
236.520347038953,3207
238.92585227351185,3270
241.33069379212054,3128
243.73487179884035,3206
246.1383864978112,3238
248.541238093252,3444
250.9434267894609,3468
253.34495279081432,3428
255.74581630176783,3234
258.1460175268563,3419
260.54555667069314,3461
262.9444339379703,3610
265.3426495334594,3625
267.7402036620107,3366
270.1370965285529,3282
272.53332833809407,3044
274.9288992957214,3074
277.32380960660055,3138
279.718059475976,3010
282.1116491091717,2748
284.5045787115897,2853
286.89684848871195,2862
289.2884586460981,2832
291.67940938938807,2904
294.0697009242996,2936
296.4593334566299,3015
298.84830719225477,3033
301.23662233712923,2851
303.6242790972866,2848
306.01127767884,2758
308.39761828798066,2779
310.78330113097934,2594
313.16832641418534,2529
315.5526943440269,2566
317.9364051270112,2706
320.3194589697242,2613
322.70185607883093,2529
325.0835966610754,2541
327.4646809232805,2456
329.8451090723478,2490
332.2248813152577,2483
334.6039978590701,2520
336.9824589109231,2378
339.36026467803447,2325
341.7374153677,2351
344.113911187295,2382
346.48975234427337,2374
348.8649390461686,2367
351.2394715005918,2263
353.61334991523415,2236
355.9865744978655,2253
358.35914545633375,2292
360.73106299856715,2291
363.10232733257146,2382
365.47293866643247,2406
367.84289720831396,2317
370.2122031664593,2189
372.5808567491905,2254
374.9488581649083,2219
377.31620762209275,2130
379.6829053293021,2208
382.0489514951745,2170
384.4143463284262,2195
386.7790900378528,2094
389.14318283232853,2209
391.50662492080653,2275
393.86941651231916,2342
396.23155781597745,2341
398.5930490409713,2288
400.9538903965696,2169
403.3140820921202,2214
405.6736243370498,2200
408.03251734086336,2082
410.3907613131465,2109
412.74835646356166,2119
415.10530300185144,2036
417.4616011378372,2050
419.81725108141893,2095
422.1722530425758,2026
424.5266072313656,2093
426.880313857925,2112
429.2333731324701,2058
431.58578526529516,1999
433.9375504667738,1958
436.2886689473588,2037
438.63914091758113,2037
440.9889665880513,1892
443.33814616945835,1946
445.68667987257015,1975
448.03456790823395,2049
450.3818104873759,1904
452.72840782100013,1987
455.07436012019105,2005
457.41966759611057,1941
459.7643304600007,1960
462.10834892318155,1986
464.4517231970525,2006
466.79445349309174,2029
469.1365400228566,2033
471.4779829979826,2073
473.81878263018564,2027
476.15893913125876,2110
478.4984527130747,2328
480.8373235875855,2288
483.17555196682144,2298
485.5131380628919,2412
487.8500820879857,2354
490.1863842543697,2482
492.52204477439034,2767
494.8570638604725,3071
497.1914417251204,3452
499.52517858091653,4009
501.85827464052306,4413
504.19073011668036,4724
506.5225452222086,4503
508.85372017000566,4707
511.18425517304956,5077
513.514150444396,6730
515.8434061971808,8377
518.1720226446176,8858
520.4999999999999,8569
522.8273384766991,7738
525.1540382881666,6792
527.480099647932,5498
529.8055227696037,3927
532.1303078668694,2900
534.454455153496,2476
536.777964843328,2363
539.1008371502907,2193
541.4230722883866,2153
543.744670471698,2143
546.0656319143858,2165
548.3859568306899,2129
550.7056454349294,2195
553.0246979415016,2371
555.3431145648834,2137
557.6608955196306,2073
559.978041020377,2218
562.2945512818363,2193
564.6104265188006,2054
566.9256669461412,2053
569.2402727788082,2238
571.5542442318302,2301
573.8675815203156,2039
576.1802848594508,2097
578.4923544645015,2105
580.8037905508126,2013
583.114593333807,2070
585.4247630289875,2059
587.7342998519354,2069
590.0432040183106,2034
592.3514757438526,1999
594.6591152443794,2085
596.9661227357875,2142
599.2724984340531,2150
601.578242555231,2098
603.8833553154542,2017
606.1878369309362,2042
608.4916876179676,1981
610.7949075929192,2098
613.0974970722403,2047
615.3994562724587,1992
617.7007854101818,1983
620.0014847020951,1943
622.3015543649641,2026
624.6009946156324,1957
626.8998056710224,1955
629.1979877481361,1980
631.4955410640538,2027
633.7924658359349,2109
636.0887622810175,1982
638.3844306166192,2042
640.6794710601358,1988
642.9738838290426,2044
645.2676691408932,2135
647.5608272133207,2102
649.853358264037,2108
652.1452625108324,2097
654.4365401715764,2022
656.7271914642178,2137
659.0172166067838,2186
661.3066158173809,2012
663.5953893141935,2022
665.8835373154867,2009
668.1710600396028,2148
670.4579577049639,2122
672.7442305300709,1994
675.0298787335033,2040
677.3149025339197,2027
679.599302150058,2081
681.8830778007342,2064
684.1662297048437,2019
686.4487580813608,2083
688.7306631493387,2068
691.0119451279091,1971
693.2926042362834,2119
695.5726406937516,2051
697.8520547196814,1997
700.1308465335215,1914
702.4090163547982,1962
704.6865644031171,1978
706.9634908981619,2023
709.2397960596965,2018
711.5154801075631,2033
713.7905432616823,2086
716.0649857420548,2074
718.3388077687592,2051
720.612009561953,2033
722.8845913418733,1979
725.1565533288352,1974
727.427895743234,1957
729.6986188055427,2023
731.9687227363137,1967
734.238207756178,2102
736.5070740858458,2016
738.7753219461066,1995
741.0429515578281,1985
743.3099631419569,1946
745.5763569195191,2023
747.8421331116193,1968
750.1072919394409,2044
752.3718336242467,2103
754.6357583873777,2119
756.8990664502545,2069
759.1617580343765,2057
761.423833361321,1927
763.6852926527457,2059
765.9461361303862,1943
768.206364016058,2023
770.4659765316536,2141
772.7249738991469,2049
774.9833563405886,2032
777.2411240781092,1990
779.4982773339183,2024
781.7548163303044,2045
784.010741289634,2116
786.2660524343538,2135
788.5207499869881,2232
790.7748341701416,2153
793.0283052064964,2114
795.2811633188143,2057
797.5334087299362,2136
799.7850416627813,2012
802.0360623403484,2037
804.2864709857143,2063
806.5362678220353,2118
808.7854530725468,2055
811.0340269605625,2119
813.2819897094754,2170
815.5293415427581,2155
817.77608268396,2037
820.0222133567116,1957
822.2677337847211,2070
824.5126441917765,2101
826.7569448017433,2085
829.0006358385675,2040
831.2437175262731,2046
833.4861900889629,2081
835.7280537508192,1936
837.9693087361026,1928
840.2099552691533,1917
842.4499935743896,2058
844.689423876309,2050
846.9282463994886,2002
849.1664613685833,1977
851.4040690083276,1965
853.6410695435349,2099
855.877463199097,1954
858.1132501999847,2123
860.3484307712487,2180
862.5830051380175,2089
864.8169735254988,2041
867.0503361589791,1948
869.2830932638243,1997
871.5152450654786,2007
873.7467917894654,2068
875.9777336613873,2108
878.2080709069252,2079
880.4378037518389,1951
882.666932421968,2094
884.8954571432301,2129
887.1233781416219,2221
889.3506956432192,2064
891.5774098741766,2018
893.803521060728,2004
896.0290294291852,1976
898.2539352059397,2041
900.4782386174619,2146
902.7019398903011,2160
904.925039251085,2075
907.147536926521,2034
909.3694331433943,2096
911.59072812857,2144
913.8114221089921,2008
916.0315153116827,2016
918.2510079637437,2027
920.4699002923547,2012
922.6881925247761,2054
924.905884888345,2107
927.1229776104793,2052
929.3394709186747,2027
931.555365040506,2034
933.7706602036275,2098
935.9853566357709,2123
938.1994545647489,2171
940.4129542184515,2110
942.6258558248488,2174
944.8381596119883,2218
947.0498658079974,2207
949.2609746410825,2151
951.4714863395287,2124
953.6814011316998,2150
955.8907192460387,2048
958.0994409110671,2149
960.3075663553858,2159
962.5150958076741,2226
964.7220294966913,2216
966.928367651274,2224
969.1341105003388,2047
971.3392582728806,2028
973.5438111979742,2070
975.747769504772,1998
977.9511334225061,1998
980.153903180487,2045
982.3560790081052,2068
984.5576611348289,2094
986.7586497902058,2031
988.9590452038618,1949
991.158847605503,2052
993.3580572249133,1904
995.5566742919558,1836
997.7546990365728,1861
999.952131688785,1892
1002.1489724786926,1747
1004.3452216364743,1755
1006.5408793923874,1768
1008.7359459767691,1677
1010.9304216200343,1704
1013.1243065526781,1620
1015.3176010052733,1682
1017.510305208472,1672
1019.7024193930064,1794
1021.8939437896848,1776
1024.0848786293977,1654
1026.2752241431122,1603
1028.4649805618747,1684
1030.6541481168115,1644
1032.842727039127,1556
1035.0307175601051,1543
1037.2181199111074,1642
1039.4049343235752,1655
1041.591161029029,1581
1043.7768002590683,1590
1045.9618522453698,1564
1048.1463172196918,1686
1050.3301954138697,1616
1052.513487059818,1619
1054.69619238953,1641
1056.8783116350783,1604
1059.0598450286152,1611
1061.2407928023704,1624
1063.4211551886528,1592
1065.6009324198508,1545
1067.780124728432,1569
1069.9587323469414,1529
1072.1367555080046,1523
1074.314194444325,1550
1076.4910493886855,1505
1078.667320573947,1565
1080.843008233051,1544
1083.0181125990161,1508
1085.1926339049414,1537
1087.3665723840027,1475
1089.5399282694575,1483
1091.7127017946405,1508
1093.8848931929647,1533
1096.0565026979243,1501
1098.2275305430899,1514
1100.3979769621128,1515
1102.567842188722,1500
1104.737126456726,1497
1106.9058300000124,1490
1109.0739530525475,1502
1111.2414958483764,1444
1113.4084586216231,1469
1115.5748416064907,1492
1117.7406450372605,1552
1119.9058691482942,1550
1122.0705141740304,1504
1124.2345803489884,1486
1126.3980679077658,1453
1128.5609770850388,1476
1130.7233081155623,1430
1132.8850612341707,1495
1135.0462366757774,1474
1137.2068346753745,1471
1139.3668554680326,1442
1141.526299288901,1421
1143.68516637321,1508
1145.8434569562655,1468
1148.001171273455,1423
1150.158309560244,1497
1152.3148720521767,1435
1154.470858984876,1496
1156.626270594044,1465
1158.7811071154629,1482
1160.9353687849912,1464
1163.089055838569,1497
1165.242168512213,1494
1167.3947070420209,1520
1169.5466716641677,1531
1171.6980626149075,1456
1173.8488801305748,1557
1175.9991244475814,1478
1178.1487958024186,1491
1180.2978944316555,1443
1182.4464205719428,1468
1184.5943744600072,1473
1186.7417563326567,1464
1188.8885664267755,1425
1191.0348049793297,1431
1193.1804722273619,1433
1195.325568407995,1465
1197.4700937584303,1471
1199.614048515948,1436
1201.7574329179074,1498
1203.900247201746,1446
1206.042491604982,1422
1208.1841663652099,1451
1210.3252717201053,1469
1212.465807907422,1454
1214.6057751649923,1473
1216.7451737307279,1521
1218.8840038426192,1594
1221.0222657387353,1597
1223.1599596572241,1498
1225.2970858363137,1500
1227.4336445143094,1545
1229.5696359295966,1480
1231.705060320639,1469
1233.8399179259786,1511
1235.9742089842384,1526
1238.107933734118,1478
1240.2410924143974,1518
1242.373685263935,1524
1244.5057125216676,1450
1246.6371744266116,1481
1248.7680712178621,1432
1250.898403134593,1549
1253.028170416058,1479
1255.1573733015875,1516
1257.2860120305932,1558
1259.4140868425648,1583
1261.54159797707,1504
1263.6685456737569,1551
1265.7949301723515,1663
1267.9207517126597,1671
1270.046010534565,1560
1272.1707068780306,1608
1274.2948409830983,1540
1276.4184130898889,1609
1278.541423438603,1614
1280.6638722695184,1583
1282.785759822993,1599
1284.9070863394636,1599
1287.0278520594447,1561
1289.1480572235314,1620
1291.2677020723963,1743
1293.3867868467923,1631
1295.5053117875495,1617
1297.623277135579,1605
1299.740683131868,1705
1301.8575300174857,1719
1303.973818033578,1687
1306.0895474213703,1630
1308.2047184221678,1740
1310.3193312773528,1669
1312.4333862283888,1630
1314.5468835168163,1726
1316.659823384255,1766
1318.7722060724045,1696
1320.8840318230418,1648
1322.9953008780249,1722
1325.1060134792888,1690
1327.2161698688478,1723
1329.3257702887959,1740
1331.4348149813054,1691
1333.5433041886276,1693
1335.6512381530933,1670
1337.7586171171101,1736
1339.8654413231675,1709
1341.9717110138317,1649
1344.0774264317488,1641
1346.1825878196432,1633
1348.2871954203192,1611
1350.3912494766587,1678
1352.4947502316231,1601
1354.5976979282532,1585
1356.7000928096686,1616
1358.8019351190665,1615
1360.9032250997243,1623
1363.0039629949988,1559
1365.1041490483235,1639
1367.2037835032133,1619
1369.3028666032606,1625
1371.401398592137,1683
1373.4993797135926,1566
1375.5968102114575,1576
1377.6936903296396,1603
1379.7900203121262,1630
1381.8858004029835,1558
1383.9810308463561,1633
1386.075711886469,1627
1388.1698437676241,1646
1390.2634267342032,1627
1392.356461030667,1710
1394.4489469015557,1614
1396.5408845914872,1587
1398.6322743451592,1605
1400.7231164073469,1618
1402.813411022907,1594
1404.903158436773,1652
1406.9923588939578,1673
1409.0810126395531,1677
1411.1691199187303,1695
1413.2566809767386,1611
1415.343696058907,1624
1417.4301654106425,1678
1419.5160892774315,1663
1421.6014679048399,1718
1423.6863015385125,1702
1425.7705904241707,1675
1427.8543348076178,1642
1429.9375349347342,1707
1432.0201910514802,1679
1434.102303403894,1739
1436.1838722380944,1739
1438.2648978002767,1721
1440.3453803367174,1735
1442.4253200937692,1782
1444.5047173178677,1803
1446.5835722555234,1799
1448.6618851533285,1814
1450.739656257952,1781
1452.8168858161434,1819
1454.8935740747306,1821
1456.96972128062,1839
1459.045327680797,1877
1461.120393522327,1836
1463.1949190523528,1940
1465.2689045180973,1950
1467.3423501668608,1852
1469.415256246024,1970
1471.4876230030463,1879
1473.559450685465,1989
1475.6307395408976,2031
1477.7014898170391,2027
1479.771701761665,2059
1481.8413756226287,1989
1483.9105116478618,2082
1485.9791100853772,2094
1488.0471711832643,1973
1490.1146951896926,2092
1492.1816823529098,2028
1494.2481329212433,2060
1496.3140471430984,2067
1498.3794252669609,2088
1500.4442675413939,2029
1502.5085742150404,2118
1504.572345536622,2151
1506.6355817549388,2099
1508.6982831188702,2176
1510.7604498773744,2114
1512.8220822794883,2142
1514.8831805743293,2181
1516.9437450110909,2175
1519.003775839048,2198
1521.0632733075522,2183
1523.1222376660367,2149
1525.1806691640113,2191
1527.2385680510652,2152
1529.2959345768668,2204
1531.3527689911643,2314
1533.4090715437833,2302
1535.4648424846291,2275
1537.5200820636855,2322
1539.5747905310159,2228
1541.6289681367616,2281
1543.6826151311434,2347
1545.7357317644614,2493
1547.7883182870937,2382
1549.8403749494987,2450
1551.8919020022113,2494
1553.9428996958477,2497
1555.9933682811015,2612
1558.0433080087469,2649
1560.0927191296346,2637
1562.1416018946961,2554
1564.1899565549415,2661
1566.2377833614592,2617
1568.2850825654164,2650
1570.3318544180606,2626
1572.3780991707158,2550
1574.423817074788,2435
1576.4690083817595,2435
1578.5136733431923,2358
1580.5578122107272,2328
1582.601425236085,2204
1584.6445126710646,2137
1586.6870747675434,2111
1588.7291117774776,2112
1590.7706239529034,2060
1592.8116115459347,1976
1594.8520748087658,1899
1596.8920139936686,1880
1598.9314293529933,1890
1600.9703211391711,1833
1603.008689604711,1782
1605.0465350022005,1755
1607.0838575843068,1760
1609.1206576037753,1757
1611.1569353134305,1718
1613.1926909661765,1697
1615.2279248149953,1688
1617.2626371129481,1712
1619.2968281131757,1649
1621.3304980688963,1654
1623.3636472334088,1604
1625.39627586009,1601
1627.428384202396,1617
1629.459972513861,1616
1631.4910410480993,1624
1633.5215900588028,1538
1635.551619799744,1543
1637.5811305247717,1573
1639.6101224878166,1488
1641.6385959428862,1513
1643.6665511440683,1503
1645.693988345528,1516
1647.7209078015112,1472
1649.7473097663405,1533
1651.7731944944203,1515
1653.7985622402307,1532
1655.823413258333,1508
1657.847747803366,1465
1659.8715661300494,1531
1661.8948684931793,1464
1663.9176551476316,1477
1665.9399263483624,1464
1667.9616823504057,1498
1669.982923408873,1469
1672.0036497789574,1456
1674.0238617159293,1480
1676.043559475138,1515
1678.0627433120121,1512
1680.081413482059,1463
1682.0995702408654,1454
1684.117213844096,1503
1686.134344547495,1507
1688.1509626068864,1477
1690.1670682781705,1432
1692.182661817329,1417
1694.1977434804217,1508
1696.2123135235875,1506
1698.226372203043,1547
1700.2399197750851,1540
1702.2529564960905,1461
1704.2654826225112,1478
1706.277498410882,1473
1708.2890041178139,1429
1710.2999999999988,1425
1712.3104863142066,1409
1714.3204633172854,1452
1716.329931266163,1400
1718.3388904178469,1424
1720.3473410294214,1471
1722.3552833580516,1481
1724.3627176609807,1501
1726.3696441955308,1423
1728.3760632191033,1516
1730.3819749891782,1405
1732.3873797633146,1345
1734.3922777991502,1435
1736.3966693544012,1463
1738.4005546868639,1422
1740.4039340544127,1396
1742.406807715001,1407
1744.4091759266616,1474
1746.4110389475054,1426
1748.4123970357223,1371
1750.413250449582,1415
1752.4135994474318,1334
1754.4134442876993,1420
1756.4127852288902,1372
1758.4116225295893,1401
1760.4099564484595,1434
1762.407787244244,1419
1764.405115175764,1425
1766.4019405019203,1412
1768.3982634816916,1422
1770.3940843741357,1463
1772.3894034383907,1441
1774.3842209336717,1419
1776.378537119274,1415
1778.372352254571,1383
1780.3656665990156,1433
1782.3584804121397,1376
1784.3507939535534,1403
1786.3426074829463,1413
1788.3339212600863,1406
1790.3247355448211,1374
1792.3150505970766,1369
1794.3048666768573,1390
1796.2941840442477,1391
1798.2830029594106,1376
1800.2713236825884,1395
1802.2591464741004,1394
1804.2464715943465,1362
1806.2332993038058,1358
1808.2196298630352,1376
1810.2054635326708,1374
1812.190800573428,1378
1814.175641246101,1369
1816.1599858115628,1389
1818.1438345307652,1367
1820.127187664738,1332
1822.1100454745924,1408
1824.092408221516,1402
1826.0742761667766,1374
1828.055649571721,1409
1830.0365286977735,1360
1832.0169138064398,1398
1833.9968051593014,1416
1835.9762030180214,1379
1837.9551076443408,1382
1839.9335193000788,1387
1841.9114382471344,1344
1843.888864747485,1357
1845.8657990631878,1422
1847.842241456378,1352
1849.8181921892697,1395
1851.7936515241558,1324
1853.7686197234098,1360
1855.7430970494815,1386
1857.7170837649014,1386
1859.6905801322787,1392
1861.6635864143004,1381
1863.6361028737338,1372
1865.608129773424,1397
1867.5796673762961,1399
1869.5507159453537,1353
1871.521275743678,1407
1873.4913470344313,1404
1875.4609300808534,1379
1877.4300251462632,1416
1879.3986324940588,1335
1881.366752387717,1426
1883.3343850907936,1410
1885.3015308669228,1409
1887.268189979819,1410
1889.2343626932739,1387
1891.2000492711595,1447
1893.1652499774254,1413
1895.1299650761011,1430
1897.0941948312952,1417
1899.0579395071945,1372
1901.0211993680641,1440
1902.98397467825,1415
1904.9462657021745,1441
1906.9080727043415,1343
1908.869395949332,1442
1910.8302357018065,1387
1912.790592226504,1433
1914.7504657882428,1425
1916.7098566519212,1429
1918.6687650825133,1377
1920.6271913450764,1345
1922.5851357047422,1398
1924.5425984267245,1401
1926.499579776314,1422
1928.4560800188833,1438
1930.4120994198802,1415
1932.367638244833,1414
1934.32269675935,1385
1936.2772752291175,1416
1938.231373919899,1436
1940.1849930975404,1465
1942.1381330279637,1453
1944.0907939771696,1446
1946.0429762112412,1370
1947.9946799963363,1340
1949.9459055986945,1377
1951.896653284633,1404
1953.8469233205478,1322
1955.7967159729142,1393
1957.7460315082863,1402
1959.6948701932974,1318
1961.6432322946594,1341
1963.5911180791632,1362
1965.5385278136787,1388
1967.4854617651545,1377
1969.4319202006182,1353
1971.377903387176,1415
1973.3234115920136,1408
1975.268445082395,1401
1977.2130041256642,1360
1979.1570889892423,1392
1981.1006999406304,1385
1983.04383724741,1381
1984.986501177238,1372
1986.928691997853,1403
1988.8704099770712,1396
1990.811655382789,1359
1992.7524284829801,1338
1994.692729545698,1402
1996.6325588390755,1346
1998.5719166313224,1317
2000.5108031907307,1392
2002.4492187856677,1320
2004.387163684583,1366
2006.3246381560011,1368
2008.2616424685298,1365
2010.1981768908527,1365
2012.1342416917332,1320
2014.069837140014,1334
2016.0049635046162,1393
2017.9396210545406,1337
2019.8738100588666,1321
2021.8075307867502,1430
2023.740783507431,1325
2025.6735684902228,1303
2027.6058860045214,1367
2029.5377363198004,1371
2031.4691197056118,1335
2033.4000364315875,1427
2035.3304867674374,1347
2037.260470982952,1344
2039.189989347998,1359
2041.1190421325232,1339
2043.047629606554,1360
2044.9757520401945,1307
2046.9034097036288,1311
2048.8306028671195,1365
2050.7573318010086,1374
2052.683596775716,1318
2054.609398061742,1299
2056.5347359296647,1277
2058.4596106501403,1388
2060.384022493906,1412
2062.3079717317764,1413
2064.231458634646,1389
2066.1544834734873,1345
2068.077046519352,1313
2069.99914804337,1351
2071.9207883167524,1338
2073.8419676107865,1357
2075.7626861968406,1303
2077.6829443463607,1316
2079.6027423308715,1351
2081.522080421977,1357
2083.440958891362,1327
2085.359378010786,1271
2087.2773380520907,1305
2089.194839287196,1343
2091.111881988101,1352
2093.0284664268825,1311
2094.9445928756973,1330
2096.86026160678,1340
2098.775472892446,1297
2100.690227005088,1364
2102.604524217178,1322
2104.5183648012676,1384
2106.431749029985,1374
2108.34467717604,1403
2110.2571495122206,1336
2112.169166311393,1333
2114.080727846503,1336
2115.9918343905747,1358
2117.902486216711,1353
2119.8126835980956,1359
2121.722426807987,1321
2123.6317161197285,1363
2125.5405518067364,1371
2127.448934142509,1364
2129.356863400624,1372
2131.264339854737,1375
2133.1713637785815,1398
2135.077935445972,1356
2136.9840551308002,1398
2138.889723107037,1357
2140.7949396487334,1318
2142.699705030018,1390
2144.6040195250994,1342
2146.507883408264,1341
2148.4112969538774,1356
2150.3142604363848,1373
2152.2167741303097,1412
2154.1188383102535,1392
2156.0204532508997,1352
2157.9216192270064,1383
2159.822336513414,1388
2161.7226053850413,1379
2163.622426116884,1316
2165.5217989840185,1379
2167.4207242616,1368
2169.319202224862,1367
2171.2172331491165,1431
2173.1148173097563,1350
2175.0119549822507,1389
2176.90864644215,1360
2178.8048919650823,1409
2180.7006918267534,1340
2182.596046302952,1369
2184.4909556695407,1377
2186.3854202024645,1391
2188.279440177746,1356
2190.173015871487,1441
2192.066147559868,1426
2193.958835519149,1342
2195.851080025667,1434
2197.7428813558417,1368
2199.6342397861667,1367
2201.5251555932186,1407
2203.415629053651,1347
2205.3056604441986,1375
2207.19525004167,1403
2209.084398122958,1416
2210.9731049650327,1398
2212.861370844941,1393
2214.749196039812,1361
2216.636580826851,1398
2218.523525483344,1397
2220.410030286655,1418
2222.296095514226,1439
2224.1817214435805,1348
2226.066908352319,1369
2227.951656518121,1345
2229.835966218746,1408
2231.71983773203,1424
2233.6032713358913,1399
2235.486267308324,1404
2237.3688259274036,1377
2239.2509474712824,1378
2241.132632218193,1400
2243.013880446447,1390
2244.8946924344323,1368
2246.7750684606203,1430
2248.6550088035574,1401
2250.534513741871,1461
2252.413583554265,1416
2254.292218519526,1424
2256.170418916517,1389
2258.0481850241786,1371
2259.925517121534,1410
2261.8024154876825,1448
2263.678880401803,1372
2265.5549121431536,1384
2267.430510991071,1464
2269.305677224971,1441
2271.180411124348,1392
2273.0547129687766,1372
2274.9285830379076,1357
2276.8020216114737,1438
2278.6750289692845,1422
2280.5476053912294,1474
2282.4197511572766,1417
2284.2914665474727,1448
2286.162751841943,1491
2288.0336073208937,1444
2289.904033264608,1483
2291.774029953448,1449
2293.6435976678554,1492
2295.5127366883517,1471
2297.381447295534,1380
2299.2497297700825,1372
2301.1175843927526,1330
2302.9850114443825,1335
2304.852011205885,1347
2306.7185839582553,1304
2308.5847299825664,1246
2310.4504495599676,1286
2312.3157429716925,1281
2314.1806104990483,1276
2316.0450524234247,1262
2317.9090690262888,1198
2319.772660589186,1245
2321.635827393742,1226
2323.498569721661,1190
2325.3608878547248,1273
2327.2227820747967,1266
2329.0842526638157,1268
2330.945299903803,1268
2332.805924076857,1207
2334.6661254651535,1273
2336.525904350951,1298
2338.3852610165827,1226
2340.244195744464,1214
2342.102708817088,1255
2343.9608005170253,1242
2345.8184711269287,1295
2347.675720929526,1238
2349.532550207628,1251
2351.38895924412,1253
2353.24494832197,1252
2355.100517724223,1223
2356.955667734004,1241
2358.810398634514,1275
2360.664710709037,1253
2362.5186042409337,1291
2364.3720795136437,1275
2366.225136810686,1273
2368.0777764156583,1278
2369.929998612237,1265
2371.7818036841777,1297
2373.633191915315,1285
2375.484163589562,1283
2377.3347189909114,1255
2379.184858403434,1255
2381.03458211128,1234
2382.8838903986775,1318
2384.732783549936,1337
2386.5812618494406,1260
2388.4293255816588,1263
2390.2769750311327,1253
2392.1242104824883,1221
2393.971032220427,1241
2395.8174405297295,1268
2397.6634356952563,1254
2399.509018001947,1248
2401.3541877348193,1228
2403.1989451789705,1272
2405.043290619576,1260
2406.8872243418905,1260
2408.730746631247,1315
2410.5738577730594,1274
2412.4165580528183,1242
2414.258847756095,1237
2416.100727168537,1259
2417.9421965758734,1249
2419.783256263912,1271
2421.623906518538,1270
2423.4641476257157,1312
2425.303979871491,1231
2427.143403541984,1231
2428.9824189233977,1267
2430.821026302012,1279
2432.6592259641866,1286
2434.497018196361,1231
2436.33440328505,1279
2438.171381516851,1253
2440.00795317844,1289
2441.844118556569,1246
2443.6798779380724,1292
2445.5152316098606,1296
2447.3501798589255,1282
2449.1847229723357,1310
2451.0188612372403,1252
2452.8525949408663,1255
2454.6859243705203,1263
2456.518849813587,1271
2458.3513715575314,1271
2460.183489889895,1241
2462.015205098301,1279
2463.8465174704493,1252
2465.67742729412,1335
2467.5079348571717,1286
2469.338040447542,1251
2471.1677443532476,1259
2472.9970468623833,1244
2474.825948263123,1273
2476.6544488437207,1274
2478.482548892508,1239
2480.310248697896,1297
2482.137548548374,1269
2483.9644487325118,1263
2485.790949538956,1266
2487.617051256433,1263
2489.44275417375,1272
2491.26805857979,1270
2493.0929647635157,1293
2494.917473013971,1294
2496.741583620276,1300
2498.5652968716304,1281
2500.3886130573137,1302
2502.2115324666834,1372
2504.0340553891765,1311
2505.856182114308,1281
2507.6779129316733,1325
2509.499248130945,1350
2511.3201880018764,1320
2513.140732834298,1331
2514.9608829181198,1331
2516.780638543331,1304
2518.6,1334
2520.418967578273,1321
2522.237541568376,1335
2524.0557222606144,1299
2525.8735099453706,1272
2527.6909049131086,1314
2529.507907454368,1302
2531.32451785977,1321
2533.140736420014,1385
2534.9565634258774,1336
2536.771999168218,1336
2538.5870439379714,1393
2540.4016980261526,1344
2542.2159617238544,1378
2544.02983532225,1402
2545.8433191125914,1387
2547.656413386209,1330
2549.4691184345115,1417
2551.2814345489874,1356
2553.093362021204,1367
2554.904901142808,1367
2556.716052205523,1390
2558.526815501153,1461
2560.3371913215824,1404
2562.147179958771,1413
2563.956781704761,1450
2565.7659968516705,1514
2567.5748256916986,1414
2569.3832685171224,1385
2571.1913256202984,1453
2572.9989972936614,1447
2574.806283829725,1481
2576.613185521084,1381
2578.4197026604074,1372
2580.2258355404483,1476
2582.031584454035,1426
2583.836949694077,1452
2585.6419315535613,1485
2587.4465303255533,1450
2589.2507463032002,1513
2591.0545797797245,1447
2592.8580310484303,1423
2594.6611004026995,1469
2596.463788135992,1492
2598.266094541849,1505
2600.0680199138874,1446
2601.869564545807,1411
2603.670728731383,1412
2605.4715127644704,1452
2607.2719169390048,1481
2609.071941548998,1448
2610.8715868885433,1385
2612.670853251811,1466
2614.469740933052,1466
2616.268250226594,1479
2618.0663814268455,1385
2619.864134828292,1426
2621.6615107255006,1443
2623.458509413115,1451
2625.2551311858597,1432
2627.0513763385347,1369
2628.8472451660223,1389
2630.6427379632833,1419
2632.4378550253564,1400
2634.232596647359,1386
2636.026963124488,1435
2637.8209547520187,1415
2639.6145718253065,1404
2641.407814639785,1372
2643.200683490966,1366
2644.9931786744414,1355
2646.7853004858807,1373
2648.577049221034,1399
2650.3684251757277,1388
2652.1594286458712,1398
2653.9500599274484,1365
2655.740319316525,1429
2657.5302071092437,1430
2659.3197236018286,1242
2661.10886909058,1325
2662.8976438718782,1339
2664.686048242183,1355
2666.4740824980327,1329
2668.2617469360443,1373
2670.0490418529134,1289
2671.8359675454153,1293
2673.622524310403,1333
2675.408712444811,1315
2677.1945322456495,1368
2678.979984010009,1296
2680.76506803506,1352
2682.5497846180497,1255
2684.334134056306,1235
2686.1181166472343,1273
2687.9017326883213,1336
2689.6849824771293,1260
2691.4678663113013,1301
2693.2503844885596,1290
2695.032537306705,1337
2696.8143250636167,1322
2698.5957480572542,1289
2700.3768065856534,1302
2702.1575009469316,1245
2703.937831439283,1274
2705.717798360982,1291
2707.4974020103837,1262
2709.276642685917,1281
2711.055520686095,1273
2712.834036309506,1222
2714.612189854819,1268
2716.389981620782,1257
2718.1674119062204,1193
2719.944481010041,1238
2721.721189231226,1234
2723.4975368688415,1263
2725.273524222027,1283
2727.0491515900053,1273
2728.824419272075,1251
2730.5993275676146,1221
2732.3738767760838,1241
2734.148067197016,1232
2735.921899130031,1178
2737.6953728748194,1249
2739.468488731156,1197
2741.2412469988926,1173
2743.0136479779617,1229
2744.785691968372,1290
2746.5573792702116,1304
2748.3287101836504,1261
2750.099685008934,1213
2751.870304046388,1203
2753.640567596418,1247
2755.4104759595057,1223
2757.1800294362156,1220
2758.949228327187,1301
2760.7180729331412,1230
2762.486563554877,1276
2764.254700493272,1230
2766.022484049284,1255
2767.789914523947,1259
2769.5569922183786,1272
2771.3237174337705,1246
2773.090090471394,1224
2774.8561116326036,1209
2776.6217812188274,1220
2778.3870995315756,1181
2780.1520668724356,1199
2781.9166835430747,1256
2783.6809498452394,1259
2785.444866080754,1223
2787.2084325515225,1248
2788.971649559527,1223
2790.73451740683,1233
2792.4970363955713,1190
2794.2592068279705,1209
2796.0210290063264,1232
2797.7825032330147,1258
2799.543629810493,1227
2801.304409041296,1241
2803.0648412280366,1225
2804.8249266734088,1208
2806.5846656801846,1259
2808.344058551212,1230
2810.1031055894246,1262
2811.8618070978273,1289
2813.6201633795085,1247
2815.378174737636,1209
2817.1358414754536,1258
2818.893163896285,1222
2820.6501423035334,1233
2822.4067770006814,1173
2824.1630682912883,1204
2825.9190164789957,1215
2827.6746218675207,1251
2829.429884760661,1208
2831.184805462294,1245
2832.9393842763743,1214
2834.693621506936,1245
2836.4475174580916,1170
2838.201072434034,1222
2839.954286739034,1188
2841.707160677441,1180
2843.459694553685,1254
2845.2118886722724,1215
2846.96374333779,1259
2848.7152588549034,1238
2850.4664355283567,1256
2852.217273662973,1234
2853.9677735636546,1306
2855.7179355353833,1242
2857.4677598832186,1220
2859.217246912299,1232
2860.9663969278427,1233
2862.715210235146,1230
2864.4636871395846,1245
2866.211827946614,1243
2867.9596329617652,1263
2869.7071024906536,1214
2871.4542368389684,1194
2873.20103631248,1217
2874.947501217038,1236
2876.6936318585695,1276
2878.4394285430812,1225
2880.1848915766604,1269
2881.9300212654707,1260
2883.6748179157553,1284
2885.4192818338374,1185
2887.1634133261173,1210
2888.907212699077,1254
2890.6506802592744,1234
2892.393816313348,1206
2894.1366211680142,1245
2895.8790951300693,1217
2897.621238506388,1207
2899.363051603925,1238
2901.1045347297118,1236
2902.8456881908596,1167
2904.58651229456,1196
2906.327007348081,1128
2908.067173658772,1225
2909.8070115340597,1272
2911.5465212814497,1228
2913.285703208527,1205
2915.0245576229563,1253
2916.7630848324807,1237
2918.5012851449196,1257
2920.2391588681758,1211
2921.976706310227,1189
2923.7139277791334,1212
2925.4508235830313,1223
2927.187394030137,1220
2928.923639428745,1224
2930.6595600872306,1255
2932.395156314046,1207
2934.1304284177218,1253
2935.8653767068713,1226
2937.6000014901815,1209
2939.3343030764227,1232
2941.068281774442,1247
2942.8019378931644,1275
2944.5352717415976,1262
2946.2682836288236,1190
2948.0009738640065,1221
2949.7333427563885,1287
2951.465390615289,1213
2953.1971177501086,1206
2954.9285244703265,1234
2956.6596110855,1261
2958.3903779052657,1188
2960.1208252393385,1212
2961.8509533975125,1182
2963.5807626896617,1216
2965.3102534257378,1179
2967.0394259157715,1200
2968.768280469873,1225
2970.496817398232,1170
2972.2250370111146,1171
2973.952939618869,1212
2975.6805255319196,1219
2977.4077950607707,1272
2979.134748516006,1197
2980.861386208289,1232
2982.587708448359,1211
2984.313715547037,1225
2986.039407815222,1256
2987.764785563891,1151
2989.489849104102,1234
2991.2145987469908,1177
2992.9390348037705,1207
2994.6631575857346,1209
2996.3869674042576,1179
2998.1104645707887,1131
2999.83364939686,1226
3001.5565221940783,1215
3003.2790832741334,1169
3005.0013329487924,1204
3006.7232715298996,1207
3008.4448993293804,1139
3010.166216659239,1158
3011.887223831558,1193
3013.607921158498,1178
3015.3283089522993,1179
3017.0483875252826,1242
3018.7681571898443,1213
3020.4876182584626,1207
3022.2067710436927,1220
3023.9256158581707,1188
3025.644153014609,1202
3027.362382825801,1226
3029.0803056046193,1187
3030.797921664012,1211
3032.5152313170106,1150
3034.2322348767225,1244
3035.9489326563353,1190
3037.665324969115,1186
3039.3814121284063,1176
3041.097194447633,1230
3042.812672240299,1220
3044.5278458199855,1224
3046.2427155003525,1215
3047.9572815951406,1196
3049.671544418167,1223
3051.38550428333,1199
3053.0991615046073,1152
3054.812516396051,1150
3056.5255692717974,1172
3058.2383204460575,1222
3059.9507702331257,1227
3061.662918947372,1263
3063.3747669032446,1190
3065.0863144152736,1212
3066.7975617980674,1214
3068.508509366309,1184
3070.219157434767,1236
3071.9295063182844,1231
3073.639556331785,1183
3075.3493077902704,1217
3077.058761008821,1189
3078.7679163025964,1175
3080.476773986837,1179
3082.1853343768594,1233
3083.89359778806,1251
3085.6015645359153,1225
3087.3092349359786,1124
3089.016609303884,1199
3090.7236879553434,1246
3092.4304712061476,1198
3094.136959372166,1195
3095.843152769349,1255
3097.5490517137237,1241
3099.2546565213966,1171
3100.959967508554,1216
3102.66498499146,1210
3104.3697092864577,1193
3106.0741407099695,1196
3107.778279578498,1200
3109.482126208622,1223
3111.1856809170004,1253
3112.8889440203716,1176
3114.5919158355528,1201
3116.294596679439,1213
3117.996986869006,1226
3119.6990867213062,1227
3121.4008965534726,1207
3123.102416682717,1205
3124.803647426329,1234
3126.5045891016784,1177
3128.205242026213,1210
3129.90560651746,1201
3131.605682893025,1239
3133.3054714705922,1179
3135.0049725679282,1214
3136.7041865028714,1212
3138.4031135933465,1236
3140.101754157353,1282
3141.800108512971,1204
3143.498176978357,1171
3145.1959598717494,1210
3146.8934575114636,1190
3148.5906702158954,1161
3150.2875983035183,1175
3151.9842420928853,1180
3153.680601902627,1209
3155.376678051456,1191
3157.07247085816,1211
3158.767980641609,1218
3160.463207720748,1212
3162.158152414606,1214
3163.8528150422862,1236
3165.5471959229726,1217
3167.2412953759303,1172
3168.9351137204976,1140
3170.628651276098,1152
3172.3219083622307,1202
3174.014885298474,1227
3175.707582404485,1232
3177.4000000000005,1241
3179.092138404835,1252
3180.7839979388846,1189
3182.47557892212,1195
3184.166881674594,1220
3185.8579065164386,1215
3187.5486537678626,1189
3189.2391237491547,1216
3190.9293167806827,1166
3192.6192331828934,1201
3194.3088732763117,1133
3195.998237381542,1144
3197.687325819268,1176
3199.376138910251,1146
3201.064676975334,1157
3202.7529403354347,1178
3204.4409293115523,1165
3206.1286442247647,1161
3207.816085396229,1192
3209.5032531471825,1181
3211.190147798936,1191
3212.8767696728846,1167
3214.5631190905015,1156
3216.2491963733373,1178
3217.9350018430214,1157
3219.6205358212637,1202
3221.305798629851,1137
3222.990790590651,1156
3224.6755120256103,1149
3226.359963256751,1163
3228.0441446061795,1140
3229.7280563960758,1188
3231.411698948703,1159
3233.0950725863995,1228
3234.778177631587,1134
3236.461014406761,1185
3238.1435832345005,1131
3239.8258844374595,1186
3241.507918338374,1206
3243.1896852600576,1164
3244.8711855254023,1172
3246.552419457381,1142
3248.233387379042,1229
3249.914089613516,1184
3251.59452648401,1209
3253.274698313813,1140
3254.95460542629,1199
3256.6342481448855,1133
3258.313626793125,1161
3259.9927416946084,1191
3261.6715931730196,1187
3263.3501815521176,1168
3265.0285071557437,1175
3266.706570307815,1182
3268.3843713323286,1131
3270.0619105533615,1163
3271.739188295068,1134
3273.4162048816834,1157
3275.0929606375184,1177
3276.769455886966,1188
3278.445690954498,1199
3280.1216661646613,1171
3281.797381842087,1170
3283.4728383114807,1177
3285.1480358976296,1175
3286.8229749253996,1209
3288.4976557197333,1220
3290.172078605655,1200
3291.846243908266,1165
3293.5201519527463,1145
3295.193803064357,1147
3296.8671975684374,1138
3298.5403357904024,1167
3300.21321805575,1188
3301.8858446900567,1190
3303.558216018975,1228
3305.23033236824,1097
3306.9021940636603,1168
3308.57380143113,1105
3310.2451547966184,1159
3311.916254486174,1186
3313.5871008259246,1197
3315.2576941420766,1143
3316.9280347609147,1150
3318.5981230088046,1219
3320.2679592121895,1149
3321.9375436975924,1145
3323.606876791612,1193
3325.27595882093,1205
3326.944790112305,1200
3328.6133709925753,1169
3330.2817017886573,1114
3331.949782827547,1241
3333.617614436319,1216
3335.2851969421245,1144
3336.952530672199,1149
3338.619615953853,1178
3340.286453114475,1151
3341.9530424815357,1188
3343.619384382583,1231
3345.2854791452437,1192
3346.951327097224,1143
3348.6169285663073,1176
3350.2822838803577,1137
3351.947393367319,1119
3353.61225735521,1228
3355.2768761721345,1159
3356.9412501462693,1166
3358.605379605873,1139
3360.2692648792827,1190
3361.9329062949146,1186
3363.596304181263,1156
