CollectionTime,9/25/2024 11:45:24 AM
ExposureUsed,3
CalibratedSpectrum
-962.7078968117929,559
-959.9714848408522,592
-957.2358232597828,608
-954.5009119013725,576
-951.7667505983302,598
-949.0333391832855,587
-946.3006774887896,597
-943.5687653473143,613
-940.837602591253,575
-938.1071890529199,599
-935.3775245645503,603
-932.6486089583007,590
-929.9204420662485,591
-927.1930237203925,595
-924.4663537526524,612
-921.7404319948689,638
-919.0152582788041,584
-916.2908324361409,599
-913.5671542984834,602
-910.8442236973568,608
-908.1220404642074,602
-905.4006044304027,615
-902.679915427231,627
-899.959973285902,577
-897.2407778375464,599
-894.5223289132158,635
-891.8046263438832,593
-889.0876699604426,601
-886.3714595937089,593
-883.6559950744183,597
-880.9412762332282,602
-878.2273029007168,588
-875.5140749073835,595
-872.8015920836489,564
-870.0898542598545,583
-867.3788612662631,589
-864.6686129330585,626
-861.9591090903457,565
-859.2503495681506,591
-856.5423341964203,571
-853.8350628050229,592
-851.1285352237478,583
-848.4227512823054,623
-845.7177108103272,597
-843.0134136373656,616
-840.3098595928943,594
-837.6070485063082,594
-834.9049802069229,634
-832.2036545239757,648
-829.5030712866244,578
-826.8032303239481,613
-824.1041314649472,578
-821.4057745385428,604
-818.7081593735775,610
-816.0112857988148,598
-813.3151536429393,575
-810.6197627345566,629
-807.9251129021936,607
-805.2312039742981,609
-802.5380357792392,627
-799.8456081453069,610
-797.1539209007124,607
-794.462973873588,635
-791.772766891987,653
-789.083299783884,628
-786.3945723771743,640
-783.7065844996748,600
-781.0193359791231,637
-778.3328266431781,641
-775.6470563194197,640
-772.9620248353489,596
-770.2777320183878,631
-767.5941776958798,611
-764.9113616950891,618
-762.2292838432011,615
-759.5479439673222,620
-756.8673418944801,580
-754.1874774516235,628
-751.5083504656222,611
-748.8299607632671,620
-746.15230817127,616
-743.475392516264,641
-740.7992136248035,632
-738.1237713233636,576
-735.4490654383407,624
-732.7750957960521,618
-730.1018622227365,612
-727.4293645445534,620
-724.7576025875837,640
-722.0865761778291,635
-719.4162851412126,620
-716.7467293035781,630
-714.0779084906909,616
-711.409822528237,649
-708.7424712418238,647
-706.0758544569796,645
-703.4099719991541,625
-700.7448236937178,665
-698.0804093659622,683
-695.4167288411002,662
-692.7537819442656,670
-690.0915685005134,661
-687.4300883348199,676
-684.7693412720819,683
-682.1093271371178,666
-679.4500457546669,657
-676.7914969493897,654
-674.1336805458676,661
-671.4765963686034,660
-668.8202442420206,678
-666.1646239904642,679
-663.5097354382001,647
-660.8555784094151,678
-658.2021527282176,653
-655.5494582186366,675
-652.8974947046223,702
-650.2462620100463,724
-647.5957599587009,715
-644.9459883742998,693
-642.2969470804776,728
-639.6486359007902,715
-637.0010546587141,702
-634.3542031776476,694
-631.7080812809096,697
-629.0626887917401,712
-626.4180255333008,696
-623.7740913286734,698
-621.1308860008619,734
-618.4884093727904,720
-615.8466612673046,724
-613.2056415071715,694
-610.5653499150785,674
-607.9257863136347,696
-605.28695052537,690
-602.6488423727357,709
-600.0114616781036,709
-597.3748082637674,714
-594.7388819519412,674
-592.1036825647604,722
-589.4692099242818,707
-586.8354638524829,719
-584.2024441712624,741
-581.5701507024403,788
-578.9385832677575,758
-576.3077416888759,747
-573.6776257873787,716
-571.0482353847704,716
-568.4195703024757,735
-565.7916303618415,713
-563.164415384135,732
-560.5379251905453,733
-557.9121596021815,714
-555.2871184400748,718
-552.6628015251767,743
-550.0392086783606,729
-547.4163397204204,761
-544.794194472071,754
-542.1727727539491,747
-539.5520743866118,772
-536.9320991905377,768
-534.3128469861261,762
-531.6943175936979,782
-529.0765108334947,846
-526.4594265256793,891
-523.8430644903358,972
-521.2274245474689,1107
-518.612506517005,1190
-515.9983102187913,1120
-513.3848354725959,1170
-510.77208209810846,1247
-508.16004991493924,1345
-505.5487387426199,1372
-502.9381484006032,1472
-500.3282787082628,1433
-497.71912948489364,1390
-495.1107005497117,1302
-492.5029917218539,1144
-489.8960028203786,1044
-487.28973366426493,972
-484.68418407241325,888
-482.07935386364494,901
-479.47524285670266,870
-476.87185087025,864
-474.2691777228715,876
-471.66722323307334,908
-469.0659872192821,879
-466.4654694998459,890
-463.86566989303384,945
-461.26658821703614,863
-458.66822428996414,866
-456.07057792985,878
-453.4736489546475,856
-450.877437182231,870
-448.28194243039627,924
-445.68716451686,903
-443.09310325926003,833
-440.49975847515555,858
-437.9071299820263,794
-435.31521759727354,908
-432.72402113821954,885
-430.13354042210767,984
-427.5437752661022,918
-424.95472548728867,887
-422.36639090267386,924
-419.7787713291855,896
-417.1918665836721,899
-414.60567648290385,927
-412.0202008435715,908
-409.4354394822874,959
-406.8513922155845,963
-404.26805885991723,983
-401.685439231661,945
-399.103533147112,958
-396.522340422488,985
-393.9418608739278,946
-391.3620943174908,888
-388.7830405691583,894
-386.2046994448317,836
-383.6270707603344,848
-381.05015433141045,849
-378.473949973725,740
-375.8984575028645,733
-373.32367673433623,701
-370.74960748356875,651
-368.1762495659117,620
-365.60360279663576,565
-363.03166699093265,532
-360.4604419639154,521
-357.8899275306178,539
-355.32012350599507,504
-352.7510297049233,515
-350.1826459421999,463
-347.61497203254316,425
-345.04800779059235,474
-342.4817530309082,450
-339.91620756797226,458
-337.35137121618743,440
-334.7872437898774,475
-332.22382510328725,479
-329.66111497058273,439
-327.09911320585127,514
-324.53781962310075,490
-321.9772340362607,482
-319.4173562591816,480
-316.8581861056348,446
-314.2997233893127,473
-311.7419679238294,480
-309.1849195227194,500
-306.62857799943856,506
-304.0729431673641,490
-301.51801483979375,471
-298.963792829947,506
-296.41027695096386,482
-293.85746701590574,497
-291.3053628377552,501
-288.7539642294155,549
-286.2032710037115,537
-283.65328297338897,548
-281.1039999511146,527
-278.5554217494762,620
-276.007548180983,654
-273.4603790580651,610
-270.9139141930734,576
-268.3681533982807,563
-265.8230964858798,593
-263.27874326798565,617
-260.7350935566336,601
-258.1921471637804,611
-255.6499039013039,669
-253.10836358100266,646
-250.56752601459698,573
-248.02739101372765,665
-245.48795838995704,787
-242.94922795476816,711
-240.41119951956557,641
-237.8738728956746,678
-235.33724789434166,678
-232.80132432673452,672
-230.2661020039418,671
-227.73158073697357,680
-225.19776033676033,755
-222.66464061415422,891
-220.1322213799284,810
-217.60050244477725,702
-215.06948361931552,706
-212.53916471408013,784
-210.00954553952818,866
-207.48062590603843,856
-204.9524056239104,680
-202.4248845033651,681
-199.8980623545441,856
-197.37193898751036,901
-194.84651421224817,827
-192.32178783866232,853
-189.79775967657952,809
-187.27442953574644,865
-184.7517972258321,816
-182.2298625564256,753
-179.7086253370378,674
-177.18808537710026,728
-174.66824248596583,885
-172.14909647290835,1034
-169.6306471471229,1016
-167.11289431772548,851
-164.59583779375328,751
-162.07947738416453,828
-159.5638128978386,1069
-157.04884414357605,1176
-154.53457093009854,1326
-152.02099306604828,1112
-149.50811035998936,926
-146.99592262040665,961
-144.48442965570587,1120
-141.97363127421409,1380
-139.46352728417958,1514
-136.95411749377126,1399
-134.44540171107985,1255
-131.93737974411636,967
-129.43005140081357,1070
-126.92341648902493,1313
-124.41747481652521,1806
-121.91222619101006,2349
-119.40767042009657,2800
-116.90380731132257,2955
-114.40063667214702,2611
-111.8981583099503,2342
-109.3963720320337,2163
-106.89527764561933,2757
-104.39487495785067,3411
-101.89516377579241,5061
-99.39614390642998,6900
-96.89781515667039,8220
-94.40017733334128,8457
-91.90323024319173,7829
-89.40697369289148,6351
-86.91140748903172,4856
-84.41653143812482,4389
-81.92234534660395,4104
-79.42884902082358,4480
-76.93604226705907,4912
-74.4439248915071,5325
-71.95249670028534,5639
-69.46175749943245,6060
-66.97170709490854,6346
-64.48234529259423,7184
-61.99367189829195,7138
-59.50568671772464,7037
-57.01838955653636,7405
-54.53178022029283,9124
-52.045858514480074,10772
-49.560624244506016,11901
-47.07607721569923,12958
-44.59221723330904,14057
-42.10904410250669,13250
-39.62655762838392,15242
-37.14475761595372,15505
-34.66364387015028,15529
-32.18321619582866,15662
-29.70347439776515,16557
-27.224418280657005,19708
-24.74604764912317,24600
-22.26836230770266,37965
-19.7913620608565,65040
-17.315046712966478,65040
-14.83941606833514,65040
-12.36446993118659,65040
-9.89020810566592,65040
-7.416630395839093,65040
-4.94373660569363,65040
-2.471526539137585,65040
-6.821210263296962E-13,65040
2.47084320796705,65040
4.941003281093458,65040
7.410480415786196,65040
9.879274808531363,65040
12.347386655893956,65040
14.814816154518212,65040
17.28156350112681,65040
19.74762889252179,65040
22.21301252558385,22694
24.67771459727237,4346
27.141735304626195,2633
29.605074844762612,2698
32.06773341487792,2842
34.52971121224755,2940
36.99100843422559,2619
39.45162527824516,2132
41.91156194181792,2136
44.370818622535126,2385
46.82939551806646,2355
49.287292826160524,3226
51.74451074464503,2805
54.201049471426245,2787
56.65690920448981,1942
59.112090141899785,1589
61.56659248179983,2028
64.02041642241159,1885
66.4735621620365,1836
68.92602989905402,1938
71.37781983192338,2049
73.82893215918205,1870
76.27936707944684,1652
78.72912479141326,1416
81.17820549385567,1372
83.62660938562783,1280
86.07433666566146,1175
88.5213875329681,1492
90.96776218663751,1368
93.41346082583925,1281
95.85848364982041,1334
98.30283085790859,1233
100.7465026495089,1271
103.18949922410604,1218
105.63182078126385,1221
108.07346752062438,1069
110.51443964190923,1017
112.95473734491827,1178
115.39436082953114,1242
117.83331029570547,1363
120.27158594347827,1283
122.7091879729652,1086
125.1461165843615,1151
127.58237197794062,1060
130.01795435405518,1134
132.4528639131364,979
134.88710085569494,1026
137.32066538231982,1129
139.75355769367923,1066
142.1857779905207,1031
144.61732647366978,1004
147.04820334403132,909
149.47840880258934,914
151.90794305040674,1094
154.33680628862487,1164
156.76499871846443,1166
159.19252054122433,1230
161.61937195828352,1338
164.04555317109896,1439
166.47106438120693,1625
168.89590579022217,1691
171.320077599839,1762
173.7435800118302,1811
176.16641322804742,1921
178.58857745042144,2042
181.01007288096173,2118
183.43089972175687,2026
185.85105817497413,2141
188.27054844285988,2066
190.6893707277394,2127
193.10752523201643,2052
195.5250121581745,2067
197.9418317087751,2246
200.3579840864594,2215
202.7734694939469,2321
205.18828813403627,2447
207.6024402096051,2370
210.01592592360964,2270
212.42874547908548,2325
214.84089907914665,2359
217.2523869269868,2336
219.66320922587727,2363
222.0733661791695,2299
224.48285799029293,2277
226.8916848627572,2310
229.29984700014882,2383
231.7073446061355,2360
234.11417788446204,2403
236.520347038953,2376
238.92585227351185,2433
241.33069379212054,2487
243.73487179884035,2490
246.1383864978112,2495
248.541238093252,2422
250.9434267894609,2382
253.34495279081432,2458
255.74581630176783,2538
258.1460175268563,2583
260.54555667069314,2585
262.9444339379703,2560
265.3426495334594,2537
267.7402036620107,2505
270.1370965285529,2508
272.53332833809407,2435
274.9288992957214,2283
277.32380960660055,2348
279.718059475976,2228
282.1116491091717,2237
284.5045787115897,2243
286.89684848871195,2344
289.2884586460981,2330
291.67940938938807,2295
294.0697009242996,2312
296.4593334566299,2321
298.84830719225477,2293
301.23662233712923,2386
303.6242790972866,2260
306.01127767884,2156
308.39761828798066,2186
310.78330113097934,2169
313.16832641418534,2163
315.5526943440269,2119
317.9364051270112,2190
320.3194589697242,2133
322.70185607883093,2042
325.0835966610754,2072
327.4646809232805,2068
329.8451090723478,2052
332.2248813152577,2023
334.6039978590701,1956
336.9824589109231,1973
339.36026467803447,1966
341.7374153677,1907
344.113911187295,1938
346.48975234427337,1963
348.8649390461686,1956
351.2394715005918,1991
353.61334991523415,1885
355.9865744978655,1976
358.35914545633375,1864
360.73106299856715,1920
363.10232733257146,1923
365.47293866643247,1889
367.84289720831396,1915
370.2122031664593,1895
372.5808567491905,1897
374.9488581649083,1883
377.31620762209275,1826
379.6829053293021,1883
382.0489514951745,1879
384.4143463284262,1898
386.7790900378528,1829
389.14318283232853,1837
391.50662492080653,1854
393.86941651231916,1959
396.23155781597745,1871
398.5930490409713,1890
400.9538903965696,1857
403.3140820921202,1909
405.6736243370498,1817
408.03251734086336,1837
410.3907613131465,1771
412.74835646356166,1875
415.10530300185144,1758
417.4616011378372,1823
419.81725108141893,1822
422.1722530425758,1816
424.5266072313656,1822
426.880313857925,1786
429.2333731324701,1831
431.58578526529516,1830
433.9375504667738,1800
436.2886689473588,1800
438.63914091758113,1824
440.9889665880513,1772
443.33814616945835,1729
445.68667987257015,1765
448.03456790823395,1731
450.3818104873759,1760
452.72840782100013,1829
455.07436012019105,1777
457.41966759611057,1782
459.7643304600007,1781
462.10834892318155,1704
464.4517231970525,1716
466.79445349309174,1777
469.1365400228566,1700
471.4779829979826,1763
473.81878263018564,1775
476.15893913125876,1779
478.4984527130747,1844
480.8373235875855,1829
483.17555196682144,1874
485.5131380628919,1845
487.8500820879857,1880
490.1863842543697,1973
492.52204477439034,2012
494.8570638604725,2137
497.1914417251204,2292
499.52517858091653,2558
501.85827464052306,2816
504.19073011668036,3060
506.5225452222086,3202
508.85372017000566,3127
511.18425517304956,3233
513.514150444396,3352
515.8434061971808,4211
518.1720226446176,4980
520.4999999999999,5178
522.8273384766991,4880
525.1540382881666,4516
527.480099647932,4000
529.8055227696037,3217
532.1303078668694,2468
534.454455153496,2122
536.777964843328,1919
539.1008371502907,1909
541.4230722883866,1839
543.744670471698,1782
546.0656319143858,1757
548.3859568306899,1757
550.7056454349294,1722
553.0246979415016,1697
555.3431145648834,1765
557.6608955196306,1764
559.978041020377,1717
562.2945512818363,1770
564.6104265188006,1803
566.9256669461412,1748
569.2402727788082,1751
571.5542442318302,1761
573.8675815203156,1729
576.1802848594508,1741
578.4923544645015,1745
580.8037905508126,1695
583.114593333807,1772
585.4247630289875,1796
587.7342998519354,1699
590.0432040183106,1681
592.3514757438526,1719
594.6591152443794,1737
596.9661227357875,1777
599.2724984340531,1757
601.578242555231,1697
603.8833553154542,1727
606.1878369309362,1725
608.4916876179676,1712
610.7949075929192,1708
613.0974970722403,1770
615.3994562724587,1666
617.7007854101818,1774
620.0014847020951,1714
622.3015543649641,1746
624.6009946156324,1761
626.8998056710224,1767
629.1979877481361,1682
631.4955410640538,1770
633.7924658359349,1764
636.0887622810175,1754
638.3844306166192,1787
640.6794710601358,1732
642.9738838290426,1706
645.2676691408932,1820
647.5608272133207,1834
649.853358264037,1778
652.1452625108324,1875
654.4365401715764,1766
656.7271914642178,1796
659.0172166067838,1784
661.3066158173809,1828
663.5953893141935,1788
665.8835373154867,1784
668.1710600396028,1836
670.4579577049639,1875
672.7442305300709,1817
675.0298787335033,1856
677.3149025339197,1860
679.599302150058,1733
681.8830778007342,1780
684.1662297048437,1731
686.4487580813608,1777
688.7306631493387,1798
691.0119451279091,1759
693.2926042362834,1795
695.5726406937516,1819
697.8520547196814,1811
700.1308465335215,1779
702.4090163547982,1795
704.6865644031171,1730
706.9634908981619,1708
709.2397960596965,1773
711.5154801075631,1819
713.7905432616823,1763
716.0649857420548,1713
718.3388077687592,1798
720.612009561953,1763
722.8845913418733,1824
725.1565533288352,1801
727.427895743234,1791
729.6986188055427,1771
731.9687227363137,1708
734.238207756178,1830
736.5070740858458,1806
738.7753219461066,1732
741.0429515578281,1793
743.3099631419569,1798
745.5763569195191,1868
747.8421331116193,1811
750.1072919394409,1832
752.3718336242467,1782
754.6357583873777,1775
756.8990664502545,1820
759.1617580343765,1823
761.423833361321,1777
763.6852926527457,1781
765.9461361303862,1789
768.206364016058,1838
770.4659765316536,1804
772.7249738991469,1867
774.9833563405886,1873
777.2411240781092,1868
779.4982773339183,1819
781.7548163303044,1846
784.010741289634,1836
786.2660524343538,1871
788.5207499869881,1801
790.7748341701416,1856
793.0283052064964,1865
795.2811633188143,1850
797.5334087299362,1884
799.7850416627813,1846
802.0360623403484,1850
804.2864709857143,1861
806.5362678220353,1803
808.7854530725468,1844
811.0340269605625,1937
813.2819897094754,1835
815.5293415427581,1817
817.77608268396,1853
820.0222133567116,1852
822.2677337847211,1795
824.5126441917765,1835
826.7569448017433,1852
829.0006358385675,1823
831.2437175262731,1833
833.4861900889629,1793
835.7280537508192,1898
837.9693087361026,1878
840.2099552691533,1917
842.4499935743896,1859
844.689423876309,1855
846.9282463994886,1830
849.1664613685833,1823
851.4040690083276,1785
853.6410695435349,1868
855.877463199097,1873
858.1132501999847,1821
860.3484307712487,1877
862.5830051380175,1939
864.8169735254988,1861
867.0503361589791,1906
869.2830932638243,1898
871.5152450654786,1926
873.7467917894654,1866
875.9777336613873,1978
878.2080709069252,1894
880.4378037518389,1934
882.666932421968,1923
884.8954571432301,2012
887.1233781416219,1920
889.3506956432192,1944
891.5774098741766,1882
893.803521060728,1912
896.0290294291852,1958
898.2539352059397,1960
900.4782386174619,1856
902.7019398903011,1912
904.925039251085,1864
907.147536926521,1910
909.3694331433943,1917
911.59072812857,1870
913.8114221089921,1914
916.0315153116827,1947
918.2510079637437,1914
920.4699002923547,1848
922.6881925247761,1874
924.905884888345,1849
927.1229776104793,1866
929.3394709186747,1849
931.555365040506,1918
933.7706602036275,1910
935.9853566357709,1844
938.1994545647489,1891
940.4129542184515,1923
942.6258558248488,1938
944.8381596119883,1943
947.0498658079974,1857
949.2609746410825,1921
951.4714863395287,1924
953.6814011316998,1867
955.8907192460387,1920
958.0994409110671,1895
960.3075663553858,1906
962.5150958076741,1924
964.7220294966913,1914
966.928367651274,1855
969.1341105003388,1902
971.3392582728806,1891
973.5438111979742,1843
975.747769504772,1897
977.9511334225061,1903
980.153903180487,1839
982.3560790081052,1959
984.5576611348289,1866
986.7586497902058,1844
988.9590452038618,1847
991.158847605503,1816
993.3580572249133,1802
995.5566742919558,1782
997.7546990365728,1768
999.952131688785,1789
1002.1489724786926,1725
1004.3452216364743,1740
1006.5408793923874,1677
1008.7359459767691,1627
1010.9304216200343,1681
1013.1243065526781,1700
1015.3176010052733,1668
1017.510305208472,1643
1019.7024193930064,1627
1021.8939437896848,1680
1024.0848786293977,1618
1026.2752241431122,1658
1028.4649805618747,1696
1030.6541481168115,1627
1032.842727039127,1570
1035.0307175601051,1611
1037.2181199111074,1612
1039.4049343235752,1632
1041.591161029029,1617
1043.7768002590683,1605
1045.9618522453698,1593
1048.1463172196918,1652
1050.3301954138697,1652
1052.513487059818,1573
1054.69619238953,1652
1056.8783116350783,1612
1059.0598450286152,1640
1061.2407928023704,1606
1063.4211551886528,1632
1065.6009324198508,1644
1067.780124728432,1667
1069.9587323469414,1634
1072.1367555080046,1606
1074.314194444325,1626
1076.4910493886855,1593
1078.667320573947,1627
1080.843008233051,1657
1083.0181125990161,1653
1085.1926339049414,1612
1087.3665723840027,1609
1089.5399282694575,1579
1091.7127017946405,1529
1093.8848931929647,1567
1096.0565026979243,1554
1098.2275305430899,1581
1100.3979769621128,1571
1102.567842188722,1572
1104.737126456726,1567
1106.9058300000124,1528
1109.0739530525475,1538
1111.2414958483764,1589
1113.4084586216231,1634
1115.5748416064907,1608
1117.7406450372605,1563
1119.9058691482942,1536
1122.0705141740304,1573
1124.2345803489884,1655
1126.3980679077658,1559
1128.5609770850388,1562
1130.7233081155623,1551
1132.8850612341707,1575
1135.0462366757774,1551
1137.2068346753745,1605
1139.3668554680326,1599
1141.526299288901,1590
1143.68516637321,1581
1145.8434569562655,1526
1148.001171273455,1596
1150.158309560244,1613
1152.3148720521767,1564
1154.470858984876,1529
1156.626270594044,1551
1158.7811071154629,1481
1160.9353687849912,1580
1163.089055838569,1572
1165.242168512213,1573
1167.3947070420209,1505
1169.5466716641677,1595
1171.6980626149075,1535
1173.8488801305748,1579
1175.9991244475814,1635
1178.1487958024186,1557
1180.2978944316555,1605
1182.4464205719428,1574
1184.5943744600072,1621
1186.7417563326567,1516
1188.8885664267755,1546
1191.0348049793297,1564
1193.1804722273619,1577
1195.325568407995,1645
1197.4700937584303,1606
1199.614048515948,1581
1201.7574329179074,1558
1203.900247201746,1593
1206.042491604982,1594
1208.1841663652099,1574
1210.3252717201053,1570
1212.465807907422,1570
1214.6057751649923,1639
1216.7451737307279,1622
1218.8840038426192,1643
1221.0222657387353,1579
1223.1599596572241,1708
1225.2970858363137,1586
1227.4336445143094,1665
1229.5696359295966,1623
1231.705060320639,1700
1233.8399179259786,1642
1235.9742089842384,1679
1238.107933734118,1612
1240.2410924143974,1685
1242.373685263935,1677
1244.5057125216676,1753
1246.6371744266116,1658
1248.7680712178621,1689
1250.898403134593,1604
1253.028170416058,1649
1255.1573733015875,1676
1257.2860120305932,1692
1259.4140868425648,1770
1261.54159797707,1779
1263.6685456737569,1690
1265.7949301723515,1684
1267.9207517126597,1691
1270.046010534565,1732
1272.1707068780306,1741
1274.2948409830983,1752
1276.4184130898889,1760
1278.541423438603,1809
1280.6638722695184,1745
1282.785759822993,1810
1284.9070863394636,1732
1287.0278520594447,1769
1289.1480572235314,1800
1291.2677020723963,1739
1293.3867868467923,1795
1295.5053117875495,1810
1297.623277135579,1837
1299.740683131868,1794
1301.8575300174857,1881
1303.973818033578,1874
1306.0895474213703,1901
1308.2047184221678,1888
1310.3193312773528,1975
1312.4333862283888,1896
1314.5468835168163,1911
1316.659823384255,1952
1318.7722060724045,1874
1320.8840318230418,1927
1322.9953008780249,1861
1325.1060134792888,1961
1327.2161698688478,1835
1329.3257702887959,1895
1331.4348149813054,1924
1333.5433041886276,1945
1335.6512381530933,1917
1337.7586171171101,1898
1339.8654413231675,1980
1341.9717110138317,1986
1344.0774264317488,1911
1346.1825878196432,1861
1348.2871954203192,1829
1350.3912494766587,1944
1352.4947502316231,1883
1354.5976979282532,1918
1356.7000928096686,1820
1358.8019351190665,1867
1360.9032250997243,1714
1363.0039629949988,1767
1365.1041490483235,1783
1367.2037835032133,1789
1369.3028666032606,1783
1371.401398592137,1827
1373.4993797135926,1867
1375.5968102114575,1816
1377.6936903296396,1893
1379.7900203121262,1823
1381.8858004029835,1811
1383.9810308463561,1785
1386.075711886469,1851
1388.1698437676241,1805
1390.2634267342032,1850
1392.356461030667,1791
1394.4489469015557,1897
1396.5408845914872,1851
1398.6322743451592,1787
1400.7231164073469,1801
1402.813411022907,1849
1404.903158436773,1849
1406.9923588939578,1846
1409.0810126395531,1822
1411.1691199187303,1820
1413.2566809767386,1807
1415.343696058907,1918
1417.4301654106425,1851
1419.5160892774315,1842
1421.6014679048399,1853
1423.6863015385125,1872
1425.7705904241707,1850
1427.8543348076178,1852
1429.9375349347342,1830
1432.0201910514802,1812
1434.102303403894,1831
1436.1838722380944,1883
1438.2648978002767,1833
1440.3453803367174,1883
1442.4253200937692,1907
1444.5047173178677,1864
1446.5835722555234,1972
1448.6618851533285,1928
1450.739656257952,1913
1452.8168858161434,1939
1454.8935740747306,2031
1456.96972128062,1959
1459.045327680797,2011
1461.120393522327,2068
1463.1949190523528,2068
1465.2689045180973,2052
1467.3423501668608,2056
1469.415256246024,2009
1471.4876230030463,2048
1473.559450685465,2056
1475.6307395408976,2071
1477.7014898170391,2194
1479.771701761665,2154
1481.8413756226287,2193
1483.9105116478618,2153
1485.9791100853772,2275
1488.0471711832643,2188
1490.1146951896926,2308
1492.1816823529098,2219
1494.2481329212433,2296
1496.3140471430984,2290
1498.3794252669609,2339
1500.4442675413939,2287
1502.5085742150404,2291
1504.572345536622,2299
1506.6355817549388,2425
1508.6982831188702,2308
1510.7604498773744,2391
1512.8220822794883,2333
1514.8831805743293,2391
1516.9437450110909,2471
1519.003775839048,2463
1521.0632733075522,2364
1523.1222376660367,2425
1525.1806691640113,2506
1527.2385680510652,2437
1529.2959345768668,2499
1531.3527689911643,2483
1533.4090715437833,2467
1535.4648424846291,2513
1537.5200820636855,2611
1539.5747905310159,2641
1541.6289681367616,2673
1543.6826151311434,2774
1545.7357317644614,2757
1547.7883182870937,2787
1549.8403749494987,2822
1551.8919020022113,2844
1553.9428996958477,2845
1555.9933682811015,2929
1558.0433080087469,2964
1560.0927191296346,2959
1562.1416018946961,2985
1564.1899565549415,3098
1566.2377833614592,3061
1568.2850825654164,3046
1570.3318544180606,3022
1572.3780991707158,2970
1574.423817074788,2935
1576.4690083817595,2831
1578.5136733431923,2772
1580.5578122107272,2755
1582.601425236085,2676
1584.6445126710646,2609
1586.6870747675434,2574
1588.7291117774776,2460
1590.7706239529034,2465
1592.8116115459347,2399
1594.8520748087658,2239
1596.8920139936686,2226
1598.9314293529933,2209
1600.9703211391711,2232
1603.008689604711,2134
1605.0465350022005,2097
1607.0838575843068,2082
1609.1206576037753,1955
1611.1569353134305,2001
1613.1926909661765,1937
1615.2279248149953,1986
1617.2626371129481,1884
1619.2968281131757,1854
1621.3304980688963,1873
1623.3636472334088,1875
1625.39627586009,1837
1627.428384202396,1812
1629.459972513861,1803
1631.4910410480993,1750
1633.5215900588028,1802
1635.551619799744,1739
1637.5811305247717,1719
1639.6101224878166,1709
1641.6385959428862,1765
1643.6665511440683,1685
1645.693988345528,1753
1647.7209078015112,1669
1649.7473097663405,1743
1651.7731944944203,1681
1653.7985622402307,1699
1655.823413258333,1639
1657.847747803366,1624
1659.8715661300494,1638
1661.8948684931793,1692
1663.9176551476316,1728
1665.9399263483624,1760
1667.9616823504057,1678
1669.982923408873,1669
1672.0036497789574,1626
1674.0238617159293,1674
1676.043559475138,1681
1678.0627433120121,1629
1680.081413482059,1660
1682.0995702408654,1647
1684.117213844096,1687
1686.134344547495,1620
1688.1509626068864,1645
1690.1670682781705,1698
1692.182661817329,1630
1694.1977434804217,1654
1696.2123135235875,1664
1698.226372203043,1631
1700.2399197750851,1613
1702.2529564960905,1656
1704.2654826225112,1635
1706.277498410882,1626
1708.2890041178139,1650
1710.2999999999988,1586
1712.3104863142066,1691
1714.3204633172854,1624
1716.329931266163,1636
1718.3388904178469,1669
1720.3473410294214,1690
1722.3552833580516,1637
1724.3627176609807,1661
1726.3696441955308,1588
1728.3760632191033,1622
1730.3819749891782,1611
1732.3873797633146,1580
1734.3922777991502,1593
1736.3966693544012,1647
1738.4005546868639,1615
1740.4039340544127,1575
1742.406807715001,1582
1744.4091759266616,1585
1746.4110389475054,1599
1748.4123970357223,1582
1750.413250449582,1587
1752.4135994474318,1601
1754.4134442876993,1608
1756.4127852288902,1598
1758.4116225295893,1561
1760.4099564484595,1563
1762.407787244244,1555
1764.405115175764,1528
1766.4019405019203,1595
1768.3982634816916,1579
1770.3940843741357,1573
1772.3894034383907,1571
1774.3842209336717,1549
1776.378537119274,1510
1778.372352254571,1553
1780.3656665990156,1557
1782.3584804121397,1589
1784.3507939535534,1609
1786.3426074829463,1504
1788.3339212600863,1536
1790.3247355448211,1514
1792.3150505970766,1606
1794.3048666768573,1585
1796.2941840442477,1649
1798.2830029594106,1585
1800.2713236825884,1545
1802.2591464741004,1529
1804.2464715943465,1509
1806.2332993038058,1575
1808.2196298630352,1598
1810.2054635326708,1554
1812.190800573428,1563
1814.175641246101,1541
1816.1599858115628,1552
1818.1438345307652,1521
1820.127187664738,1541
1822.1100454745924,1554
1824.092408221516,1527
1826.0742761667766,1595
1828.055649571721,1490
1830.0365286977735,1551
1832.0169138064398,1641
1833.9968051593014,1543
1835.9762030180214,1556
1837.9551076443408,1517
1839.9335193000788,1524
1841.9114382471344,1556
1843.888864747485,1503
1845.8657990631878,1562
1847.842241456378,1519
1849.8181921892697,1552
1851.7936515241558,1487
1853.7686197234098,1609
1855.7430970494815,1539
1857.7170837649014,1563
1859.6905801322787,1465
1861.6635864143004,1578
1863.6361028737338,1488
1865.608129773424,1582
1867.5796673762961,1530
1869.5507159453537,1523
1871.521275743678,1548
1873.4913470344313,1497
1875.4609300808534,1559
1877.4300251462632,1599
1879.3986324940588,1518
1881.366752387717,1593
1883.3343850907936,1497
1885.3015308669228,1591
1887.268189979819,1574
1889.2343626932739,1602
1891.2000492711595,1554
1893.1652499774254,1637
1895.1299650761011,1614
1897.0941948312952,1548
1899.0579395071945,1593
1901.0211993680641,1545
1902.98397467825,1586
1904.9462657021745,1560
1906.9080727043415,1541
1908.869395949332,1515
1910.8302357018065,1585
1912.790592226504,1543
1914.7504657882428,1601
1916.7098566519212,1601
1918.6687650825133,1609
1920.6271913450764,1635
1922.5851357047422,1672
1924.5425984267245,1588
1926.499579776314,1583
1928.4560800188833,1527
1930.4120994198802,1581
1932.367638244833,1565
1934.32269675935,1530
1936.2772752291175,1541
1938.231373919899,1556
1940.1849930975404,1534
1942.1381330279637,1685
1944.0907939771696,1598
1946.0429762112412,1546
1947.9946799963363,1584
1949.9459055986945,1605
1951.896653284633,1568
1953.8469233205478,1588
1955.7967159729142,1553
1957.7460315082863,1540
1959.6948701932974,1532
1961.6432322946594,1568
1963.5911180791632,1537
1965.5385278136787,1530
1967.4854617651545,1551
1969.4319202006182,1613
1971.377903387176,1594
1973.3234115920136,1472
1975.268445082395,1614
1977.2130041256642,1576
1979.1570889892423,1621
1981.1006999406304,1607
1983.04383724741,1548
1984.986501177238,1613
1986.928691997853,1559
1988.8704099770712,1584
1990.811655382789,1574
1992.7524284829801,1536
1994.692729545698,1559
1996.6325588390755,1555
1998.5719166313224,1557
2000.5108031907307,1534
2002.4492187856677,1557
2004.387163684583,1518
2006.3246381560011,1525
2008.2616424685298,1541
2010.1981768908527,1588
2012.1342416917332,1534
2014.069837140014,1563
2016.0049635046162,1556
2017.9396210545406,1514
2019.8738100588666,1536
2021.8075307867502,1544
2023.740783507431,1592
2025.6735684902228,1506
2027.6058860045214,1625
2029.5377363198004,1537
2031.4691197056118,1564
2033.4000364315875,1573
2035.3304867674374,1544
2037.260470982952,1516
2039.189989347998,1527
2041.1190421325232,1549
2043.047629606554,1512
2044.9757520401945,1491
2046.9034097036288,1495
2048.8306028671195,1489
2050.7573318010086,1550
2052.683596775716,1570
2054.609398061742,1576
2056.5347359296647,1598
2058.4596106501403,1546
2060.384022493906,1520
2062.3079717317764,1501
2064.231458634646,1519
2066.1544834734873,1552
2068.077046519352,1555
2069.99914804337,1558
2071.9207883167524,1558
2073.8419676107865,1518
2075.7626861968406,1550
2077.6829443463607,1537
2079.6027423308715,1475
2081.522080421977,1562
2083.440958891362,1623
2085.359378010786,1611
2087.2773380520907,1622
2089.194839287196,1550
2091.111881988101,1533
2093.0284664268825,1577
2094.9445928756973,1564
2096.86026160678,1543
2098.775472892446,1583
2100.690227005088,1610
2102.604524217178,1572
2104.5183648012676,1539
2106.431749029985,1519
2108.34467717604,1516
2110.2571495122206,1562
2112.169166311393,1547
2114.080727846503,1504
2115.9918343905747,1582
2117.902486216711,1551
2119.8126835980956,1526
2121.722426807987,1628
2123.6317161197285,1591
2125.5405518067364,1606
2127.448934142509,1497
2129.356863400624,1559
2131.264339854737,1590
2133.1713637785815,1547
2135.077935445972,1536
2136.9840551308002,1550
2138.889723107037,1561
2140.7949396487334,1565
2142.699705030018,1609
2144.6040195250994,1597
2146.507883408264,1599
2148.4112969538774,1595
2150.3142604363848,1590
2152.2167741303097,1696
2154.1188383102535,1616
2156.0204532508997,1685
2157.9216192270064,1544
2159.822336513414,1573
2161.7226053850413,1627
2163.622426116884,1571
2165.5217989840185,1600
2167.4207242616,1622
2169.319202224862,1615
2171.2172331491165,1654
2173.1148173097563,1643
2175.0119549822507,1702
2176.90864644215,1592
2178.8048919650823,1577
2180.7006918267534,1568
2182.596046302952,1579
2184.4909556695407,1597
2186.3854202024645,1572
2188.279440177746,1546
2190.173015871487,1738
2192.066147559868,1548
2193.958835519149,1594
2195.851080025667,1535
2197.7428813558417,1598
2199.6342397861667,1600
2201.5251555932186,1658
2203.415629053651,1669
2205.3056604441986,1569
2207.19525004167,1690
2209.084398122958,1643
2210.9731049650327,1640
2212.861370844941,1601
2214.749196039812,1644
2216.636580826851,1650
2218.523525483344,1596
2220.410030286655,1656
2222.296095514226,1605
2224.1817214435805,1595
2226.066908352319,1673
2227.951656518121,1580
2229.835966218746,1611
2231.71983773203,1540
2233.6032713358913,1584
2235.486267308324,1636
2237.3688259274036,1600
2239.2509474712824,1596
2241.132632218193,1601
2243.013880446447,1634
2244.8946924344323,1639
2246.7750684606203,1644
2248.6550088035574,1603
2250.534513741871,1524
2252.413583554265,1564
2254.292218519526,1625
2256.170418916517,1663
2258.0481850241786,1634
2259.925517121534,1611
2261.8024154876825,1628
2263.678880401803,1613
2265.5549121431536,1605
2267.430510991071,1601
2269.305677224971,1625
2271.180411124348,1618
2273.0547129687766,1649
2274.9285830379076,1623
2276.8020216114737,1644
2278.6750289692845,1586
2280.5476053912294,1627
2282.4197511572766,1622
2284.2914665474727,1610
2286.162751841943,1644
2288.0336073208937,1644
2289.904033264608,1681
2291.774029953448,1627
2293.6435976678554,1653
2295.5127366883517,1670
2297.381447295534,1619
2299.2497297700825,1644
2301.1175843927526,1573
2302.9850114443825,1612
2304.852011205885,1589
2306.7185839582553,1554
2308.5847299825664,1586
2310.4504495599676,1625
2312.3157429716925,1518
2314.1806104990483,1539
2316.0450524234247,1605
2317.9090690262888,1553
2319.772660589186,1566
2321.635827393742,1569
2323.498569721661,1624
2325.3608878547248,1559
2327.2227820747967,1557
2329.0842526638157,1601
2330.945299903803,1591
2332.805924076857,1604
2334.6661254651535,1528
2336.525904350951,1602
2338.3852610165827,1542
2340.244195744464,1560
2342.102708817088,1526
2343.9608005170253,1544
2345.8184711269287,1573
2347.675720929526,1564
2349.532550207628,1609
2351.38895924412,1620
2353.24494832197,1603
2355.100517724223,1572
2356.955667734004,1600
2358.810398634514,1531
2360.664710709037,1537
2362.5186042409337,1636
2364.3720795136437,1585
2366.225136810686,1562
2368.0777764156583,1584
2369.929998612237,1633
2371.7818036841777,1553
2373.633191915315,1604
2375.484163589562,1626
2377.3347189909114,1630
2379.184858403434,1559
2381.03458211128,1649
2382.8838903986775,1624
2384.732783549936,1604
2386.5812618494406,1599
2388.4293255816588,1606
2390.2769750311327,1619
2392.1242104824883,1599
2393.971032220427,1641
2395.8174405297295,1624
2397.6634356952563,1586
2399.509018001947,1589
2401.3541877348193,1647
2403.1989451789705,1630
2405.043290619576,1591
2406.8872243418905,1631
2408.730746631247,1666
2410.5738577730594,1627
2412.4165580528183,1621
2414.258847756095,1651
2416.100727168537,1604
2417.9421965758734,1577
2419.783256263912,1604
2421.623906518538,1619
2423.4641476257157,1689
2425.303979871491,1656
2427.143403541984,1593
2428.9824189233977,1618
2430.821026302012,1596
2432.6592259641866,1637
2434.497018196361,1568
2436.33440328505,1632
2438.171381516851,1584
2440.00795317844,1585
2441.844118556569,1650
2443.6798779380724,1662
2445.5152316098606,1598
2447.3501798589255,1650
2449.1847229723357,1625
2451.0188612372403,1640
2452.8525949408663,1643
2454.6859243705203,1594
2456.518849813587,1594
2458.3513715575314,1557
2460.183489889895,1625
2462.015205098301,1654
2463.8465174704493,1633
2465.67742729412,1628
2467.5079348571717,1670
2469.338040447542,1634
2471.1677443532476,1594
2472.9970468623833,1667
2474.825948263123,1588
2476.6544488437207,1662
2478.482548892508,1665
2480.310248697896,1597
2482.137548548374,1653
2483.9644487325118,1676
2485.790949538956,1628
2487.617051256433,1642
2489.44275417375,1605
2491.26805857979,1571
2493.0929647635157,1681
2494.917473013971,1604
2496.741583620276,1647
2498.5652968716304,1626
2500.3886130573137,1574
2502.2115324666834,1689
2504.0340553891765,1671
2505.856182114308,1719
2507.6779129316733,1699
2509.499248130945,1697
2511.3201880018764,1702
2513.140732834298,1714
2514.9608829181198,1703
2516.780638543331,1639
2518.6,1695
2520.418967578273,1651
2522.237541568376,1637
2524.0557222606144,1653
2525.8735099453706,1606
2527.6909049131086,1672
2529.507907454368,1683
2531.32451785977,1686
2533.140736420014,1725
2534.9565634258774,1730
2536.771999168218,1757
2538.5870439379714,1696
2540.4016980261526,1698
2542.2159617238544,1735
2544.02983532225,1726
2545.8433191125914,1727
2547.656413386209,1735
2549.4691184345115,1728
2551.2814345489874,1727
2553.093362021204,1725
2554.904901142808,1769
2556.716052205523,1779
2558.526815501153,1784
2560.3371913215824,1714
2562.147179958771,1764
2563.956781704761,1783
2565.7659968516705,1800
2567.5748256916986,1802
2569.3832685171224,1869
2571.1913256202984,1827
2572.9989972936614,1788
2574.806283829725,1800
2576.613185521084,1857
2578.4197026604074,1898
2580.2258355404483,1889
2582.031584454035,1839
2583.836949694077,1861
2585.6419315535613,1854
2587.4465303255533,1915
2589.2507463032002,1843
2591.0545797797245,1832
2592.8580310484303,1850
2594.6611004026995,1876
2596.463788135992,1843
2598.266094541849,1784
2600.0680199138874,1839
2601.869564545807,1855
2603.670728731383,1900
2605.4715127644704,1844
2607.2719169390048,1777
2609.071941548998,1861
2610.8715868885433,1805
2612.670853251811,1867
2614.469740933052,1827
2616.268250226594,1921
2618.0663814268455,1762
2619.864134828292,1811
2621.6615107255006,1855
2623.458509413115,1808
2625.2551311858597,1824
2627.0513763385347,1804
2628.8472451660223,1832
2630.6427379632833,1779
2632.4378550253564,1814
2634.232596647359,1809
2636.026963124488,1853
2637.8209547520187,1865
2639.6145718253065,1852
2641.407814639785,1790
2643.200683490966,1822
2644.9931786744414,1786
2646.7853004858807,1754
2648.577049221034,1815
2650.3684251757277,1793
2652.1594286458712,1752
2653.9500599274484,1807
2655.740319316525,1832
2657.5302071092437,1732
2659.3197236018286,1698
2661.10886909058,1708
2662.8976438718782,1734
2664.686048242183,1731
2666.4740824980327,1708
2668.2617469360443,1764
2670.0490418529134,1734
2671.8359675454153,1756
2673.622524310403,1709
2675.408712444811,1735
2677.1945322456495,1692
2678.979984010009,1668
2680.76506803506,1723
2682.5497846180497,1704
2684.334134056306,1698
2686.1181166472343,1701
2687.9017326883213,1638
2689.6849824771293,1687
2691.4678663113013,1665
2693.2503844885596,1690
2695.032537306705,1662
2696.8143250636167,1629
2698.5957480572542,1617
2700.3768065856534,1605
2702.1575009469316,1613
2703.937831439283,1646
2705.717798360982,1608
2707.4974020103837,1595
2709.276642685917,1604
2711.055520686095,1613
2712.834036309506,1604
2714.612189854819,1622
2716.389981620782,1602
2718.1674119062204,1588
2719.944481010041,1624
2721.721189231226,1602
2723.4975368688415,1601
2725.273524222027,1590
2727.0491515900053,1613
2728.824419272075,1637
2730.5993275676146,1635
2732.3738767760838,1613
2734.148067197016,1604
2735.921899130031,1558
2737.6953728748194,1613
2739.468488731156,1599
2741.2412469988926,1648
2743.0136479779617,1571
2744.785691968372,1567
2746.5573792702116,1597
2748.3287101836504,1592
2750.099685008934,1602
2751.870304046388,1573
2753.640567596418,1662
2755.4104759595057,1556
2757.1800294362156,1613
2758.949228327187,1547
2760.7180729331412,1622
2762.486563554877,1607
2764.254700493272,1576
2766.022484049284,1555
2767.789914523947,1553
2769.5569922183786,1486
2771.3237174337705,1539
2773.090090471394,1568
2774.8561116326036,1550
2776.6217812188274,1552
2778.3870995315756,1571
2780.1520668724356,1564
2781.9166835430747,1536
2783.6809498452394,1603
2785.444866080754,1477
2787.2084325515225,1549
2788.971649559527,1574
2790.73451740683,1548
2792.4970363955713,1618
2794.2592068279705,1497
2796.0210290063264,1547
2797.7825032330147,1577
2799.543629810493,1520
2801.304409041296,1533
2803.0648412280366,1549
2804.8249266734088,1560
2806.5846656801846,1596
2808.344058551212,1588
2810.1031055894246,1602
2811.8618070978273,1544
2813.6201633795085,1612
2815.378174737636,1590
2817.1358414754536,1638
2818.893163896285,1572
2820.6501423035334,1576
2822.4067770006814,1615
2824.1630682912883,1555
2825.9190164789957,1546
2827.6746218675207,1552
2829.429884760661,1552
2831.184805462294,1594
2832.9393842763743,1576
2834.693621506936,1615
2836.4475174580916,1552
2838.201072434034,1582
2839.954286739034,1562
2841.707160677441,1557
2843.459694553685,1522
2845.2118886722724,1593
2846.96374333779,1617
2848.7152588549034,1558
2850.4664355283567,1524
2852.217273662973,1541
2853.9677735636546,1515
2855.7179355353833,1531
2857.4677598832186,1565
2859.217246912299,1547
2860.9663969278427,1527
2862.715210235146,1537
2864.4636871395846,1547
2866.211827946614,1568
2867.9596329617652,1514
2869.7071024906536,1523
2871.4542368389684,1565
2873.20103631248,1549
2874.947501217038,1516
2876.6936318585695,1610
2878.4394285430812,1511
2880.1848915766604,1537
2881.9300212654707,1596
2883.6748179157553,1576
2885.4192818338374,1558
2887.1634133261173,1576
2888.907212699077,1577
2890.6506802592744,1605
2892.393816313348,1598
2894.1366211680142,1595
2895.8790951300693,1563
2897.621238506388,1619
2899.363051603925,1603
2901.1045347297118,1589
2902.8456881908596,1514
2904.58651229456,1585
2906.327007348081,1513
2908.067173658772,1577
2909.8070115340597,1536
2911.5465212814497,1516
2913.285703208527,1551
2915.0245576229563,1565
2916.7630848324807,1517
2918.5012851449196,1553
2920.2391588681758,1568
2921.976706310227,1583
2923.7139277791334,1564
2925.4508235830313,1460
2927.187394030137,1554
2928.923639428745,1521
2930.6595600872306,1559
2932.395156314046,1550
2934.1304284177218,1512
2935.8653767068713,1604
2937.6000014901815,1592
2939.3343030764227,1542
2941.068281774442,1555
2942.8019378931644,1561
2944.5352717415976,1563
2946.2682836288236,1498
2948.0009738640065,1495
2949.7333427563885,1526
2951.465390615289,1554
2953.1971177501086,1552
2954.9285244703265,1550
2956.6596110855,1545
2958.3903779052657,1514
2960.1208252393385,1521
2961.8509533975125,1557
2963.5807626896617,1558
2965.3102534257378,1541
2967.0394259157715,1464
2968.768280469873,1520
2970.496817398232,1553
2972.2250370111146,1580
2973.952939618869,1537
2975.6805255319196,1560
2977.4077950607707,1548
2979.134748516006,1566
2980.861386208289,1593
2982.587708448359,1586
2984.313715547037,1505
2986.039407815222,1551
2987.764785563891,1515
2989.489849104102,1546
2991.2145987469908,1545
2992.9390348037705,1543
2994.6631575857346,1477
2996.3869674042576,1520
2998.1104645707887,1525
2999.83364939686,1502
3001.5565221940783,1577
3003.2790832741334,1509
3005.0013329487924,1505
3006.7232715298996,1499
3008.4448993293804,1476
3010.166216659239,1547
3011.887223831558,1455
3013.607921158498,1551
3015.3283089522993,1541
3017.0483875252826,1528
3018.7681571898443,1524
3020.4876182584626,1488
3022.2067710436927,1547
3023.9256158581707,1531
3025.644153014609,1570
3027.362382825801,1575
3029.0803056046193,1520
3030.797921664012,1531
3032.5152313170106,1495
3034.2322348767225,1529
3035.9489326563353,1487
3037.665324969115,1554
3039.3814121284063,1534
3041.097194447633,1534
3042.812672240299,1490
3044.5278458199855,1525
3046.2427155003525,1627
3047.9572815951406,1541
3049.671544418167,1484
3051.38550428333,1563
3053.0991615046073,1513
3054.812516396051,1596
3056.5255692717974,1526
3058.2383204460575,1504
3059.9507702331257,1524
3061.662918947372,1539
3063.3747669032446,1544
3065.0863144152736,1540
3066.7975617980674,1527
3068.508509366309,1512
3070.219157434767,1503
3071.9295063182844,1535
3073.639556331785,1473
3075.3493077902704,1493
3077.058761008821,1494
3078.7679163025964,1542
3080.476773986837,1503
3082.1853343768594,1475
3083.89359778806,1485
3085.6015645359153,1531
3087.3092349359786,1503
3089.016609303884,1502
3090.7236879553434,1505
3092.4304712061476,1546
3094.136959372166,1546
3095.843152769349,1529
3097.5490517137237,1500
3099.2546565213966,1523
3100.959967508554,1516
3102.66498499146,1563
3104.3697092864577,1497
3106.0741407099695,1490
3107.778279578498,1582
3109.482126208622,1471
3111.1856809170004,1490
3112.8889440203716,1502
3114.5919158355528,1545
3116.294596679439,1534
3117.996986869006,1594
3119.6990867213062,1550
3121.4008965534726,1510
3123.102416682717,1553
3124.803647426329,1613
3126.5045891016784,1512
3128.205242026213,1510
3129.90560651746,1527
3131.605682893025,1560
3133.3054714705922,1567
3135.0049725679282,1545
3136.7041865028714,1489
3138.4031135933465,1513
3140.101754157353,1560
3141.800108512971,1527
3143.498176978357,1549
3145.1959598717494,1515
3146.8934575114636,1490
3148.5906702158954,1519
3150.2875983035183,1492
3151.9842420928853,1482
3153.680601902627,1533
3155.376678051456,1514
3157.07247085816,1465
3158.767980641609,1504
3160.463207720748,1529
3162.158152414606,1536
3163.8528150422862,1579
3165.5471959229726,1524
3167.2412953759303,1505
3168.9351137204976,1518
3170.628651276098,1538
3172.3219083622307,1478
3174.014885298474,1508
3175.707582404485,1486
3177.4000000000005,1534
3179.092138404835,1558
3180.7839979388846,1610
3182.47557892212,1514
3184.166881674594,1532
3185.8579065164386,1521
3187.5486537678626,1475
3189.2391237491547,1534
3190.9293167806827,1511
3192.6192331828934,1507
3194.3088732763117,1536
3195.998237381542,1512
3197.687325819268,1586
3199.376138910251,1456
3201.064676975334,1547
3202.7529403354347,1502
3204.4409293115523,1511
3206.1286442247647,1513
3207.816085396229,1551
3209.5032531471825,1586
3211.190147798936,1482
3212.8767696728846,1541
3214.5631190905015,1472
3216.2491963733373,1485
3217.9350018430214,1451
3219.6205358212637,1541
3221.305798629851,1459
3222.990790590651,1515
3224.6755120256103,1491
3226.359963256751,1505
3228.0441446061795,1459
3229.7280563960758,1503
3231.411698948703,1468
3233.0950725863995,1492
3234.778177631587,1480
3236.461014406761,1452
3238.1435832345005,1503
3239.8258844374595,1539
3241.507918338374,1522
3243.1896852600576,1504
3244.8711855254023,1508
3246.552419457381,1495
3248.233387379042,1492
3249.914089613516,1475
3251.59452648401,1521
3253.274698313813,1535
3254.95460542629,1479
3256.6342481448855,1445
3258.313626793125,1419
3259.9927416946084,1459
3261.6715931730196,1477
3263.3501815521176,1465
3265.0285071557437,1456
3266.706570307815,1486
3268.3843713323286,1505
3270.0619105533615,1533
3271.739188295068,1446
3273.4162048816834,1426
3275.0929606375184,1499
3276.769455886966,1494
3278.445690954498,1489
3280.1216661646613,1532
3281.797381842087,1491
3283.4728383114807,1509
3285.1480358976296,1547
3286.8229749253996,1539
3288.4976557197333,1519
3290.172078605655,1496
3291.846243908266,1498
3293.5201519527463,1494
3295.193803064357,1489
3296.8671975684374,1469
3298.5403357904024,1473
3300.21321805575,1468
3301.8858446900567,1524
3303.558216018975,1489
3305.23033236824,1502
3306.9021940636603,1464
3308.57380143113,1470
3310.2451547966184,1480
3311.916254486174,1540
3313.5871008259246,1496
3315.2576941420766,1478
3316.9280347609147,1439
3318.5981230088046,1487
3320.2679592121895,1462
3321.9375436975924,1502
3323.606876791612,1477
3325.27595882093,1537
3326.944790112305,1420
3328.6133709925753,1478
3330.2817017886573,1522
3331.949782827547,1475
3333.617614436319,1492
3335.2851969421245,1476
3336.952530672199,1539
3338.619615953853,1502
3340.286453114475,1481
3341.9530424815357,1497
3343.619384382583,1502
3345.2854791452437,1525
3346.951327097224,1549
3348.6169285663073,1447
3350.2822838803577,1539
3351.947393367319,1522
3353.61225735521,1539
3355.2768761721345,1505
3356.9412501462693,1440
3358.605379605873,1494
3360.2692648792827,1498
3361.9329062949146,1486
3363.596304181263,1495
