CollectionTime,9/25/2024 11:44:15 AM
ExposureUsed,3
CalibratedSpectrum
-962.7078968117929,758
-959.9714848408522,836
-957.2358232597828,745
-954.5009119013725,766
-951.7667505983302,794
-949.0333391832855,781
-946.3006774887896,726
-943.5687653473143,761
-940.837602591253,805
-938.1071890529199,774
-935.3775245645503,806
-932.6486089583007,815
-929.9204420662485,742
-927.1930237203925,749
-924.4663537526524,776
-921.7404319948689,793
-919.0152582788041,810
-916.2908324361409,789
-913.5671542984834,785
-910.8442236973568,771
-908.1220404642074,776
-905.4006044304027,769
-902.679915427231,792
-899.959973285902,778
-897.2407778375464,761
-894.5223289132158,746
-891.8046263438832,771
-889.0876699604426,785
-886.3714595937089,781
-883.6559950744183,810
-880.9412762332282,748
-878.2273029007168,754
-875.5140749073835,768
-872.8015920836489,763
-870.0898542598545,777
-867.3788612662631,754
-864.6686129330585,786
-861.9591090903457,795
-859.2503495681506,762
-856.5423341964203,765
-853.8350628050229,785
-851.1285352237478,805
-848.4227512823054,793
-845.7177108103272,774
-843.0134136373656,784
-840.3098595928943,757
-837.6070485063082,765
-834.9049802069229,793
-832.2036545239757,761
-829.5030712866244,787
-826.8032303239481,794
-824.1041314649472,826
-821.4057745385428,781
-818.7081593735775,801
-816.0112857988148,778
-813.3151536429393,765
-810.6197627345566,829
-807.9251129021936,809
-805.2312039742981,797
-802.5380357792392,826
-799.8456081453069,814
-797.1539209007124,825
-794.462973873588,768
-791.772766891987,808
-789.083299783884,861
-786.3945723771743,841
-783.7065844996748,820
-781.0193359791231,875
-778.3328266431781,843
-775.6470563194197,856
-772.9620248353489,856
-770.2777320183878,790
-767.5941776958798,820
-764.9113616950891,804
-762.2292838432011,822
-759.5479439673222,850
-756.8673418944801,791
-754.1874774516235,841
-751.5083504656222,810
-748.8299607632671,783
-746.15230817127,834
-743.475392516264,818
-740.7992136248035,873
-738.1237713233636,854
-735.4490654383407,770
-732.7750957960521,789
-730.1018622227365,826
-727.4293645445534,855
-724.7576025875837,817
-722.0865761778291,847
-719.4162851412126,839
-716.7467293035781,822
-714.0779084906909,838
-711.409822528237,854
-708.7424712418238,878
-706.0758544569796,883
-703.4099719991541,869
-700.7448236937178,875
-698.0804093659622,888
-695.4167288411002,880
-692.7537819442656,892
-690.0915685005134,862
-687.4300883348199,885
-684.7693412720819,875
-682.1093271371178,919
-679.4500457546669,890
-676.7914969493897,856
-674.1336805458676,851
-671.4765963686034,865
-668.8202442420206,886
-666.1646239904642,898
-663.5097354382001,874
-660.8555784094151,873
-658.2021527282176,861
-655.5494582186366,896
-652.8974947046223,880
-650.2462620100463,898
-647.5957599587009,908
-644.9459883742998,917
-642.2969470804776,922
-639.6486359007902,923
-637.0010546587141,883
-634.3542031776476,907
-631.7080812809096,922
-629.0626887917401,878
-626.4180255333008,938
-623.7740913286734,975
-621.1308860008619,962
-618.4884093727904,918
-615.8466612673046,940
-613.2056415071715,905
-610.5653499150785,941
-607.9257863136347,901
-605.28695052537,905
-602.6488423727357,919
-600.0114616781036,953
-597.3748082637674,970
-594.7388819519412,950
-592.1036825647604,962
-589.4692099242818,956
-586.8354638524829,950
-584.2024441712624,955
-581.5701507024403,999
-578.9385832677575,977
-576.3077416888759,976
-573.6776257873787,929
-571.0482353847704,968
-568.4195703024757,930
-565.7916303618415,992
-563.164415384135,989
-560.5379251905453,921
-557.9121596021815,939
-555.2871184400748,928
-552.6628015251767,898
-550.0392086783606,946
-547.4163397204204,987
-544.794194472071,974
-542.1727727539491,1001
-539.5520743866118,976
-536.9320991905377,1001
-534.3128469861261,1003
-531.6943175936979,1025
-529.0765108334947,1015
-526.4594265256793,1157
-523.8430644903358,1303
-521.2274245474689,1324
-518.612506517005,1418
-515.9983102187913,1411
-513.3848354725959,1459
-510.77208209810846,1508
-508.16004991493924,1595
-505.5487387426199,1724
-502.9381484006032,1701
-500.3282787082628,1760
-497.71912948489364,1662
-495.1107005497117,1562
-492.5029917218539,1448
-489.8960028203786,1365
-487.28973366426493,1201
-484.68418407241325,1103
-482.07935386364494,1100
-479.47524285670266,1150
-476.87185087025,1077
-474.2691777228715,1189
-471.66722323307334,1171
-469.0659872192821,1151
-466.4654694998459,1098
-463.86566989303384,1148
-461.26658821703614,1096
-458.66822428996414,1151
-456.07057792985,1103
-453.4736489546475,1107
-450.877437182231,1144
-448.28194243039627,1079
-445.68716451686,1091
-443.09310325926003,1079
-440.49975847515555,1008
-437.9071299820263,1072
-435.31521759727354,1088
-432.72402113821954,1137
-430.13354042210767,1153
-427.5437752661022,1086
-424.95472548728867,1127
-422.36639090267386,1149
-419.7787713291855,1129
-417.1918665836721,1126
-414.60567648290385,1122
-412.0202008435715,1154
-409.4354394822874,1166
-406.8513922155845,1162
-404.26805885991723,1153
-401.685439231661,1114
-399.103533147112,1164
-396.522340422488,1143
-393.9418608739278,1110
-391.3620943174908,1116
-388.7830405691583,1086
-386.2046994448317,1042
-383.6270707603344,1013
-381.05015433141045,961
-378.473949973725,914
-375.8984575028645,821
-373.32367673433623,740
-370.74960748356875,685
-368.1762495659117,673
-365.60360279663576,563
-363.03166699093265,580
-360.4604419639154,516
-357.8899275306178,539
-355.32012350599507,504
-352.7510297049233,465
-350.1826459421999,458
-347.61497203254316,449
-345.04800779059235,460
-342.4817530309082,452
-339.91620756797226,510
-337.35137121618743,462
-334.7872437898774,457
-332.22382510328725,469
-329.66111497058273,442
-327.09911320585127,496
-324.53781962310075,481
-321.9772340362607,461
-319.4173562591816,460
-316.8581861056348,497
-314.2997233893127,515
-311.7419679238294,473
-309.1849195227194,480
-306.62857799943856,500
-304.0729431673641,492
-301.51801483979375,505
-298.963792829947,517
-296.41027695096386,518
-293.85746701590574,504
-291.3053628377552,551
-288.7539642294155,533
-286.2032710037115,535
-283.65328297338897,545
-281.1039999511146,535
-278.5554217494762,591
-276.007548180983,593
-273.4603790580651,565
-270.9139141930734,568
-268.3681533982807,577
-265.8230964858798,610
-263.27874326798565,617
-260.7350935566336,641
-258.1921471637804,645
-255.6499039013039,646
-253.10836358100266,617
-250.56752601459698,617
-248.02739101372765,651
-245.48795838995704,778
-242.94922795476816,710
-240.41119951956557,588
-237.8738728956746,643
-235.33724789434166,648
-232.80132432673452,651
-230.2661020039418,631
-227.73158073697357,642
-225.19776033676033,726
-222.66464061415422,849
-220.1322213799284,778
-217.60050244477725,678
-215.06948361931552,686
-212.53916471408013,777
-210.00954553952818,846
-207.48062590603843,777
-204.9524056239104,749
-202.4248845033651,770
-199.8980623545441,791
-197.37193898751036,831
-194.84651421224817,849
-192.32178783866232,790
-189.79775967657952,836
-187.27442953574644,861
-184.7517972258321,871
-182.2298625564256,784
-179.7086253370378,730
-177.18808537710026,697
-174.66824248596583,919
-172.14909647290835,1027
-169.6306471471229,944
-167.11289431772548,713
-164.59583779375328,705
-162.07947738416453,797
-159.5638128978386,1055
-157.04884414357605,1271
-154.53457093009854,1348
-152.02099306604828,1058
-149.50811035998936,887
-146.99592262040665,947
-144.48442965570587,1032
-141.97363127421409,1337
-139.46352728417958,1511
-136.95411749377126,1579
-134.44540171107985,1342
-131.93737974411636,1065
-129.43005140081357,1180
-126.92341648902493,1362
-124.41747481652521,1744
-121.91222619101006,2473
-119.40767042009657,3264
-116.90380731132257,3425
-114.40063667214702,3078
-111.8981583099503,2499
-109.3963720320337,2267
-106.89527764561933,2292
-104.39487495785067,2418
-101.89516377579241,3558
-99.39614390642998,5190
-96.89781515667039,6540
-94.40017733334128,6759
-91.90323024319173,6089
-89.40697369289148,4758
-86.91140748903172,3601
-84.41653143812482,3251
-81.92234534660395,3339
-79.42884902082358,4246
-76.93604226705907,4629
-74.4439248915071,5020
-71.95249670028534,5758
-69.46175749943245,6538
-66.97170709490854,8148
-64.48234529259423,10003
-61.99367189829195,10064
-59.50568671772464,8915
-57.01838955653636,8367
-54.53178022029283,9628
-52.045858514480074,10314
-49.560624244506016,11375
-47.07607721569923,10607
-44.59221723330904,10602
-42.10904410250669,9304
-39.62655762838392,10401
-37.14475761595372,12536
-34.66364387015028,15008
-32.18321619582866,15201
-29.70347439776515,17327
-27.224418280657005,20484
-24.74604764912317,22557
-22.26836230770266,35311
-19.7913620608565,65041
-17.315046712966478,65041
-14.83941606833514,65041
-12.36446993118659,65041
-9.89020810566592,65041
-7.416630395839093,65041
-4.94373660569363,65041
-2.471526539137585,65041
-6.821210263296962E-13,65041
2.47084320796705,65041
4.941003281093458,65041
7.410480415786196,65041
9.879274808531363,65041
12.347386655893956,65041
14.814816154518212,65041
17.28156350112681,65041
19.74762889252179,65041
22.21301252558385,21609
24.67771459727237,4320
27.141735304626195,2892
29.605074844762612,3019
32.06773341487792,2866
34.52971121224755,2677
36.99100843422559,2450
39.45162527824516,2233
41.91156194181792,2282
44.370818622535126,2208
46.82939551806646,2110
49.287292826160524,2514
51.74451074464503,2439
54.201049471426245,2637
56.65690920448981,2037
59.112090141899785,1972
61.56659248179983,2095
64.02041642241159,1723
66.4735621620365,1623
68.92602989905402,1806
71.37781983192338,1755
73.82893215918205,1881
76.27936707944684,1597
78.72912479141326,1514
81.17820549385567,1496
83.62660938562783,1298
86.07433666566146,1282
88.5213875329681,1579
90.96776218663751,1382
93.41346082583925,1185
95.85848364982041,1144
98.30283085790859,1109
100.7465026495089,1148
103.18949922410604,1269
105.63182078126385,1402
108.07346752062438,1093
110.51443964190923,1197
112.95473734491827,1213
115.39436082953114,1057
117.83331029570547,1103
120.27158594347827,1137
122.7091879729652,1058
125.1461165843615,1042
127.58237197794062,994
130.01795435405518,1069
132.4528639131364,1027
134.88710085569494,1027
137.32066538231982,1031
139.75355769367923,900
142.1857779905207,880
144.61732647366978,929
147.04820334403132,1028
149.47840880258934,1143
151.90794305040674,1114
154.33680628862487,1079
156.76499871846443,1141
159.19252054122433,1374
161.61937195828352,1468
164.04555317109896,1595
166.47106438120693,1743
168.89590579022217,1788
171.320077599839,1905
173.7435800118302,1953
176.16641322804742,2157
178.58857745042144,2186
181.01007288096173,2246
183.43089972175687,2258
185.85105817497413,2313
188.27054844285988,2290
190.6893707277394,2398
193.10752523201643,2311
195.5250121581745,2366
197.9418317087751,2453
200.3579840864594,2463
202.7734694939469,2565
205.18828813403627,2595
207.6024402096051,2585
210.01592592360964,2578
212.42874547908548,2516
214.84089907914665,2528
217.2523869269868,2478
219.66320922587727,2571
222.0733661791695,2516
224.48285799029293,2472
226.8916848627572,2620
229.29984700014882,2617
231.7073446061355,2676
234.11417788446204,2558
236.520347038953,2550
238.92585227351185,2519
241.33069379212054,2598
243.73487179884035,2735
246.1383864978112,2792
248.541238093252,2675
250.9434267894609,2645
253.34495279081432,2660
255.74581630176783,2807
258.1460175268563,2750
260.54555667069314,2839
262.9444339379703,2766
265.3426495334594,2797
267.7402036620107,2727
270.1370965285529,2620
272.53332833809407,2642
274.9288992957214,2594
277.32380960660055,2632
279.718059475976,2500
282.1116491091717,2406
284.5045787115897,2469
286.89684848871195,2457
289.2884586460981,2526
291.67940938938807,2461
294.0697009242996,2531
296.4593334566299,2524
298.84830719225477,2504
301.23662233712923,2497
303.6242790972866,2435
306.01127767884,2521
308.39761828798066,2413
310.78330113097934,2510
313.16832641418534,2433
315.5526943440269,2354
317.9364051270112,2386
320.3194589697242,2324
322.70185607883093,2385
325.0835966610754,2227
327.4646809232805,2263
329.8451090723478,2276
332.2248813152577,2316
334.6039978590701,2235
336.9824589109231,2270
339.36026467803447,2238
341.7374153677,2226
344.113911187295,2153
346.48975234427337,2188
348.8649390461686,2198
351.2394715005918,2220
353.61334991523415,2177
355.9865744978655,2136
358.35914545633375,2189
360.73106299856715,2182
363.10232733257146,2243
365.47293866643247,2150
367.84289720831396,2146
370.2122031664593,2127
372.5808567491905,2137
374.9488581649083,2114
377.31620762209275,2093
379.6829053293021,2117
382.0489514951745,2046
384.4143463284262,2094
386.7790900378528,2088
389.14318283232853,2062
391.50662492080653,2082
393.86941651231916,2042
396.23155781597745,2029
398.5930490409713,2037
400.9538903965696,2050
403.3140820921202,2064
405.6736243370498,2016
408.03251734086336,2045
410.3907613131465,1991
412.74835646356166,2097
415.10530300185144,2093
417.4616011378372,2052
419.81725108141893,2081
422.1722530425758,2093
424.5266072313656,2103
426.880313857925,2044
429.2333731324701,2114
431.58578526529516,2095
433.9375504667738,1952
436.2886689473588,2014
438.63914091758113,2063
440.9889665880513,1982
443.33814616945835,1966
445.68667987257015,1993
448.03456790823395,1964
450.3818104873759,2029
452.72840782100013,1968
455.07436012019105,1938
457.41966759611057,1941
459.7643304600007,1963
462.10834892318155,1958
464.4517231970525,2015
466.79445349309174,2034
469.1365400228566,2018
471.4779829979826,1995
473.81878263018564,1979
476.15893913125876,2069
478.4984527130747,2044
480.8373235875855,1984
483.17555196682144,2053
485.5131380628919,2179
487.8500820879857,2161
490.1863842543697,2265
492.52204477439034,2321
494.8570638604725,2486
497.1914417251204,2754
499.52517858091653,3054
501.85827464052306,3263
504.19073011668036,3414
506.5225452222086,3705
508.85372017000566,3624
511.18425517304956,3626
513.514150444396,3703
515.8434061971808,4731
518.1720226446176,5440
520.4999999999999,5612
522.8273384766991,5369
525.1540382881666,4954
527.480099647932,4457
529.8055227696037,3529
532.1303078668694,2775
534.454455153496,2399
536.777964843328,2232
539.1008371502907,2013
541.4230722883866,2111
543.744670471698,2050
546.0656319143858,2047
548.3859568306899,1972
550.7056454349294,1996
553.0246979415016,1962
555.3431145648834,2049
557.6608955196306,2011
559.978041020377,1950
562.2945512818363,1955
564.6104265188006,1977
566.9256669461412,1955
569.2402727788082,1985
571.5542442318302,2018
573.8675815203156,1969
576.1802848594508,2079
578.4923544645015,2015
580.8037905508126,2077
583.114593333807,1976
585.4247630289875,1987
587.7342998519354,1975
590.0432040183106,2047
592.3514757438526,2003
594.6591152443794,2009
596.9661227357875,2014
599.2724984340531,1980
601.578242555231,1916
603.8833553154542,1988
606.1878369309362,1987
608.4916876179676,2003
610.7949075929192,1897
613.0974970722403,2001
615.3994562724587,1970
617.7007854101818,1912
620.0014847020951,1978
622.3015543649641,2003
624.6009946156324,1951
626.8998056710224,1995
629.1979877481361,2006
631.4955410640538,1944
633.7924658359349,2022
636.0887622810175,2036
638.3844306166192,2078
640.6794710601358,1998
642.9738838290426,2075
645.2676691408932,2028
647.5608272133207,2010
649.853358264037,2062
652.1452625108324,1993
654.4365401715764,2003
656.7271914642178,2007
659.0172166067838,1994
661.3066158173809,2013
663.5953893141935,2012
665.8835373154867,2114
668.1710600396028,2068
670.4579577049639,2071
672.7442305300709,2016
675.0298787335033,2081
677.3149025339197,2059
679.599302150058,2053
681.8830778007342,2028
684.1662297048437,1988
686.4487580813608,2064
688.7306631493387,2049
691.0119451279091,2017
693.2926042362834,2027
695.5726406937516,2118
697.8520547196814,1998
700.1308465335215,2045
702.4090163547982,2010
704.6865644031171,1957
706.9634908981619,2053
709.2397960596965,2085
711.5154801075631,2083
713.7905432616823,2078
716.0649857420548,2054
718.3388077687592,2059
720.612009561953,2000
722.8845913418733,2072
725.1565533288352,2009
727.427895743234,2030
729.6986188055427,2018
731.9687227363137,2016
734.238207756178,2010
736.5070740858458,2033
738.7753219461066,2096
741.0429515578281,2006
743.3099631419569,1992
745.5763569195191,2026
747.8421331116193,2073
750.1072919394409,2093
752.3718336242467,2007
754.6357583873777,1977
756.8990664502545,2073
759.1617580343765,2046
761.423833361321,2038
763.6852926527457,2072
765.9461361303862,2020
768.206364016058,2024
770.4659765316536,2068
772.7249738991469,2108
774.9833563405886,2015
777.2411240781092,2066
779.4982773339183,2033
781.7548163303044,2125
784.010741289634,2116
786.2660524343538,2096
788.5207499869881,2049
790.7748341701416,2105
793.0283052064964,2170
795.2811633188143,2154
797.5334087299362,2107
799.7850416627813,2100
802.0360623403484,2105
804.2864709857143,2068
806.5362678220353,2105
808.7854530725468,2116
811.0340269605625,2115
813.2819897094754,2082
815.5293415427581,2117
817.77608268396,2187
820.0222133567116,2131
822.2677337847211,2122
824.5126441917765,2082
826.7569448017433,2091
829.0006358385675,2129
831.2437175262731,2095
833.4861900889629,2106
835.7280537508192,2078
837.9693087361026,2175
840.2099552691533,2034
842.4499935743896,2138
844.689423876309,2108
846.9282463994886,2106
849.1664613685833,2042
851.4040690083276,2093
853.6410695435349,2056
855.877463199097,2047
858.1132501999847,2094
860.3484307712487,2051
862.5830051380175,2112
864.8169735254988,2113
867.0503361589791,2120
869.2830932638243,2050
871.5152450654786,2111
873.7467917894654,2174
875.9777336613873,2049
878.2080709069252,2098
880.4378037518389,2173
882.666932421968,2152
884.8954571432301,2168
887.1233781416219,2201
889.3506956432192,2198
891.5774098741766,2155
893.803521060728,2243
896.0290294291852,2104
898.2539352059397,2137
900.4782386174619,2099
902.7019398903011,2172
904.925039251085,2150
907.147536926521,2147
909.3694331433943,2184
911.59072812857,2174
913.8114221089921,2170
916.0315153116827,2102
918.2510079637437,2155
920.4699002923547,2127
922.6881925247761,2093
924.905884888345,2177
927.1229776104793,2178
929.3394709186747,2135
931.555365040506,2018
933.7706602036275,2105
935.9853566357709,2130
938.1994545647489,2157
940.4129542184515,2130
942.6258558248488,2188
944.8381596119883,2159
947.0498658079974,2122
949.2609746410825,2133
951.4714863395287,2176
953.6814011316998,2149
955.8907192460387,2149
958.0994409110671,2168
960.3075663553858,2182
962.5150958076741,2181
964.7220294966913,2059
966.928367651274,2038
969.1341105003388,2158
971.3392582728806,2144
973.5438111979742,2182
975.747769504772,2121
977.9511334225061,2098
980.153903180487,2101
982.3560790081052,2052
984.5576611348289,2147
986.7586497902058,2120
988.9590452038618,2037
991.158847605503,2079
993.3580572249133,2000
995.5566742919558,1971
997.7546990365728,1920
999.952131688785,1930
1002.1489724786926,1985
1004.3452216364743,1858
1006.5408793923874,1860
1008.7359459767691,1901
1010.9304216200343,1888
1013.1243065526781,1867
1015.3176010052733,1896
1017.510305208472,1886
1019.7024193930064,1895
1021.8939437896848,1959
1024.0848786293977,1916
1026.2752241431122,1810
1028.4649805618747,1838
1030.6541481168115,1859
1032.842727039127,1831
1035.0307175601051,1827
1037.2181199111074,1870
1039.4049343235752,1829
1041.591161029029,1812
1043.7768002590683,1885
1045.9618522453698,1827
1048.1463172196918,1850
1050.3301954138697,1858
1052.513487059818,1812
1054.69619238953,1887
1056.8783116350783,1802
1059.0598450286152,1853
1061.2407928023704,1831
1063.4211551886528,1788
1065.6009324198508,1805
1067.780124728432,1812
1069.9587323469414,1828
1072.1367555080046,1864
1074.314194444325,1868
1076.4910493886855,1816
1078.667320573947,1807
1080.843008233051,1870
1083.0181125990161,1796
1085.1926339049414,1863
1087.3665723840027,1772
1089.5399282694575,1860
1091.7127017946405,1720
1093.8848931929647,1824
1096.0565026979243,1818
1098.2275305430899,1821
1100.3979769621128,1802
1102.567842188722,1814
1104.737126456726,1773
1106.9058300000124,1795
1109.0739530525475,1839
1111.2414958483764,1808
1113.4084586216231,1724
1115.5748416064907,1738
1117.7406450372605,1794
1119.9058691482942,1775
1122.0705141740304,1820
1124.2345803489884,1758
1126.3980679077658,1784
1128.5609770850388,1799
1130.7233081155623,1811
1132.8850612341707,1864
1135.0462366757774,1801
1137.2068346753745,1858
1139.3668554680326,1831
1141.526299288901,1726
1143.68516637321,1814
1145.8434569562655,1791
1148.001171273455,1840
1150.158309560244,1776
1152.3148720521767,1760
1154.470858984876,1811
1156.626270594044,1794
1158.7811071154629,1862
1160.9353687849912,1809
1163.089055838569,1811
1165.242168512213,1826
1167.3947070420209,1845
1169.5466716641677,1877
1171.6980626149075,1786
1173.8488801305748,1766
1175.9991244475814,1795
1178.1487958024186,1757
1180.2978944316555,1801
1182.4464205719428,1800
1184.5943744600072,1797
1186.7417563326567,1785
1188.8885664267755,1779
1191.0348049793297,1775
1193.1804722273619,1702
1195.325568407995,1783
1197.4700937584303,1835
1199.614048515948,1791
1201.7574329179074,1783
1203.900247201746,1780
1206.042491604982,1791
1208.1841663652099,1817
1210.3252717201053,1766
1212.465807907422,1730
1214.6057751649923,1801
1216.7451737307279,1833
1218.8840038426192,1858
1221.0222657387353,1819
1223.1599596572241,1858
1225.2970858363137,1854
1227.4336445143094,1810
1229.5696359295966,1874
1231.705060320639,1855
1233.8399179259786,1890
1235.9742089842384,1917
1238.107933734118,1898
1240.2410924143974,1884
1242.373685263935,1855
1244.5057125216676,1901
1246.6371744266116,1917
1248.7680712178621,1861
1250.898403134593,1809
1253.028170416058,1872
1255.1573733015875,1936
1257.2860120305932,1885
1259.4140868425648,1957
1261.54159797707,1869
1263.6685456737569,1864
1265.7949301723515,1857
1267.9207517126597,1951
1270.046010534565,1946
1272.1707068780306,1988
1274.2948409830983,1971
1276.4184130898889,1944
1278.541423438603,2016
1280.6638722695184,1968
1282.785759822993,1936
1284.9070863394636,1995
1287.0278520594447,2032
1289.1480572235314,1992
1291.2677020723963,2009
1293.3867868467923,2056
1295.5053117875495,2039
1297.623277135579,2101
1299.740683131868,2073
1301.8575300174857,2074
1303.973818033578,2078
1306.0895474213703,2102
1308.2047184221678,2129
1310.3193312773528,2102
1312.4333862283888,2137
1314.5468835168163,2192
1316.659823384255,2129
1318.7722060724045,2163
1320.8840318230418,2189
1322.9953008780249,2161
1325.1060134792888,2110
1327.2161698688478,2169
1329.3257702887959,2183
1331.4348149813054,2189
1333.5433041886276,2164
1335.6512381530933,2157
1337.7586171171101,2089
1339.8654413231675,2111
1341.9717110138317,2061
1344.0774264317488,2153
1346.1825878196432,2144
1348.2871954203192,2038
1350.3912494766587,2134
1352.4947502316231,2089
1354.5976979282532,2058
1356.7000928096686,2027
1358.8019351190665,2079
1360.9032250997243,2021
1363.0039629949988,2053
1365.1041490483235,2048
1367.2037835032133,2120
1369.3028666032606,2007
1371.401398592137,2096
1373.4993797135926,2042
1375.5968102114575,2022
1377.6936903296396,2001
1379.7900203121262,2027
1381.8858004029835,2056
1383.9810308463561,2043
1386.075711886469,1958
1388.1698437676241,1938
1390.2634267342032,2057
1392.356461030667,2045
1394.4489469015557,2031
1396.5408845914872,2015
1398.6322743451592,2079
1400.7231164073469,2068
1402.813411022907,2031
1404.903158436773,2041
1406.9923588939578,2071
1409.0810126395531,2066
1411.1691199187303,2056
1413.2566809767386,2083
1415.343696058907,2117
1417.4301654106425,2114
1419.5160892774315,2032
1421.6014679048399,2066
1423.6863015385125,2062
1425.7705904241707,2015
1427.8543348076178,2025
1429.9375349347342,2079
1432.0201910514802,2117
1434.102303403894,2086
1436.1838722380944,2137
1438.2648978002767,2152
1440.3453803367174,2124
1442.4253200937692,2069
1444.5047173178677,2142
1446.5835722555234,2159
1448.6618851533285,2154
1450.739656257952,2237
1452.8168858161434,2171
1454.8935740747306,2252
1456.96972128062,2240
1459.045327680797,2177
1461.120393522327,2175
1463.1949190523528,2203
1465.2689045180973,2296
1467.3423501668608,2312
1469.415256246024,2298
1471.4876230030463,2311
1473.559450685465,2283
1475.6307395408976,2417
1477.7014898170391,2408
1479.771701761665,2322
1481.8413756226287,2389
1483.9105116478618,2439
1485.9791100853772,2433
1488.0471711832643,2455
1490.1146951896926,2554
1492.1816823529098,2477
1494.2481329212433,2531
1496.3140471430984,2553
1498.3794252669609,2645
1500.4442675413939,2526
1502.5085742150404,2573
1504.572345536622,2561
1506.6355817549388,2633
1508.6982831188702,2522
1510.7604498773744,2538
1512.8220822794883,2578
1514.8831805743293,2636
1516.9437450110909,2651
1519.003775839048,2594
1521.0632733075522,2619
1523.1222376660367,2620
1525.1806691640113,2666
1527.2385680510652,2720
1529.2959345768668,2697
1531.3527689911643,2749
1533.4090715437833,2745
1535.4648424846291,2785
1537.5200820636855,2808
1539.5747905310159,2779
1541.6289681367616,2919
1543.6826151311434,2863
1545.7357317644614,2899
1547.7883182870937,2958
1549.8403749494987,3001
1551.8919020022113,3042
1553.9428996958477,3056
1555.9933682811015,3117
1558.0433080087469,3149
1560.0927191296346,3111
1562.1416018946961,3248
1564.1899565549415,3252
1566.2377833614592,3230
1568.2850825654164,3171
1570.3318544180606,3160
1572.3780991707158,3065
1574.423817074788,3064
1576.4690083817595,2967
1578.5136733431923,2982
1580.5578122107272,2846
1582.601425236085,2851
1584.6445126710646,2794
1586.6870747675434,2681
1588.7291117774776,2631
1590.7706239529034,2566
1592.8116115459347,2537
1594.8520748087658,2542
1596.8920139936686,2522
1598.9314293529933,2485
1600.9703211391711,2404
1603.008689604711,2386
1605.0465350022005,2326
1607.0838575843068,2315
1609.1206576037753,2232
1611.1569353134305,2211
1613.1926909661765,2146
1615.2279248149953,2205
1617.2626371129481,2172
1619.2968281131757,2112
1621.3304980688963,2100
1623.3636472334088,2035
1625.39627586009,2069
1627.428384202396,2059
1629.459972513861,2056
1631.4910410480993,2094
1633.5215900588028,2032
1635.551619799744,2025
1637.5811305247717,1997
1639.6101224878166,1959
1641.6385959428862,1951
1643.6665511440683,1986
1645.693988345528,1950
1647.7209078015112,1985
1649.7473097663405,1907
1651.7731944944203,1992
1653.7985622402307,1973
1655.823413258333,1942
1657.847747803366,1961
1659.8715661300494,1915
1661.8948684931793,1928
1663.9176551476316,1883
1665.9399263483624,1937
1667.9616823504057,1966
1669.982923408873,1953
1672.0036497789574,1872
1674.0238617159293,1833
1676.043559475138,1809
1678.0627433120121,1965
1680.081413482059,1867
1682.0995702408654,1913
1684.117213844096,1911
1686.134344547495,1873
1688.1509626068864,1897
1690.1670682781705,1874
1692.182661817329,1915
1694.1977434804217,1852
1696.2123135235875,1855
1698.226372203043,1889
1700.2399197750851,1931
1702.2529564960905,1930
1704.2654826225112,1885
1706.277498410882,1884
1708.2890041178139,1884
1710.2999999999988,1911
1712.3104863142066,1887
1714.3204633172854,1913
1716.329931266163,1926
1718.3388904178469,1889
1720.3473410294214,1892
1722.3552833580516,1876
1724.3627176609807,1853
1726.3696441955308,1880
1728.3760632191033,1826
1730.3819749891782,1882
1732.3873797633146,1899
1734.3922777991502,1872
1736.3966693544012,1909
1738.4005546868639,1881
1740.4039340544127,1885
1742.406807715001,1920
1744.4091759266616,1924
1746.4110389475054,1835
1748.4123970357223,1868
1750.413250449582,1899
1752.4135994474318,1935
1754.4134442876993,1881
1756.4127852288902,1845
1758.4116225295893,1801
1760.4099564484595,1765
1762.407787244244,1894
1764.405115175764,1848
1766.4019405019203,1878
1768.3982634816916,1870
1770.3940843741357,1838
1772.3894034383907,1914
1774.3842209336717,1911
1776.378537119274,1886
1778.372352254571,1812
1780.3656665990156,1861
1782.3584804121397,1824
1784.3507939535534,1847
1786.3426074829463,1796
1788.3339212600863,1885
1790.3247355448211,1899
1792.3150505970766,1763
1794.3048666768573,1832
1796.2941840442477,1860
1798.2830029594106,1854
1800.2713236825884,1840
1802.2591464741004,1836
1804.2464715943465,1862
1806.2332993038058,1869
1808.2196298630352,1909
1810.2054635326708,1845
1812.190800573428,1874
1814.175641246101,1884
1816.1599858115628,1909
1818.1438345307652,1863
1820.127187664738,1828
1822.1100454745924,1856
1824.092408221516,1843
1826.0742761667766,1786
1828.055649571721,1821
1830.0365286977735,1826
1832.0169138064398,1771
1833.9968051593014,1832
1835.9762030180214,1853
1837.9551076443408,1858
1839.9335193000788,1847
1841.9114382471344,1801
1843.888864747485,1775
1845.8657990631878,1841
1847.842241456378,1831
1849.8181921892697,1765
1851.7936515241558,1834
1853.7686197234098,1764
1855.7430970494815,1868
1857.7170837649014,1874
1859.6905801322787,1745
1861.6635864143004,1864
1863.6361028737338,1782
1865.608129773424,1844
1867.5796673762961,1822
1869.5507159453537,1806
1871.521275743678,1784
1873.4913470344313,1909
1875.4609300808534,1812
1877.4300251462632,1856
1879.3986324940588,1909
1881.366752387717,1872
1883.3343850907936,1797
1885.3015308669228,1842
1887.268189979819,1849
1889.2343626932739,1827
1891.2000492711595,1907
1893.1652499774254,1912
1895.1299650761011,1892
1897.0941948312952,1933
1899.0579395071945,1899
1901.0211993680641,1883
1902.98397467825,1822
1904.9462657021745,1818
1906.9080727043415,1903
1908.869395949332,1858
1910.8302357018065,1856
1912.790592226504,1821
1914.7504657882428,1883
1916.7098566519212,1901
1918.6687650825133,1866
1920.6271913450764,1820
1922.5851357047422,1815
1924.5425984267245,1846
1926.499579776314,1828
1928.4560800188833,1830
1930.4120994198802,1873
1932.367638244833,1837
1934.32269675935,1816
1936.2772752291175,1880
1938.231373919899,1865
1940.1849930975404,1868
1942.1381330279637,1789
1944.0907939771696,1805
1946.0429762112412,1851
1947.9946799963363,1787
1949.9459055986945,1806
1951.896653284633,1788
1953.8469233205478,1792
1955.7967159729142,1805
1957.7460315082863,1856
1959.6948701932974,1820
1961.6432322946594,1818
1963.5911180791632,1782
1965.5385278136787,1807
1967.4854617651545,1808
1969.4319202006182,1806
1971.377903387176,1834
1973.3234115920136,1815
1975.268445082395,1796
1977.2130041256642,1842
1979.1570889892423,1786
1981.1006999406304,1818
1983.04383724741,1819
1984.986501177238,1802
1986.928691997853,1815
1988.8704099770712,1803
1990.811655382789,1803
1992.7524284829801,1768
1994.692729545698,1829
1996.6325588390755,1853
1998.5719166313224,1819
2000.5108031907307,1778
2002.4492187856677,1835
2004.387163684583,1834
2006.3246381560011,1800
2008.2616424685298,1778
2010.1981768908527,1750
2012.1342416917332,1727
2014.069837140014,1771
2016.0049635046162,1759
2017.9396210545406,1771
2019.8738100588666,1784
2021.8075307867502,1771
2023.740783507431,1739
2025.6735684902228,1772
2027.6058860045214,1674
2029.5377363198004,1743
2031.4691197056118,1773
2033.4000364315875,1789
2035.3304867674374,1762
2037.260470982952,1797
2039.189989347998,1715
2041.1190421325232,1772
2043.047629606554,1792
2044.9757520401945,1855
2046.9034097036288,1816
2048.8306028671195,1754
2050.7573318010086,1732
2052.683596775716,1794
2054.609398061742,1780
2056.5347359296647,1724
2058.4596106501403,1786
2060.384022493906,1768
2062.3079717317764,1787
2064.231458634646,1797
2066.1544834734873,1796
2068.077046519352,1835
2069.99914804337,1776
2071.9207883167524,1719
2073.8419676107865,1739
2075.7626861968406,1760
2077.6829443463607,1769
2079.6027423308715,1814
2081.522080421977,1760
2083.440958891362,1785
2085.359378010786,1803
2087.2773380520907,1805
2089.194839287196,1760
2091.111881988101,1768
2093.0284664268825,1824
2094.9445928756973,1753
2096.86026160678,1776
2098.775472892446,1780
2100.690227005088,1793
2102.604524217178,1772
2104.5183648012676,1760
2106.431749029985,1785
2108.34467717604,1755
2110.2571495122206,1762
2112.169166311393,1842
2114.080727846503,1721
2115.9918343905747,1753
2117.902486216711,1707
2119.8126835980956,1733
2121.722426807987,1737
2123.6317161197285,1758
2125.5405518067364,1856
2127.448934142509,1849
2129.356863400624,1833
2131.264339854737,1773
2133.1713637785815,1773
2135.077935445972,1731
2136.9840551308002,1825
2138.889723107037,1693
2140.7949396487334,1774
2142.699705030018,1756
2144.6040195250994,1684
2146.507883408264,1739
2148.4112969538774,1778
2150.3142604363848,1769
2152.2167741303097,1730
2154.1188383102535,1703
2156.0204532508997,1784
2157.9216192270064,1778
2159.822336513414,1760
2161.7226053850413,1746
2163.622426116884,1788
2165.5217989840185,1786
2167.4207242616,1720
2169.319202224862,1736
2171.2172331491165,1778
2173.1148173097563,1816
2175.0119549822507,1800
2176.90864644215,1730
2178.8048919650823,1762
2180.7006918267534,1848
2182.596046302952,1816
2184.4909556695407,1798
2186.3854202024645,1804
2188.279440177746,1800
2190.173015871487,1754
2192.066147559868,1702
2193.958835519149,1757
2195.851080025667,1766
2197.7428813558417,1766
2199.6342397861667,1743
2201.5251555932186,1818
2203.415629053651,1805
2205.3056604441986,1774
2207.19525004167,1798
2209.084398122958,1809
2210.9731049650327,1787
2212.861370844941,1792
2214.749196039812,1801
2216.636580826851,1756
2218.523525483344,1753
2220.410030286655,1778
2222.296095514226,1826
2224.1817214435805,1751
2226.066908352319,1829
2227.951656518121,1828
2229.835966218746,1857
2231.71983773203,1818
2233.6032713358913,1787
2235.486267308324,1799
2237.3688259274036,1827
2239.2509474712824,1791
2241.132632218193,1768
2243.013880446447,1843
2244.8946924344323,1820
2246.7750684606203,1820
2248.6550088035574,1753
2250.534513741871,1741
2252.413583554265,1792
2254.292218519526,1807
2256.170418916517,1777
2258.0481850241786,1826
2259.925517121534,1766
2261.8024154876825,1764
2263.678880401803,1736
2265.5549121431536,1784
2267.430510991071,1768
2269.305677224971,1729
2271.180411124348,1745
2273.0547129687766,1734
2274.9285830379076,1775
2276.8020216114737,1775
2278.6750289692845,1698
2280.5476053912294,1780
2282.4197511572766,1757
2284.2914665474727,1795
2286.162751841943,1785
2288.0336073208937,1818
2289.904033264608,1801
2291.774029953448,1765
2293.6435976678554,1724
2295.5127366883517,1759
2297.381447295534,1706
2299.2497297700825,1804
2301.1175843927526,1689
2302.9850114443825,1730
2304.852011205885,1628
2306.7185839582553,1725
2308.5847299825664,1750
2310.4504495599676,1684
2312.3157429716925,1716
2314.1806104990483,1627
2316.0450524234247,1699
2317.9090690262888,1740
2319.772660589186,1713
2321.635827393742,1694
2323.498569721661,1642
2325.3608878547248,1780
2327.2227820747967,1666
2329.0842526638157,1650
2330.945299903803,1664
2332.805924076857,1705
2334.6661254651535,1693
2336.525904350951,1650
2338.3852610165827,1631
2340.244195744464,1701
2342.102708817088,1632
2343.9608005170253,1667
2345.8184711269287,1679
2347.675720929526,1649
2349.532550207628,1664
2351.38895924412,1651
2353.24494832197,1651
2355.100517724223,1668
2356.955667734004,1725
2358.810398634514,1595
2360.664710709037,1700
2362.5186042409337,1703
2364.3720795136437,1678
2366.225136810686,1716
2368.0777764156583,1688
2369.929998612237,1678
2371.7818036841777,1630
2373.633191915315,1678
2375.484163589562,1643
2377.3347189909114,1694
2379.184858403434,1664
2381.03458211128,1693
2382.8838903986775,1662
2384.732783549936,1678
2386.5812618494406,1736
2388.4293255816588,1654
2390.2769750311327,1737
2392.1242104824883,1706
2393.971032220427,1669
2395.8174405297295,1704
2397.6634356952563,1640
2399.509018001947,1685
2401.3541877348193,1681
2403.1989451789705,1629
2405.043290619576,1611
2406.8872243418905,1622
2408.730746631247,1731
2410.5738577730594,1676
2412.4165580528183,1686
2414.258847756095,1656
2416.100727168537,1644
2417.9421965758734,1738
2419.783256263912,1706
2421.623906518538,1661
2423.4641476257157,1615
2425.303979871491,1630
2427.143403541984,1659
2428.9824189233977,1656
2430.821026302012,1685
2432.6592259641866,1726
2434.497018196361,1724
2436.33440328505,1716
2438.171381516851,1629
2440.00795317844,1694
2441.844118556569,1662
2443.6798779380724,1656
2445.5152316098606,1640
2447.3501798589255,1666
2449.1847229723357,1765
2451.0188612372403,1679
2452.8525949408663,1665
2454.6859243705203,1641
2456.518849813587,1752
2458.3513715575314,1705
2460.183489889895,1647
2462.015205098301,1672
2463.8465174704493,1691
2465.67742729412,1666
2467.5079348571717,1700
2469.338040447542,1643
2471.1677443532476,1677
2472.9970468623833,1660
2474.825948263123,1685
2476.6544488437207,1680
2478.482548892508,1629
2480.310248697896,1687
2482.137548548374,1661
2483.9644487325118,1680
2485.790949538956,1703
2487.617051256433,1703
2489.44275417375,1719
2491.26805857979,1709
2493.0929647635157,1692
2494.917473013971,1686
2496.741583620276,1691
2498.5652968716304,1697
2500.3886130573137,1682
2502.2115324666834,1751
2504.0340553891765,1738
2505.856182114308,1684
2507.6779129316733,1666
2509.499248130945,1716
2511.3201880018764,1666
2513.140732834298,1684
2514.9608829181198,1704
2516.780638543331,1723
2518.6,1695
2520.418967578273,1650
2522.237541568376,1735
2524.0557222606144,1681
2525.8735099453706,1661
2527.6909049131086,1713
2529.507907454368,1593
2531.32451785977,1708
2533.140736420014,1816
2534.9565634258774,1733
2536.771999168218,1756
2538.5870439379714,1764
2540.4016980261526,1730
2542.2159617238544,1762
2544.02983532225,1854
2545.8433191125914,1775
2547.656413386209,1821
2549.4691184345115,1790
2551.2814345489874,1790
2553.093362021204,1783
2554.904901142808,1817
2556.716052205523,1798
2558.526815501153,1817
2560.3371913215824,1810
2562.147179958771,1795
2563.956781704761,1805
2565.7659968516705,1830
2567.5748256916986,1827
2569.3832685171224,1786
2571.1913256202984,1829
2572.9989972936614,1852
2574.806283829725,1810
2576.613185521084,1860
2578.4197026604074,1839
2580.2258355404483,1834
2582.031584454035,1868
2583.836949694077,1836
2585.6419315535613,1810
2587.4465303255533,1851
2589.2507463032002,1871
2591.0545797797245,1917
2592.8580310484303,1807
2594.6611004026995,1793
2596.463788135992,1881
2598.266094541849,1785
2600.0680199138874,1884
2601.869564545807,1858
2603.670728731383,1823
2605.4715127644704,1849
2607.2719169390048,1853
2609.071941548998,1811
2610.8715868885433,1851
2612.670853251811,1812
2614.469740933052,1861
2616.268250226594,1851
2618.0663814268455,1871
2619.864134828292,1838
2621.6615107255006,1875
2623.458509413115,1761
2625.2551311858597,1819
2627.0513763385347,1867
2628.8472451660223,1786
2630.6427379632833,1796
2632.4378550253564,1810
2634.232596647359,1840
2636.026963124488,1828
2637.8209547520187,1765
2639.6145718253065,1820
2641.407814639785,1717
2643.200683490966,1776
2644.9931786744414,1800
2646.7853004858807,1803
2648.577049221034,1777
2650.3684251757277,1816
2652.1594286458712,1773
2653.9500599274484,1721
2655.740319316525,1742
2657.5302071092437,1705
2659.3197236018286,1744
2661.10886909058,1695
2662.8976438718782,1692
2664.686048242183,1804
2666.4740824980327,1731
2668.2617469360443,1651
2670.0490418529134,1690
2671.8359675454153,1628
2673.622524310403,1687
2675.408712444811,1637
2677.1945322456495,1680
2678.979984010009,1685
2680.76506803506,1673
2682.5497846180497,1702
2684.334134056306,1661
2686.1181166472343,1629
2687.9017326883213,1639
2689.6849824771293,1645
2691.4678663113013,1650
2693.2503844885596,1648
2695.032537306705,1655
2696.8143250636167,1627
2698.5957480572542,1637
2700.3768065856534,1599
2702.1575009469316,1546
2703.937831439283,1599
2705.717798360982,1633
2707.4974020103837,1622
2709.276642685917,1562
2711.055520686095,1637
2712.834036309506,1614
2714.612189854819,1590
2716.389981620782,1505
2718.1674119062204,1588
2719.944481010041,1539
2721.721189231226,1641
2723.4975368688415,1568
2725.273524222027,1593
2727.0491515900053,1580
2728.824419272075,1624
2730.5993275676146,1556
2732.3738767760838,1598
2734.148067197016,1640
2735.921899130031,1600
2737.6953728748194,1556
2739.468488731156,1517
2741.2412469988926,1568
2743.0136479779617,1578
2744.785691968372,1559
2746.5573792702116,1584
2748.3287101836504,1497
2750.099685008934,1568
2751.870304046388,1541
2753.640567596418,1571
2755.4104759595057,1563
2757.1800294362156,1573
2758.949228327187,1558
2760.7180729331412,1529
2762.486563554877,1567
2764.254700493272,1583
2766.022484049284,1541
2767.789914523947,1516
2769.5569922183786,1574
2771.3237174337705,1528
2773.090090471394,1575
2774.8561116326036,1500
2776.6217812188274,1594
2778.3870995315756,1576
2780.1520668724356,1528
2781.9166835430747,1576
2783.6809498452394,1534
2785.444866080754,1581
2787.2084325515225,1528
2788.971649559527,1549
2790.73451740683,1532
2792.4970363955713,1558
2794.2592068279705,1572
2796.0210290063264,1532
2797.7825032330147,1576
2799.543629810493,1561
2801.304409041296,1561
2803.0648412280366,1564
2804.8249266734088,1542
2806.5846656801846,1525
2808.344058551212,1497
2810.1031055894246,1564
2811.8618070978273,1549
2813.6201633795085,1565
2815.378174737636,1524
2817.1358414754536,1519
2818.893163896285,1529
2820.6501423035334,1597
2822.4067770006814,1527
2824.1630682912883,1563
2825.9190164789957,1607
2827.6746218675207,1558
2829.429884760661,1545
2831.184805462294,1598
2832.9393842763743,1566
2834.693621506936,1619
2836.4475174580916,1564
2838.201072434034,1576
2839.954286739034,1504
2841.707160677441,1557
2843.459694553685,1605
2845.2118886722724,1566
2846.96374333779,1548
2848.7152588549034,1518
2850.4664355283567,1509
2852.217273662973,1530
2853.9677735636546,1581
2855.7179355353833,1546
2857.4677598832186,1551
2859.217246912299,1596
2860.9663969278427,1487
2862.715210235146,1547
2864.4636871395846,1515
2866.211827946614,1530
2867.9596329617652,1534
2869.7071024906536,1535
2871.4542368389684,1514
2873.20103631248,1477
2874.947501217038,1530
2876.6936318585695,1534
2878.4394285430812,1556
2880.1848915766604,1564
2881.9300212654707,1613
2883.6748179157553,1580
2885.4192818338374,1529
2887.1634133261173,1517
2888.907212699077,1506
2890.6506802592744,1524
2892.393816313348,1518
2894.1366211680142,1543
2895.8790951300693,1546
2897.621238506388,1568
2899.363051603925,1567
2901.1045347297118,1525
2902.8456881908596,1528
2904.58651229456,1465
2906.327007348081,1565
2908.067173658772,1507
2909.8070115340597,1537
2911.5465212814497,1517
2913.285703208527,1530
2915.0245576229563,1561
2916.7630848324807,1546
2918.5012851449196,1576
2920.2391588681758,1541
2921.976706310227,1513
2923.7139277791334,1530
2925.4508235830313,1499
2927.187394030137,1512
2928.923639428745,1488
2930.6595600872306,1507
2932.395156314046,1557
2934.1304284177218,1620
2935.8653767068713,1546
2937.6000014901815,1536
2939.3343030764227,1569
2941.068281774442,1538
2942.8019378931644,1565
2944.5352717415976,1605
2946.2682836288236,1570
2948.0009738640065,1573
2949.7333427563885,1491
2951.465390615289,1527
2953.1971177501086,1524
2954.9285244703265,1559
2956.6596110855,1556
2958.3903779052657,1567
2960.1208252393385,1506
2961.8509533975125,1549
2963.5807626896617,1509
2965.3102534257378,1488
2967.0394259157715,1586
2968.768280469873,1541
2970.496817398232,1537
2972.2250370111146,1562
2973.952939618869,1547
2975.6805255319196,1549
2977.4077950607707,1555
2979.134748516006,1520
2980.861386208289,1514
2982.587708448359,1527
2984.313715547037,1538
2986.039407815222,1518
2987.764785563891,1552
2989.489849104102,1521
2991.2145987469908,1492
2992.9390348037705,1579
2994.6631575857346,1551
2996.3869674042576,1520
2998.1104645707887,1519
2999.83364939686,1603
3001.5565221940783,1559
3003.2790832741334,1597
3005.0013329487924,1536
3006.7232715298996,1507
3008.4448993293804,1533
3010.166216659239,1497
3011.887223831558,1499
3013.607921158498,1588
3015.3283089522993,1541
3017.0483875252826,1521
3018.7681571898443,1503
3020.4876182584626,1453
3022.2067710436927,1526
3023.9256158581707,1516
3025.644153014609,1527
3027.362382825801,1525
3029.0803056046193,1498
3030.797921664012,1529
3032.5152313170106,1547
3034.2322348767225,1460
3035.9489326563353,1465
3037.665324969115,1509
3039.3814121284063,1498
3041.097194447633,1501
3042.812672240299,1601
3044.5278458199855,1530
3046.2427155003525,1491
3047.9572815951406,1519
3049.671544418167,1523
3051.38550428333,1566
3053.0991615046073,1539
3054.812516396051,1540
3056.5255692717974,1501
3058.2383204460575,1502
3059.9507702331257,1481
3061.662918947372,1538
3063.3747669032446,1536
3065.0863144152736,1545
3066.7975617980674,1493
3068.508509366309,1589
3070.219157434767,1562
3071.9295063182844,1489
3073.639556331785,1593
3075.3493077902704,1535
3077.058761008821,1579
3078.7679163025964,1514
3080.476773986837,1485
3082.1853343768594,1559
3083.89359778806,1534
3085.6015645359153,1498
3087.3092349359786,1560
3089.016609303884,1558
3090.7236879553434,1545
3092.4304712061476,1492
3094.136959372166,1558
3095.843152769349,1527
3097.5490517137237,1525
3099.2546565213966,1487
3100.959967508554,1514
3102.66498499146,1528
3104.3697092864577,1479
3106.0741407099695,1568
3107.778279578498,1574
3109.482126208622,1466
3111.1856809170004,1615
3112.8889440203716,1562
3114.5919158355528,1576
3116.294596679439,1583
3117.996986869006,1539
3119.6990867213062,1548
3121.4008965534726,1540
3123.102416682717,1491
3124.803647426329,1566
3126.5045891016784,1501
3128.205242026213,1529
3129.90560651746,1516
3131.605682893025,1451
3133.3054714705922,1565
3135.0049725679282,1508
3136.7041865028714,1578
3138.4031135933465,1528
3140.101754157353,1525
3141.800108512971,1507
3143.498176978357,1552
3145.1959598717494,1567
3146.8934575114636,1534
3148.5906702158954,1500
3150.2875983035183,1493
3151.9842420928853,1463
3153.680601902627,1486
3155.376678051456,1492
3157.07247085816,1557
3158.767980641609,1513
3160.463207720748,1553
3162.158152414606,1547
3163.8528150422862,1579
3165.5471959229726,1529
3167.2412953759303,1564
3168.9351137204976,1517
3170.628651276098,1521
3172.3219083622307,1528
3174.014885298474,1576
3175.707582404485,1581
3177.4000000000005,1533
3179.092138404835,1541
3180.7839979388846,1546
3182.47557892212,1542
3184.166881674594,1527
3185.8579065164386,1549
3187.5486537678626,1567
3189.2391237491547,1560
3190.9293167806827,1477
3192.6192331828934,1550
3194.3088732763117,1557
3195.998237381542,1535
3197.687325819268,1508
3199.376138910251,1570
3201.064676975334,1549
3202.7529403354347,1522
3204.4409293115523,1534
3206.1286442247647,1536
3207.816085396229,1541
3209.5032531471825,1437
3211.190147798936,1541
3212.8767696728846,1497
3214.5631190905015,1525
3216.2491963733373,1542
3217.9350018430214,1528
3219.6205358212637,1491
3221.305798629851,1471
3222.990790590651,1509
3224.6755120256103,1510
3226.359963256751,1523
3228.0441446061795,1500
3229.7280563960758,1504
3231.411698948703,1500
3233.0950725863995,1535
3234.778177631587,1541
3236.461014406761,1561
3238.1435832345005,1545
3239.8258844374595,1568
3241.507918338374,1568
3243.1896852600576,1555
3244.8711855254023,1567
3246.552419457381,1573
3248.233387379042,1617
3249.914089613516,1510
3251.59452648401,1529
3253.274698313813,1538
3254.95460542629,1493
3256.6342481448855,1509
3258.313626793125,1477
3259.9927416946084,1463
3261.6715931730196,1439
3263.3501815521176,1497
3265.0285071557437,1509
3266.706570307815,1532
3268.3843713323286,1530
3270.0619105533615,1450
3271.739188295068,1481
3273.4162048816834,1505
3275.0929606375184,1530
3276.769455886966,1535
3278.445690954498,1565
3280.1216661646613,1577
3281.797381842087,1549
3283.4728383114807,1495
3285.1480358976296,1531
3286.8229749253996,1514
3288.4976557197333,1533
3290.172078605655,1495
3291.846243908266,1576
3293.5201519527463,1547
3295.193803064357,1539
3296.8671975684374,1522
3298.5403357904024,1487
3300.21321805575,1483
3301.8858446900567,1573
3303.558216018975,1458
3305.23033236824,1540
3306.9021940636603,1594
3308.57380143113,1570
3310.2451547966184,1592
3311.916254486174,1540
3313.5871008259246,1655
3315.2576941420766,1558
3316.9280347609147,1591
3318.5981230088046,1549
3320.2679592121895,1488
3321.9375436975924,1511
3323.606876791612,1506
3325.27595882093,1575
3326.944790112305,1499
3328.6133709925753,1528
3330.2817017886573,1489
3331.949782827547,1544
3333.617614436319,1557
3335.2851969421245,1621
3336.952530672199,1527
3338.619615953853,1566
3340.286453114475,1549
3341.9530424815357,1533
3343.619384382583,1473
3345.2854791452437,1529
3346.951327097224,1570
3348.6169285663073,1514
3350.2822838803577,1569
3351.947393367319,1592
3353.61225735521,1529
3355.2768761721345,1558
3356.9412501462693,1526
3358.605379605873,1541
3360.2692648792827,1569
3361.9329062949146,1536
3363.596304181263,1508
