CollectionTime,7/9/2024 1:05:13 PM
ExposureUsed,3
CalibratedSpectrum
-962.7078968117929,503
-959.9714848408522,568
-957.2358232597828,569
-954.5009119013725,541
-951.7667505983302,518
-949.0333391832855,493
-946.3006774887896,557
-943.5687653473143,573
-940.837602591253,563
-938.1071890529199,530
-935.3775245645503,542
-932.6486089583007,579
-929.9204420662485,581
-927.1930237203925,569
-924.4663537526524,558
-921.7404319948689,539
-919.0152582788041,564
-916.2908324361409,625
-913.5671542984834,595
-910.8442236973568,549
-908.1220404642074,548
-905.4006044304027,552
-902.679915427231,573
-899.959973285902,512
-897.2407778375464,517
-894.5223289132158,525
-891.8046263438832,528
-889.0876699604426,547
-886.3714595937089,556
-883.6559950744183,556
-880.9412762332282,553
-878.2273029007168,547
-875.5140749073835,542
-872.8015920836489,569
-870.0898542598545,580
-867.3788612662631,520
-864.6686129330585,515
-861.9591090903457,540
-859.2503495681506,529
-856.5423341964203,511
-853.8350628050229,532
-851.1285352237478,545
-848.4227512823054,558
-845.7177108103272,549
-843.0134136373656,567
-840.3098595928943,547
-837.6070485063082,586
-834.9049802069229,600
-832.2036545239757,528
-829.5030712866244,516
-826.8032303239481,531
-824.1041314649472,557
-821.4057745385428,546
-818.7081593735775,529
-816.0112857988148,501
-813.3151536429393,533
-810.6197627345566,548
-807.9251129021936,534
-805.2312039742981,556
-802.5380357792392,550
-799.8456081453069,539
-797.1539209007124,537
-794.462973873588,543
-791.772766891987,555
-789.083299783884,567
-786.3945723771743,549
-783.7065844996748,532
-781.0193359791231,552
-778.3328266431781,550
-775.6470563194197,526
-772.9620248353489,563
-770.2777320183878,529
-767.5941776958798,571
-764.9113616950891,595
-762.2292838432011,597
-759.5479439673222,558
-756.8673418944801,523
-754.1874774516235,544
-751.5083504656222,542
-748.8299607632671,535
-746.15230817127,556
-743.475392516264,586
-740.7992136248035,584
-738.1237713233636,541
-735.4490654383407,586
-732.7750957960521,571
-730.1018622227365,573
-727.4293645445534,561
-724.7576025875837,573
-722.0865761778291,589
-719.4162851412126,569
-716.7467293035781,595
-714.0779084906909,580
-711.409822528237,579
-708.7424712418238,570
-706.0758544569796,581
-703.4099719991541,618
-700.7448236937178,620
-698.0804093659622,624
-695.4167288411002,646
-692.7537819442656,596
-690.0915685005134,548
-687.4300883348199,546
-684.7693412720819,557
-682.1093271371178,575
-679.4500457546669,609
-676.7914969493897,622
-674.1336805458676,548
-671.4765963686034,590
-668.8202442420206,615
-666.1646239904642,598
-663.5097354382001,587
-660.8555784094151,602
-658.2021527282176,592
-655.5494582186366,597
-652.8974947046223,624
-650.2462620100463,588
-647.5957599587009,621
-644.9459883742998,632
-642.2969470804776,645
-639.6486359007902,653
-637.0010546587141,682
-634.3542031776476,601
-631.7080812809096,611
-629.0626887917401,620
-626.4180255333008,600
-623.7740913286734,634
-621.1308860008619,704
-618.4884093727904,609
-615.8466612673046,665
-613.2056415071715,612
-610.5653499150785,629
-607.9257863136347,647
-605.28695052537,656
-602.6488423727357,657
-600.0114616781036,585
-597.3748082637674,634
-594.7388819519412,644
-592.1036825647604,758
-589.4692099242818,808
-586.8354638524829,701
-584.2024441712624,666
-581.5701507024403,696
-578.9385832677575,664
-576.3077416888759,641
-573.6776257873787,652
-571.0482353847704,645
-568.4195703024757,674
-565.7916303618415,670
-563.164415384135,650
-560.5379251905453,702
-557.9121596021815,687
-555.2871184400748,708
-552.6628015251767,731
-550.0392086783606,738
-547.4163397204204,706
-544.794194472071,750
-542.1727727539491,702
-539.5520743866118,767
-536.9320991905377,776
-534.3128469861261,776
-531.6943175936979,765
-529.0765108334947,776
-526.4594265256793,805
-523.8430644903358,859
-521.2274245474689,1047
-518.612506517005,1082
-515.9983102187913,1181
-513.3848354725959,1180
-510.77208209810846,1204
-508.16004991493924,1188
-505.5487387426199,1235
-502.9381484006032,1262
-500.3282787082628,1243
-497.71912948489364,1228
-495.1107005497117,1193
-492.5029917218539,1149
-489.8960028203786,982
-487.28973366426493,959
-484.68418407241325,860
-482.07935386364494,836
-479.47524285670266,791
-476.87185087025,791
-474.2691777228715,785
-471.66722323307334,803
-469.0659872192821,809
-466.4654694998459,836
-463.86566989303384,833
-461.26658821703614,812
-458.66822428996414,864
-456.07057792985,852
-453.4736489546475,848
-450.877437182231,820
-448.28194243039627,763
-445.68716451686,787
-443.09310325926003,757
-440.49975847515555,783
-437.9071299820263,777
-435.31521759727354,823
-432.72402113821954,815
-430.13354042210767,841
-427.5437752661022,840
-424.95472548728867,880
-422.36639090267386,866
-419.7787713291855,869
-417.1918665836721,971
-414.60567648290385,963
-412.0202008435715,873
-409.4354394822874,875
-406.8513922155845,860
-404.26805885991723,907
-401.685439231661,916
-399.103533147112,916
-396.522340422488,924
-393.9418608739278,876
-391.3620943174908,926
-388.7830405691583,927
-386.2046994448317,823
-383.6270707603344,800
-381.05015433141045,750
-378.473949973725,755
-375.8984575028645,735
-373.32367673433623,763
-370.74960748356875,675
-368.1762495659117,645
-365.60360279663576,656
-363.03166699093265,602
-360.4604419639154,551
-357.8899275306178,572
-355.32012350599507,569
-352.7510297049233,526
-350.1826459421999,476
-347.61497203254316,513
-345.04800779059235,520
-342.4817530309082,540
-339.91620756797226,586
-337.35137121618743,571
-334.7872437898774,656
-332.22382510328725,657
-329.66111497058273,588
-327.09911320585127,559
-324.53781962310075,554
-321.9772340362607,541
-319.4173562591816,525
-316.8581861056348,527
-314.2997233893127,486
-311.7419679238294,489
-309.1849195227194,482
-306.62857799943856,534
-304.0729431673641,539
-301.51801483979375,615
-298.963792829947,593
-296.41027695096386,592
-293.85746701590574,580
-291.3053628377552,571
-288.7539642294155,659
-286.2032710037115,671
-283.65328297338897,599
-281.1039999511146,680
-278.5554217494762,656
-276.007548180983,656
-273.4603790580651,574
-270.9139141930734,589
-268.3681533982807,643
-265.8230964858798,648
-263.27874326798565,590
-260.7350935566336,671
-258.1921471637804,680
-255.6499039013039,709
-253.10836358100266,690
-250.56752601459698,708
-248.02739101372765,769
-245.48795838995704,735
-242.94922795476816,655
-240.41119951956557,680
-237.8738728956746,775
-235.33724789434166,874
-232.80132432673452,804
-230.2661020039418,665
-227.73158073697357,680
-225.19776033676033,757
-222.66464061415422,865
-220.1322213799284,776
-217.60050244477725,645
-215.06948361931552,721
-212.53916471408013,840
-210.00954553952818,926
-207.48062590603843,846
-204.9524056239104,793
-202.4248845033651,957
-199.8980623545441,1054
-197.37193898751036,1060
-194.84651421224817,893
-192.32178783866232,887
-189.79775967657952,964
-187.27442953574644,990
-184.7517972258321,1196
-182.2298625564256,1084
-179.7086253370378,967
-177.18808537710026,1002
-174.66824248596583,1058
-172.14909647290835,1169
-169.6306471471229,1101
-167.11289431772548,1013
-164.59583779375328,1031
-162.07947738416453,1112
-159.5638128978386,1135
-157.04884414357605,1279
-154.53457093009854,1372
-152.02099306604828,1368
-149.50811035998936,1064
-146.99592262040665,865
-144.48442965570587,978
-141.97363127421409,1042
-139.46352728417958,1141
-136.95411749377126,1228
-134.44540171107985,1310
-131.93737974411636,1162
-129.43005140081357,1157
-126.92341648902493,1309
-124.41747481652521,1399
-121.91222619101006,1151
-119.40767042009657,1370
-116.90380731132257,1683
-114.40063667214702,1770
-111.8981583099503,1449
-109.3963720320337,1731
-106.89527764561933,2021
-104.39487495785067,2064
-101.89516377579241,2210
-99.39614390642998,3141
-96.89781515667039,3309
-94.40017733334128,3704
-91.90323024319173,6316
-89.40697369289148,15673
-86.91140748903172,27040
-84.41653143812482,25335
-81.92234534660395,15079
-79.42884902082358,8237
-76.93604226705907,13647
-74.4439248915071,36409
-71.95249670028534,58648
-69.46175749943245,60725
-66.97170709490854,46815
-64.48234529259423,29397
-61.99367189829195,18898
-59.50568671772464,15376
-57.01838955653636,13567
-54.53178022029283,11414
-52.045858514480074,11446
-49.560624244506016,13019
-47.07607721569923,13735
-44.59221723330904,13435
-42.10904410250669,13017
-39.62655762838392,13264
-37.14475761595372,13090
-34.66364387015028,13242
-32.18321619582866,11286
-29.70347439776515,9669
-27.224418280657005,10784
-24.74604764912317,14714
-22.26836230770266,23943
-19.7913620608565,49565
-17.315046712966478,65040
-14.83941606833514,65040
-12.36446993118659,65040
-9.89020810566592,65040
-7.416630395839093,65040
-4.94373660569363,65040
-2.471526539137585,65040
-6.821210263296962E-13,65040
2.47084320796705,65040
4.941003281093458,65040
7.410480415786196,65040
9.879274808531363,65040
12.347386655893956,65040
14.814816154518212,65040
17.28156350112681,65040
19.74762889252179,65040
22.21301252558385,65040
24.67771459727237,21282
27.141735304626195,4751
29.605074844762612,3217
32.06773341487792,2781
34.52971121224755,2948
36.99100843422559,3187
39.45162527824516,2345
41.91156194181792,1759
44.370818622535126,2302
46.82939551806646,1977
49.287292826160524,1907
51.74451074464503,2173
54.201049471426245,2981
56.65690920448981,2731
59.112090141899785,1751
61.56659248179983,1305
64.02041642241159,1303
66.4735621620365,1307
68.92602989905402,1262
71.37781983192338,1603
73.82893215918205,1886
76.27936707944684,2172
78.72912479141326,1797
81.17820549385567,1556
83.62660938562783,2260
86.07433666566146,2180
88.5213875329681,1396
90.96776218663751,1159
93.41346082583925,1037
95.85848364982041,1274
98.30283085790859,1529
100.7465026495089,1962
103.18949922410604,1524
105.63182078126385,1417
108.07346752062438,1537
110.51443964190923,1154
112.95473734491827,982
115.39436082953114,933
117.83331029570547,1113
120.27158594347827,1284
122.7091879729652,1393
125.1461165843615,1215
127.58237197794062,1015
130.01795435405518,980
132.4528639131364,934
134.88710085569494,970
137.32066538231982,1109
139.75355769367923,1053
142.1857779905207,1139
144.61732647366978,1154
147.04820334403132,1055
149.47840880258934,890
151.90794305040674,901
154.33680628862487,965
156.76499871846443,1160
159.19252054122433,1256
161.61937195828352,1336
164.04555317109896,1386
166.47106438120693,1515
168.89590579022217,1614
171.320077599839,1783
173.7435800118302,1918
176.16641322804742,2001
178.58857745042144,1973
181.01007288096173,2189
183.43089972175687,2140
185.85105817497413,2134
188.27054844285988,2056
190.6893707277394,2081
193.10752523201643,2120
195.5250121581745,2116
197.9418317087751,2178
200.3579840864594,2200
202.7734694939469,2217
205.18828813403627,2218
207.6024402096051,2275
210.01592592360964,2389
212.42874547908548,2372
214.84089907914665,2416
217.2523869269868,2202
219.66320922587727,2196
222.0733661791695,2209
224.48285799029293,2202
226.8916848627572,2170
229.29984700014882,2241
231.7073446061355,2270
234.11417788446204,2240
236.520347038953,2232
238.92585227351185,2211
241.33069379212054,2279
243.73487179884035,2283
246.1383864978112,2438
248.541238093252,2421
250.9434267894609,2314
253.34495279081432,2278
255.74581630176783,2249
258.1460175268563,2231
260.54555667069314,2236
262.9444339379703,2221
265.3426495334594,2269
267.7402036620107,2397
270.1370965285529,2555
272.53332833809407,2437
274.9288992957214,2303
277.32380960660055,2258
279.718059475976,2196
282.1116491091717,2306
284.5045787115897,2272
286.89684848871195,2153
289.2884586460981,2167
291.67940938938807,2185
294.0697009242996,2163
296.4593334566299,2213
298.84830719225477,2207
301.23662233712923,2133
303.6242790972866,2068
306.01127767884,2103
308.39761828798066,2168
310.78330113097934,2130
313.16832641418534,2019
315.5526943440269,2012
317.9364051270112,2074
320.3194589697242,2098
322.70185607883093,2116
325.0835966610754,2155
327.4646809232805,1998
329.8451090723478,1998
332.2248813152577,1870
334.6039978590701,1929
336.9824589109231,1907
339.36026467803447,2002
341.7374153677,1985
344.113911187295,1855
346.48975234427337,1899
348.8649390461686,1832
351.2394715005918,1919
353.61334991523415,1826
355.9865744978655,1880
358.35914545633375,1912
360.73106299856715,1992
363.10232733257146,1930
365.47293866643247,1875
367.84289720831396,1869
370.2122031664593,1789
372.5808567491905,1884
374.9488581649083,1835
377.31620762209275,1788
379.6829053293021,1804
382.0489514951745,1776
384.4143463284262,1709
386.7790900378528,1752
389.14318283232853,1765
391.50662492080653,1765
393.86941651231916,1866
396.23155781597745,1764
398.5930490409713,1793
400.9538903965696,1874
403.3140820921202,1823
405.6736243370498,1800
408.03251734086336,1794
410.3907613131465,1752
412.74835646356166,1738
415.10530300185144,1713
417.4616011378372,1759
419.81725108141893,1715
422.1722530425758,1703
424.5266072313656,1682
426.880313857925,1685
429.2333731324701,1671
431.58578526529516,1697
433.9375504667738,1636
436.2886689473588,1654
438.63914091758113,1667
440.9889665880513,1665
443.33814616945835,1675
445.68667987257015,1640
448.03456790823395,1723
450.3818104873759,1629
452.72840782100013,1667
455.07436012019105,1700
457.41966759611057,1650
459.7643304600007,1642
462.10834892318155,1635
464.4517231970525,1684
466.79445349309174,1587
469.1365400228566,1693
471.4779829979826,1643
473.81878263018564,1623
476.15893913125876,1643
478.4984527130747,1677
480.8373235875855,1685
483.17555196682144,1721
485.5131380628919,1777
487.8500820879857,1790
490.1863842543697,1773
492.52204477439034,1812
494.8570638604725,1893
497.1914417251204,1950
499.52517858091653,2106
501.85827464052306,2279
504.19073011668036,2441
506.5225452222086,2587
508.85372017000566,2642
511.18425517304956,2803
513.514150444396,2874
515.8434061971808,3375
518.1720226446176,3992
520.4999999999999,4288
522.8273384766991,4196
525.1540382881666,4103
527.480099647932,3948
529.8055227696037,3545
532.1303078668694,2844
534.454455153496,2292
536.777964843328,2176
539.1008371502907,1894
541.4230722883866,1830
543.744670471698,1790
546.0656319143858,1868
548.3859568306899,1879
550.7056454349294,1865
553.0246979415016,1825
555.3431145648834,1774
557.6608955196306,1730
559.978041020377,1764
562.2945512818363,1660
564.6104265188006,1612
566.9256669461412,1630
569.2402727788082,1678
571.5542442318302,1708
573.8675815203156,1788
576.1802848594508,1700
578.4923544645015,1718
580.8037905508126,1772
583.114593333807,1793
585.4247630289875,1716
587.7342998519354,1716
590.0432040183106,1679
592.3514757438526,1751
594.6591152443794,1693
596.9661227357875,1743
599.2724984340531,1735
601.578242555231,1793
603.8833553154542,1692
606.1878369309362,1702
608.4916876179676,1667
610.7949075929192,1751
613.0974970722403,1702
615.3994562724587,1710
617.7007854101818,1687
620.0014847020951,1693
622.3015543649641,1728
624.6009946156324,1691
626.8998056710224,1712
629.1979877481361,1716
631.4955410640538,1735
633.7924658359349,1719
636.0887622810175,1663
638.3844306166192,1645
640.6794710601358,1706
642.9738838290426,1716
645.2676691408932,1712
647.5608272133207,1693
649.853358264037,1669
652.1452625108324,1697
654.4365401715764,1740
656.7271914642178,1712
659.0172166067838,1745
661.3066158173809,1693
663.5953893141935,1743
665.8835373154867,1747
668.1710600396028,1736
670.4579577049639,1706
672.7442305300709,1734
675.0298787335033,1765
677.3149025339197,1682
679.599302150058,1751
681.8830778007342,1780
684.1662297048437,1731
686.4487580813608,1778
688.7306631493387,1712
691.0119451279091,1671
693.2926042362834,1709
695.5726406937516,1752
697.8520547196814,1770
700.1308465335215,1721
702.4090163547982,1719
704.6865644031171,1745
706.9634908981619,1696
709.2397960596965,1756
711.5154801075631,1740
713.7905432616823,1708
716.0649857420548,1690
718.3388077687592,1679
720.612009561953,1737
722.8845913418733,1667
725.1565533288352,1677
727.427895743234,1687
729.6986188055427,1667
731.9687227363137,1699
734.238207756178,1730
736.5070740858458,1776
738.7753219461066,1691
741.0429515578281,1678
743.3099631419569,1705
745.5763569195191,1643
747.8421331116193,1749
750.1072919394409,1724
752.3718336242467,1805
754.6357583873777,1787
756.8990664502545,1751
759.1617580343765,1671
761.423833361321,1712
763.6852926527457,1735
765.9461361303862,1700
768.206364016058,1782
770.4659765316536,1681
772.7249738991469,1716
774.9833563405886,1795
777.2411240781092,1733
779.4982773339183,1699
781.7548163303044,1743
784.010741289634,1764
786.2660524343538,1810
788.5207499869881,1741
790.7748341701416,1752
793.0283052064964,1760
795.2811633188143,1725
797.5334087299362,1774
799.7850416627813,1718
802.0360623403484,1747
804.2864709857143,1726
806.5362678220353,1730
808.7854530725468,1760
811.0340269605625,1685
813.2819897094754,1744
815.5293415427581,1730
817.77608268396,1790
820.0222133567116,1748
822.2677337847211,1738
824.5126441917765,1798
826.7569448017433,1748
829.0006358385675,1677
831.2437175262731,1778
833.4861900889629,1708
835.7280537508192,1772
837.9693087361026,1707
840.2099552691533,1787
842.4499935743896,1791
844.689423876309,1772
846.9282463994886,1810
849.1664613685833,1837
851.4040690083276,1734
853.6410695435349,1711
855.877463199097,1785
858.1132501999847,1723
860.3484307712487,1744
862.5830051380175,1753
864.8169735254988,1708
867.0503361589791,1735
869.2830932638243,1710
871.5152450654786,1778
873.7467917894654,1750
875.9777336613873,1799
878.2080709069252,1743
880.4378037518389,1899
882.666932421968,1797
884.8954571432301,1780
887.1233781416219,1752
889.3506956432192,1809
891.5774098741766,1816
893.803521060728,1779
896.0290294291852,1779
898.2539352059397,1763
900.4782386174619,1630
902.7019398903011,1770
904.925039251085,1779
907.147536926521,1747
909.3694331433943,1719
911.59072812857,1721
913.8114221089921,1701
916.0315153116827,1716
918.2510079637437,1722
920.4699002923547,1695
922.6881925247761,1747
924.905884888345,1661
927.1229776104793,1704
929.3394709186747,1756
931.555365040506,1668
933.7706602036275,1721
935.9853566357709,1686
938.1994545647489,1680
940.4129542184515,1702
942.6258558248488,1728
944.8381596119883,1718
947.0498658079974,1707
949.2609746410825,1692
951.4714863395287,1710
953.6814011316998,1678
955.8907192460387,1614
958.0994409110671,1691
960.3075663553858,1706
962.5150958076741,1690
964.7220294966913,1724
966.928367651274,1766
969.1341105003388,1752
971.3392582728806,1677
973.5438111979742,1726
975.747769504772,1675
977.9511334225061,1631
980.153903180487,1661
982.3560790081052,1685
984.5576611348289,1687
986.7586497902058,1617
988.9590452038618,1564
991.158847605503,1651
993.3580572249133,1595
995.5566742919558,1682
997.7546990365728,1570
999.952131688785,1528
1002.1489724786926,1561
1004.3452216364743,1524
1006.5408793923874,1446
1008.7359459767691,1511
1010.9304216200343,1495
1013.1243065526781,1539
1015.3176010052733,1456
1017.510305208472,1503
1019.7024193930064,1511
1021.8939437896848,1450
1024.0848786293977,1449
1026.2752241431122,1418
1028.4649805618747,1475
1030.6541481168115,1385
1032.842727039127,1472
1035.0307175601051,1424
1037.2181199111074,1364
1039.4049343235752,1411
1041.591161029029,1384
1043.7768002590683,1388
1045.9618522453698,1363
1048.1463172196918,1403
1050.3301954138697,1390
1052.513487059818,1360
1054.69619238953,1436
1056.8783116350783,1396
1059.0598450286152,1394
1061.2407928023704,1419
1063.4211551886528,1381
1065.6009324198508,1387
1067.780124728432,1377
1069.9587323469414,1335
1072.1367555080046,1326
1074.314194444325,1382
1076.4910493886855,1367
1078.667320573947,1317
1080.843008233051,1378
1083.0181125990161,1362
1085.1926339049414,1291
1087.3665723840027,1316
1089.5399282694575,1308
1091.7127017946405,1356
1093.8848931929647,1374
1096.0565026979243,1311
1098.2275305430899,1333
1100.3979769621128,1377
1102.567842188722,1295
1104.737126456726,1339
1106.9058300000124,1325
1109.0739530525475,1304
1111.2414958483764,1338
1113.4084586216231,1282
1115.5748416064907,1293
1117.7406450372605,1331
1119.9058691482942,1311
1122.0705141740304,1272
1124.2345803489884,1250
1126.3980679077658,1278
1128.5609770850388,1259
1130.7233081155623,1348
1132.8850612341707,1262
1135.0462366757774,1246
1137.2068346753745,1303
1139.3668554680326,1311
1141.526299288901,1297
1143.68516637321,1317
1145.8434569562655,1381
1148.001171273455,1292
1150.158309560244,1270
1152.3148720521767,1329
1154.470858984876,1285
1156.626270594044,1295
1158.7811071154629,1284
1160.9353687849912,1251
1163.089055838569,1236
1165.242168512213,1255
1167.3947070420209,1332
1169.5466716641677,1316
1171.6980626149075,1229
1173.8488801305748,1234
1175.9991244475814,1276
1178.1487958024186,1288
1180.2978944316555,1294
1182.4464205719428,1247
1184.5943744600072,1235
1186.7417563326567,1266
1188.8885664267755,1208
1191.0348049793297,1215
1193.1804722273619,1211
1195.325568407995,1223
1197.4700937584303,1202
1199.614048515948,1231
1201.7574329179074,1227
1203.900247201746,1219
1206.042491604982,1286
1208.1841663652099,1262
1210.3252717201053,1251
1212.465807907422,1203
1214.6057751649923,1263
1216.7451737307279,1261
1218.8840038426192,1307
1221.0222657387353,1252
1223.1599596572241,1241
1225.2970858363137,1247
1227.4336445143094,1260
1229.5696359295966,1205
1231.705060320639,1208
1233.8399179259786,1239
1235.9742089842384,1271
1238.107933734118,1282
1240.2410924143974,1368
1242.373685263935,1282
1244.5057125216676,1212
1246.6371744266116,1247
1248.7680712178621,1274
1250.898403134593,1291
1253.028170416058,1314
1255.1573733015875,1304
1257.2860120305932,1305
1259.4140868425648,1255
1261.54159797707,1262
1263.6685456737569,1314
1265.7949301723515,1265
1267.9207517126597,1266
1270.046010534565,1285
1272.1707068780306,1218
1274.2948409830983,1286
1276.4184130898889,1253
1278.541423438603,1307
1280.6638722695184,1271
1282.785759822993,1285
1284.9070863394636,1299
1287.0278520594447,1277
1289.1480572235314,1289
1291.2677020723963,1264
1293.3867868467923,1318
1295.5053117875495,1332
1297.623277135579,1266
1299.740683131868,1357
1301.8575300174857,1308
1303.973818033578,1337
1306.0895474213703,1305
1308.2047184221678,1305
1310.3193312773528,1278
1312.4333862283888,1358
1314.5468835168163,1343
1316.659823384255,1287
1318.7722060724045,1315
1320.8840318230418,1291
1322.9953008780249,1327
1325.1060134792888,1272
1327.2161698688478,1286
1329.3257702887959,1289
1331.4348149813054,1296
1333.5433041886276,1380
1335.6512381530933,1356
1337.7586171171101,1329
1339.8654413231675,1355
1341.9717110138317,1325
1344.0774264317488,1261
1346.1825878196432,1307
1348.2871954203192,1270
1350.3912494766587,1311
1352.4947502316231,1318
1354.5976979282532,1319
1356.7000928096686,1335
1358.8019351190665,1328
1360.9032250997243,1345
1363.0039629949988,1303
1365.1041490483235,1327
1367.2037835032133,1343
1369.3028666032606,1345
1371.401398592137,1340
1373.4993797135926,1330
1375.5968102114575,1353
1377.6936903296396,1319
1379.7900203121262,1353
1381.8858004029835,1293
1383.9810308463561,1303
1386.075711886469,1306
1388.1698437676241,1257
1390.2634267342032,1318
1392.356461030667,1296
1394.4489469015557,1329
1396.5408845914872,1316
1398.6322743451592,1312
1400.7231164073469,1293
1402.813411022907,1315
1404.903158436773,1301
1406.9923588939578,1354
1409.0810126395531,1302
1411.1691199187303,1334
1413.2566809767386,1301
1415.343696058907,1381
1417.4301654106425,1359
1419.5160892774315,1360
1421.6014679048399,1393
1423.6863015385125,1341
1425.7705904241707,1357
1427.8543348076178,1331
1429.9375349347342,1328
1432.0201910514802,1400
1434.102303403894,1405
1436.1838722380944,1340
1438.2648978002767,1376
1440.3453803367174,1366
1442.4253200937692,1403
1444.5047173178677,1385
1446.5835722555234,1384
1448.6618851533285,1417
1450.739656257952,1456
1452.8168858161434,1468
1454.8935740747306,1336
1456.96972128062,1432
1459.045327680797,1491
1461.120393522327,1488
1463.1949190523528,1427
1465.2689045180973,1491
1467.3423501668608,1476
1469.415256246024,1502
1471.4876230030463,1492
1473.559450685465,1494
1475.6307395408976,1481
1477.7014898170391,1558
1479.771701761665,1570
1481.8413756226287,1517
1483.9105116478618,1569
1485.9791100853772,1517
1488.0471711832643,1512
1490.1146951896926,1545
1492.1816823529098,1526
1494.2481329212433,1583
1496.3140471430984,1610
1498.3794252669609,1570
1500.4442675413939,1574
1502.5085742150404,1537
1504.572345536622,1543
1506.6355817549388,1634
1508.6982831188702,1605
1510.7604498773744,1711
1512.8220822794883,1548
1514.8831805743293,1617
1516.9437450110909,1572
1519.003775839048,1662
1521.0632733075522,1637
1523.1222376660367,1672
1525.1806691640113,1683
1527.2385680510652,1688
1529.2959345768668,1667
1531.3527689911643,1672
1533.4090715437833,1676
1535.4648424846291,1652
1537.5200820636855,1729
1539.5747905310159,1761
1541.6289681367616,1812
1543.6826151311434,1763
1545.7357317644614,1837
1547.7883182870937,1776
1549.8403749494987,1770
1551.8919020022113,1834
1553.9428996958477,1807
1555.9933682811015,1825
1558.0433080087469,1881
1560.0927191296346,1931
1562.1416018946961,1905
1564.1899565549415,1932
1566.2377833614592,1983
1568.2850825654164,1924
1570.3318544180606,1869
1572.3780991707158,1850
1574.423817074788,1829
1576.4690083817595,1862
1578.5136733431923,1855
1580.5578122107272,1798
1582.601425236085,1691
1584.6445126710646,1720
1586.6870747675434,1642
1588.7291117774776,1594
1590.7706239529034,1641
1592.8116115459347,1614
1594.8520748087658,1537
1596.8920139936686,1565
1598.9314293529933,1445
1600.9703211391711,1547
1603.008689604711,1452
1605.0465350022005,1471
1607.0838575843068,1424
1609.1206576037753,1431
1611.1569353134305,1413
1613.1926909661765,1406
1615.2279248149953,1419
1617.2626371129481,1436
1619.2968281131757,1399
1621.3304980688963,1347
1623.3636472334088,1367
1625.39627586009,1347
1627.428384202396,1287
1629.459972513861,1319
1631.4910410480993,1331
1633.5215900588028,1325
1635.551619799744,1378
1637.5811305247717,1331
1639.6101224878166,1304
1641.6385959428862,1341
1643.6665511440683,1277
1645.693988345528,1298
1647.7209078015112,1294
1649.7473097663405,1290
1651.7731944944203,1268
1653.7985622402307,1304
1655.823413258333,1337
1657.847747803366,1357
1659.8715661300494,1322
1661.8948684931793,1349
1663.9176551476316,1300
1665.9399263483624,1284
1667.9616823504057,1302
1669.982923408873,1320
1672.0036497789574,1320
1674.0238617159293,1331
1676.043559475138,1258
1678.0627433120121,1253
1680.081413482059,1264
1682.0995702408654,1303
1684.117213844096,1324
1686.134344547495,1348
1688.1509626068864,1314
1690.1670682781705,1339
1692.182661817329,1281
1694.1977434804217,1383
1696.2123135235875,1296
1698.226372203043,1274
1700.2399197750851,1333
1702.2529564960905,1353
1704.2654826225112,1306
1706.277498410882,1334
1708.2890041178139,1304
1710.2999999999988,1269
1712.3104863142066,1288
1714.3204633172854,1294
1716.329931266163,1332
1718.3388904178469,1353
1720.3473410294214,1264
1722.3552833580516,1295
1724.3627176609807,1313
1726.3696441955308,1299
1728.3760632191033,1304
1730.3819749891782,1257
1732.3873797633146,1308
1734.3922777991502,1313
1736.3966693544012,1324
1738.4005546868639,1278
1740.4039340544127,1298
1742.406807715001,1321
1744.4091759266616,1310
1746.4110389475054,1306
1748.4123970357223,1283
1750.413250449582,1260
1752.4135994474318,1290
1754.4134442876993,1300
1756.4127852288902,1250
1758.4116225295893,1287
1760.4099564484595,1275
1762.407787244244,1250
1764.405115175764,1322
1766.4019405019203,1336
1768.3982634816916,1260
1770.3940843741357,1252
1772.3894034383907,1299
1774.3842209336717,1239
1776.378537119274,1312
1778.372352254571,1307
1780.3656665990156,1281
1782.3584804121397,1263
1784.3507939535534,1325
1786.3426074829463,1318
1788.3339212600863,1291
1790.3247355448211,1230
1792.3150505970766,1311
1794.3048666768573,1269
1796.2941840442477,1259
1798.2830029594106,1289
1800.2713236825884,1300
1802.2591464741004,1246
1804.2464715943465,1279
1806.2332993038058,1295
1808.2196298630352,1231
1810.2054635326708,1219
1812.190800573428,1240
1814.175641246101,1297
1816.1599858115628,1300
1818.1438345307652,1290
1820.127187664738,1328
1822.1100454745924,1271
1824.092408221516,1284
1826.0742761667766,1273
1828.055649571721,1307
1830.0365286977735,1270
1832.0169138064398,1256
1833.9968051593014,1269
1835.9762030180214,1302
1837.9551076443408,1274
1839.9335193000788,1223
1841.9114382471344,1280
1843.888864747485,1240
1845.8657990631878,1288
1847.842241456378,1263
1849.8181921892697,1231
1851.7936515241558,1283
1853.7686197234098,1233
1855.7430970494815,1268
1857.7170837649014,1278
1859.6905801322787,1242
1861.6635864143004,1285
1863.6361028737338,1201
1865.608129773424,1259
1867.5796673762961,1302
1869.5507159453537,1268
1871.521275743678,1282
1873.4913470344313,1255
1875.4609300808534,1323
1877.4300251462632,1311
1879.3986324940588,1301
1881.366752387717,1355
1883.3343850907936,1322
1885.3015308669228,1288
1887.268189979819,1308
1889.2343626932739,1306
1891.2000492711595,1289
1893.1652499774254,1246
1895.1299650761011,1238
1897.0941948312952,1233
1899.0579395071945,1313
1901.0211993680641,1300
1902.98397467825,1245
1904.9462657021745,1320
1906.9080727043415,1293
1908.869395949332,1309
1910.8302357018065,1304
1912.790592226504,1248
1914.7504657882428,1256
1916.7098566519212,1285
1918.6687650825133,1284
1920.6271913450764,1297
1922.5851357047422,1274
1924.5425984267245,1284
1926.499579776314,1337
1928.4560800188833,1309
1930.4120994198802,1253
1932.367638244833,1280
1934.32269675935,1236
1936.2772752291175,1280
1938.231373919899,1311
1940.1849930975404,1351
1942.1381330279637,1282
1944.0907939771696,1292
1946.0429762112412,1274
1947.9946799963363,1280
1949.9459055986945,1236
1951.896653284633,1271
1953.8469233205478,1211
1955.7967159729142,1248
1957.7460315082863,1265
1959.6948701932974,1260
1961.6432322946594,1235
1963.5911180791632,1231
1965.5385278136787,1242
1967.4854617651545,1248
1969.4319202006182,1256
1971.377903387176,1251
1973.3234115920136,1256
1975.268445082395,1270
1977.2130041256642,1228
1979.1570889892423,1262
1981.1006999406304,1278
1983.04383724741,1284
1984.986501177238,1326
1986.928691997853,1248
1988.8704099770712,1257
1990.811655382789,1252
1992.7524284829801,1288
1994.692729545698,1240
1996.6325588390755,1279
1998.5719166313224,1266
2000.5108031907307,1246
2002.4492187856677,1238
2004.387163684583,1284
2006.3246381560011,1313
2008.2616424685298,1215
2010.1981768908527,1242
2012.1342416917332,1267
2014.069837140014,1266
2016.0049635046162,1262
2017.9396210545406,1244
2019.8738100588666,1226
2021.8075307867502,1200
2023.740783507431,1256
2025.6735684902228,1293
2027.6058860045214,1306
2029.5377363198004,1276
2031.4691197056118,1268
2033.4000364315875,1235
2035.3304867674374,1222
2037.260470982952,1239
2039.189989347998,1211
2041.1190421325232,1254
2043.047629606554,1252
2044.9757520401945,1262
2046.9034097036288,1225
2048.8306028671195,1244
2050.7573318010086,1253
2052.683596775716,1296
2054.609398061742,1286
2056.5347359296647,1266
2058.4596106501403,1237
2060.384022493906,1213
2062.3079717317764,1204
2064.231458634646,1294
2066.1544834734873,1235
2068.077046519352,1248
2069.99914804337,1219
2071.9207883167524,1213
2073.8419676107865,1214
2075.7626861968406,1270
2077.6829443463607,1238
2079.6027423308715,1325
2081.522080421977,1294
2083.440958891362,1249
2085.359378010786,1272
2087.2773380520907,1255
2089.194839287196,1221
2091.111881988101,1272
2093.0284664268825,1268
2094.9445928756973,1305
2096.86026160678,1268
2098.775472892446,1257
2100.690227005088,1236
2102.604524217178,1244
2104.5183648012676,1232
2106.431749029985,1257
2108.34467717604,1257
2110.2571495122206,1223
2112.169166311393,1245
2114.080727846503,1269
2115.9918343905747,1265
2117.902486216711,1322
2119.8126835980956,1246
2121.722426807987,1210
2123.6317161197285,1273
2125.5405518067364,1258
2127.448934142509,1301
2129.356863400624,1253
2131.264339854737,1258
2133.1713637785815,1287
2135.077935445972,1332
2136.9840551308002,1276
2138.889723107037,1284
2140.7949396487334,1282
2142.699705030018,1282
2144.6040195250994,1243
2146.507883408264,1244
2148.4112969538774,1280
2150.3142604363848,1230
2152.2167741303097,1266
2154.1188383102535,1210
2156.0204532508997,1268
2157.9216192270064,1235
2159.822336513414,1299
2161.7226053850413,1318
2163.622426116884,1298
2165.5217989840185,1303
2167.4207242616,1241
2169.319202224862,1268
2171.2172331491165,1315
2173.1148173097563,1282
2175.0119549822507,1264
2176.90864644215,1259
2178.8048919650823,1276
2180.7006918267534,1327
2182.596046302952,1309
2184.4909556695407,1325
2186.3854202024645,1316
2188.279440177746,1308
2190.173015871487,1297
2192.066147559868,1278
2193.958835519149,1265
2195.851080025667,1307
2197.7428813558417,1261
2199.6342397861667,1309
2201.5251555932186,1281
2203.415629053651,1279
2205.3056604441986,1314
2207.19525004167,1319
2209.084398122958,1374
2210.9731049650327,1325
2212.861370844941,1387
2214.749196039812,1285
2216.636580826851,1308
2218.523525483344,1261
2220.410030286655,1294
2222.296095514226,1324
2224.1817214435805,1308
2226.066908352319,1353
2227.951656518121,1308
2229.835966218746,1336
2231.71983773203,1207
2233.6032713358913,1361
2235.486267308324,1342
2237.3688259274036,1319
2239.2509474712824,1327
2241.132632218193,1311
2243.013880446447,1337
2244.8946924344323,1321
2246.7750684606203,1282
2248.6550088035574,1355
2250.534513741871,1302
2252.413583554265,1309
2254.292218519526,1358
2256.170418916517,1335
2258.0481850241786,1296
2259.925517121534,1245
2261.8024154876825,1326
2263.678880401803,1290
2265.5549121431536,1297
2267.430510991071,1300
2269.305677224971,1248
2271.180411124348,1257
2273.0547129687766,1339
2274.9285830379076,1303
2276.8020216114737,1258
2278.6750289692845,1269
2280.5476053912294,1282
2282.4197511572766,1332
2284.2914665474727,1292
2286.162751841943,1305
2288.0336073208937,1276
2289.904033264608,1328
2291.774029953448,1407
2293.6435976678554,1359
2295.5127366883517,1339
2297.381447295534,1289
2299.2497297700825,1304
2301.1175843927526,1245
2302.9850114443825,1282
2304.852011205885,1211
2306.7185839582553,1226
2308.5847299825664,1202
2310.4504495599676,1180
2312.3157429716925,1188
2314.1806104990483,1196
2316.0450524234247,1124
2317.9090690262888,1144
2319.772660589186,1206
2321.635827393742,1162
2323.498569721661,1189
2325.3608878547248,1168
2327.2227820747967,1130
2329.0842526638157,1173
2330.945299903803,1167
2332.805924076857,1217
2334.6661254651535,1148
2336.525904350951,1163
2338.3852610165827,1150
2340.244195744464,1164
2342.102708817088,1124
2343.9608005170253,1146
2345.8184711269287,1143
2347.675720929526,1175
2349.532550207628,1164
2351.38895924412,1170
2353.24494832197,1105
2355.100517724223,1170
2356.955667734004,1184
2358.810398634514,1191
2360.664710709037,1143
2362.5186042409337,1177
2364.3720795136437,1175
2366.225136810686,1175
2368.0777764156583,1158
2369.929998612237,1169
2371.7818036841777,1170
2373.633191915315,1214
2375.484163589562,1129
2377.3347189909114,1137
2379.184858403434,1120
2381.03458211128,1195
2382.8838903986775,1193
2384.732783549936,1195
2386.5812618494406,1166
2388.4293255816588,1174
2390.2769750311327,1172
2392.1242104824883,1204
2393.971032220427,1208
2395.8174405297295,1180
2397.6634356952563,1138
2399.509018001947,1188
2401.3541877348193,1185
2403.1989451789705,1196
2405.043290619576,1145
2406.8872243418905,1150
2408.730746631247,1181
2410.5738577730594,1190
2412.4165580528183,1155
2414.258847756095,1164
2416.100727168537,1172
2417.9421965758734,1192
2419.783256263912,1181
2421.623906518538,1174
2423.4641476257157,1204
2425.303979871491,1198
2427.143403541984,1190
2428.9824189233977,1238
2430.821026302012,1192
2432.6592259641866,1215
2434.497018196361,1190
2436.33440328505,1200
2438.171381516851,1183
2440.00795317844,1193
2441.844118556569,1152
2443.6798779380724,1186
2445.5152316098606,1207
2447.3501798589255,1201
2449.1847229723357,1211
2451.0188612372403,1160
2452.8525949408663,1199
2454.6859243705203,1164
2456.518849813587,1215
2458.3513715575314,1190
2460.183489889895,1216
2462.015205098301,1242
2463.8465174704493,1228
2465.67742729412,1208
2467.5079348571717,1169
2469.338040447542,1169
2471.1677443532476,1188
2472.9970468623833,1184
2474.825948263123,1133
2476.6544488437207,1175
2478.482548892508,1180
2480.310248697896,1146
2482.137548548374,1163
2483.9644487325118,1202
2485.790949538956,1145
2487.617051256433,1197
2489.44275417375,1191
2491.26805857979,1170
2493.0929647635157,1153
2494.917473013971,1184
2496.741583620276,1188
2498.5652968716304,1199
2500.3886130573137,1191
2502.2115324666834,1202
2504.0340553891765,1192
2505.856182114308,1170
2507.6779129316733,1203
2509.499248130945,1194
2511.3201880018764,1183
2513.140732834298,1230
2514.9608829181198,1237
2516.780638543331,1187
2518.6,1188
2520.418967578273,1185
2522.237541568376,1200
2524.0557222606144,1149
2525.8735099453706,1180
2527.6909049131086,1224
2529.507907454368,1204
2531.32451785977,1214
2533.140736420014,1151
2534.9565634258774,1194
2536.771999168218,1189
2538.5870439379714,1193
2540.4016980261526,1224
2542.2159617238544,1194
2544.02983532225,1188
2545.8433191125914,1223
2547.656413386209,1212
2549.4691184345115,1155
2551.2814345489874,1172
2553.093362021204,1261
2554.904901142808,1217
2556.716052205523,1187
2558.526815501153,1232
2560.3371913215824,1244
2562.147179958771,1301
2563.956781704761,1259
2565.7659968516705,1267
2567.5748256916986,1249
2569.3832685171224,1313
2571.1913256202984,1244
2572.9989972936614,1267
2574.806283829725,1238
2576.613185521084,1235
2578.4197026604074,1234
2580.2258355404483,1235
2582.031584454035,1329
2583.836949694077,1222
2585.6419315535613,1287
2587.4465303255533,1284
2589.2507463032002,1269
2591.0545797797245,1264
2592.8580310484303,1292
2594.6611004026995,1263
2596.463788135992,1302
2598.266094541849,1264
2600.0680199138874,1271
2601.869564545807,1270
2603.670728731383,1271
2605.4715127644704,1275
2607.2719169390048,1288
2609.071941548998,1191
2610.8715868885433,1258
2612.670853251811,1308
2614.469740933052,1287
2616.268250226594,1316
2618.0663814268455,1290
2619.864134828292,1286
2621.6615107255006,1270
2623.458509413115,1299
2625.2551311858597,1313
2627.0513763385347,1218
2628.8472451660223,1238
2630.6427379632833,1235
2632.4378550253564,1232
2634.232596647359,1261
2636.026963124488,1267
2637.8209547520187,1207
2639.6145718253065,1258
2641.407814639785,1235
2643.200683490966,1276
2644.9931786744414,1249
2646.7853004858807,1261
2648.577049221034,1295
2650.3684251757277,1220
2652.1594286458712,1225
2653.9500599274484,1244
2655.740319316525,1198
2657.5302071092437,1223
2659.3197236018286,1245
2661.10886909058,1273
2662.8976438718782,1194
2664.686048242183,1203
2666.4740824980327,1194
2668.2617469360443,1220
2670.0490418529134,1138
2671.8359675454153,1201
2673.622524310403,1199
2675.408712444811,1201
2677.1945322456495,1186
2678.979984010009,1163
2680.76506803506,1232
2682.5497846180497,1167
2684.334134056306,1179
2686.1181166472343,1186
2687.9017326883213,1168
2689.6849824771293,1201
2691.4678663113013,1195
2693.2503844885596,1190
2695.032537306705,1171
2696.8143250636167,1176
2698.5957480572542,1166
2700.3768065856534,1160
2702.1575009469316,1190
2703.937831439283,1194
2705.717798360982,1165
2707.4974020103837,1190
2709.276642685917,1157
2711.055520686095,1132
2712.834036309506,1183
2714.612189854819,1157
2716.389981620782,1179
2718.1674119062204,1189
2719.944481010041,1176
2721.721189231226,1155
2723.4975368688415,1216
2725.273524222027,1167
2727.0491515900053,1149
2728.824419272075,1137
2730.5993275676146,1163
2732.3738767760838,1168
2734.148067197016,1117
2735.921899130031,1128
2737.6953728748194,1158
2739.468488731156,1162
2741.2412469988926,1123
2743.0136479779617,1132
2744.785691968372,1135
2746.5573792702116,1116
2748.3287101836504,1180
2750.099685008934,1124
2751.870304046388,1134
2753.640567596418,1134
2755.4104759595057,1137
2757.1800294362156,1147
2758.949228327187,1107
2760.7180729331412,1138
2762.486563554877,1125
2764.254700493272,1129
2766.022484049284,1204
2767.789914523947,1147
2769.5569922183786,1143
2771.3237174337705,1148
2773.090090471394,1168
2774.8561116326036,1179
2776.6217812188274,1166
2778.3870995315756,1164
2780.1520668724356,1192
2781.9166835430747,1144
2783.6809498452394,1157
2785.444866080754,1164
2787.2084325515225,1131
2788.971649559527,1139
2790.73451740683,1118
2792.4970363955713,1137
2794.2592068279705,1167
2796.0210290063264,1160
2797.7825032330147,1150
2799.543629810493,1177
2801.304409041296,1186
2803.0648412280366,1164
2804.8249266734088,1123
2806.5846656801846,1133
2808.344058551212,1151
2810.1031055894246,1131
2811.8618070978273,1192
2813.6201633795085,1172
2815.378174737636,1183
2817.1358414754536,1147
2818.893163896285,1207
2820.6501423035334,1232
2822.4067770006814,1159
2824.1630682912883,1168
2825.9190164789957,1214
2827.6746218675207,1201
2829.429884760661,1191
2831.184805462294,1187
2832.9393842763743,1164
2834.693621506936,1218
2836.4475174580916,1174
2838.201072434034,1146
2839.954286739034,1104
2841.707160677441,1174
2843.459694553685,1185
2845.2118886722724,1120
2846.96374333779,1106
2848.7152588549034,1151
2850.4664355283567,1156
2852.217273662973,1160
2853.9677735636546,1142
2855.7179355353833,1147
2857.4677598832186,1179
2859.217246912299,1156
2860.9663969278427,1169
2862.715210235146,1163
2864.4636871395846,1082
2866.211827946614,1139
2867.9596329617652,1167
2869.7071024906536,1174
2871.4542368389684,1125
2873.20103631248,1132
2874.947501217038,1164
2876.6936318585695,1153
2878.4394285430812,1142
2880.1848915766604,1180
2881.9300212654707,1183
2883.6748179157553,1194
2885.4192818338374,1161
2887.1634133261173,1115
2888.907212699077,1175
2890.6506802592744,1189
2892.393816313348,1178
2894.1366211680142,1157
2895.8790951300693,1169
2897.621238506388,1122
2899.363051603925,1153
2901.1045347297118,1092
2902.8456881908596,1156
2904.58651229456,1158
2906.327007348081,1148
2908.067173658772,1207
2909.8070115340597,1152
2911.5465212814497,1093
2913.285703208527,1207
2915.0245576229563,1095
2916.7630848324807,1188
2918.5012851449196,1180
2920.2391588681758,1173
2921.976706310227,1168
2923.7139277791334,1223
2925.4508235830313,1140
2927.187394030137,1155
2928.923639428745,1158
2930.6595600872306,1147
2932.395156314046,1163
2934.1304284177218,1106
2935.8653767068713,1177
2937.6000014901815,1145
2939.3343030764227,1190
2941.068281774442,1186
2942.8019378931644,1204
2944.5352717415976,1169
2946.2682836288236,1158
2948.0009738640065,1183
2949.7333427563885,1169
2951.465390615289,1145
2953.1971177501086,1177
2954.9285244703265,1181
2956.6596110855,1127
2958.3903779052657,1206
2960.1208252393385,1204
2961.8509533975125,1125
2963.5807626896617,1121
2965.3102534257378,1145
2967.0394259157715,1138
2968.768280469873,1089
2970.496817398232,1164
2972.2250370111146,1194
2973.952939618869,1187
2975.6805255319196,1183
2977.4077950607707,1223
2979.134748516006,1163
2980.861386208289,1167
2982.587708448359,1142
2984.313715547037,1121
2986.039407815222,1155
2987.764785563891,1129
2989.489849104102,1174
2991.2145987469908,1191
2992.9390348037705,1189
2994.6631575857346,1183
2996.3869674042576,1162
2998.1104645707887,1171
2999.83364939686,1170
3001.5565221940783,1187
3003.2790832741334,1169
3005.0013329487924,1160
3006.7232715298996,1152
3008.4448993293804,1152
3010.166216659239,1193
3011.887223831558,1165
3013.607921158498,1148
3015.3283089522993,1144
3017.0483875252826,1137
3018.7681571898443,1137
3020.4876182584626,1199
3022.2067710436927,1121
3023.9256158581707,1183
3025.644153014609,1140
3027.362382825801,1187
3029.0803056046193,1150
3030.797921664012,1128
3032.5152313170106,1154
3034.2322348767225,1139
3035.9489326563353,1131
3037.665324969115,1164
3039.3814121284063,1143
3041.097194447633,1174
3042.812672240299,1132
3044.5278458199855,1160
3046.2427155003525,1100
3047.9572815951406,1134
3049.671544418167,1092
3051.38550428333,1162
3053.0991615046073,1165
3054.812516396051,1118
3056.5255692717974,1161
3058.2383204460575,1143
3059.9507702331257,1143
3061.662918947372,1123
3063.3747669032446,1109
3065.0863144152736,1185
3066.7975617980674,1170
3068.508509366309,1174
3070.219157434767,1235
3071.9295063182844,1078
3073.639556331785,1149
3075.3493077902704,1152
3077.058761008821,1135
3078.7679163025964,1166
3080.476773986837,1163
3082.1853343768594,1106
3083.89359778806,1151
3085.6015645359153,1173
3087.3092349359786,1173
3089.016609303884,1104
3090.7236879553434,1131
3092.4304712061476,1158
3094.136959372166,1105
3095.843152769349,1156
3097.5490517137237,1165
3099.2546565213966,1130
3100.959967508554,1145
3102.66498499146,1120
3104.3697092864577,1143
3106.0741407099695,1155
3107.778279578498,1184
3109.482126208622,1122
3111.1856809170004,1160
3112.8889440203716,1142
3114.5919158355528,1165
3116.294596679439,1190
3117.996986869006,1149
3119.6990867213062,1129
3121.4008965534726,1125
3123.102416682717,1191
3124.803647426329,1249
3126.5045891016784,1161
3128.205242026213,1141
3129.90560651746,1172
3131.605682893025,1172
3133.3054714705922,1152
3135.0049725679282,1184
3136.7041865028714,1157
3138.4031135933465,1120
3140.101754157353,1145
3141.800108512971,1159
3143.498176978357,1122
3145.1959598717494,1174
3146.8934575114636,1112
3148.5906702158954,1087
3150.2875983035183,1142
3151.9842420928853,1145
3153.680601902627,1130
3155.376678051456,1172
3157.07247085816,1147
3158.767980641609,1181
3160.463207720748,1146
3162.158152414606,1149
3163.8528150422862,1116
3165.5471959229726,1190
3167.2412953759303,1136
3168.9351137204976,1159
3170.628651276098,1157
3172.3219083622307,1143
3174.014885298474,1206
3175.707582404485,1136
3177.4000000000005,1198
3179.092138404835,1154
3180.7839979388846,1129
3182.47557892212,1165
3184.166881674594,1144
3185.8579065164386,1172
3187.5486537678626,1182
3189.2391237491547,1161
3190.9293167806827,1136
3192.6192331828934,1162
3194.3088732763117,1130
3195.998237381542,1119
3197.687325819268,1163
3199.376138910251,1131
3201.064676975334,1164
3202.7529403354347,1170
3204.4409293115523,1134
3206.1286442247647,1176
3207.816085396229,1104
3209.5032531471825,1105
3211.190147798936,1051
3212.8767696728846,1134
3214.5631190905015,1104
3216.2491963733373,1145
3217.9350018430214,1105
3219.6205358212637,1158
3221.305798629851,1133
3222.990790590651,1059
3224.6755120256103,1092
3226.359963256751,1112
3228.0441446061795,1104
3229.7280563960758,1100
3231.411698948703,1130
3233.0950725863995,1171
3234.778177631587,1153
3236.461014406761,1168
3238.1435832345005,1100
3239.8258844374595,1140
3241.507918338374,1162
3243.1896852600576,1200
3244.8711855254023,1101
3246.552419457381,1192
3248.233387379042,1185
3249.914089613516,1132
3251.59452648401,1119
3253.274698313813,1120
3254.95460542629,1144
3256.6342481448855,1148
3258.313626793125,1160
3259.9927416946084,1175
3261.6715931730196,1134
3263.3501815521176,1137
3265.0285071557437,1108
3266.706570307815,1159
3268.3843713323286,1109
3270.0619105533615,1160
3271.739188295068,1106
3273.4162048816834,1165
3275.0929606375184,1081
3276.769455886966,1096
3278.445690954498,1127
3280.1216661646613,1168
3281.797381842087,1104
3283.4728383114807,1108
3285.1480358976296,1144
3286.8229749253996,1101
3288.4976557197333,1125
3290.172078605655,1117
3291.846243908266,1113
3293.5201519527463,1134
3295.193803064357,1155
3296.8671975684374,1144
3298.5403357904024,1151
3300.21321805575,1129
3301.8858446900567,1120
3303.558216018975,1177
3305.23033236824,1119
3306.9021940636603,1134
3308.57380143113,1116
3310.2451547966184,1078
3311.916254486174,1092
3313.5871008259246,1169
3315.2576941420766,1177
3316.9280347609147,1123
3318.5981230088046,1138
3320.2679592121895,1146
3321.9375436975924,1124
3323.606876791612,1182
3325.27595882093,1095
3326.944790112305,1102
3328.6133709925753,1193
3330.2817017886573,1139
3331.949782827547,1115
3333.617614436319,1151
3335.2851969421245,1171
3336.952530672199,1126
3338.619615953853,1136
3340.286453114475,1100
3341.9530424815357,1163
3343.619384382583,1204
3345.2854791452437,1170
3346.951327097224,1161
3348.6169285663073,1185
3350.2822838803577,1151
3351.947393367319,1178
3353.61225735521,1126
3355.2768761721345,1155
3356.9412501462693,1133
3358.605379605873,1089
3360.2692648792827,1143
3361.9329062949146,1130
3363.596304181263,1154
