CollectionTime,7/9/2024 1:05:10 PM
ExposureUsed,3
CalibratedSpectrum
-962.7078968117929,500
-959.9714848408522,573
-957.2358232597828,591
-954.5009119013725,562
-951.7667505983302,509
-949.0333391832855,530
-946.3006774887896,574
-943.5687653473143,592
-940.837602591253,546
-938.1071890529199,544
-935.3775245645503,563
-932.6486089583007,592
-929.9204420662485,566
-927.1930237203925,550
-924.4663537526524,557
-921.7404319948689,556
-919.0152582788041,588
-916.2908324361409,615
-913.5671542984834,591
-910.8442236973568,559
-908.1220404642074,529
-905.4006044304027,597
-902.679915427231,576
-899.959973285902,550
-897.2407778375464,528
-894.5223289132158,519
-891.8046263438832,515
-889.0876699604426,518
-886.3714595937089,540
-883.6559950744183,565
-880.9412762332282,536
-878.2273029007168,533
-875.5140749073835,488
-872.8015920836489,563
-870.0898542598545,575
-867.3788612662631,557
-864.6686129330585,529
-861.9591090903457,523
-859.2503495681506,527
-856.5423341964203,515
-853.8350628050229,582
-851.1285352237478,553
-848.4227512823054,506
-845.7177108103272,549
-843.0134136373656,551
-840.3098595928943,575
-837.6070485063082,553
-834.9049802069229,575
-832.2036545239757,559
-829.5030712866244,509
-826.8032303239481,540
-824.1041314649472,535
-821.4057745385428,521
-818.7081593735775,527
-816.0112857988148,554
-813.3151536429393,520
-810.6197627345566,562
-807.9251129021936,547
-805.2312039742981,558
-802.5380357792392,533
-799.8456081453069,526
-797.1539209007124,539
-794.462973873588,575
-791.772766891987,552
-789.083299783884,551
-786.3945723771743,546
-783.7065844996748,512
-781.0193359791231,559
-778.3328266431781,592
-775.6470563194197,558
-772.9620248353489,543
-770.2777320183878,531
-767.5941776958798,532
-764.9113616950891,567
-762.2292838432011,597
-759.5479439673222,529
-756.8673418944801,563
-754.1874774516235,578
-751.5083504656222,583
-748.8299607632671,556
-746.15230817127,567
-743.475392516264,586
-740.7992136248035,591
-738.1237713233636,562
-735.4490654383407,568
-732.7750957960521,553
-730.1018622227365,548
-727.4293645445534,575
-724.7576025875837,521
-722.0865761778291,583
-719.4162851412126,576
-716.7467293035781,602
-714.0779084906909,607
-711.409822528237,576
-708.7424712418238,569
-706.0758544569796,572
-703.4099719991541,613
-700.7448236937178,651
-698.0804093659622,618
-695.4167288411002,618
-692.7537819442656,587
-690.0915685005134,574
-687.4300883348199,577
-684.7693412720819,585
-682.1093271371178,578
-679.4500457546669,616
-676.7914969493897,567
-674.1336805458676,594
-671.4765963686034,582
-668.8202442420206,601
-666.1646239904642,609
-663.5097354382001,597
-660.8555784094151,607
-658.2021527282176,604
-655.5494582186366,559
-652.8974947046223,592
-650.2462620100463,591
-647.5957599587009,608
-644.9459883742998,656
-642.2969470804776,639
-639.6486359007902,614
-637.0010546587141,675
-634.3542031776476,630
-631.7080812809096,618
-629.0626887917401,634
-626.4180255333008,596
-623.7740913286734,652
-621.1308860008619,676
-618.4884093727904,636
-615.8466612673046,646
-613.2056415071715,663
-610.5653499150785,658
-607.9257863136347,656
-605.28695052537,619
-602.6488423727357,661
-600.0114616781036,633
-597.3748082637674,635
-594.7388819519412,642
-592.1036825647604,780
-589.4692099242818,813
-586.8354638524829,711
-584.2024441712624,645
-581.5701507024403,678
-578.9385832677575,712
-576.3077416888759,663
-573.6776257873787,667
-571.0482353847704,618
-568.4195703024757,685
-565.7916303618415,681
-563.164415384135,673
-560.5379251905453,675
-557.9121596021815,692
-555.2871184400748,695
-552.6628015251767,745
-550.0392086783606,761
-547.4163397204204,731
-544.794194472071,729
-542.1727727539491,710
-539.5520743866118,801
-536.9320991905377,804
-534.3128469861261,795
-531.6943175936979,736
-529.0765108334947,798
-526.4594265256793,812
-523.8430644903358,885
-521.2274245474689,1029
-518.612506517005,1092
-515.9983102187913,1075
-513.3848354725959,1196
-510.77208209810846,1145
-508.16004991493924,1172
-505.5487387426199,1199
-502.9381484006032,1246
-500.3282787082628,1259
-497.71912948489364,1255
-495.1107005497117,1159
-492.5029917218539,1166
-489.8960028203786,1032
-487.28973366426493,938
-484.68418407241325,843
-482.07935386364494,826
-479.47524285670266,775
-476.87185087025,825
-474.2691777228715,833
-471.66722323307334,783
-469.0659872192821,797
-466.4654694998459,830
-463.86566989303384,790
-461.26658821703614,826
-458.66822428996414,861
-456.07057792985,828
-453.4736489546475,832
-450.877437182231,834
-448.28194243039627,797
-445.68716451686,803
-443.09310325926003,733
-440.49975847515555,787
-437.9071299820263,826
-435.31521759727354,789
-432.72402113821954,816
-430.13354042210767,835
-427.5437752661022,841
-424.95472548728867,879
-422.36639090267386,856
-419.7787713291855,907
-417.1918665836721,927
-414.60567648290385,950
-412.0202008435715,884
-409.4354394822874,883
-406.8513922155845,881
-404.26805885991723,888
-401.685439231661,985
-399.103533147112,945
-396.522340422488,899
-393.9418608739278,876
-391.3620943174908,901
-388.7830405691583,959
-386.2046994448317,823
-383.6270707603344,799
-381.05015433141045,754
-378.473949973725,708
-375.8984575028645,730
-373.32367673433623,693
-370.74960748356875,650
-368.1762495659117,647
-365.60360279663576,673
-363.03166699093265,571
-360.4604419639154,601
-357.8899275306178,564
-355.32012350599507,553
-352.7510297049233,512
-350.1826459421999,496
-347.61497203254316,507
-345.04800779059235,514
-342.4817530309082,576
-339.91620756797226,568
-337.35137121618743,587
-334.7872437898774,607
-332.22382510328725,657
-329.66111497058273,608
-327.09911320585127,575
-324.53781962310075,597
-321.9772340362607,523
-319.4173562591816,507
-316.8581861056348,524
-314.2997233893127,476
-311.7419679238294,502
-309.1849195227194,509
-306.62857799943856,539
-304.0729431673641,554
-301.51801483979375,592
-298.963792829947,607
-296.41027695096386,583
-293.85746701590574,560
-291.3053628377552,598
-288.7539642294155,676
-286.2032710037115,615
-283.65328297338897,609
-281.1039999511146,727
-278.5554217494762,737
-276.007548180983,658
-273.4603790580651,603
-270.9139141930734,618
-268.3681533982807,704
-265.8230964858798,595
-263.27874326798565,611
-260.7350935566336,622
-258.1921471637804,675
-255.6499039013039,708
-253.10836358100266,688
-250.56752601459698,687
-248.02739101372765,755
-245.48795838995704,758
-242.94922795476816,704
-240.41119951956557,706
-237.8738728956746,768
-235.33724789434166,903
-232.80132432673452,753
-230.2661020039418,620
-227.73158073697357,670
-225.19776033676033,768
-222.66464061415422,857
-220.1322213799284,747
-217.60050244477725,611
-215.06948361931552,740
-212.53916471408013,860
-210.00954553952818,924
-207.48062590603843,913
-204.9524056239104,811
-202.4248845033651,969
-199.8980623545441,1040
-197.37193898751036,1016
-194.84651421224817,893
-192.32178783866232,921
-189.79775967657952,973
-187.27442953574644,1067
-184.7517972258321,1206
-182.2298625564256,1011
-179.7086253370378,950
-177.18808537710026,965
-174.66824248596583,1064
-172.14909647290835,1134
-169.6306471471229,1095
-167.11289431772548,1037
-164.59583779375328,1027
-162.07947738416453,1074
-159.5638128978386,1181
-157.04884414357605,1312
-154.53457093009854,1342
-152.02099306604828,1368
-149.50811035998936,1022
-146.99592262040665,886
-144.48442965570587,1043
-141.97363127421409,1092
-139.46352728417958,1104
-136.95411749377126,1158
-134.44540171107985,1360
-131.93737974411636,1158
-129.43005140081357,1165
-126.92341648902493,1389
-124.41747481652521,1390
-121.91222619101006,1198
-119.40767042009657,1400
-116.90380731132257,1586
-114.40063667214702,1739
-111.8981583099503,1488
-109.3963720320337,1720
-106.89527764561933,2021
-104.39487495785067,2112
-101.89516377579241,2380
-99.39614390642998,3035
-96.89781515667039,3105
-94.40017733334128,3600
-91.90323024319173,6293
-89.40697369289148,15505
-86.91140748903172,26517
-84.41653143812482,24988
-81.92234534660395,14824
-79.42884902082358,8107
-76.93604226705907,13927
-74.4439248915071,37038
-71.95249670028534,59733
-69.46175749943245,61665
-66.97170709490854,48234
-64.48234529259423,30749
-61.99367189829195,19904
-59.50568671772464,16264
-57.01838955653636,14356
-54.53178022029283,11883
-52.045858514480074,12317
-49.560624244506016,13884
-47.07607721569923,14870
-44.59221723330904,14550
-42.10904410250669,14899
-39.62655762838392,15257
-37.14475761595372,14850
-34.66364387015028,14780
-32.18321619582866,11907
-29.70347439776515,10233
-27.224418280657005,11112
-24.74604764912317,14692
-22.26836230770266,23555
-19.7913620608565,47317
-17.315046712966478,65039
-14.83941606833514,65039
-12.36446993118659,65039
-9.89020810566592,65039
-7.416630395839093,65039
-4.94373660569363,65039
-2.471526539137585,65039
-6.821210263296962E-13,65039
2.47084320796705,65039
4.941003281093458,65039
7.410480415786196,65039
9.879274808531363,65039
12.347386655893956,65039
14.814816154518212,65039
17.28156350112681,65039
19.74762889252179,65039
22.21301252558385,65039
24.67771459727237,21369
27.141735304626195,4891
29.605074844762612,3422
32.06773341487792,2826
34.52971121224755,2924
36.99100843422559,3209
39.45162527824516,2475
41.91156194181792,1928
44.370818622535126,2378
46.82939551806646,2040
49.287292826160524,1931
51.74451074464503,2188
54.201049471426245,2866
56.65690920448981,2704
59.112090141899785,1783
61.56659248179983,1301
64.02041642241159,1334
66.4735621620365,1287
68.92602989905402,1296
71.37781983192338,1640
73.82893215918205,1873
76.27936707944684,2107
78.72912479141326,1857
81.17820549385567,1590
83.62660938562783,2162
86.07433666566146,2217
88.5213875329681,1417
90.96776218663751,1216
93.41346082583925,1035
95.85848364982041,1246
98.30283085790859,1550
100.7465026495089,2071
103.18949922410604,1584
105.63182078126385,1451
108.07346752062438,1594
110.51443964190923,1167
112.95473734491827,1052
115.39436082953114,980
117.83331029570547,1104
120.27158594347827,1223
122.7091879729652,1492
125.1461165843615,1258
127.58237197794062,1041
130.01795435405518,974
132.4528639131364,991
134.88710085569494,1044
137.32066538231982,1117
139.75355769367923,1130
142.1857779905207,1113
144.61732647366978,1126
147.04820334403132,1104
149.47840880258934,942
151.90794305040674,962
154.33680628862487,957
156.76499871846443,1159
159.19252054122433,1267
161.61937195828352,1300
164.04555317109896,1369
166.47106438120693,1483
168.89590579022217,1637
171.320077599839,1826
173.7435800118302,2017
176.16641322804742,2030
178.58857745042144,1991
181.01007288096173,2165
183.43089972175687,2281
185.85105817497413,2177
188.27054844285988,2080
190.6893707277394,2159
193.10752523201643,2094
195.5250121581745,2165
197.9418317087751,2179
200.3579840864594,2121
202.7734694939469,2202
205.18828813403627,2215
207.6024402096051,2228
210.01592592360964,2385
212.42874547908548,2388
214.84089907914665,2325
217.2523869269868,2252
219.66320922587727,2251
222.0733661791695,2255
224.48285799029293,2259
226.8916848627572,2214
229.29984700014882,2255
231.7073446061355,2294
234.11417788446204,2229
236.520347038953,2223
238.92585227351185,2358
241.33069379212054,2321
243.73487179884035,2283
246.1383864978112,2428
248.541238093252,2422
250.9434267894609,2349
253.34495279081432,2389
255.74581630176783,2333
258.1460175268563,2202
260.54555667069314,2236
262.9444339379703,2278
265.3426495334594,2207
267.7402036620107,2456
270.1370965285529,2514
272.53332833809407,2405
274.9288992957214,2236
277.32380960660055,2250
279.718059475976,2329
282.1116491091717,2264
284.5045787115897,2148
286.89684848871195,2073
289.2884586460981,2095
291.67940938938807,2139
294.0697009242996,2113
296.4593334566299,2184
298.84830719225477,2119
301.23662233712923,2191
303.6242790972866,2085
306.01127767884,2104
308.39761828798066,2180
310.78330113097934,2128
313.16832641418534,2046
315.5526943440269,2022
317.9364051270112,2061
320.3194589697242,2047
322.70185607883093,2151
325.0835966610754,2132
327.4646809232805,1997
329.8451090723478,2034
332.2248813152577,1927
334.6039978590701,1977
336.9824589109231,1997
339.36026467803447,1986
341.7374153677,1988
344.113911187295,1922
346.48975234427337,1886
348.8649390461686,1904
351.2394715005918,1880
353.61334991523415,1956
355.9865744978655,1896
358.35914545633375,1832
360.73106299856715,1906
363.10232733257146,1981
365.47293866643247,1948
367.84289720831396,1819
370.2122031664593,1817
372.5808567491905,1862
374.9488581649083,1834
377.31620762209275,1788
379.6829053293021,1810
382.0489514951745,1789
384.4143463284262,1818
386.7790900378528,1771
389.14318283232853,1845
391.50662492080653,1795
393.86941651231916,1771
396.23155781597745,1856
398.5930490409713,1758
400.9538903965696,1785
403.3140820921202,1898
405.6736243370498,1857
408.03251734086336,1818
410.3907613131465,1739
412.74835646356166,1678
415.10530300185144,1685
417.4616011378372,1747
419.81725108141893,1744
422.1722530425758,1697
424.5266072313656,1766
426.880313857925,1653
429.2333731324701,1709
431.58578526529516,1681
433.9375504667738,1685
436.2886689473588,1719
438.63914091758113,1705
440.9889665880513,1742
443.33814616945835,1709
445.68667987257015,1681
448.03456790823395,1695
450.3818104873759,1640
452.72840782100013,1657
455.07436012019105,1682
457.41966759611057,1664
459.7643304600007,1682
462.10834892318155,1665
464.4517231970525,1622
466.79445349309174,1641
469.1365400228566,1644
471.4779829979826,1663
473.81878263018564,1544
476.15893913125876,1682
478.4984527130747,1734
480.8373235875855,1698
483.17555196682144,1714
485.5131380628919,1771
487.8500820879857,1764
490.1863842543697,1799
492.52204477439034,1796
494.8570638604725,1949
497.1914417251204,1992
499.52517858091653,2091
501.85827464052306,2291
504.19073011668036,2453
506.5225452222086,2590
508.85372017000566,2625
511.18425517304956,2713
513.514150444396,2910
515.8434061971808,3274
518.1720226446176,4004
520.4999999999999,4339
522.8273384766991,4176
525.1540382881666,3983
527.480099647932,4078
529.8055227696037,3583
532.1303078668694,2865
534.454455153496,2248
536.777964843328,2060
539.1008371502907,1931
541.4230722883866,1809
543.744670471698,1775
546.0656319143858,1839
548.3859568306899,1922
550.7056454349294,1835
553.0246979415016,1803
555.3431145648834,1717
557.6608955196306,1797
559.978041020377,1731
562.2945512818363,1751
564.6104265188006,1683
566.9256669461412,1669
569.2402727788082,1723
571.5542442318302,1681
573.8675815203156,1704
576.1802848594508,1742
578.4923544645015,1738
580.8037905508126,1794
583.114593333807,1791
585.4247630289875,1731
587.7342998519354,1649
590.0432040183106,1680
592.3514757438526,1680
594.6591152443794,1742
596.9661227357875,1713
599.2724984340531,1733
601.578242555231,1735
603.8833553154542,1737
606.1878369309362,1693
608.4916876179676,1663
610.7949075929192,1720
613.0974970722403,1676
615.3994562724587,1676
617.7007854101818,1695
620.0014847020951,1671
622.3015543649641,1696
624.6009946156324,1674
626.8998056710224,1720
629.1979877481361,1696
631.4955410640538,1678
633.7924658359349,1727
636.0887622810175,1662
638.3844306166192,1704
640.6794710601358,1691
642.9738838290426,1791
645.2676691408932,1698
647.5608272133207,1675
649.853358264037,1720
652.1452625108324,1760
654.4365401715764,1696
656.7271914642178,1641
659.0172166067838,1806
661.3066158173809,1724
663.5953893141935,1715
665.8835373154867,1821
668.1710600396028,1806
670.4579577049639,1779
672.7442305300709,1714
675.0298787335033,1769
677.3149025339197,1707
679.599302150058,1702
681.8830778007342,1783
684.1662297048437,1735
686.4487580813608,1803
688.7306631493387,1760
691.0119451279091,1777
693.2926042362834,1747
695.5726406937516,1720
697.8520547196814,1744
700.1308465335215,1789
702.4090163547982,1747
704.6865644031171,1729
706.9634908981619,1727
709.2397960596965,1747
711.5154801075631,1739
713.7905432616823,1755
716.0649857420548,1740
718.3388077687592,1711
720.612009561953,1713
722.8845913418733,1782
725.1565533288352,1722
727.427895743234,1732
729.6986188055427,1732
731.9687227363137,1762
734.238207756178,1702
736.5070740858458,1722
738.7753219461066,1715
741.0429515578281,1753
743.3099631419569,1698
745.5763569195191,1768
747.8421331116193,1745
750.1072919394409,1669
752.3718336242467,1713
754.6357583873777,1769
756.8990664502545,1779
759.1617580343765,1717
761.423833361321,1688
763.6852926527457,1639
765.9461361303862,1769
768.206364016058,1787
770.4659765316536,1732
772.7249738991469,1757
774.9833563405886,1770
777.2411240781092,1746
779.4982773339183,1748
781.7548163303044,1712
784.010741289634,1770
786.2660524343538,1806
788.5207499869881,1783
790.7748341701416,1744
793.0283052064964,1768
795.2811633188143,1799
797.5334087299362,1735
799.7850416627813,1784
802.0360623403484,1737
804.2864709857143,1740
806.5362678220353,1789
808.7854530725468,1683
811.0340269605625,1728
813.2819897094754,1745
815.5293415427581,1768
817.77608268396,1796
820.0222133567116,1768
822.2677337847211,1786
824.5126441917765,1758
826.7569448017433,1783
829.0006358385675,1738
831.2437175262731,1798
833.4861900889629,1818
835.7280537508192,1626
837.9693087361026,1714
840.2099552691533,1808
842.4499935743896,1843
844.689423876309,1848
846.9282463994886,1860
849.1664613685833,1838
851.4040690083276,1831
853.6410695435349,1815
855.877463199097,1775
858.1132501999847,1776
860.3484307712487,1769
862.5830051380175,1746
864.8169735254988,1764
867.0503361589791,1808
869.2830932638243,1780
871.5152450654786,1800
873.7467917894654,1857
875.9777336613873,1748
878.2080709069252,1714
880.4378037518389,1809
882.666932421968,1776
884.8954571432301,1808
887.1233781416219,1773
889.3506956432192,1795
891.5774098741766,1748
893.803521060728,1819
896.0290294291852,1758
898.2539352059397,1801
900.4782386174619,1720
902.7019398903011,1731
904.925039251085,1703
907.147536926521,1732
909.3694331433943,1766
911.59072812857,1759
913.8114221089921,1793
916.0315153116827,1740
918.2510079637437,1778
920.4699002923547,1731
922.6881925247761,1605
924.905884888345,1636
927.1229776104793,1747
929.3394709186747,1679
931.555365040506,1671
933.7706602036275,1736
935.9853566357709,1761
938.1994545647489,1728
940.4129542184515,1697
942.6258558248488,1712
944.8381596119883,1755
947.0498658079974,1746
949.2609746410825,1749
951.4714863395287,1702
953.6814011316998,1717
955.8907192460387,1735
958.0994409110671,1679
960.3075663553858,1673
962.5150958076741,1700
964.7220294966913,1812
966.928367651274,1732
969.1341105003388,1748
971.3392582728806,1612
973.5438111979742,1737
975.747769504772,1648
977.9511334225061,1641
980.153903180487,1602
982.3560790081052,1700
984.5576611348289,1669
986.7586497902058,1592
988.9590452038618,1693
991.158847605503,1694
993.3580572249133,1661
995.5566742919558,1627
997.7546990365728,1597
999.952131688785,1536
1002.1489724786926,1511
1004.3452216364743,1495
1006.5408793923874,1491
1008.7359459767691,1552
1010.9304216200343,1460
1013.1243065526781,1492
1015.3176010052733,1519
1017.510305208472,1527
1019.7024193930064,1482
1021.8939437896848,1398
1024.0848786293977,1413
1026.2752241431122,1490
1028.4649805618747,1463
1030.6541481168115,1476
1032.842727039127,1458
1035.0307175601051,1414
1037.2181199111074,1447
1039.4049343235752,1406
1041.591161029029,1345
1043.7768002590683,1313
1045.9618522453698,1408
1048.1463172196918,1373
1050.3301954138697,1355
1052.513487059818,1395
1054.69619238953,1378
1056.8783116350783,1361
1059.0598450286152,1374
1061.2407928023704,1407
1063.4211551886528,1353
1065.6009324198508,1409
1067.780124728432,1379
1069.9587323469414,1332
1072.1367555080046,1372
1074.314194444325,1341
1076.4910493886855,1388
1078.667320573947,1370
1080.843008233051,1312
1083.0181125990161,1382
1085.1926339049414,1336
1087.3665723840027,1364
1089.5399282694575,1372
1091.7127017946405,1374
1093.8848931929647,1328
1096.0565026979243,1326
1098.2275305430899,1310
1100.3979769621128,1355
1102.567842188722,1318
1104.737126456726,1339
1106.9058300000124,1233
1109.0739530525475,1264
1111.2414958483764,1221
1113.4084586216231,1241
1115.5748416064907,1324
1117.7406450372605,1311
1119.9058691482942,1297
1122.0705141740304,1307
1124.2345803489884,1308
1126.3980679077658,1303
1128.5609770850388,1333
1130.7233081155623,1296
1132.8850612341707,1301
1135.0462366757774,1316
1137.2068346753745,1324
1139.3668554680326,1274
1141.526299288901,1237
1143.68516637321,1331
1145.8434569562655,1274
1148.001171273455,1287
1150.158309560244,1276
1152.3148720521767,1277
1154.470858984876,1323
1156.626270594044,1255
1158.7811071154629,1233
1160.9353687849912,1230
1163.089055838569,1219
1165.242168512213,1262
1167.3947070420209,1237
1169.5466716641677,1256
1171.6980626149075,1259
1173.8488801305748,1236
1175.9991244475814,1235
1178.1487958024186,1250
1180.2978944316555,1242
1182.4464205719428,1270
1184.5943744600072,1245
1186.7417563326567,1187
1188.8885664267755,1264
1191.0348049793297,1235
1193.1804722273619,1205
1195.325568407995,1251
1197.4700937584303,1241
1199.614048515948,1256
1201.7574329179074,1205
1203.900247201746,1247
1206.042491604982,1280
1208.1841663652099,1216
1210.3252717201053,1257
1212.465807907422,1213
1214.6057751649923,1300
1216.7451737307279,1256
1218.8840038426192,1228
1221.0222657387353,1268
1223.1599596572241,1270
1225.2970858363137,1300
1227.4336445143094,1272
1229.5696359295966,1210
1231.705060320639,1260
1233.8399179259786,1254
1235.9742089842384,1302
1238.107933734118,1274
1240.2410924143974,1258
1242.373685263935,1277
1244.5057125216676,1215
1246.6371744266116,1272
1248.7680712178621,1261
1250.898403134593,1262
1253.028170416058,1253
1255.1573733015875,1293
1257.2860120305932,1276
1259.4140868425648,1286
1261.54159797707,1288
1263.6685456737569,1276
1265.7949301723515,1239
1267.9207517126597,1272
1270.046010534565,1269
1272.1707068780306,1306
1274.2948409830983,1326
1276.4184130898889,1291
1278.541423438603,1303
1280.6638722695184,1293
1282.785759822993,1294
1284.9070863394636,1261
1287.0278520594447,1291
1289.1480572235314,1237
1291.2677020723963,1242
1293.3867868467923,1303
1295.5053117875495,1311
1297.623277135579,1320
1299.740683131868,1296
1301.8575300174857,1250
1303.973818033578,1314
1306.0895474213703,1347
1308.2047184221678,1363
1310.3193312773528,1397
1312.4333862283888,1312
1314.5468835168163,1293
1316.659823384255,1276
1318.7722060724045,1297
1320.8840318230418,1333
1322.9953008780249,1301
1325.1060134792888,1276
1327.2161698688478,1268
1329.3257702887959,1352
1331.4348149813054,1359
1333.5433041886276,1341
1335.6512381530933,1321
1337.7586171171101,1311
1339.8654413231675,1368
1341.9717110138317,1296
1344.0774264317488,1325
1346.1825878196432,1331
1348.2871954203192,1359
1350.3912494766587,1311
1352.4947502316231,1337
1354.5976979282532,1305
1356.7000928096686,1273
1358.8019351190665,1361
1360.9032250997243,1299
1363.0039629949988,1336
1365.1041490483235,1280
1367.2037835032133,1295
1369.3028666032606,1295
1371.401398592137,1335
1373.4993797135926,1299
1375.5968102114575,1301
1377.6936903296396,1339
1379.7900203121262,1370
1381.8858004029835,1297
1383.9810308463561,1318
1386.075711886469,1318
1388.1698437676241,1321
1390.2634267342032,1319
1392.356461030667,1398
1394.4489469015557,1407
1396.5408845914872,1347
1398.6322743451592,1321
1400.7231164073469,1348
1402.813411022907,1312
1404.903158436773,1330
1406.9923588939578,1356
1409.0810126395531,1357
1411.1691199187303,1357
1413.2566809767386,1339
1415.343696058907,1334
1417.4301654106425,1394
1419.5160892774315,1374
1421.6014679048399,1346
1423.6863015385125,1279
1425.7705904241707,1331
1427.8543348076178,1318
1429.9375349347342,1373
1432.0201910514802,1382
1434.102303403894,1416
1436.1838722380944,1418
1438.2648978002767,1372
1440.3453803367174,1415
1442.4253200937692,1373
1444.5047173178677,1380
1446.5835722555234,1373
1448.6618851533285,1448
1450.739656257952,1440
1452.8168858161434,1459
1454.8935740747306,1482
1456.96972128062,1461
1459.045327680797,1412
1461.120393522327,1415
1463.1949190523528,1416
1465.2689045180973,1447
1467.3423501668608,1505
1469.415256246024,1491
1471.4876230030463,1460
1473.559450685465,1474
1475.6307395408976,1468
1477.7014898170391,1468
1479.771701761665,1451
1481.8413756226287,1533
1483.9105116478618,1585
1485.9791100853772,1596
1488.0471711832643,1518
1490.1146951896926,1586
1492.1816823529098,1529
1494.2481329212433,1603
1496.3140471430984,1560
1498.3794252669609,1589
1500.4442675413939,1584
1502.5085742150404,1623
1504.572345536622,1644
1506.6355817549388,1586
1508.6982831188702,1593
1510.7604498773744,1652
1512.8220822794883,1679
1514.8831805743293,1642
1516.9437450110909,1624
1519.003775839048,1635
1521.0632733075522,1659
1523.1222376660367,1639
1525.1806691640113,1606
1527.2385680510652,1683
1529.2959345768668,1678
1531.3527689911643,1756
1533.4090715437833,1679
1535.4648424846291,1734
1537.5200820636855,1728
1539.5747905310159,1752
1541.6289681367616,1757
1543.6826151311434,1708
1545.7357317644614,1817
1547.7883182870937,1819
1549.8403749494987,1848
1551.8919020022113,1784
1553.9428996958477,1907
1555.9933682811015,1894
1558.0433080087469,1908
1560.0927191296346,1947
1562.1416018946961,1880
1564.1899565549415,1872
1566.2377833614592,1920
1568.2850825654164,1952
1570.3318544180606,1958
1572.3780991707158,1897
1574.423817074788,1878
1576.4690083817595,1873
1578.5136733431923,1851
1580.5578122107272,1784
1582.601425236085,1727
1584.6445126710646,1730
1586.6870747675434,1635
1588.7291117774776,1612
1590.7706239529034,1590
1592.8116115459347,1557
1594.8520748087658,1500
1596.8920139936686,1579
1598.9314293529933,1469
1600.9703211391711,1473
1603.008689604711,1485
1605.0465350022005,1527
1607.0838575843068,1391
1609.1206576037753,1419
1611.1569353134305,1384
1613.1926909661765,1390
1615.2279248149953,1444
1617.2626371129481,1492
1619.2968281131757,1395
1621.3304980688963,1383
1623.3636472334088,1404
1625.39627586009,1371
1627.428384202396,1345
1629.459972513861,1368
1631.4910410480993,1375
1633.5215900588028,1350
1635.551619799744,1316
1637.5811305247717,1297
1639.6101224878166,1340
1641.6385959428862,1359
1643.6665511440683,1261
1645.693988345528,1340
1647.7209078015112,1275
1649.7473097663405,1350
1651.7731944944203,1314
1653.7985622402307,1326
1655.823413258333,1314
1657.847747803366,1361
1659.8715661300494,1294
1661.8948684931793,1272
1663.9176551476316,1344
1665.9399263483624,1285
1667.9616823504057,1319
1669.982923408873,1343
1672.0036497789574,1341
1674.0238617159293,1345
1676.043559475138,1368
1678.0627433120121,1319
1680.081413482059,1284
1682.0995702408654,1267
1684.117213844096,1364
1686.134344547495,1350
1688.1509626068864,1289
1690.1670682781705,1280
1692.182661817329,1254
1694.1977434804217,1335
1696.2123135235875,1309
1698.226372203043,1350
1700.2399197750851,1334
1702.2529564960905,1266
1704.2654826225112,1335
1706.277498410882,1330
1708.2890041178139,1342
1710.2999999999988,1313
1712.3104863142066,1388
1714.3204633172854,1316
1716.329931266163,1331
1718.3388904178469,1355
1720.3473410294214,1330
1722.3552833580516,1329
1724.3627176609807,1330
1726.3696441955308,1280
1728.3760632191033,1348
1730.3819749891782,1332
1732.3873797633146,1284
1734.3922777991502,1322
1736.3966693544012,1280
1738.4005546868639,1327
1740.4039340544127,1303
1742.406807715001,1332
1744.4091759266616,1284
1746.4110389475054,1277
1748.4123970357223,1335
1750.413250449582,1306
1752.4135994474318,1351
1754.4134442876993,1365
1756.4127852288902,1325
1758.4116225295893,1335
1760.4099564484595,1288
1762.407787244244,1292
1764.405115175764,1288
1766.4019405019203,1289
1768.3982634816916,1290
1770.3940843741357,1343
1772.3894034383907,1364
1774.3842209336717,1307
1776.378537119274,1317
1778.372352254571,1293
1780.3656665990156,1336
1782.3584804121397,1230
1784.3507939535534,1265
1786.3426074829463,1265
1788.3339212600863,1252
1790.3247355448211,1242
1792.3150505970766,1281
1794.3048666768573,1257
1796.2941840442477,1245
1798.2830029594106,1280
1800.2713236825884,1327
1802.2591464741004,1303
1804.2464715943465,1311
1806.2332993038058,1319
1808.2196298630352,1309
1810.2054635326708,1327
1812.190800573428,1264
1814.175641246101,1310
1816.1599858115628,1308
1818.1438345307652,1296
1820.127187664738,1318
1822.1100454745924,1331
1824.092408221516,1286
1826.0742761667766,1337
1828.055649571721,1204
1830.0365286977735,1238
1832.0169138064398,1238
1833.9968051593014,1271
1835.9762030180214,1311
1837.9551076443408,1256
1839.9335193000788,1270
1841.9114382471344,1321
1843.888864747485,1303
1845.8657990631878,1280
1847.842241456378,1338
1849.8181921892697,1307
1851.7936515241558,1256
1853.7686197234098,1274
1855.7430970494815,1287
1857.7170837649014,1252
1859.6905801322787,1231
1861.6635864143004,1283
1863.6361028737338,1274
1865.608129773424,1303
1867.5796673762961,1293
1869.5507159453537,1292
1871.521275743678,1293
1873.4913470344313,1303
1875.4609300808534,1280
1877.4300251462632,1301
1879.3986324940588,1275
1881.366752387717,1299
1883.3343850907936,1299
1885.3015308669228,1299
1887.268189979819,1250
1889.2343626932739,1301
1891.2000492711595,1332
1893.1652499774254,1280
1895.1299650761011,1304
1897.0941948312952,1315
1899.0579395071945,1248
1901.0211993680641,1309
1902.98397467825,1254
1904.9462657021745,1301
1906.9080727043415,1314
1908.869395949332,1288
1910.8302357018065,1311
1912.790592226504,1273
1914.7504657882428,1312
1916.7098566519212,1317
1918.6687650825133,1245
1920.6271913450764,1276
1922.5851357047422,1281
1924.5425984267245,1265
1926.499579776314,1265
1928.4560800188833,1276
1930.4120994198802,1300
1932.367638244833,1299
1934.32269675935,1287
1936.2772752291175,1283
1938.231373919899,1285
1940.1849930975404,1334
1942.1381330279637,1272
1944.0907939771696,1290
1946.0429762112412,1243
1947.9946799963363,1279
1949.9459055986945,1262
1951.896653284633,1243
1953.8469233205478,1271
1955.7967159729142,1258
1957.7460315082863,1284
1959.6948701932974,1290
1961.6432322946594,1221
1963.5911180791632,1268
1965.5385278136787,1237
1967.4854617651545,1263
1969.4319202006182,1290
1971.377903387176,1278
1973.3234115920136,1242
1975.268445082395,1270
1977.2130041256642,1246
1979.1570889892423,1273
1981.1006999406304,1264
1983.04383724741,1223
1984.986501177238,1262
1986.928691997853,1279
1988.8704099770712,1268
1990.811655382789,1249
1992.7524284829801,1277
1994.692729545698,1287
1996.6325588390755,1292
1998.5719166313224,1237
2000.5108031907307,1280
2002.4492187856677,1227
2004.387163684583,1264
2006.3246381560011,1301
2008.2616424685298,1267
2010.1981768908527,1279
2012.1342416917332,1255
2014.069837140014,1305
2016.0049635046162,1272
2017.9396210545406,1247
2019.8738100588666,1313
2021.8075307867502,1286
2023.740783507431,1266
2025.6735684902228,1293
2027.6058860045214,1261
2029.5377363198004,1282
2031.4691197056118,1303
2033.4000364315875,1283
2035.3304867674374,1284
2037.260470982952,1273
2039.189989347998,1283
2041.1190421325232,1268
2043.047629606554,1238
2044.9757520401945,1219
2046.9034097036288,1231
2048.8306028671195,1288
2050.7573318010086,1255
2052.683596775716,1274
2054.609398061742,1276
2056.5347359296647,1286
2058.4596106501403,1266
2060.384022493906,1253
2062.3079717317764,1265
2064.231458634646,1286
2066.1544834734873,1250
2068.077046519352,1220
2069.99914804337,1232
2071.9207883167524,1257
2073.8419676107865,1278
2075.7626861968406,1210
2077.6829443463607,1250
2079.6027423308715,1255
2081.522080421977,1307
2083.440958891362,1304
2085.359378010786,1236
2087.2773380520907,1260
2089.194839287196,1186
2091.111881988101,1255
2093.0284664268825,1311
2094.9445928756973,1307
2096.86026160678,1295
2098.775472892446,1238
2100.690227005088,1281
2102.604524217178,1226
2104.5183648012676,1245
2106.431749029985,1277
2108.34467717604,1217
2110.2571495122206,1275
2112.169166311393,1247
2114.080727846503,1267
2115.9918343905747,1237
2117.902486216711,1219
2119.8126835980956,1224
2121.722426807987,1234
2123.6317161197285,1223
2125.5405518067364,1250
2127.448934142509,1335
2129.356863400624,1300
2131.264339854737,1298
2133.1713637785815,1302
2135.077935445972,1321
2136.9840551308002,1273
2138.889723107037,1263
2140.7949396487334,1290
2142.699705030018,1337
2144.6040195250994,1297
2146.507883408264,1253
2148.4112969538774,1253
2150.3142604363848,1289
2152.2167741303097,1308
2154.1188383102535,1265
2156.0204532508997,1288
2157.9216192270064,1304
2159.822336513414,1279
2161.7226053850413,1248
2163.622426116884,1288
2165.5217989840185,1351
2167.4207242616,1315
2169.319202224862,1343
2171.2172331491165,1309
2173.1148173097563,1320
2175.0119549822507,1256
2176.90864644215,1257
2178.8048919650823,1283
2180.7006918267534,1265
2182.596046302952,1333
2184.4909556695407,1233
2186.3854202024645,1294
2188.279440177746,1259
2190.173015871487,1264
2192.066147559868,1349
2193.958835519149,1285
2195.851080025667,1303
2197.7428813558417,1332
2199.6342397861667,1297
2201.5251555932186,1332
2203.415629053651,1346
2205.3056604441986,1282
2207.19525004167,1296
2209.084398122958,1296
2210.9731049650327,1312
2212.861370844941,1358
2214.749196039812,1322
2216.636580826851,1301
2218.523525483344,1314
2220.410030286655,1341
2222.296095514226,1334
2224.1817214435805,1371
2226.066908352319,1320
2227.951656518121,1336
2229.835966218746,1311
2231.71983773203,1272
2233.6032713358913,1331
2235.486267308324,1340
2237.3688259274036,1294
2239.2509474712824,1348
2241.132632218193,1374
2243.013880446447,1308
2244.8946924344323,1298
2246.7750684606203,1344
2248.6550088035574,1323
2250.534513741871,1394
2252.413583554265,1338
2254.292218519526,1378
2256.170418916517,1277
2258.0481850241786,1327
2259.925517121534,1329
2261.8024154876825,1294
2263.678880401803,1383
2265.5549121431536,1333
2267.430510991071,1354
2269.305677224971,1310
2271.180411124348,1267
2273.0547129687766,1331
2274.9285830379076,1287
2276.8020216114737,1295
2278.6750289692845,1288
2280.5476053912294,1270
2282.4197511572766,1327
2284.2914665474727,1339
2286.162751841943,1316
2288.0336073208937,1360
2289.904033264608,1341
2291.774029953448,1394
2293.6435976678554,1313
2295.5127366883517,1286
2297.381447295534,1303
2299.2497297700825,1283
2301.1175843927526,1274
2302.9850114443825,1256
2304.852011205885,1180
2306.7185839582553,1241
2308.5847299825664,1168
2310.4504495599676,1125
2312.3157429716925,1227
2314.1806104990483,1182
2316.0450524234247,1192
2317.9090690262888,1132
2319.772660589186,1170
2321.635827393742,1199
2323.498569721661,1195
2325.3608878547248,1160
2327.2227820747967,1167
2329.0842526638157,1170
2330.945299903803,1203
2332.805924076857,1152
2334.6661254651535,1156
2336.525904350951,1169
2338.3852610165827,1136
2340.244195744464,1157
2342.102708817088,1112
2343.9608005170253,1183
2345.8184711269287,1103
2347.675720929526,1200
2349.532550207628,1157
2351.38895924412,1179
2353.24494832197,1206
2355.100517724223,1190
2356.955667734004,1144
2358.810398634514,1205
2360.664710709037,1182
2362.5186042409337,1234
2364.3720795136437,1211
2366.225136810686,1155
2368.0777764156583,1081
2369.929998612237,1192
2371.7818036841777,1183
2373.633191915315,1177
2375.484163589562,1211
2377.3347189909114,1198
2379.184858403434,1146
2381.03458211128,1173
2382.8838903986775,1193
2384.732783549936,1190
2386.5812618494406,1163
2388.4293255816588,1179
2390.2769750311327,1199
2392.1242104824883,1207
2393.971032220427,1169
2395.8174405297295,1170
2397.6634356952563,1199
2399.509018001947,1161
2401.3541877348193,1166
2403.1989451789705,1189
2405.043290619576,1175
2406.8872243418905,1182
2408.730746631247,1168
2410.5738577730594,1175
2412.4165580528183,1170
2414.258847756095,1147
2416.100727168537,1187
2417.9421965758734,1174
2419.783256263912,1164
2421.623906518538,1182
2423.4641476257157,1222
2425.303979871491,1227
2427.143403541984,1257
2428.9824189233977,1199
2430.821026302012,1198
2432.6592259641866,1207
2434.497018196361,1204
2436.33440328505,1201
2438.171381516851,1211
2440.00795317844,1229
2441.844118556569,1227
2443.6798779380724,1214
2445.5152316098606,1200
2447.3501798589255,1227
2449.1847229723357,1211
2451.0188612372403,1196
2452.8525949408663,1182
2454.6859243705203,1136
2456.518849813587,1155
2458.3513715575314,1206
2460.183489889895,1173
2462.015205098301,1226
2463.8465174704493,1207
2465.67742729412,1169
2467.5079348571717,1217
2469.338040447542,1221
2471.1677443532476,1239
2472.9970468623833,1161
2474.825948263123,1119
2476.6544488437207,1134
2478.482548892508,1191
2480.310248697896,1214
2482.137548548374,1180
2483.9644487325118,1160
2485.790949538956,1174
2487.617051256433,1161
2489.44275417375,1193
2491.26805857979,1156
2493.0929647635157,1191
2494.917473013971,1199
2496.741583620276,1197
2498.5652968716304,1187
2500.3886130573137,1180
2502.2115324666834,1211
2504.0340553891765,1198
2505.856182114308,1215
2507.6779129316733,1228
2509.499248130945,1227
2511.3201880018764,1193
2513.140732834298,1185
2514.9608829181198,1225
2516.780638543331,1171
2518.6,1226
2520.418967578273,1241
2522.237541568376,1199
2524.0557222606144,1177
2525.8735099453706,1163
2527.6909049131086,1201
2529.507907454368,1189
2531.32451785977,1252
2533.140736420014,1216
2534.9565634258774,1245
2536.771999168218,1247
2538.5870439379714,1214
2540.4016980261526,1224
2542.2159617238544,1224
2544.02983532225,1242
2545.8433191125914,1204
2547.656413386209,1251
2549.4691184345115,1173
2551.2814345489874,1210
2553.093362021204,1248
2554.904901142808,1202
2556.716052205523,1203
2558.526815501153,1266
2560.3371913215824,1232
2562.147179958771,1251
2563.956781704761,1264
2565.7659968516705,1200
2567.5748256916986,1237
2569.3832685171224,1158
2571.1913256202984,1277
2572.9989972936614,1238
2574.806283829725,1247
2576.613185521084,1245
2578.4197026604074,1268
2580.2258355404483,1215
2582.031584454035,1281
2583.836949694077,1227
2585.6419315535613,1292
2587.4465303255533,1255
2589.2507463032002,1304
2591.0545797797245,1269
2592.8580310484303,1265
2594.6611004026995,1273
2596.463788135992,1271
2598.266094541849,1250
2600.0680199138874,1265
2601.869564545807,1296
2603.670728731383,1243
2605.4715127644704,1260
2607.2719169390048,1276
2609.071941548998,1302
2610.8715868885433,1255
2612.670853251811,1253
2614.469740933052,1250
2616.268250226594,1318
2618.0663814268455,1294
2619.864134828292,1314
2621.6615107255006,1251
2623.458509413115,1296
2625.2551311858597,1273
2627.0513763385347,1256
2628.8472451660223,1262
2630.6427379632833,1300
2632.4378550253564,1336
2634.232596647359,1274
2636.026963124488,1236
2637.8209547520187,1216
2639.6145718253065,1254
2641.407814639785,1200
2643.200683490966,1284
2644.9931786744414,1256
2646.7853004858807,1214
2648.577049221034,1243
2650.3684251757277,1267
2652.1594286458712,1200
2653.9500599274484,1242
2655.740319316525,1223
2657.5302071092437,1239
2659.3197236018286,1195
2661.10886909058,1236
2662.8976438718782,1221
2664.686048242183,1179
2666.4740824980327,1198
2668.2617469360443,1190
2670.0490418529134,1200
2671.8359675454153,1235
2673.622524310403,1204
2675.408712444811,1217
2677.1945322456495,1206
2678.979984010009,1186
2680.76506803506,1219
2682.5497846180497,1174
2684.334134056306,1219
2686.1181166472343,1175
2687.9017326883213,1155
2689.6849824771293,1174
2691.4678663113013,1194
2693.2503844885596,1204
2695.032537306705,1227
2696.8143250636167,1176
2698.5957480572542,1187
2700.3768065856534,1176
2702.1575009469316,1176
2703.937831439283,1199
2705.717798360982,1181
2707.4974020103837,1208
2709.276642685917,1208
2711.055520686095,1189
2712.834036309506,1251
2714.612189854819,1119
2716.389981620782,1149
2718.1674119062204,1162
2719.944481010041,1147
2721.721189231226,1119
2723.4975368688415,1140
2725.273524222027,1152
2727.0491515900053,1166
2728.824419272075,1219
2730.5993275676146,1151
2732.3738767760838,1144
2734.148067197016,1179
2735.921899130031,1100
2737.6953728748194,1156
2739.468488731156,1175
2741.2412469988926,1157
2743.0136479779617,1162
2744.785691968372,1151
2746.5573792702116,1121
2748.3287101836504,1150
2750.099685008934,1177
2751.870304046388,1097
2753.640567596418,1145
2755.4104759595057,1216
2757.1800294362156,1179
2758.949228327187,1156
2760.7180729331412,1113
2762.486563554877,1109
2764.254700493272,1168
2766.022484049284,1169
2767.789914523947,1164
2769.5569922183786,1121
2771.3237174337705,1152
2773.090090471394,1165
2774.8561116326036,1148
2776.6217812188274,1194
2778.3870995315756,1223
2780.1520668724356,1159
2781.9166835430747,1177
2783.6809498452394,1119
2785.444866080754,1160
2787.2084325515225,1196
2788.971649559527,1203
2790.73451740683,1177
2792.4970363955713,1138
2794.2592068279705,1116
2796.0210290063264,1183
2797.7825032330147,1192
2799.543629810493,1166
2801.304409041296,1191
2803.0648412280366,1150
2804.8249266734088,1105
2806.5846656801846,1175
2808.344058551212,1139
2810.1031055894246,1162
2811.8618070978273,1163
2813.6201633795085,1152
2815.378174737636,1183
2817.1358414754536,1178
2818.893163896285,1154
2820.6501423035334,1176
2822.4067770006814,1188
2824.1630682912883,1205
2825.9190164789957,1177
2827.6746218675207,1192
2829.429884760661,1178
2831.184805462294,1170
2832.9393842763743,1133
2834.693621506936,1180
2836.4475174580916,1145
2838.201072434034,1162
2839.954286739034,1204
2841.707160677441,1123
2843.459694553685,1175
2845.2118886722724,1163
2846.96374333779,1208
2848.7152588549034,1159
2850.4664355283567,1205
2852.217273662973,1212
2853.9677735636546,1205
2855.7179355353833,1165
2857.4677598832186,1215
2859.217246912299,1144
2860.9663969278427,1192
2862.715210235146,1187
2864.4636871395846,1167
2866.211827946614,1101
2867.9596329617652,1098
2869.7071024906536,1118
2871.4542368389684,1177
2873.20103631248,1216
2874.947501217038,1156
2876.6936318585695,1130
2878.4394285430812,1189
2880.1848915766604,1171
2881.9300212654707,1159
2883.6748179157553,1169
2885.4192818338374,1175
2887.1634133261173,1151
2888.907212699077,1131
2890.6506802592744,1171
2892.393816313348,1146
2894.1366211680142,1193
2895.8790951300693,1191
2897.621238506388,1201
2899.363051603925,1158
2901.1045347297118,1185
2902.8456881908596,1180
2904.58651229456,1164
2906.327007348081,1173
2908.067173658772,1197
2909.8070115340597,1153
2911.5465212814497,1177
2913.285703208527,1198
2915.0245576229563,1182
2916.7630848324807,1218
2918.5012851449196,1154
2920.2391588681758,1170
2921.976706310227,1186
2923.7139277791334,1164
2925.4508235830313,1188
2927.187394030137,1161
2928.923639428745,1184
2930.6595600872306,1187
2932.395156314046,1162
2934.1304284177218,1141
2935.8653767068713,1196
2937.6000014901815,1219
2939.3343030764227,1165
2941.068281774442,1170
2942.8019378931644,1213
2944.5352717415976,1213
2946.2682836288236,1140
2948.0009738640065,1142
2949.7333427563885,1179
2951.465390615289,1187
2953.1971177501086,1162
2954.9285244703265,1179
2956.6596110855,1195
2958.3903779052657,1181
2960.1208252393385,1221
2961.8509533975125,1145
2963.5807626896617,1166
2965.3102534257378,1185
2967.0394259157715,1175
2968.768280469873,1187
2970.496817398232,1176
2972.2250370111146,1160
2973.952939618869,1196
2975.6805255319196,1170
2977.4077950607707,1220
2979.134748516006,1210
2980.861386208289,1176
2982.587708448359,1222
2984.313715547037,1181
2986.039407815222,1150
2987.764785563891,1158
2989.489849104102,1180
2991.2145987469908,1167
2992.9390348037705,1144
2994.6631575857346,1130
2996.3869674042576,1149
2998.1104645707887,1207
2999.83364939686,1178
3001.5565221940783,1136
3003.2790832741334,1220
3005.0013329487924,1116
3006.7232715298996,1131
3008.4448993293804,1126
3010.166216659239,1148
3011.887223831558,1200
3013.607921158498,1140
3015.3283089522993,1147
3017.0483875252826,1151
3018.7681571898443,1185
3020.4876182584626,1165
3022.2067710436927,1179
3023.9256158581707,1162
3025.644153014609,1131
3027.362382825801,1158
3029.0803056046193,1141
3030.797921664012,1099
3032.5152313170106,1127
3034.2322348767225,1156
3035.9489326563353,1139
3037.665324969115,1168
3039.3814121284063,1201
3041.097194447633,1158
3042.812672240299,1126
3044.5278458199855,1176
3046.2427155003525,1069
3047.9572815951406,1187
3049.671544418167,1121
3051.38550428333,1126
3053.0991615046073,1097
3054.812516396051,1191
3056.5255692717974,1164
3058.2383204460575,1133
3059.9507702331257,1179
3061.662918947372,1134
3063.3747669032446,1159
3065.0863144152736,1124
3066.7975617980674,1137
3068.508509366309,1103
3070.219157434767,1166
3071.9295063182844,1109
3073.639556331785,1132
3075.3493077902704,1169
3077.058761008821,1122
3078.7679163025964,1156
3080.476773986837,1166
3082.1853343768594,1172
3083.89359778806,1146
3085.6015645359153,1141
3087.3092349359786,1104
3089.016609303884,1118
3090.7236879553434,1181
3092.4304712061476,1139
3094.136959372166,1167
3095.843152769349,1140
3097.5490517137237,1163
3099.2546565213966,1156
3100.959967508554,1153
3102.66498499146,1126
3104.3697092864577,1146
3106.0741407099695,1138
3107.778279578498,1151
3109.482126208622,1160
3111.1856809170004,1178
3112.8889440203716,1202
3114.5919158355528,1214
3116.294596679439,1117
3117.996986869006,1133
3119.6990867213062,1210
3121.4008965534726,1204
3123.102416682717,1174
3124.803647426329,1176
3126.5045891016784,1214
3128.205242026213,1137
3129.90560651746,1110
3131.605682893025,1192
3133.3054714705922,1170
3135.0049725679282,1168
3136.7041865028714,1138
3138.4031135933465,1149
3140.101754157353,1176
3141.800108512971,1186
3143.498176978357,1182
3145.1959598717494,1114
3146.8934575114636,1107
3148.5906702158954,1157
3150.2875983035183,1119
3151.9842420928853,1123
3153.680601902627,1136
3155.376678051456,1112
3157.07247085816,1151
3158.767980641609,1107
3160.463207720748,1091
3162.158152414606,1108
3163.8528150422862,1185
3165.5471959229726,1188
3167.2412953759303,1126
3168.9351137204976,1140
3170.628651276098,1153
3172.3219083622307,1182
3174.014885298474,1165
3175.707582404485,1183
3177.4000000000005,1151
3179.092138404835,1139
3180.7839979388846,1152
3182.47557892212,1172
3184.166881674594,1179
3185.8579065164386,1142
3187.5486537678626,1146
3189.2391237491547,1114
3190.9293167806827,1187
3192.6192331828934,1132
3194.3088732763117,1120
3195.998237381542,1121
3197.687325819268,1124
3199.376138910251,1139
3201.064676975334,1158
3202.7529403354347,1151
3204.4409293115523,1106
3206.1286442247647,1125
3207.816085396229,1131
3209.5032531471825,1126
3211.190147798936,1104
3212.8767696728846,1124
3214.5631190905015,1156
3216.2491963733373,1104
3217.9350018430214,1090
3219.6205358212637,1143
3221.305798629851,1114
3222.990790590651,1130
3224.6755120256103,1094
3226.359963256751,1096
3228.0441446061795,1085
3229.7280563960758,1099
3231.411698948703,1114
3233.0950725863995,1131
3234.778177631587,1154
3236.461014406761,1139
3238.1435832345005,1204
3239.8258844374595,1138
3241.507918338374,1158
3243.1896852600576,1136
3244.8711855254023,1118
3246.552419457381,1143
3248.233387379042,1165
3249.914089613516,1113
3251.59452648401,1191
3253.274698313813,1179
3254.95460542629,1203
3256.6342481448855,1174
3258.313626793125,1121
3259.9927416946084,1163
3261.6715931730196,1154
3263.3501815521176,1091
3265.0285071557437,1102
3266.706570307815,1117
3268.3843713323286,1095
3270.0619105533615,1156
3271.739188295068,1176
3273.4162048816834,1102
3275.0929606375184,1160
3276.769455886966,1133
3278.445690954498,1184
3280.1216661646613,1136
3281.797381842087,1188
3283.4728383114807,1169
3285.1480358976296,1121
3286.8229749253996,1134
3288.4976557197333,1145
3290.172078605655,1137
3291.846243908266,1110
3293.5201519527463,1148
3295.193803064357,1111
3296.8671975684374,1107
3298.5403357904024,1138
3300.21321805575,1153
3301.8858446900567,1151
3303.558216018975,1114
3305.23033236824,1128
3306.9021940636603,1099
3308.57380143113,1175
3310.2451547966184,1136
3311.916254486174,1139
3313.5871008259246,1207
3315.2576941420766,1143
3316.9280347609147,1142
3318.5981230088046,1073
3320.2679592121895,1168
3321.9375436975924,1117
3323.606876791612,1165
3325.27595882093,1159
3326.944790112305,1102
3328.6133709925753,1095
3330.2817017886573,1194
3331.949782827547,1169
3333.617614436319,1116
3335.2851969421245,1154
3336.952530672199,1216
3338.619615953853,1115
3340.286453114475,1125
3341.9530424815357,1110
3343.619384382583,1159
3345.2854791452437,1134
3346.951327097224,1148
3348.6169285663073,1132
3350.2822838803577,1123
3351.947393367319,1163
3353.61225735521,1156
3355.2768761721345,1132
3356.9412501462693,1172
3358.605379605873,1079
3360.2692648792827,1110
3361.9329062949146,1158
3363.596304181263,1169
