CollectionTime,7/9/2024 1:06:16 PM
ExposureUsed,3
CalibratedSpectrum
-962.7078968117929,471
-959.9714848408522,508
-957.2358232597828,587
-954.5009119013725,539
-951.7667505983302,517
-949.0333391832855,512
-946.3006774887896,543
-943.5687653473143,547
-940.837602591253,527
-938.1071890529199,526
-935.3775245645503,531
-932.6486089583007,551
-929.9204420662485,537
-927.1930237203925,543
-924.4663537526524,518
-921.7404319948689,534
-919.0152582788041,567
-916.2908324361409,606
-913.5671542984834,560
-910.8442236973568,539
-908.1220404642074,516
-905.4006044304027,553
-902.679915427231,542
-899.959973285902,515
-897.2407778375464,519
-894.5223289132158,528
-891.8046263438832,527
-889.0876699604426,531
-886.3714595937089,557
-883.6559950744183,539
-880.9412762332282,508
-878.2273029007168,530
-875.5140749073835,493
-872.8015920836489,537
-870.0898542598545,551
-867.3788612662631,502
-864.6686129330585,521
-861.9591090903457,523
-859.2503495681506,515
-856.5423341964203,514
-853.8350628050229,519
-851.1285352237478,492
-848.4227512823054,488
-845.7177108103272,543
-843.0134136373656,538
-840.3098595928943,566
-837.6070485063082,553
-834.9049802069229,540
-832.2036545239757,493
-829.5030712866244,517
-826.8032303239481,518
-824.1041314649472,528
-821.4057745385428,540
-818.7081593735775,534
-816.0112857988148,510
-813.3151536429393,522
-810.6197627345566,502
-807.9251129021936,511
-805.2312039742981,498
-802.5380357792392,518
-799.8456081453069,522
-797.1539209007124,528
-794.462973873588,524
-791.772766891987,539
-789.083299783884,533
-786.3945723771743,532
-783.7065844996748,509
-781.0193359791231,500
-778.3328266431781,523
-775.6470563194197,519
-772.9620248353489,508
-770.2777320183878,541
-767.5941776958798,548
-764.9113616950891,583
-762.2292838432011,569
-759.5479439673222,554
-756.8673418944801,547
-754.1874774516235,528
-751.5083504656222,539
-748.8299607632671,532
-746.15230817127,536
-743.475392516264,578
-740.7992136248035,565
-738.1237713233636,574
-735.4490654383407,571
-732.7750957960521,550
-730.1018622227365,541
-727.4293645445534,567
-724.7576025875837,530
-722.0865761778291,563
-719.4162851412126,586
-716.7467293035781,582
-714.0779084906909,570
-711.409822528237,540
-708.7424712418238,557
-706.0758544569796,558
-703.4099719991541,594
-700.7448236937178,612
-698.0804093659622,629
-695.4167288411002,594
-692.7537819442656,560
-690.0915685005134,571
-687.4300883348199,548
-684.7693412720819,571
-682.1093271371178,580
-679.4500457546669,579
-676.7914969493897,579
-674.1336805458676,569
-671.4765963686034,590
-668.8202442420206,623
-666.1646239904642,572
-663.5097354382001,570
-660.8555784094151,587
-658.2021527282176,598
-655.5494582186366,572
-652.8974947046223,591
-650.2462620100463,583
-647.5957599587009,598
-644.9459883742998,594
-642.2969470804776,594
-639.6486359007902,606
-637.0010546587141,625
-634.3542031776476,632
-631.7080812809096,584
-629.0626887917401,605
-626.4180255333008,627
-623.7740913286734,654
-621.1308860008619,666
-618.4884093727904,622
-615.8466612673046,606
-613.2056415071715,620
-610.5653499150785,622
-607.9257863136347,623
-605.28695052537,621
-602.6488423727357,624
-600.0114616781036,581
-597.3748082637674,620
-594.7388819519412,646
-592.1036825647604,736
-589.4692099242818,715
-586.8354638524829,653
-584.2024441712624,640
-581.5701507024403,661
-578.9385832677575,661
-576.3077416888759,623
-573.6776257873787,627
-571.0482353847704,663
-568.4195703024757,621
-565.7916303618415,615
-563.164415384135,625
-560.5379251905453,669
-557.9121596021815,668
-555.2871184400748,667
-552.6628015251767,664
-550.0392086783606,693
-547.4163397204204,680
-544.794194472071,701
-542.1727727539491,705
-539.5520743866118,752
-536.9320991905377,793
-534.3128469861261,752
-531.6943175936979,706
-529.0765108334947,751
-526.4594265256793,774
-523.8430644903358,835
-521.2274245474689,975
-518.612506517005,1070
-515.9983102187913,1072
-513.3848354725959,1076
-510.77208209810846,1156
-508.16004991493924,1124
-505.5487387426199,1153
-502.9381484006032,1150
-500.3282787082628,1148
-497.71912948489364,1150
-495.1107005497117,1083
-492.5029917218539,1030
-489.8960028203786,942
-487.28973366426493,832
-484.68418407241325,819
-482.07935386364494,774
-479.47524285670266,756
-476.87185087025,766
-474.2691777228715,756
-471.66722323307334,768
-469.0659872192821,765
-466.4654694998459,760
-463.86566989303384,776
-461.26658821703614,758
-458.66822428996414,805
-456.07057792985,764
-453.4736489546475,829
-450.877437182231,777
-448.28194243039627,743
-445.68716451686,770
-443.09310325926003,759
-440.49975847515555,760
-437.9071299820263,730
-435.31521759727354,811
-432.72402113821954,759
-430.13354042210767,750
-427.5437752661022,796
-424.95472548728867,815
-422.36639090267386,795
-419.7787713291855,810
-417.1918665836721,859
-414.60567648290385,868
-412.0202008435715,856
-409.4354394822874,866
-406.8513922155845,811
-404.26805885991723,820
-401.685439231661,837
-399.103533147112,854
-396.522340422488,836
-393.9418608739278,828
-391.3620943174908,872
-388.7830405691583,888
-386.2046994448317,804
-383.6270707603344,769
-381.05015433141045,703
-378.473949973725,667
-375.8984575028645,656
-373.32367673433623,691
-370.74960748356875,659
-368.1762495659117,605
-365.60360279663576,601
-363.03166699093265,571
-360.4604419639154,562
-357.8899275306178,544
-355.32012350599507,519
-352.7510297049233,519
-350.1826459421999,477
-347.61497203254316,490
-345.04800779059235,496
-342.4817530309082,558
-339.91620756797226,579
-337.35137121618743,567
-334.7872437898774,574
-332.22382510328725,586
-329.66111497058273,537
-327.09911320585127,553
-324.53781962310075,570
-321.9772340362607,495
-319.4173562591816,495
-316.8581861056348,519
-314.2997233893127,485
-311.7419679238294,473
-309.1849195227194,462
-306.62857799943856,464
-304.0729431673641,522
-301.51801483979375,531
-298.963792829947,553
-296.41027695096386,584
-293.85746701590574,531
-291.3053628377552,557
-288.7539642294155,631
-286.2032710037115,571
-283.65328297338897,519
-281.1039999511146,599
-278.5554217494762,621
-276.007548180983,616
-273.4603790580651,594
-270.9139141930734,564
-268.3681533982807,681
-265.8230964858798,710
-263.27874326798565,590
-260.7350935566336,628
-258.1921471637804,640
-255.6499039013039,628
-253.10836358100266,645
-250.56752601459698,642
-248.02739101372765,645
-245.48795838995704,720
-242.94922795476816,736
-240.41119951956557,675
-237.8738728956746,706
-235.33724789434166,771
-232.80132432673452,727
-230.2661020039418,663
-227.73158073697357,648
-225.19776033676033,668
-222.66464061415422,664
-220.1322213799284,696
-217.60050244477725,636
-215.06948361931552,701
-212.53916471408013,771
-210.00954553952818,880
-207.48062590603843,776
-204.9524056239104,701
-202.4248845033651,793
-199.8980623545441,949
-197.37193898751036,851
-194.84651421224817,823
-192.32178783866232,932
-189.79775967657952,1039
-187.27442953574644,1013
-184.7517972258321,1145
-182.2298625564256,1002
-179.7086253370378,894
-177.18808537710026,860
-174.66824248596583,968
-172.14909647290835,1031
-169.6306471471229,993
-167.11289431772548,1009
-164.59583779375328,974
-162.07947738416453,973
-159.5638128978386,952
-157.04884414357605,1177
-154.53457093009854,1299
-152.02099306604828,1198
-149.50811035998936,938
-146.99592262040665,865
-144.48442965570587,989
-141.97363127421409,1112
-139.46352728417958,1041
-136.95411749377126,1101
-134.44540171107985,1218
-131.93737974411636,1126
-129.43005140081357,1078
-126.92341648902493,1092
-124.41747481652521,1232
-121.91222619101006,1116
-119.40767042009657,1148
-116.90380731132257,1375
-114.40063667214702,1500
-111.8981583099503,1442
-109.3963720320337,1632
-106.89527764561933,1903
-104.39487495785067,2195
-101.89516377579241,2304
-99.39614390642998,2925
-96.89781515667039,3202
-94.40017733334128,3800
-91.90323024319173,6558
-89.40697369289148,16251
-86.91140748903172,27987
-84.41653143812482,26018
-81.92234534660395,16669
-79.42884902082358,8591
-76.93604226705907,10738
-74.4439248915071,29178
-71.95249670028534,48254
-69.46175749943245,50048
-66.97170709490854,36309
-64.48234529259423,20875
-61.99367189829195,12135
-59.50568671772464,10258
-57.01838955653636,11018
-54.53178022029283,10486
-52.045858514480074,10960
-49.560624244506016,11898
-47.07607721569923,13409
-44.59221723330904,14069
-42.10904410250669,13949
-39.62655762838392,13867
-37.14475761595372,13446
-34.66364387015028,12888
-32.18321619582866,10418
-29.70347439776515,9153
-27.224418280657005,9594
-24.74604764912317,11997
-22.26836230770266,17060
-19.7913620608565,32169
-17.315046712966478,62634
-14.83941606833514,65039
-12.36446993118659,65039
-9.89020810566592,65039
-7.416630395839093,65039
-4.94373660569363,65039
-2.471526539137585,65039
-6.821210263296962E-13,65039
2.47084320796705,65039
4.941003281093458,65039
7.410480415786196,65039
9.879274808531363,65039
12.347386655893956,65039
14.814816154518212,65039
17.28156350112681,65039
19.74762889252179,65039
22.21301252558385,65039
24.67771459727237,20785
27.141735304626195,4491
29.605074844762612,3576
32.06773341487792,2660
34.52971121224755,2331
36.99100843422559,3040
39.45162527824516,2678
41.91156194181792,2200
44.370818622535126,2268
46.82939551806646,2295
49.287292826160524,2357
51.74451074464503,2036
54.201049471426245,2327
56.65690920448981,2352
59.112090141899785,1709
61.56659248179983,1405
64.02041642241159,1195
66.4735621620365,1075
68.92602989905402,1170
71.37781983192338,1536
73.82893215918205,1854
76.27936707944684,2098
78.72912479141326,1951
81.17820549385567,1717
83.62660938562783,1901
86.07433666566146,1638
88.5213875329681,1237
90.96776218663751,1206
93.41346082583925,1070
95.85848364982041,1127
98.30283085790859,1427
100.7465026495089,1809
103.18949922410604,1376
105.63182078126385,1320
108.07346752062438,1374
110.51443964190923,1021
112.95473734491827,1089
115.39436082953114,1065
117.83331029570547,1017
120.27158594347827,1171
122.7091879729652,1330
125.1461165843615,1206
127.58237197794062,989
130.01795435405518,978
132.4528639131364,917
134.88710085569494,1009
137.32066538231982,1016
139.75355769367923,972
142.1857779905207,943
144.61732647366978,1064
147.04820334403132,1105
149.47840880258934,1045
151.90794305040674,1051
154.33680628862487,979
156.76499871846443,1147
159.19252054122433,1191
161.61937195828352,1179
164.04555317109896,1336
166.47106438120693,1540
168.89590579022217,1673
171.320077599839,1740
173.7435800118302,1792
176.16641322804742,1903
178.58857745042144,1885
181.01007288096173,1914
183.43089972175687,2102
185.85105817497413,2019
188.27054844285988,1972
190.6893707277394,1934
193.10752523201643,2089
195.5250121581745,2105
197.9418317087751,2162
200.3579840864594,2128
202.7734694939469,2029
205.18828813403627,2057
207.6024402096051,2249
210.01592592360964,2171
212.42874547908548,2317
214.84089907914665,2405
217.2523869269868,2157
219.66320922587727,2111
222.0733661791695,2105
224.48285799029293,2088
226.8916848627572,2119
229.29984700014882,2201
231.7073446061355,2175
234.11417788446204,2147
236.520347038953,2192
238.92585227351185,2248
241.33069379212054,2153
243.73487179884035,2233
246.1383864978112,2261
248.541238093252,2187
250.9434267894609,2193
253.34495279081432,2275
255.74581630176783,2346
258.1460175268563,2177
260.54555667069314,2219
262.9444339379703,2154
265.3426495334594,2269
267.7402036620107,2279
270.1370965285529,2389
272.53332833809407,2303
274.9288992957214,2193
277.32380960660055,2055
279.718059475976,2053
282.1116491091717,2095
284.5045787115897,2045
286.89684848871195,2029
289.2884586460981,1972
291.67940938938807,1943
294.0697009242996,2075
296.4593334566299,2099
298.84830719225477,2107
301.23662233712923,2093
303.6242790972866,2041
306.01127767884,2032
308.39761828798066,2073
310.78330113097934,1969
313.16832641418534,2002
315.5526943440269,1982
317.9364051270112,1927
320.3194589697242,1920
322.70185607883093,1999
325.0835966610754,2004
327.4646809232805,1928
329.8451090723478,1898
332.2248813152577,1845
334.6039978590701,1914
336.9824589109231,1771
339.36026467803447,1845
341.7374153677,1903
344.113911187295,1807
346.48975234427337,1813
348.8649390461686,1829
351.2394715005918,1815
353.61334991523415,1893
355.9865744978655,1778
358.35914545633375,1803
360.73106299856715,1817
363.10232733257146,1845
365.47293866643247,1728
367.84289720831396,1739
370.2122031664593,1779
372.5808567491905,1756
374.9488581649083,1703
377.31620762209275,1772
379.6829053293021,1670
382.0489514951745,1707
384.4143463284262,1710
386.7790900378528,1655
389.14318283232853,1672
391.50662492080653,1664
393.86941651231916,1713
396.23155781597745,1619
398.5930490409713,1728
400.9538903965696,1719
403.3140820921202,1783
405.6736243370498,1720
408.03251734086336,1709
410.3907613131465,1708
412.74835646356166,1650
415.10530300185144,1666
417.4616011378372,1664
419.81725108141893,1735
422.1722530425758,1635
424.5266072313656,1683
426.880313857925,1598
429.2333731324701,1675
431.58578526529516,1676
433.9375504667738,1606
436.2886689473588,1586
438.63914091758113,1654
440.9889665880513,1644
443.33814616945835,1575
445.68667987257015,1654
448.03456790823395,1584
450.3818104873759,1619
452.72840782100013,1598
455.07436012019105,1618
457.41966759611057,1564
459.7643304600007,1569
462.10834892318155,1567
464.4517231970525,1589
466.79445349309174,1627
469.1365400228566,1611
471.4779829979826,1541
473.81878263018564,1512
476.15893913125876,1557
478.4984527130747,1576
480.8373235875855,1621
483.17555196682144,1618
485.5131380628919,1646
487.8500820879857,1619
490.1863842543697,1672
492.52204477439034,1767
494.8570638604725,1772
497.1914417251204,1844
499.52517858091653,2030
501.85827464052306,2133
504.19073011668036,2272
506.5225452222086,2282
508.85372017000566,2424
511.18425517304956,2483
513.514150444396,2684
515.8434061971808,3134
518.1720226446176,3799
520.4999999999999,4082
522.8273384766991,4001
525.1540382881666,3800
527.480099647932,3724
529.8055227696037,3313
532.1303078668694,2742
534.454455153496,2202
536.777964843328,1968
539.1008371502907,1822
541.4230722883866,1746
543.744670471698,1710
546.0656319143858,1788
548.3859568306899,1786
550.7056454349294,1756
553.0246979415016,1666
555.3431145648834,1613
557.6608955196306,1652
559.978041020377,1618
562.2945512818363,1630
564.6104265188006,1579
566.9256669461412,1538
569.2402727788082,1648
571.5542442318302,1664
573.8675815203156,1731
576.1802848594508,1636
578.4923544645015,1701
580.8037905508126,1657
583.114593333807,1672
585.4247630289875,1659
587.7342998519354,1637
590.0432040183106,1562
592.3514757438526,1598
594.6591152443794,1643
596.9661227357875,1647
599.2724984340531,1606
601.578242555231,1592
603.8833553154542,1642
606.1878369309362,1634
608.4916876179676,1612
610.7949075929192,1581
613.0974970722403,1603
615.3994562724587,1595
617.7007854101818,1664
620.0014847020951,1560
622.3015543649641,1657
624.6009946156324,1603
626.8998056710224,1660
629.1979877481361,1618
631.4955410640538,1596
633.7924658359349,1525
636.0887622810175,1584
638.3844306166192,1577
640.6794710601358,1648
642.9738838290426,1612
645.2676691408932,1625
647.5608272133207,1677
649.853358264037,1618
652.1452625108324,1615
654.4365401715764,1556
656.7271914642178,1574
659.0172166067838,1668
661.3066158173809,1622
663.5953893141935,1640
665.8835373154867,1697
668.1710600396028,1729
670.4579577049639,1646
672.7442305300709,1667
675.0298787335033,1700
677.3149025339197,1686
679.599302150058,1636
681.8830778007342,1663
684.1662297048437,1638
686.4487580813608,1718
688.7306631493387,1694
691.0119451279091,1627
693.2926042362834,1614
695.5726406937516,1675
697.8520547196814,1615
700.1308465335215,1625
702.4090163547982,1636
704.6865644031171,1606
706.9634908981619,1623
709.2397960596965,1604
711.5154801075631,1571
713.7905432616823,1607
716.0649857420548,1627
718.3388077687592,1636
720.612009561953,1623
722.8845913418733,1622
725.1565533288352,1646
727.427895743234,1647
729.6986188055427,1667
731.9687227363137,1637
734.238207756178,1561
736.5070740858458,1597
738.7753219461066,1632
741.0429515578281,1602
743.3099631419569,1651
745.5763569195191,1592
747.8421331116193,1641
750.1072919394409,1657
752.3718336242467,1587
754.6357583873777,1613
756.8990664502545,1645
759.1617580343765,1629
761.423833361321,1556
763.6852926527457,1649
765.9461361303862,1662
768.206364016058,1656
770.4659765316536,1612
772.7249738991469,1581
774.9833563405886,1629
777.2411240781092,1640
779.4982773339183,1661
781.7548163303044,1634
784.010741289634,1641
786.2660524343538,1798
788.5207499869881,1699
790.7748341701416,1667
793.0283052064964,1627
795.2811633188143,1683
797.5334087299362,1614
799.7850416627813,1724
802.0360623403484,1700
804.2864709857143,1694
806.5362678220353,1702
808.7854530725468,1629
811.0340269605625,1706
813.2819897094754,1657
815.5293415427581,1670
817.77608268396,1693
820.0222133567116,1775
822.2677337847211,1665
824.5126441917765,1673
826.7569448017433,1672
829.0006358385675,1660
831.2437175262731,1719
833.4861900889629,1668
835.7280537508192,1628
837.9693087361026,1702
840.2099552691533,1669
842.4499935743896,1644
844.689423876309,1734
846.9282463994886,1684
849.1664613685833,1666
851.4040690083276,1731
853.6410695435349,1681
855.877463199097,1689
858.1132501999847,1708
860.3484307712487,1643
862.5830051380175,1717
864.8169735254988,1689
867.0503361589791,1686
869.2830932638243,1683
871.5152450654786,1691
873.7467917894654,1688
875.9777336613873,1706
878.2080709069252,1727
880.4378037518389,1772
882.666932421968,1724
884.8954571432301,1658
887.1233781416219,1723
889.3506956432192,1701
891.5774098741766,1741
893.803521060728,1773
896.0290294291852,1642
898.2539352059397,1695
900.4782386174619,1627
902.7019398903011,1634
904.925039251085,1604
907.147536926521,1663
909.3694331433943,1629
911.59072812857,1626
913.8114221089921,1684
916.0315153116827,1661
918.2510079637437,1689
920.4699002923547,1685
922.6881925247761,1639
924.905884888345,1588
927.1229776104793,1630
929.3394709186747,1575
931.555365040506,1570
933.7706602036275,1642
935.9853566357709,1547
938.1994545647489,1637
940.4129542184515,1640
942.6258558248488,1611
944.8381596119883,1609
947.0498658079974,1598
949.2609746410825,1604
951.4714863395287,1646
953.6814011316998,1486
955.8907192460387,1604
958.0994409110671,1601
960.3075663553858,1602
962.5150958076741,1592
964.7220294966913,1647
966.928367651274,1651
969.1341105003388,1643
971.3392582728806,1545
973.5438111979742,1586
975.747769504772,1521
977.9511334225061,1600
980.153903180487,1587
982.3560790081052,1542
984.5576611348289,1500
986.7586497902058,1585
988.9590452038618,1593
991.158847605503,1639
993.3580572249133,1591
995.5566742919558,1529
997.7546990365728,1508
999.952131688785,1482
1002.1489724786926,1429
1004.3452216364743,1404
1006.5408793923874,1463
1008.7359459767691,1419
1010.9304216200343,1493
1013.1243065526781,1472
1015.3176010052733,1453
1017.510305208472,1361
1019.7024193930064,1368
1021.8939437896848,1391
1024.0848786293977,1316
1026.2752241431122,1352
1028.4649805618747,1359
1030.6541481168115,1424
1032.842727039127,1410
1035.0307175601051,1388
1037.2181199111074,1415
1039.4049343235752,1323
1041.591161029029,1327
1043.7768002590683,1345
1045.9618522453698,1324
1048.1463172196918,1324
1050.3301954138697,1350
1052.513487059818,1364
1054.69619238953,1318
1056.8783116350783,1345
1059.0598450286152,1327
1061.2407928023704,1311
1063.4211551886528,1327
1065.6009324198508,1354
1067.780124728432,1308
1069.9587323469414,1271
1072.1367555080046,1308
1074.314194444325,1350
1076.4910493886855,1232
1078.667320573947,1292
1080.843008233051,1267
1083.0181125990161,1326
1085.1926339049414,1257
1087.3665723840027,1282
1089.5399282694575,1267
1091.7127017946405,1233
1093.8848931929647,1342
1096.0565026979243,1281
1098.2275305430899,1269
1100.3979769621128,1252
1102.567842188722,1294
1104.737126456726,1324
1106.9058300000124,1284
1109.0739530525475,1278
1111.2414958483764,1287
1113.4084586216231,1206
1115.5748416064907,1267
1117.7406450372605,1190
1119.9058691482942,1277
1122.0705141740304,1288
1124.2345803489884,1234
1126.3980679077658,1275
1128.5609770850388,1199
1130.7233081155623,1261
1132.8850612341707,1262
1135.0462366757774,1278
1137.2068346753745,1262
1139.3668554680326,1236
1141.526299288901,1250
1143.68516637321,1227
1145.8434569562655,1189
1148.001171273455,1202
1150.158309560244,1202
1152.3148720521767,1247
1154.470858984876,1177
1156.626270594044,1205
1158.7811071154629,1226
1160.9353687849912,1203
1163.089055838569,1204
1165.242168512213,1194
1167.3947070420209,1201
1169.5466716641677,1191
1171.6980626149075,1254
1173.8488801305748,1228
1175.9991244475814,1161
1178.1487958024186,1224
1180.2978944316555,1228
1182.4464205719428,1248
1184.5943744600072,1213
1186.7417563326567,1160
1188.8885664267755,1202
1191.0348049793297,1222
1193.1804722273619,1166
1195.325568407995,1171
1197.4700937584303,1247
1199.614048515948,1198
1201.7574329179074,1182
1203.900247201746,1210
1206.042491604982,1159
1208.1841663652099,1186
1210.3252717201053,1204
1212.465807907422,1151
1214.6057751649923,1195
1216.7451737307279,1238
1218.8840038426192,1175
1221.0222657387353,1200
1223.1599596572241,1231
1225.2970858363137,1251
1227.4336445143094,1280
1229.5696359295966,1190
1231.705060320639,1222
1233.8399179259786,1268
1235.9742089842384,1215
1238.107933734118,1163
1240.2410924143974,1252
1242.373685263935,1259
1244.5057125216676,1211
1246.6371744266116,1207
1248.7680712178621,1238
1250.898403134593,1245
1253.028170416058,1200
1255.1573733015875,1256
1257.2860120305932,1205
1259.4140868425648,1204
1261.54159797707,1233
1263.6685456737569,1232
1265.7949301723515,1178
1267.9207517126597,1217
1270.046010534565,1210
1272.1707068780306,1254
1274.2948409830983,1336
1276.4184130898889,1249
1278.541423438603,1254
1280.6638722695184,1289
1282.785759822993,1230
1284.9070863394636,1242
1287.0278520594447,1227
1289.1480572235314,1208
1291.2677020723963,1271
1293.3867868467923,1259
1295.5053117875495,1242
1297.623277135579,1276
1299.740683131868,1254
1301.8575300174857,1237
1303.973818033578,1290
1306.0895474213703,1333
1308.2047184221678,1232
1310.3193312773528,1299
1312.4333862283888,1306
1314.5468835168163,1318
1316.659823384255,1285
1318.7722060724045,1235
1320.8840318230418,1299
1322.9953008780249,1302
1325.1060134792888,1319
1327.2161698688478,1302
1329.3257702887959,1299
1331.4348149813054,1350
1333.5433041886276,1251
1335.6512381530933,1242
1337.7586171171101,1303
1339.8654413231675,1299
1341.9717110138317,1286
1344.0774264317488,1299
1346.1825878196432,1344
1348.2871954203192,1270
1350.3912494766587,1275
1352.4947502316231,1280
1354.5976979282532,1263
1356.7000928096686,1340
1358.8019351190665,1281
1360.9032250997243,1293
1363.0039629949988,1239
1365.1041490483235,1260
1367.2037835032133,1219
1369.3028666032606,1256
1371.401398592137,1267
1373.4993797135926,1276
1375.5968102114575,1246
1377.6936903296396,1264
1379.7900203121262,1292
1381.8858004029835,1325
1383.9810308463561,1261
1386.075711886469,1250
1388.1698437676241,1250
1390.2634267342032,1315
1392.356461030667,1320
1394.4489469015557,1238
1396.5408845914872,1307
1398.6322743451592,1269
1400.7231164073469,1272
1402.813411022907,1306
1404.903158436773,1299
1406.9923588939578,1320
1409.0810126395531,1292
1411.1691199187303,1283
1413.2566809767386,1301
1415.343696058907,1328
1417.4301654106425,1268
1419.5160892774315,1316
1421.6014679048399,1341
1423.6863015385125,1289
1425.7705904241707,1302
1427.8543348076178,1266
1429.9375349347342,1294
1432.0201910514802,1332
1434.102303403894,1280
1436.1838722380944,1344
1438.2648978002767,1377
1440.3453803367174,1387
1442.4253200937692,1337
1444.5047173178677,1358
1446.5835722555234,1406
1448.6618851533285,1383
1450.739656257952,1370
1452.8168858161434,1326
1454.8935740747306,1380
1456.96972128062,1358
1459.045327680797,1364
1461.120393522327,1423
1463.1949190523528,1442
1465.2689045180973,1383
1467.3423501668608,1460
1469.415256246024,1431
1471.4876230030463,1459
1473.559450685465,1464
1475.6307395408976,1463
1477.7014898170391,1504
1479.771701761665,1506
1481.8413756226287,1505
1483.9105116478618,1499
1485.9791100853772,1501
1488.0471711832643,1456
1490.1146951896926,1489
1492.1816823529098,1528
1494.2481329212433,1584
1496.3140471430984,1573
1498.3794252669609,1539
1500.4442675413939,1581
1502.5085742150404,1623
1504.572345536622,1593
1506.6355817549388,1592
1508.6982831188702,1611
1510.7604498773744,1577
1512.8220822794883,1608
1514.8831805743293,1658
1516.9437450110909,1663
1519.003775839048,1643
1521.0632733075522,1611
1523.1222376660367,1630
1525.1806691640113,1660
1527.2385680510652,1690
1529.2959345768668,1624
1531.3527689911643,1704
1533.4090715437833,1725
1535.4648424846291,1726
1537.5200820636855,1683
1539.5747905310159,1727
1541.6289681367616,1752
1543.6826151311434,1801
1545.7357317644614,1766
1547.7883182870937,1790
1549.8403749494987,1780
1551.8919020022113,1901
1553.9428996958477,1853
1555.9933682811015,1872
1558.0433080087469,1880
1560.0927191296346,1847
1562.1416018946961,1904
1564.1899565549415,1997
1566.2377833614592,1950
1568.2850825654164,1963
1570.3318544180606,1942
1572.3780991707158,1873
1574.423817074788,1911
1576.4690083817595,1777
1578.5136733431923,1799
1580.5578122107272,1794
1582.601425236085,1802
1584.6445126710646,1715
1586.6870747675434,1705
1588.7291117774776,1616
1590.7706239529034,1620
1592.8116115459347,1555
1594.8520748087658,1524
1596.8920139936686,1556
1598.9314293529933,1435
1600.9703211391711,1420
1603.008689604711,1483
1605.0465350022005,1390
1607.0838575843068,1404
1609.1206576037753,1401
1611.1569353134305,1379
1613.1926909661765,1324
1615.2279248149953,1347
1617.2626371129481,1374
1619.2968281131757,1357
1621.3304980688963,1350
1623.3636472334088,1321
1625.39627586009,1284
1627.428384202396,1333
1629.459972513861,1332
1631.4910410480993,1343
1633.5215900588028,1304
1635.551619799744,1290
1637.5811305247717,1316
1639.6101224878166,1273
1641.6385959428862,1347
1643.6665511440683,1282
1645.693988345528,1295
1647.7209078015112,1339
1649.7473097663405,1325
1651.7731944944203,1303
1653.7985622402307,1290
1655.823413258333,1284
1657.847747803366,1236
1659.8715661300494,1295
1661.8948684931793,1252
1663.9176551476316,1291
1665.9399263483624,1253
1667.9616823504057,1308
1669.982923408873,1259
1672.0036497789574,1324
1674.0238617159293,1316
1676.043559475138,1313
1678.0627433120121,1317
1680.081413482059,1248
1682.0995702408654,1266
1684.117213844096,1335
1686.134344547495,1292
1688.1509626068864,1288
1690.1670682781705,1240
1692.182661817329,1275
1694.1977434804217,1276
1696.2123135235875,1243
1698.226372203043,1262
1700.2399197750851,1276
1702.2529564960905,1228
1704.2654826225112,1252
1706.277498410882,1334
1708.2890041178139,1257
1710.2999999999988,1288
1712.3104863142066,1282
1714.3204633172854,1243
1716.329931266163,1311
1718.3388904178469,1250
1720.3473410294214,1281
1722.3552833580516,1319
1724.3627176609807,1307
1726.3696441955308,1310
1728.3760632191033,1253
1730.3819749891782,1263
1732.3873797633146,1255
1734.3922777991502,1310
1736.3966693544012,1300
1738.4005546868639,1294
1740.4039340544127,1279
1742.406807715001,1206
1744.4091759266616,1215
1746.4110389475054,1275
1748.4123970357223,1252
1750.413250449582,1252
1752.4135994474318,1303
1754.4134442876993,1259
1756.4127852288902,1229
1758.4116225295893,1289
1760.4099564484595,1267
1762.407787244244,1273
1764.405115175764,1262
1766.4019405019203,1198
1768.3982634816916,1240
1770.3940843741357,1214
1772.3894034383907,1251
1774.3842209336717,1248
1776.378537119274,1244
1778.372352254571,1260
1780.3656665990156,1244
1782.3584804121397,1326
1784.3507939535534,1268
1786.3426074829463,1276
1788.3339212600863,1268
1790.3247355448211,1218
1792.3150505970766,1302
1794.3048666768573,1208
1796.2941840442477,1271
1798.2830029594106,1247
1800.2713236825884,1246
1802.2591464741004,1232
1804.2464715943465,1227
1806.2332993038058,1240
1808.2196298630352,1316
1810.2054635326708,1276
1812.190800573428,1260
1814.175641246101,1257
1816.1599858115628,1244
1818.1438345307652,1325
1820.127187664738,1298
1822.1100454745924,1238
1824.092408221516,1253
1826.0742761667766,1214
1828.055649571721,1262
1830.0365286977735,1234
1832.0169138064398,1231
1833.9968051593014,1217
1835.9762030180214,1211
1837.9551076443408,1192
1839.9335193000788,1241
1841.9114382471344,1245
1843.888864747485,1257
1845.8657990631878,1284
1847.842241456378,1227
1849.8181921892697,1224
1851.7936515241558,1227
1853.7686197234098,1208
1855.7430970494815,1253
1857.7170837649014,1180
1859.6905801322787,1214
1861.6635864143004,1290
1863.6361028737338,1250
1865.608129773424,1300
1867.5796673762961,1223
1869.5507159453537,1207
1871.521275743678,1228
1873.4913470344313,1281
1875.4609300808534,1215
1877.4300251462632,1216
1879.3986324940588,1226
1881.366752387717,1237
1883.3343850907936,1283
1885.3015308669228,1251
1887.268189979819,1222
1889.2343626932739,1273
1891.2000492711595,1286
1893.1652499774254,1239
1895.1299650761011,1227
1897.0941948312952,1204
1899.0579395071945,1215
1901.0211993680641,1227
1902.98397467825,1276
1904.9462657021745,1236
1906.9080727043415,1265
1908.869395949332,1259
1910.8302357018065,1243
1912.790592226504,1240
1914.7504657882428,1206
1916.7098566519212,1267
1918.6687650825133,1247
1920.6271913450764,1214
1922.5851357047422,1211
1924.5425984267245,1204
1926.499579776314,1182
1928.4560800188833,1235
1930.4120994198802,1176
1932.367638244833,1256
1934.32269675935,1248
1936.2772752291175,1245
1938.231373919899,1304
1940.1849930975404,1275
1942.1381330279637,1245
1944.0907939771696,1217
1946.0429762112412,1209
1947.9946799963363,1215
1949.9459055986945,1280
1951.896653284633,1215
1953.8469233205478,1214
1955.7967159729142,1228
1957.7460315082863,1218
1959.6948701932974,1214
1961.6432322946594,1197
1963.5911180791632,1176
1965.5385278136787,1227
1967.4854617651545,1256
1969.4319202006182,1231
1971.377903387176,1194
1973.3234115920136,1269
1975.268445082395,1238
1977.2130041256642,1204
1979.1570889892423,1197
1981.1006999406304,1232
1983.04383724741,1233
1984.986501177238,1219
1986.928691997853,1195
1988.8704099770712,1219
1990.811655382789,1263
1992.7524284829801,1275
1994.692729545698,1191
1996.6325588390755,1156
1998.5719166313224,1242
2000.5108031907307,1240
2002.4492187856677,1239
2004.387163684583,1173
2006.3246381560011,1191
2008.2616424685298,1201
2010.1981768908527,1203
2012.1342416917332,1198
2014.069837140014,1209
2016.0049635046162,1234
2017.9396210545406,1248
2019.8738100588666,1226
2021.8075307867502,1161
2023.740783507431,1171
2025.6735684902228,1203
2027.6058860045214,1216
2029.5377363198004,1236
2031.4691197056118,1219
2033.4000364315875,1252
2035.3304867674374,1233
2037.260470982952,1215
2039.189989347998,1237
2041.1190421325232,1195
2043.047629606554,1243
2044.9757520401945,1159
2046.9034097036288,1206
2048.8306028671195,1193
2050.7573318010086,1191
2052.683596775716,1219
2054.609398061742,1171
2056.5347359296647,1186
2058.4596106501403,1160
2060.384022493906,1243
2062.3079717317764,1219
2064.231458634646,1213
2066.1544834734873,1152
2068.077046519352,1240
2069.99914804337,1263
2071.9207883167524,1268
2073.8419676107865,1227
2075.7626861968406,1197
2077.6829443463607,1210
2079.6027423308715,1224
2081.522080421977,1191
2083.440958891362,1153
2085.359378010786,1219
2087.2773380520907,1195
2089.194839287196,1221
2091.111881988101,1229
2093.0284664268825,1198
2094.9445928756973,1176
2096.86026160678,1217
2098.775472892446,1167
2100.690227005088,1192
2102.604524217178,1211
2104.5183648012676,1205
2106.431749029985,1196
2108.34467717604,1210
2110.2571495122206,1211
2112.169166311393,1200
2114.080727846503,1207
2115.9918343905747,1187
2117.902486216711,1266
2119.8126835980956,1255
2121.722426807987,1195
2123.6317161197285,1237
2125.5405518067364,1246
2127.448934142509,1176
2129.356863400624,1217
2131.264339854737,1203
2133.1713637785815,1256
2135.077935445972,1220
2136.9840551308002,1237
2138.889723107037,1210
2140.7949396487334,1228
2142.699705030018,1237
2144.6040195250994,1193
2146.507883408264,1166
2148.4112969538774,1187
2150.3142604363848,1254
2152.2167741303097,1201
2154.1188383102535,1259
2156.0204532508997,1199
2157.9216192270064,1201
2159.822336513414,1209
2161.7226053850413,1202
2163.622426116884,1209
2165.5217989840185,1256
2167.4207242616,1216
2169.319202224862,1258
2171.2172331491165,1224
2173.1148173097563,1216
2175.0119549822507,1212
2176.90864644215,1237
2178.8048919650823,1204
2180.7006918267534,1272
2182.596046302952,1255
2184.4909556695407,1241
2186.3854202024645,1216
2188.279440177746,1231
2190.173015871487,1248
2192.066147559868,1241
2193.958835519149,1260
2195.851080025667,1240
2197.7428813558417,1231
2199.6342397861667,1299
2201.5251555932186,1269
2203.415629053651,1247
2205.3056604441986,1237
2207.19525004167,1284
2209.084398122958,1269
2210.9731049650327,1292
2212.861370844941,1272
2214.749196039812,1259
2216.636580826851,1280
2218.523525483344,1259
2220.410030286655,1249
2222.296095514226,1196
2224.1817214435805,1219
2226.066908352319,1232
2227.951656518121,1262
2229.835966218746,1248
2231.71983773203,1248
2233.6032713358913,1283
2235.486267308324,1304
2237.3688259274036,1268
2239.2509474712824,1274
2241.132632218193,1330
2243.013880446447,1276
2244.8946924344323,1242
2246.7750684606203,1251
2248.6550088035574,1246
2250.534513741871,1256
2252.413583554265,1265
2254.292218519526,1334
2256.170418916517,1324
2258.0481850241786,1290
2259.925517121534,1237
2261.8024154876825,1260
2263.678880401803,1285
2265.5549121431536,1257
2267.430510991071,1287
2269.305677224971,1296
2271.180411124348,1246
2273.0547129687766,1241
2274.9285830379076,1282
2276.8020216114737,1234
2278.6750289692845,1241
2280.5476053912294,1265
2282.4197511572766,1252
2284.2914665474727,1273
2286.162751841943,1294
2288.0336073208937,1304
2289.904033264608,1291
2291.774029953448,1289
2293.6435976678554,1244
2295.5127366883517,1335
2297.381447295534,1292
2299.2497297700825,1243
2301.1175843927526,1231
2302.9850114443825,1186
2304.852011205885,1136
2306.7185839582553,1166
2308.5847299825664,1169
2310.4504495599676,1190
2312.3157429716925,1105
2314.1806104990483,1189
2316.0450524234247,1140
2317.9090690262888,1102
2319.772660589186,1093
2321.635827393742,1161
2323.498569721661,1165
2325.3608878547248,1122
2327.2227820747967,1141
2329.0842526638157,1095
2330.945299903803,1096
2332.805924076857,1125
2334.6661254651535,1102
2336.525904350951,1063
2338.3852610165827,1137
2340.244195744464,1099
2342.102708817088,1114
2343.9608005170253,1159
2345.8184711269287,1102
2347.675720929526,1128
2349.532550207628,1159
2351.38895924412,1117
2353.24494832197,1137
2355.100517724223,1155
2356.955667734004,1109
2358.810398634514,1127
2360.664710709037,1158
2362.5186042409337,1122
2364.3720795136437,1161
2366.225136810686,1119
2368.0777764156583,1133
2369.929998612237,1127
2371.7818036841777,1097
2373.633191915315,1065
2375.484163589562,1148
2377.3347189909114,1145
2379.184858403434,1089
2381.03458211128,1107
2382.8838903986775,1097
2384.732783549936,1143
2386.5812618494406,1112
2388.4293255816588,1145
2390.2769750311327,1157
2392.1242104824883,1193
2393.971032220427,1182
2395.8174405297295,1103
2397.6634356952563,1107
2399.509018001947,1173
2401.3541877348193,1147
2403.1989451789705,1172
2405.043290619576,1123
2406.8872243418905,1139
2408.730746631247,1106
2410.5738577730594,1169
2412.4165580528183,1139
2414.258847756095,1137
2416.100727168537,1161
2417.9421965758734,1171
2419.783256263912,1147
2421.623906518538,1147
2423.4641476257157,1094
2425.303979871491,1182
2427.143403541984,1147
2428.9824189233977,1191
2430.821026302012,1196
2432.6592259641866,1193
2434.497018196361,1207
2436.33440328505,1159
2438.171381516851,1172
2440.00795317844,1181
2441.844118556569,1220
2443.6798779380724,1143
2445.5152316098606,1167
2447.3501798589255,1174
2449.1847229723357,1174
2451.0188612372403,1145
2452.8525949408663,1120
2454.6859243705203,1117
2456.518849813587,1119
2458.3513715575314,1160
2460.183489889895,1140
2462.015205098301,1109
2463.8465174704493,1152
2465.67742729412,1139
2467.5079348571717,1118
2469.338040447542,1135
2471.1677443532476,1126
2472.9970468623833,1139
2474.825948263123,1078
2476.6544488437207,1174
2478.482548892508,1120
2480.310248697896,1122
2482.137548548374,1123
2483.9644487325118,1081
2485.790949538956,1149
2487.617051256433,1175
2489.44275417375,1129
2491.26805857979,1144
2493.0929647635157,1165
2494.917473013971,1162
2496.741583620276,1132
2498.5652968716304,1160
2500.3886130573137,1149
2502.2115324666834,1175
2504.0340553891765,1145
2505.856182114308,1155
2507.6779129316733,1130
2509.499248130945,1171
2511.3201880018764,1123
2513.140732834298,1156
2514.9608829181198,1204
2516.780638543331,1157
2518.6,1093
2520.418967578273,1164
2522.237541568376,1179
2524.0557222606144,1175
2525.8735099453706,1105
2527.6909049131086,1150
2529.507907454368,1179
2531.32451785977,1120
2533.140736420014,1185
2534.9565634258774,1207
2536.771999168218,1211
2538.5870439379714,1198
2540.4016980261526,1148
2542.2159617238544,1211
2544.02983532225,1190
2545.8433191125914,1180
2547.656413386209,1184
2549.4691184345115,1171
2551.2814345489874,1208
2553.093362021204,1213
2554.904901142808,1153
2556.716052205523,1200
2558.526815501153,1177
2560.3371913215824,1228
2562.147179958771,1193
2563.956781704761,1183
2565.7659968516705,1187
2567.5748256916986,1187
2569.3832685171224,1256
2571.1913256202984,1276
2572.9989972936614,1233
2574.806283829725,1180
2576.613185521084,1279
2578.4197026604074,1221
2580.2258355404483,1246
2582.031584454035,1225
2583.836949694077,1226
2585.6419315535613,1257
2587.4465303255533,1272
2589.2507463032002,1248
2591.0545797797245,1271
2592.8580310484303,1311
2594.6611004026995,1273
2596.463788135992,1213
2598.266094541849,1226
2600.0680199138874,1239
2601.869564545807,1294
2603.670728731383,1246
2605.4715127644704,1235
2607.2719169390048,1253
2609.071941548998,1244
2610.8715868885433,1312
2612.670853251811,1193
2614.469740933052,1229
2616.268250226594,1244
2618.0663814268455,1244
2619.864134828292,1247
2621.6615107255006,1227
2623.458509413115,1232
2625.2551311858597,1259
2627.0513763385347,1212
2628.8472451660223,1229
2630.6427379632833,1223
2632.4378550253564,1247
2634.232596647359,1161
2636.026963124488,1233
2637.8209547520187,1151
2639.6145718253065,1216
2641.407814639785,1209
2643.200683490966,1223
2644.9931786744414,1203
2646.7853004858807,1167
2648.577049221034,1252
2650.3684251757277,1192
2652.1594286458712,1174
2653.9500599274484,1196
2655.740319316525,1231
2657.5302071092437,1205
2659.3197236018286,1199
2661.10886909058,1236
2662.8976438718782,1176
2664.686048242183,1179
2666.4740824980327,1191
2668.2617469360443,1135
2670.0490418529134,1234
2671.8359675454153,1191
2673.622524310403,1228
2675.408712444811,1199
2677.1945322456495,1132
2678.979984010009,1183
2680.76506803506,1159
2682.5497846180497,1155
2684.334134056306,1171
2686.1181166472343,1207
2687.9017326883213,1193
2689.6849824771293,1118
2691.4678663113013,1209
2693.2503844885596,1133
2695.032537306705,1156
2696.8143250636167,1161
2698.5957480572542,1116
2700.3768065856534,1139
2702.1575009469316,1128
2703.937831439283,1148
2705.717798360982,1126
2707.4974020103837,1125
2709.276642685917,1153
2711.055520686095,1155
2712.834036309506,1144
2714.612189854819,1166
2716.389981620782,1102
2718.1674119062204,1111
2719.944481010041,1126
2721.721189231226,1166
2723.4975368688415,1124
2725.273524222027,1131
2727.0491515900053,1110
2728.824419272075,1070
2730.5993275676146,1151
2732.3738767760838,1089
2734.148067197016,1134
2735.921899130031,1123
2737.6953728748194,1107
2739.468488731156,1149
2741.2412469988926,1175
2743.0136479779617,1087
2744.785691968372,1087
2746.5573792702116,1109
2748.3287101836504,1085
2750.099685008934,1180
2751.870304046388,1137
2753.640567596418,1079
2755.4104759595057,1137
2757.1800294362156,1126
2758.949228327187,1133
2760.7180729331412,1101
2762.486563554877,1070
2764.254700493272,1088
2766.022484049284,1147
2767.789914523947,1163
2769.5569922183786,1129
2771.3237174337705,1139
2773.090090471394,1170
2774.8561116326036,1117
2776.6217812188274,1154
2778.3870995315756,1084
2780.1520668724356,1158
2781.9166835430747,1088
2783.6809498452394,1105
2785.444866080754,1124
2787.2084325515225,1103
2788.971649559527,1145
2790.73451740683,1108
2792.4970363955713,1154
2794.2592068279705,1094
2796.0210290063264,1119
2797.7825032330147,1102
2799.543629810493,1103
2801.304409041296,1135
2803.0648412280366,1108
2804.8249266734088,1127
2806.5846656801846,1078
2808.344058551212,1095
2810.1031055894246,1121
2811.8618070978273,1105
2813.6201633795085,1136
2815.378174737636,1126
2817.1358414754536,1145
2818.893163896285,1152
2820.6501423035334,1101
2822.4067770006814,1143
2824.1630682912883,1084
2825.9190164789957,1117
2827.6746218675207,1101
2829.429884760661,1123
2831.184805462294,1113
2832.9393842763743,1152
2834.693621506936,1132
2836.4475174580916,1095
2838.201072434034,1143
2839.954286739034,1118
2841.707160677441,1145
2843.459694553685,1139
2845.2118886722724,1130
2846.96374333779,1192
2848.7152588549034,1131
2850.4664355283567,1182
2852.217273662973,1127
2853.9677735636546,1179
2855.7179355353833,1135
2857.4677598832186,1129
2859.217246912299,1120
2860.9663969278427,1111
2862.715210235146,1109
2864.4636871395846,1099
2866.211827946614,1120
2867.9596329617652,1147
2869.7071024906536,1107
2871.4542368389684,1158
2873.20103631248,1083
2874.947501217038,1080
2876.6936318585695,1102
2878.4394285430812,1096
2880.1848915766604,1130
2881.9300212654707,1116
2883.6748179157553,1114
2885.4192818338374,1084
2887.1634133261173,1116
2888.907212699077,1070
2890.6506802592744,1139
2892.393816313348,1146
2894.1366211680142,1120
2895.8790951300693,1134
2897.621238506388,1095
2899.363051603925,1097
2901.1045347297118,1120
2902.8456881908596,1143
2904.58651229456,1080
2906.327007348081,1111
2908.067173658772,1063
2909.8070115340597,1103
2911.5465212814497,1112
2913.285703208527,1087
2915.0245576229563,1118
2916.7630848324807,1160
2918.5012851449196,1104
2920.2391588681758,1116
2921.976706310227,1128
2923.7139277791334,1148
2925.4508235830313,1142
2927.187394030137,1137
2928.923639428745,1113
2930.6595600872306,1123
2932.395156314046,1212
2934.1304284177218,1163
2935.8653767068713,1155
2937.6000014901815,1149
2939.3343030764227,1137
2941.068281774442,1123
2942.8019378931644,1087
2944.5352717415976,1080
2946.2682836288236,1116
2948.0009738640065,1105
2949.7333427563885,1178
2951.465390615289,1122
2953.1971177501086,1148
2954.9285244703265,1133
2956.6596110855,1134
2958.3903779052657,1143
2960.1208252393385,1090
2961.8509533975125,1104
2963.5807626896617,1134
2965.3102534257378,1122
2967.0394259157715,1093
2968.768280469873,1106
2970.496817398232,1153
2972.2250370111146,1178
2973.952939618869,1104
2975.6805255319196,1133
2977.4077950607707,1167
2979.134748516006,1167
2980.861386208289,1203
2982.587708448359,1168
2984.313715547037,1076
2986.039407815222,1121
2987.764785563891,1095
2989.489849104102,1181
2991.2145987469908,1057
2992.9390348037705,1116
2994.6631575857346,1073
2996.3869674042576,1118
2998.1104645707887,1133
2999.83364939686,1075
3001.5565221940783,1126
3003.2790832741334,1099
3005.0013329487924,1094
3006.7232715298996,1133
3008.4448993293804,1091
3010.166216659239,1111
3011.887223831558,1079
3013.607921158498,1113
3015.3283089522993,1120
3017.0483875252826,1072
3018.7681571898443,1086
3020.4876182584626,1121
3022.2067710436927,1099
3023.9256158581707,1115
3025.644153014609,1061
3027.362382825801,1109
3029.0803056046193,1059
3030.797921664012,1079
3032.5152313170106,1087
3034.2322348767225,1093
3035.9489326563353,1032
3037.665324969115,1074
3039.3814121284063,1120
3041.097194447633,1101
3042.812672240299,1129
3044.5278458199855,1111
3046.2427155003525,1128
3047.9572815951406,1097
3049.671544418167,1114
3051.38550428333,1130
3053.0991615046073,1112
3054.812516396051,1108
3056.5255692717974,1101
3058.2383204460575,1063
3059.9507702331257,1109
3061.662918947372,1078
3063.3747669032446,1116
3065.0863144152736,1085
3066.7975617980674,1072
3068.508509366309,1087
3070.219157434767,1088
3071.9295063182844,1068
3073.639556331785,1093
3075.3493077902704,1086
3077.058761008821,1099
3078.7679163025964,1082
3080.476773986837,1117
3082.1853343768594,1119
3083.89359778806,1143
3085.6015645359153,1090
3087.3092349359786,1097
3089.016609303884,1141
3090.7236879553434,1143
3092.4304712061476,1126
3094.136959372166,1109
3095.843152769349,1102
3097.5490517137237,1074
3099.2546565213966,1071
3100.959967508554,1105
3102.66498499146,1175
3104.3697092864577,1121
3106.0741407099695,1065
3107.778279578498,1148
3109.482126208622,1153
3111.1856809170004,1087
3112.8889440203716,1102
3114.5919158355528,1110
3116.294596679439,1093
3117.996986869006,1104
3119.6990867213062,1136
3121.4008965534726,1123
3123.102416682717,1135
3124.803647426329,1085
3126.5045891016784,1118
3128.205242026213,1166
3129.90560651746,1111
3131.605682893025,1085
3133.3054714705922,1104
3135.0049725679282,1110
3136.7041865028714,1123
3138.4031135933465,1104
3140.101754157353,1085
3141.800108512971,1099
3143.498176978357,1072
3145.1959598717494,1071
3146.8934575114636,1114
3148.5906702158954,1105
3150.2875983035183,1056
3151.9842420928853,1135
3153.680601902627,1162
3155.376678051456,1089
3157.07247085816,1082
3158.767980641609,1094
3160.463207720748,1113
3162.158152414606,1113
3163.8528150422862,1114
3165.5471959229726,1153
3167.2412953759303,1081
3168.9351137204976,1125
3170.628651276098,1139
3172.3219083622307,1153
3174.014885298474,1115
3175.707582404485,1103
3177.4000000000005,1101
3179.092138404835,1104
3180.7839979388846,1095
3182.47557892212,1142
3184.166881674594,1103
3185.8579065164386,1100
3187.5486537678626,1081
3189.2391237491547,1124
3190.9293167806827,1123
3192.6192331828934,1072
3194.3088732763117,1131
3195.998237381542,1120
3197.687325819268,1184
3199.376138910251,1104
3201.064676975334,1094
3202.7529403354347,1134
3204.4409293115523,1134
3206.1286442247647,1142
3207.816085396229,1087
3209.5032531471825,1108
3211.190147798936,1069
3212.8767696728846,1086
3214.5631190905015,1110
3216.2491963733373,1112
3217.9350018430214,1083
3219.6205358212637,1074
3221.305798629851,1050
3222.990790590651,1059
3224.6755120256103,1071
3226.359963256751,1084
3228.0441446061795,1079
3229.7280563960758,1053
3231.411698948703,1037
3233.0950725863995,1123
3234.778177631587,1121
3236.461014406761,1156
3238.1435832345005,1118
3239.8258844374595,1075
3241.507918338374,1032
3243.1896852600576,1078
3244.8711855254023,1094
3246.552419457381,1116
3248.233387379042,1087
3249.914089613516,1092
3251.59452648401,1082
3253.274698313813,1052
3254.95460542629,1093
3256.6342481448855,1060
3258.313626793125,1067
3259.9927416946084,1070
3261.6715931730196,1104
3263.3501815521176,1120
3265.0285071557437,1049
3266.706570307815,1089
3268.3843713323286,1125
3270.0619105533615,1058
3271.739188295068,1066
3273.4162048816834,1087
3275.0929606375184,1106
3276.769455886966,1067
3278.445690954498,1092
3280.1216661646613,1056
3281.797381842087,1101
3283.4728383114807,1129
3285.1480358976296,1132
3286.8229749253996,1097
3288.4976557197333,1099
3290.172078605655,1078
3291.846243908266,1116
3293.5201519527463,1073
3295.193803064357,1078
3296.8671975684374,1092
3298.5403357904024,1085
3300.21321805575,1052
3301.8858446900567,1094
3303.558216018975,1083
3305.23033236824,1076
3306.9021940636603,1107
3308.57380143113,1091
3310.2451547966184,1116
3311.916254486174,1089
3313.5871008259246,1106
3315.2576941420766,1080
3316.9280347609147,1092
3318.5981230088046,1081
3320.2679592121895,1024
3321.9375436975924,1112
3323.606876791612,1059
3325.27595882093,1109
3326.944790112305,1113
3328.6133709925753,1102
3330.2817017886573,1064
3331.949782827547,1052
3333.617614436319,1116
3335.2851969421245,1098
3336.952530672199,1086
3338.619615953853,1074
3340.286453114475,1089
3341.9530424815357,1125
3343.619384382583,1059
3345.2854791452437,1083
3346.951327097224,1124
3348.6169285663073,1088
3350.2822838803577,1121
3351.947393367319,1096
3353.61225735521,1089
3355.2768761721345,1119
3356.9412501462693,1070
3358.605379605873,1143
3360.2692648792827,1080
3361.9329062949146,1126
3363.596304181263,1091
