CollectionTime,7/9/2024 1:08:11 PM
ExposureUsed,3
CalibratedSpectrum
-962.7078968117929,491
-959.9714848408522,519
-957.2358232597828,552
-954.5009119013725,516
-951.7667505983302,528
-949.0333391832855,542
-946.3006774887896,563
-943.5687653473143,587
-940.837602591253,559
-938.1071890529199,549
-935.3775245645503,528
-932.6486089583007,567
-929.9204420662485,591
-927.1930237203925,573
-924.4663537526524,549
-921.7404319948689,542
-919.0152582788041,560
-916.2908324361409,600
-913.5671542984834,586
-910.8442236973568,588
-908.1220404642074,564
-905.4006044304027,570
-902.679915427231,545
-899.959973285902,534
-897.2407778375464,503
-894.5223289132158,522
-891.8046263438832,508
-889.0876699604426,559
-886.3714595937089,532
-883.6559950744183,533
-880.9412762332282,522
-878.2273029007168,543
-875.5140749073835,481
-872.8015920836489,515
-870.0898542598545,498
-867.3788612662631,513
-864.6686129330585,523
-861.9591090903457,515
-859.2503495681506,544
-856.5423341964203,537
-853.8350628050229,519
-851.1285352237478,556
-848.4227512823054,517
-845.7177108103272,578
-843.0134136373656,584
-840.3098595928943,576
-837.6070485063082,587
-834.9049802069229,603
-832.2036545239757,567
-829.5030712866244,504
-826.8032303239481,560
-824.1041314649472,548
-821.4057745385428,538
-818.7081593735775,509
-816.0112857988148,533
-813.3151536429393,526
-810.6197627345566,536
-807.9251129021936,528
-805.2312039742981,527
-802.5380357792392,524
-799.8456081453069,517
-797.1539209007124,513
-794.462973873588,559
-791.772766891987,556
-789.083299783884,555
-786.3945723771743,539
-783.7065844996748,542
-781.0193359791231,548
-778.3328266431781,548
-775.6470563194197,527
-772.9620248353489,539
-770.2777320183878,557
-767.5941776958798,512
-764.9113616950891,582
-762.2292838432011,574
-759.5479439673222,578
-756.8673418944801,533
-754.1874774516235,563
-751.5083504656222,570
-748.8299607632671,528
-746.15230817127,539
-743.475392516264,560
-740.7992136248035,580
-738.1237713233636,576
-735.4490654383407,577
-732.7750957960521,595
-730.1018622227365,556
-727.4293645445534,507
-724.7576025875837,557
-722.0865761778291,536
-719.4162851412126,583
-716.7467293035781,585
-714.0779084906909,583
-711.409822528237,561
-708.7424712418238,558
-706.0758544569796,573
-703.4099719991541,600
-700.7448236937178,638
-698.0804093659622,647
-695.4167288411002,629
-692.7537819442656,608
-690.0915685005134,576
-687.4300883348199,567
-684.7693412720819,577
-682.1093271371178,598
-679.4500457546669,600
-676.7914969493897,589
-674.1336805458676,577
-671.4765963686034,581
-668.8202442420206,615
-666.1646239904642,633
-663.5097354382001,575
-660.8555784094151,594
-658.2021527282176,571
-655.5494582186366,593
-652.8974947046223,573
-650.2462620100463,595
-647.5957599587009,594
-644.9459883742998,590
-642.2969470804776,590
-639.6486359007902,635
-637.0010546587141,671
-634.3542031776476,660
-631.7080812809096,591
-629.0626887917401,613
-626.4180255333008,610
-623.7740913286734,635
-621.1308860008619,686
-618.4884093727904,653
-615.8466612673046,677
-613.2056415071715,632
-610.5653499150785,644
-607.9257863136347,685
-605.28695052537,631
-602.6488423727357,626
-600.0114616781036,622
-597.3748082637674,592
-594.7388819519412,636
-592.1036825647604,683
-589.4692099242818,759
-586.8354638524829,711
-584.2024441712624,641
-581.5701507024403,626
-578.9385832677575,637
-576.3077416888759,630
-573.6776257873787,678
-571.0482353847704,675
-568.4195703024757,667
-565.7916303618415,659
-563.164415384135,673
-560.5379251905453,692
-557.9121596021815,761
-555.2871184400748,730
-552.6628015251767,712
-550.0392086783606,702
-547.4163397204204,728
-544.794194472071,751
-542.1727727539491,671
-539.5520743866118,719
-536.9320991905377,769
-534.3128469861261,829
-531.6943175936979,824
-529.0765108334947,781
-526.4594265256793,772
-523.8430644903358,853
-521.2274245474689,958
-518.612506517005,1068
-515.9983102187913,1123
-513.3848354725959,1177
-510.77208209810846,1146
-508.16004991493924,1186
-505.5487387426199,1186
-502.9381484006032,1155
-500.3282787082628,1095
-497.71912948489364,1121
-495.1107005497117,1099
-492.5029917218539,1041
-489.8960028203786,951
-487.28973366426493,897
-484.68418407241325,800
-482.07935386364494,823
-479.47524285670266,804
-476.87185087025,757
-474.2691777228715,761
-471.66722323307334,780
-469.0659872192821,753
-466.4654694998459,792
-463.86566989303384,808
-461.26658821703614,770
-458.66822428996414,797
-456.07057792985,760
-453.4736489546475,816
-450.877437182231,810
-448.28194243039627,811
-445.68716451686,831
-443.09310325926003,796
-440.49975847515555,814
-437.9071299820263,771
-435.31521759727354,763
-432.72402113821954,819
-430.13354042210767,793
-427.5437752661022,778
-424.95472548728867,833
-422.36639090267386,811
-419.7787713291855,851
-417.1918665836721,894
-414.60567648290385,836
-412.0202008435715,896
-409.4354394822874,875
-406.8513922155845,876
-404.26805885991723,886
-401.685439231661,888
-399.103533147112,871
-396.522340422488,908
-393.9418608739278,852
-391.3620943174908,864
-388.7830405691583,891
-386.2046994448317,804
-383.6270707603344,838
-381.05015433141045,756
-378.473949973725,746
-375.8984575028645,692
-373.32367673433623,732
-370.74960748356875,684
-368.1762495659117,616
-365.60360279663576,639
-363.03166699093265,584
-360.4604419639154,554
-357.8899275306178,558
-355.32012350599507,538
-352.7510297049233,530
-350.1826459421999,496
-347.61497203254316,498
-345.04800779059235,532
-342.4817530309082,559
-339.91620756797226,537
-337.35137121618743,530
-334.7872437898774,561
-332.22382510328725,606
-329.66111497058273,591
-327.09911320585127,570
-324.53781962310075,636
-321.9772340362607,549
-319.4173562591816,486
-316.8581861056348,516
-314.2997233893127,492
-311.7419679238294,476
-309.1849195227194,497
-306.62857799943856,515
-304.0729431673641,524
-301.51801483979375,592
-298.963792829947,616
-296.41027695096386,639
-293.85746701590574,587
-291.3053628377552,592
-288.7539642294155,585
-286.2032710037115,632
-283.65328297338897,598
-281.1039999511146,618
-278.5554217494762,614
-276.007548180983,585
-273.4603790580651,577
-270.9139141930734,591
-268.3681533982807,638
-265.8230964858798,631
-263.27874326798565,618
-260.7350935566336,638
-258.1921471637804,656
-255.6499039013039,644
-253.10836358100266,597
-250.56752601459698,671
-248.02739101372765,707
-245.48795838995704,690
-242.94922795476816,733
-240.41119951956557,795
-237.8738728956746,730
-235.33724789434166,798
-232.80132432673452,741
-230.2661020039418,638
-227.73158073697357,639
-225.19776033676033,651
-222.66464061415422,702
-220.1322213799284,764
-217.60050244477725,710
-215.06948361931552,742
-212.53916471408013,810
-210.00954553952818,777
-207.48062590603843,764
-204.9524056239104,732
-202.4248845033651,895
-199.8980623545441,1029
-197.37193898751036,1062
-194.84651421224817,875
-192.32178783866232,926
-189.79775967657952,1048
-187.27442953574644,1042
-184.7517972258321,1206
-182.2298625564256,953
-179.7086253370378,986
-177.18808537710026,963
-174.66824248596583,934
-172.14909647290835,1001
-169.6306471471229,996
-167.11289431772548,1052
-164.59583779375328,1016
-162.07947738416453,1095
-159.5638128978386,1030
-157.04884414357605,1099
-154.53457093009854,1148
-152.02099306604828,1342
-149.50811035998936,1124
-146.99592262040665,916
-144.48442965570587,935
-141.97363127421409,979
-139.46352728417958,1030
-136.95411749377126,1131
-134.44540171107985,1220
-131.93737974411636,1078
-129.43005140081357,1096
-126.92341648902493,1175
-124.41747481652521,1325
-121.91222619101006,1048
-119.40767042009657,1202
-116.90380731132257,1481
-114.40063667214702,1611
-111.8981583099503,1433
-109.3963720320337,1628
-106.89527764561933,2241
-104.39487495785067,2544
-101.89516377579241,2713
-99.39614390642998,3207
-96.89781515667039,3372
-94.40017733334128,4152
-91.90323024319173,7530
-89.40697369289148,18070
-86.91140748903172,32078
-84.41653143812482,33401
-81.92234534660395,24011
-79.42884902082358,14121
-76.93604226705907,11557
-74.4439248915071,26953
-71.95249670028534,48334
-69.46175749943245,55418
-66.97170709490854,43681
-64.48234529259423,26783
-61.99367189829195,14319
-59.50568671772464,8596
-57.01838955653636,7702
-54.53178022029283,8009
-52.045858514480074,9208
-49.560624244506016,10823
-47.07607721569923,11706
-44.59221723330904,11642
-42.10904410250669,11306
-39.62655762838392,11129
-37.14475761595372,10396
-34.66364387015028,10408
-32.18321619582866,9520
-29.70347439776515,8099
-27.224418280657005,9259
-24.74604764912317,12719
-22.26836230770266,19196
-19.7913620608565,34698
-17.315046712966478,65040
-14.83941606833514,65040
-12.36446993118659,65040
-9.89020810566592,65040
-7.416630395839093,65040
-4.94373660569363,65040
-2.471526539137585,65040
-6.821210263296962E-13,65040
2.47084320796705,65040
4.941003281093458,65040
7.410480415786196,65040
9.879274808531363,65040
12.347386655893956,65040
14.814816154518212,65040
17.28156350112681,65040
19.74762889252179,65040
22.21301252558385,65040
24.67771459727237,21260
27.141735304626195,4786
29.605074844762612,3596
32.06773341487792,2855
34.52971121224755,3030
36.99100843422559,3038
39.45162527824516,2551
41.91156194181792,1879
44.370818622535126,2294
46.82939551806646,2053
49.287292826160524,1760
51.74451074464503,1778
54.201049471426245,2329
56.65690920448981,2410
59.112090141899785,1725
61.56659248179983,1619
64.02041642241159,1485
66.4735621620365,1339
68.92602989905402,1221
71.37781983192338,1671
73.82893215918205,2095
76.27936707944684,2425
78.72912479141326,2199
81.17820549385567,1836
83.62660938562783,1772
86.07433666566146,1640
88.5213875329681,1282
90.96776218663751,1112
93.41346082583925,1120
95.85848364982041,1366
98.30283085790859,1488
100.7465026495089,1774
103.18949922410604,1452
105.63182078126385,1303
108.07346752062438,1327
110.51443964190923,1073
112.95473734491827,1066
115.39436082953114,1173
117.83331029570547,1198
120.27158594347827,1295
122.7091879729652,1349
125.1461165843615,1241
127.58237197794062,1001
130.01795435405518,869
132.4528639131364,962
134.88710085569494,922
137.32066538231982,943
139.75355769367923,944
142.1857779905207,1147
144.61732647366978,1116
147.04820334403132,1142
149.47840880258934,927
151.90794305040674,963
154.33680628862487,1000
156.76499871846443,1172
159.19252054122433,1260
161.61937195828352,1303
164.04555317109896,1394
166.47106438120693,1578
168.89590579022217,1634
171.320077599839,1672
173.7435800118302,1850
176.16641322804742,1930
178.58857745042144,1907
181.01007288096173,2056
183.43089972175687,2113
185.85105817497413,2090
188.27054844285988,2031
190.6893707277394,2021
193.10752523201643,2088
195.5250121581745,2248
197.9418317087751,2290
200.3579840864594,2231
202.7734694939469,2090
205.18828813403627,2113
207.6024402096051,2211
210.01592592360964,2329
212.42874547908548,2378
214.84089907914665,2358
217.2523869269868,2280
219.66320922587727,2207
222.0733661791695,2179
224.48285799029293,2177
226.8916848627572,2079
229.29984700014882,2200
231.7073446061355,2171
234.11417788446204,2162
236.520347038953,2042
238.92585227351185,2159
241.33069379212054,2175
243.73487179884035,2202
246.1383864978112,2310
248.541238093252,2248
250.9434267894609,2149
253.34495279081432,2238
255.74581630176783,2116
258.1460175268563,2190
260.54555667069314,2149
262.9444339379703,2175
265.3426495334594,2241
267.7402036620107,2289
270.1370965285529,2333
272.53332833809407,2276
274.9288992957214,2181
277.32380960660055,2068
279.718059475976,2144
282.1116491091717,2093
284.5045787115897,2048
286.89684848871195,2056
289.2884586460981,2034
291.67940938938807,2077
294.0697009242996,2069
296.4593334566299,2118
298.84830719225477,2116
301.23662233712923,2065
303.6242790972866,2031
306.01127767884,2045
308.39761828798066,1948
310.78330113097934,1931
313.16832641418534,2009
315.5526943440269,1967
317.9364051270112,1876
320.3194589697242,1948
322.70185607883093,1999
325.0835966610754,1985
327.4646809232805,1906
329.8451090723478,1821
332.2248813152577,1858
334.6039978590701,1847
336.9824589109231,1912
339.36026467803447,1834
341.7374153677,1913
344.113911187295,1824
346.48975234427337,1850
348.8649390461686,1821
351.2394715005918,1829
353.61334991523415,1946
355.9865744978655,1830
358.35914545633375,1846
360.73106299856715,1855
363.10232733257146,1849
365.47293866643247,1843
367.84289720831396,1828
370.2122031664593,1825
372.5808567491905,1834
374.9488581649083,1738
377.31620762209275,1801
379.6829053293021,1731
382.0489514951745,1720
384.4143463284262,1739
386.7790900378528,1757
389.14318283232853,1693
391.50662492080653,1744
393.86941651231916,1657
396.23155781597745,1725
398.5930490409713,1703
400.9538903965696,1681
403.3140820921202,1780
405.6736243370498,1840
408.03251734086336,1731
410.3907613131465,1654
412.74835646356166,1606
415.10530300185144,1639
417.4616011378372,1633
419.81725108141893,1663
422.1722530425758,1620
424.5266072313656,1581
426.880313857925,1603
429.2333731324701,1618
431.58578526529516,1628
433.9375504667738,1580
436.2886689473588,1647
438.63914091758113,1631
440.9889665880513,1570
443.33814616945835,1600
445.68667987257015,1605
448.03456790823395,1614
450.3818104873759,1582
452.72840782100013,1632
455.07436012019105,1605
457.41966759611057,1608
459.7643304600007,1646
462.10834892318155,1546
464.4517231970525,1520
466.79445349309174,1597
469.1365400228566,1601
471.4779829979826,1556
473.81878263018564,1585
476.15893913125876,1594
478.4984527130747,1665
480.8373235875855,1618
483.17555196682144,1616
485.5131380628919,1626
487.8500820879857,1665
490.1863842543697,1711
492.52204477439034,1715
494.8570638604725,1781
497.1914417251204,1852
499.52517858091653,1948
501.85827464052306,2062
504.19073011668036,2196
506.5225452222086,2354
508.85372017000566,2375
511.18425517304956,2610
513.514150444396,2743
515.8434061971808,3225
518.1720226446176,3822
520.4999999999999,4129
522.8273384766991,4055
525.1540382881666,4050
527.480099647932,3844
529.8055227696037,3480
532.1303078668694,2777
534.454455153496,2249
536.777964843328,1972
539.1008371502907,1876
541.4230722883866,1832
543.744670471698,1738
546.0656319143858,1684
548.3859568306899,1764
550.7056454349294,1812
553.0246979415016,1698
555.3431145648834,1658
557.6608955196306,1692
559.978041020377,1687
562.2945512818363,1652
564.6104265188006,1580
566.9256669461412,1563
569.2402727788082,1697
571.5542442318302,1700
573.8675815203156,1629
576.1802848594508,1749
578.4923544645015,1692
580.8037905508126,1703
583.114593333807,1674
585.4247630289875,1694
587.7342998519354,1701
590.0432040183106,1684
592.3514757438526,1636
594.6591152443794,1647
596.9661227357875,1588
599.2724984340531,1708
601.578242555231,1683
603.8833553154542,1688
606.1878369309362,1695
608.4916876179676,1568
610.7949075929192,1635
613.0974970722403,1589
615.3994562724587,1655
617.7007854101818,1580
620.0014847020951,1688
622.3015543649641,1674
624.6009946156324,1653
626.8998056710224,1681
629.1979877481361,1638
631.4955410640538,1562
633.7924658359349,1624
636.0887622810175,1593
638.3844306166192,1672
640.6794710601358,1660
642.9738838290426,1648
645.2676691408932,1675
647.5608272133207,1649
649.853358264037,1733
652.1452625108324,1636
654.4365401715764,1640
656.7271914642178,1663
659.0172166067838,1684
661.3066158173809,1683
663.5953893141935,1682
665.8835373154867,1649
668.1710600396028,1676
670.4579577049639,1708
672.7442305300709,1748
675.0298787335033,1682
677.3149025339197,1600
679.599302150058,1680
681.8830778007342,1646
684.1662297048437,1617
686.4487580813608,1690
688.7306631493387,1656
691.0119451279091,1632
693.2926042362834,1601
695.5726406937516,1675
697.8520547196814,1712
700.1308465335215,1743
702.4090163547982,1692
704.6865644031171,1605
706.9634908981619,1618
709.2397960596965,1679
711.5154801075631,1632
713.7905432616823,1699
716.0649857420548,1617
718.3388077687592,1610
720.612009561953,1614
722.8845913418733,1712
725.1565533288352,1607
727.427895743234,1663
729.6986188055427,1666
731.9687227363137,1682
734.238207756178,1590
736.5070740858458,1771
738.7753219461066,1633
741.0429515578281,1722
743.3099631419569,1611
745.5763569195191,1721
747.8421331116193,1644
750.1072919394409,1652
752.3718336242467,1681
754.6357583873777,1691
756.8990664502545,1641
759.1617580343765,1657
761.423833361321,1671
763.6852926527457,1691
765.9461361303862,1655
768.206364016058,1711
770.4659765316536,1680
772.7249738991469,1661
774.9833563405886,1650
777.2411240781092,1722
779.4982773339183,1675
781.7548163303044,1680
784.010741289634,1728
786.2660524343538,1751
788.5207499869881,1783
790.7748341701416,1655
793.0283052064964,1692
795.2811633188143,1594
797.5334087299362,1692
799.7850416627813,1695
802.0360623403484,1678
804.2864709857143,1692
806.5362678220353,1683
808.7854530725468,1651
811.0340269605625,1661
813.2819897094754,1635
815.5293415427581,1735
817.77608268396,1666
820.0222133567116,1732
822.2677337847211,1683
824.5126441917765,1708
826.7569448017433,1654
829.0006358385675,1676
831.2437175262731,1729
833.4861900889629,1719
835.7280537508192,1745
837.9693087361026,1689
840.2099552691533,1753
842.4499935743896,1748
844.689423876309,1718
846.9282463994886,1678
849.1664613685833,1788
851.4040690083276,1735
853.6410695435349,1746
855.877463199097,1657
858.1132501999847,1781
860.3484307712487,1785
862.5830051380175,1758
864.8169735254988,1740
867.0503361589791,1681
869.2830932638243,1721
871.5152450654786,1757
873.7467917894654,1776
875.9777336613873,1766
878.2080709069252,1614
880.4378037518389,1747
882.666932421968,1673
884.8954571432301,1698
887.1233781416219,1665
889.3506956432192,1776
891.5774098741766,1672
893.803521060728,1698
896.0290294291852,1722
898.2539352059397,1731
900.4782386174619,1643
902.7019398903011,1701
904.925039251085,1723
907.147536926521,1663
909.3694331433943,1651
911.59072812857,1687
913.8114221089921,1592
916.0315153116827,1680
918.2510079637437,1690
920.4699002923547,1645
922.6881925247761,1610
924.905884888345,1585
927.1229776104793,1688
929.3394709186747,1625
931.555365040506,1585
933.7706602036275,1667
935.9853566357709,1639
938.1994545647489,1613
940.4129542184515,1652
942.6258558248488,1616
944.8381596119883,1666
947.0498658079974,1692
949.2609746410825,1645
951.4714863395287,1575
953.6814011316998,1562
955.8907192460387,1583
958.0994409110671,1641
960.3075663553858,1646
962.5150958076741,1588
964.7220294966913,1667
966.928367651274,1720
969.1341105003388,1610
971.3392582728806,1647
973.5438111979742,1560
975.747769504772,1634
977.9511334225061,1577
980.153903180487,1609
982.3560790081052,1573
984.5576611348289,1583
986.7586497902058,1578
988.9590452038618,1498
991.158847605503,1553
993.3580572249133,1544
995.5566742919558,1560
997.7546990365728,1442
999.952131688785,1500
1002.1489724786926,1482
1004.3452216364743,1425
1006.5408793923874,1477
1008.7359459767691,1432
1010.9304216200343,1444
1013.1243065526781,1434
1015.3176010052733,1406
1017.510305208472,1471
1019.7024193930064,1441
1021.8939437896848,1409
1024.0848786293977,1438
1026.2752241431122,1402
1028.4649805618747,1384
1030.6541481168115,1365
1032.842727039127,1438
1035.0307175601051,1442
1037.2181199111074,1436
1039.4049343235752,1395
1041.591161029029,1302
1043.7768002590683,1293
1045.9618522453698,1377
1048.1463172196918,1350
1050.3301954138697,1356
1052.513487059818,1349
1054.69619238953,1350
1056.8783116350783,1388
1059.0598450286152,1361
1061.2407928023704,1345
1063.4211551886528,1346
1065.6009324198508,1341
1067.780124728432,1320
1069.9587323469414,1327
1072.1367555080046,1302
1074.314194444325,1315
1076.4910493886855,1341
1078.667320573947,1350
1080.843008233051,1318
1083.0181125990161,1290
1085.1926339049414,1276
1087.3665723840027,1288
1089.5399282694575,1319
1091.7127017946405,1314
1093.8848931929647,1270
1096.0565026979243,1212
1098.2275305430899,1311
1100.3979769621128,1258
1102.567842188722,1305
1104.737126456726,1241
1106.9058300000124,1271
1109.0739530525475,1227
1111.2414958483764,1198
1113.4084586216231,1260
1115.5748416064907,1262
1117.7406450372605,1269
1119.9058691482942,1270
1122.0705141740304,1276
1124.2345803489884,1300
1126.3980679077658,1313
1128.5609770850388,1288
1130.7233081155623,1332
1132.8850612341707,1301
1135.0462366757774,1286
1137.2068346753745,1278
1139.3668554680326,1254
1141.526299288901,1274
1143.68516637321,1289
1145.8434569562655,1263
1148.001171273455,1192
1150.158309560244,1275
1152.3148720521767,1200
1154.470858984876,1221
1156.626270594044,1251
1158.7811071154629,1252
1160.9353687849912,1187
1163.089055838569,1213
1165.242168512213,1194
1167.3947070420209,1294
1169.5466716641677,1223
1171.6980626149075,1197
1173.8488801305748,1219
1175.9991244475814,1187
1178.1487958024186,1185
1180.2978944316555,1225
1182.4464205719428,1255
1184.5943744600072,1229
1186.7417563326567,1192
1188.8885664267755,1238
1191.0348049793297,1285
1193.1804722273619,1191
1195.325568407995,1185
1197.4700937584303,1228
1199.614048515948,1222
1201.7574329179074,1211
1203.900247201746,1188
1206.042491604982,1253
1208.1841663652099,1186
1210.3252717201053,1226
1212.465807907422,1212
1214.6057751649923,1225
1216.7451737307279,1172
1218.8840038426192,1232
1221.0222657387353,1210
1223.1599596572241,1228
1225.2970858363137,1230
1227.4336445143094,1235
1229.5696359295966,1214
1231.705060320639,1255
1233.8399179259786,1235
1235.9742089842384,1221
1238.107933734118,1274
1240.2410924143974,1221
1242.373685263935,1264
1244.5057125216676,1252
1246.6371744266116,1219
1248.7680712178621,1257
1250.898403134593,1176
1253.028170416058,1272
1255.1573733015875,1263
1257.2860120305932,1229
1259.4140868425648,1215
1261.54159797707,1208
1263.6685456737569,1237
1265.7949301723515,1257
1267.9207517126597,1193
1270.046010534565,1234
1272.1707068780306,1211
1274.2948409830983,1318
1276.4184130898889,1240
1278.541423438603,1268
1280.6638722695184,1231
1282.785759822993,1240
1284.9070863394636,1230
1287.0278520594447,1296
1289.1480572235314,1267
1291.2677020723963,1267
1293.3867868467923,1272
1295.5053117875495,1250
1297.623277135579,1279
1299.740683131868,1303
1301.8575300174857,1256
1303.973818033578,1288
1306.0895474213703,1291
1308.2047184221678,1206
1310.3193312773528,1251
1312.4333862283888,1257
1314.5468835168163,1258
1316.659823384255,1303
1318.7722060724045,1287
1320.8840318230418,1305
1322.9953008780249,1294
1325.1060134792888,1261
1327.2161698688478,1287
1329.3257702887959,1297
1331.4348149813054,1293
1333.5433041886276,1323
1335.6512381530933,1273
1337.7586171171101,1295
1339.8654413231675,1331
1341.9717110138317,1324
1344.0774264317488,1257
1346.1825878196432,1281
1348.2871954203192,1265
1350.3912494766587,1270
1352.4947502316231,1218
1354.5976979282532,1332
1356.7000928096686,1288
1358.8019351190665,1330
1360.9032250997243,1262
1363.0039629949988,1268
1365.1041490483235,1318
1367.2037835032133,1357
1369.3028666032606,1294
1371.401398592137,1251
1373.4993797135926,1275
1375.5968102114575,1331
1377.6936903296396,1315
1379.7900203121262,1351
1381.8858004029835,1340
1383.9810308463561,1300
1386.075711886469,1254
1388.1698437676241,1228
1390.2634267342032,1314
1392.356461030667,1292
1394.4489469015557,1306
1396.5408845914872,1284
1398.6322743451592,1270
1400.7231164073469,1304
1402.813411022907,1283
1404.903158436773,1288
1406.9923588939578,1258
1409.0810126395531,1318
1411.1691199187303,1337
1413.2566809767386,1322
1415.343696058907,1260
1417.4301654106425,1265
1419.5160892774315,1309
1421.6014679048399,1317
1423.6863015385125,1306
1425.7705904241707,1283
1427.8543348076178,1313
1429.9375349347342,1345
1432.0201910514802,1386
1434.102303403894,1396
1436.1838722380944,1375
1438.2648978002767,1366
1440.3453803367174,1356
1442.4253200937692,1345
1444.5047173178677,1369
1446.5835722555234,1382
1448.6618851533285,1396
1450.739656257952,1412
1452.8168858161434,1407
1454.8935740747306,1367
1456.96972128062,1435
1459.045327680797,1420
1461.120393522327,1385
1463.1949190523528,1411
1465.2689045180973,1478
1467.3423501668608,1427
1469.415256246024,1428
1471.4876230030463,1509
1473.559450685465,1543
1475.6307395408976,1513
1477.7014898170391,1508
1479.771701761665,1444
1481.8413756226287,1490
1483.9105116478618,1513
1485.9791100853772,1491
1488.0471711832643,1559
1490.1146951896926,1513
1492.1816823529098,1533
1494.2481329212433,1576
1496.3140471430984,1561
1498.3794252669609,1567
1500.4442675413939,1583
1502.5085742150404,1563
1504.572345536622,1585
1506.6355817549388,1581
1508.6982831188702,1629
1510.7604498773744,1620
1512.8220822794883,1655
1514.8831805743293,1555
1516.9437450110909,1612
1519.003775839048,1644
1521.0632733075522,1654
1523.1222376660367,1620
1525.1806691640113,1631
1527.2385680510652,1684
1529.2959345768668,1727
1531.3527689911643,1718
1533.4090715437833,1708
1535.4648424846291,1728
1537.5200820636855,1739
1539.5747905310159,1757
1541.6289681367616,1761
1543.6826151311434,1821
1545.7357317644614,1840
1547.7883182870937,1806
1549.8403749494987,1829
1551.8919020022113,1818
1553.9428996958477,1884
1555.9933682811015,1861
1558.0433080087469,1902
1560.0927191296346,1926
1562.1416018946961,1947
1564.1899565549415,1953
1566.2377833614592,1996
1568.2850825654164,2033
1570.3318544180606,1961
1572.3780991707158,1976
1574.423817074788,1929
1576.4690083817595,1859
1578.5136733431923,1877
1580.5578122107272,1838
1582.601425236085,1808
1584.6445126710646,1725
1586.6870747675434,1727
1588.7291117774776,1556
1590.7706239529034,1660
1592.8116115459347,1638
1594.8520748087658,1592
1596.8920139936686,1519
1598.9314293529933,1522
1600.9703211391711,1458
1603.008689604711,1429
1605.0465350022005,1453
1607.0838575843068,1445
1609.1206576037753,1414
1611.1569353134305,1410
1613.1926909661765,1417
1615.2279248149953,1395
1617.2626371129481,1339
1619.2968281131757,1362
1621.3304980688963,1354
1623.3636472334088,1345
1625.39627586009,1341
1627.428384202396,1343
1629.459972513861,1350
1631.4910410480993,1344
1633.5215900588028,1260
1635.551619799744,1328
1637.5811305247717,1273
1639.6101224878166,1303
1641.6385959428862,1249
1643.6665511440683,1349
1645.693988345528,1258
1647.7209078015112,1235
1649.7473097663405,1256
1651.7731944944203,1303
1653.7985622402307,1233
1655.823413258333,1244
1657.847747803366,1252
1659.8715661300494,1265
1661.8948684931793,1274
1663.9176551476316,1300
1665.9399263483624,1307
1667.9616823504057,1265
1669.982923408873,1281
1672.0036497789574,1314
1674.0238617159293,1333
1676.043559475138,1293
1678.0627433120121,1258
1680.081413482059,1268
1682.0995702408654,1299
1684.117213844096,1218
1686.134344547495,1240
1688.1509626068864,1308
1690.1670682781705,1244
1692.182661817329,1325
1694.1977434804217,1321
1696.2123135235875,1300
1698.226372203043,1222
1700.2399197750851,1316
1702.2529564960905,1261
1704.2654826225112,1313
1706.277498410882,1324
1708.2890041178139,1297
1710.2999999999988,1342
1712.3104863142066,1312
1714.3204633172854,1292
1716.329931266163,1326
1718.3388904178469,1332
1720.3473410294214,1273
1722.3552833580516,1301
1724.3627176609807,1268
1726.3696441955308,1237
1728.3760632191033,1302
1730.3819749891782,1281
1732.3873797633146,1295
1734.3922777991502,1285
1736.3966693544012,1264
1738.4005546868639,1243
1740.4039340544127,1282
1742.406807715001,1279
1744.4091759266616,1322
1746.4110389475054,1239
1748.4123970357223,1259
1750.413250449582,1259
1752.4135994474318,1294
1754.4134442876993,1285
1756.4127852288902,1283
1758.4116225295893,1238
1760.4099564484595,1262
1762.407787244244,1234
1764.405115175764,1286
1766.4019405019203,1273
1768.3982634816916,1227
1770.3940843741357,1262
1772.3894034383907,1250
1774.3842209336717,1288
1776.378537119274,1249
1778.372352254571,1215
1780.3656665990156,1241
1782.3584804121397,1238
1784.3507939535534,1280
1786.3426074829463,1229
1788.3339212600863,1230
1790.3247355448211,1284
1792.3150505970766,1281
1794.3048666768573,1280
1796.2941840442477,1299
1798.2830029594106,1265
1800.2713236825884,1276
1802.2591464741004,1254
1804.2464715943465,1250
1806.2332993038058,1285
1808.2196298630352,1215
1810.2054635326708,1259
1812.190800573428,1250
1814.175641246101,1260
1816.1599858115628,1234
1818.1438345307652,1272
1820.127187664738,1262
1822.1100454745924,1235
1824.092408221516,1244
1826.0742761667766,1278
1828.055649571721,1214
1830.0365286977735,1256
1832.0169138064398,1250
1833.9968051593014,1275
1835.9762030180214,1238
1837.9551076443408,1236
1839.9335193000788,1264
1841.9114382471344,1292
1843.888864747485,1245
1845.8657990631878,1314
1847.842241456378,1275
1849.8181921892697,1251
1851.7936515241558,1237
1853.7686197234098,1211
1855.7430970494815,1198
1857.7170837649014,1241
1859.6905801322787,1218
1861.6635864143004,1282
1863.6361028737338,1227
1865.608129773424,1307
1867.5796673762961,1247
1869.5507159453537,1209
1871.521275743678,1300
1873.4913470344313,1263
1875.4609300808534,1213
1877.4300251462632,1240
1879.3986324940588,1226
1881.366752387717,1286
1883.3343850907936,1243
1885.3015308669228,1303
1887.268189979819,1284
1889.2343626932739,1245
1891.2000492711595,1289
1893.1652499774254,1269
1895.1299650761011,1231
1897.0941948312952,1243
1899.0579395071945,1270
1901.0211993680641,1278
1902.98397467825,1309
1904.9462657021745,1320
1906.9080727043415,1283
1908.869395949332,1257
1910.8302357018065,1296
1912.790592226504,1282
1914.7504657882428,1255
1916.7098566519212,1297
1918.6687650825133,1310
1920.6271913450764,1302
1922.5851357047422,1238
1924.5425984267245,1264
1926.499579776314,1232
1928.4560800188833,1252
1930.4120994198802,1235
1932.367638244833,1285
1934.32269675935,1269
1936.2772752291175,1246
1938.231373919899,1203
1940.1849930975404,1287
1942.1381330279637,1210
1944.0907939771696,1194
1946.0429762112412,1281
1947.9946799963363,1315
1949.9459055986945,1278
1951.896653284633,1218
1953.8469233205478,1306
1955.7967159729142,1231
1957.7460315082863,1271
1959.6948701932974,1232
1961.6432322946594,1240
1963.5911180791632,1254
1965.5385278136787,1203
1967.4854617651545,1258
1969.4319202006182,1259
1971.377903387176,1241
1973.3234115920136,1199
1975.268445082395,1207
1977.2130041256642,1219
1979.1570889892423,1239
1981.1006999406304,1237
1983.04383724741,1207
1984.986501177238,1206
1986.928691997853,1300
1988.8704099770712,1284
1990.811655382789,1267
1992.7524284829801,1198
1994.692729545698,1202
1996.6325588390755,1187
1998.5719166313224,1245
2000.5108031907307,1203
2002.4492187856677,1189
2004.387163684583,1249
2006.3246381560011,1269
2008.2616424685298,1236
2010.1981768908527,1181
2012.1342416917332,1215
2014.069837140014,1248
2016.0049635046162,1259
2017.9396210545406,1247
2019.8738100588666,1188
2021.8075307867502,1248
2023.740783507431,1232
2025.6735684902228,1258
2027.6058860045214,1193
2029.5377363198004,1244
2031.4691197056118,1207
2033.4000364315875,1226
2035.3304867674374,1247
2037.260470982952,1261
2039.189989347998,1261
2041.1190421325232,1220
2043.047629606554,1202
2044.9757520401945,1227
2046.9034097036288,1266
2048.8306028671195,1288
2050.7573318010086,1221
2052.683596775716,1236
2054.609398061742,1240
2056.5347359296647,1261
2058.4596106501403,1234
2060.384022493906,1173
2062.3079717317764,1221
2064.231458634646,1243
2066.1544834734873,1201
2068.077046519352,1233
2069.99914804337,1240
2071.9207883167524,1241
2073.8419676107865,1227
2075.7626861968406,1208
2077.6829443463607,1271
2079.6027423308715,1230
2081.522080421977,1195
2083.440958891362,1222
2085.359378010786,1200
2087.2773380520907,1197
2089.194839287196,1231
2091.111881988101,1189
2093.0284664268825,1194
2094.9445928756973,1199
2096.86026160678,1214
2098.775472892446,1264
2100.690227005088,1226
2102.604524217178,1229
2104.5183648012676,1248
2106.431749029985,1228
2108.34467717604,1223
2110.2571495122206,1280
2112.169166311393,1209
2114.080727846503,1219
2115.9918343905747,1219
2117.902486216711,1223
2119.8126835980956,1221
2121.722426807987,1256
2123.6317161197285,1205
2125.5405518067364,1240
2127.448934142509,1180
2129.356863400624,1216
2131.264339854737,1235
2133.1713637785815,1198
2135.077935445972,1252
2136.9840551308002,1249
2138.889723107037,1225
2140.7949396487334,1229
2142.699705030018,1241
2144.6040195250994,1190
2146.507883408264,1236
2148.4112969538774,1168
2150.3142604363848,1247
2152.2167741303097,1227
2154.1188383102535,1224
2156.0204532508997,1211
2157.9216192270064,1201
2159.822336513414,1214
2161.7226053850413,1180
2163.622426116884,1211
2165.5217989840185,1221
2167.4207242616,1245
2169.319202224862,1249
2171.2172331491165,1179
2173.1148173097563,1266
2175.0119549822507,1218
2176.90864644215,1238
2178.8048919650823,1238
2180.7006918267534,1223
2182.596046302952,1163
2184.4909556695407,1227
2186.3854202024645,1213
2188.279440177746,1257
2190.173015871487,1274
2192.066147559868,1275
2193.958835519149,1261
2195.851080025667,1276
2197.7428813558417,1250
2199.6342397861667,1203
2201.5251555932186,1198
2203.415629053651,1278
2205.3056604441986,1272
2207.19525004167,1199
2209.084398122958,1224
2210.9731049650327,1228
2212.861370844941,1241
2214.749196039812,1224
2216.636580826851,1265
2218.523525483344,1236
2220.410030286655,1270
2222.296095514226,1300
2224.1817214435805,1263
2226.066908352319,1266
2227.951656518121,1278
2229.835966218746,1271
2231.71983773203,1284
2233.6032713358913,1319
2235.486267308324,1250
2237.3688259274036,1301
2239.2509474712824,1284
2241.132632218193,1243
2243.013880446447,1299
2244.8946924344323,1274
2246.7750684606203,1289
2248.6550088035574,1289
2250.534513741871,1238
2252.413583554265,1259
2254.292218519526,1301
2256.170418916517,1278
2258.0481850241786,1279
2259.925517121534,1226
2261.8024154876825,1223
2263.678880401803,1284
2265.5549121431536,1260
2267.430510991071,1243
2269.305677224971,1253
2271.180411124348,1287
2273.0547129687766,1289
2274.9285830379076,1221
2276.8020216114737,1236
2278.6750289692845,1255
2280.5476053912294,1259
2282.4197511572766,1302
2284.2914665474727,1266
2286.162751841943,1313
2288.0336073208937,1278
2289.904033264608,1304
2291.774029953448,1300
2293.6435976678554,1296
2295.5127366883517,1272
2297.381447295534,1254
2299.2497297700825,1205
2301.1175843927526,1247
2302.9850114443825,1220
2304.852011205885,1200
2306.7185839582553,1198
2308.5847299825664,1194
2310.4504495599676,1196
2312.3157429716925,1172
2314.1806104990483,1157
2316.0450524234247,1171
2317.9090690262888,1162
2319.772660589186,1126
2321.635827393742,1133
2323.498569721661,1156
2325.3608878547248,1082
2327.2227820747967,1139
2329.0842526638157,1116
2330.945299903803,1116
2332.805924076857,1151
2334.6661254651535,1184
2336.525904350951,1116
2338.3852610165827,1146
2340.244195744464,1140
2342.102708817088,1122
2343.9608005170253,1097
2345.8184711269287,1123
2347.675720929526,1159
2349.532550207628,1154
2351.38895924412,1103
2353.24494832197,1109
2355.100517724223,1110
2356.955667734004,1135
2358.810398634514,1119
2360.664710709037,1104
2362.5186042409337,1129
2364.3720795136437,1181
2366.225136810686,1128
2368.0777764156583,1167
2369.929998612237,1110
2371.7818036841777,1185
2373.633191915315,1175
2375.484163589562,1170
2377.3347189909114,1140
2379.184858403434,1157
2381.03458211128,1162
2382.8838903986775,1143
2384.732783549936,1151
2386.5812618494406,1146
2388.4293255816588,1167
2390.2769750311327,1108
2392.1242104824883,1116
2393.971032220427,1158
2395.8174405297295,1125
2397.6634356952563,1137
2399.509018001947,1122
2401.3541877348193,1183
2403.1989451789705,1182
2405.043290619576,1197
2406.8872243418905,1154
2408.730746631247,1146
2410.5738577730594,1174
2412.4165580528183,1114
2414.258847756095,1131
2416.100727168537,1196
2417.9421965758734,1133
2419.783256263912,1167
2421.623906518538,1156
2423.4641476257157,1159
2425.303979871491,1101
2427.143403541984,1180
2428.9824189233977,1192
2430.821026302012,1159
2432.6592259641866,1191
2434.497018196361,1248
2436.33440328505,1170
2438.171381516851,1158
2440.00795317844,1150
2441.844118556569,1116
2443.6798779380724,1150
2445.5152316098606,1175
2447.3501798589255,1196
2449.1847229723357,1233
2451.0188612372403,1190
2452.8525949408663,1155
2454.6859243705203,1224
2456.518849813587,1146
2458.3513715575314,1137
2460.183489889895,1226
2462.015205098301,1196
2463.8465174704493,1200
2465.67742729412,1188
2467.5079348571717,1173
2469.338040447542,1162
2471.1677443532476,1152
2472.9970468623833,1137
2474.825948263123,1130
2476.6544488437207,1144
2478.482548892508,1131
2480.310248697896,1190
2482.137548548374,1132
2483.9644487325118,1164
2485.790949538956,1116
2487.617051256433,1186
2489.44275417375,1121
2491.26805857979,1193
2493.0929647635157,1179
2494.917473013971,1187
2496.741583620276,1159
2498.5652968716304,1139
2500.3886130573137,1121
2502.2115324666834,1148
2504.0340553891765,1183
2505.856182114308,1130
2507.6779129316733,1206
2509.499248130945,1228
2511.3201880018764,1154
2513.140732834298,1142
2514.9608829181198,1129
2516.780638543331,1172
2518.6,1157
2520.418967578273,1152
2522.237541568376,1135
2524.0557222606144,1150
2525.8735099453706,1185
2527.6909049131086,1164
2529.507907454368,1139
2531.32451785977,1228
2533.140736420014,1189
2534.9565634258774,1199
2536.771999168218,1155
2538.5870439379714,1179
2540.4016980261526,1218
2542.2159617238544,1184
2544.02983532225,1210
2545.8433191125914,1211
2547.656413386209,1222
2549.4691184345115,1174
2551.2814345489874,1232
2553.093362021204,1198
2554.904901142808,1203
2556.716052205523,1256
2558.526815501153,1229
2560.3371913215824,1244
2562.147179958771,1195
2563.956781704761,1263
2565.7659968516705,1272
2567.5748256916986,1224
2569.3832685171224,1251
2571.1913256202984,1226
2572.9989972936614,1251
2574.806283829725,1219
2576.613185521084,1300
2578.4197026604074,1278
2580.2258355404483,1252
2582.031584454035,1300
2583.836949694077,1228
2585.6419315535613,1223
2587.4465303255533,1235
2589.2507463032002,1301
2591.0545797797245,1269
2592.8580310484303,1246
2594.6611004026995,1201
2596.463788135992,1194
2598.266094541849,1286
2600.0680199138874,1298
2601.869564545807,1280
2603.670728731383,1278
2605.4715127644704,1287
2607.2719169390048,1297
2609.071941548998,1300
2610.8715868885433,1275
2612.670853251811,1306
2614.469740933052,1274
2616.268250226594,1291
2618.0663814268455,1203
2619.864134828292,1294
2621.6615107255006,1292
2623.458509413115,1272
2625.2551311858597,1271
2627.0513763385347,1300
2628.8472451660223,1237
2630.6427379632833,1236
2632.4378550253564,1224
2634.232596647359,1217
2636.026963124488,1240
2637.8209547520187,1235
2639.6145718253065,1245
2641.407814639785,1256
2643.200683490966,1288
2644.9931786744414,1276
2646.7853004858807,1239
2648.577049221034,1220
2650.3684251757277,1201
2652.1594286458712,1189
2653.9500599274484,1203
2655.740319316525,1202
2657.5302071092437,1168
2659.3197236018286,1246
2661.10886909058,1204
2662.8976438718782,1229
2664.686048242183,1212
2666.4740824980327,1189
2668.2617469360443,1170
2670.0490418529134,1204
2671.8359675454153,1156
2673.622524310403,1186
2675.408712444811,1156
2677.1945322456495,1195
2678.979984010009,1174
2680.76506803506,1207
2682.5497846180497,1150
2684.334134056306,1145
2686.1181166472343,1193
2687.9017326883213,1203
2689.6849824771293,1126
2691.4678663113013,1179
2693.2503844885596,1153
2695.032537306705,1216
2696.8143250636167,1180
2698.5957480572542,1133
2700.3768065856534,1133
2702.1575009469316,1149
2703.937831439283,1185
2705.717798360982,1144
2707.4974020103837,1170
2709.276642685917,1190
2711.055520686095,1182
2712.834036309506,1142
2714.612189854819,1157
2716.389981620782,1110
2718.1674119062204,1171
2719.944481010041,1090
2721.721189231226,1123
2723.4975368688415,1108
2725.273524222027,1088
2727.0491515900053,1119
2728.824419272075,1167
2730.5993275676146,1097
2732.3738767760838,1132
2734.148067197016,1145
2735.921899130031,1122
2737.6953728748194,1148
2739.468488731156,1090
2741.2412469988926,1138
2743.0136479779617,1103
2744.785691968372,1120
2746.5573792702116,1152
2748.3287101836504,1141
2750.099685008934,1085
2751.870304046388,1170
2753.640567596418,1124
2755.4104759595057,1113
2757.1800294362156,1140
2758.949228327187,1120
2760.7180729331412,1113
2762.486563554877,1129
2764.254700493272,1101
2766.022484049284,1131
2767.789914523947,1165
2769.5569922183786,1117
2771.3237174337705,1147
2773.090090471394,1144
2774.8561116326036,1094
2776.6217812188274,1128
2778.3870995315756,1120
2780.1520668724356,1113
2781.9166835430747,1188
2783.6809498452394,1150
2785.444866080754,1144
2787.2084325515225,1093
2788.971649559527,1084
2790.73451740683,1139
2792.4970363955713,1152
2794.2592068279705,1085
2796.0210290063264,1090
2797.7825032330147,1145
2799.543629810493,1136
2801.304409041296,1100
2803.0648412280366,1177
2804.8249266734088,1144
2806.5846656801846,1171
2808.344058551212,1136
2810.1031055894246,1175
2811.8618070978273,1140
2813.6201633795085,1123
2815.378174737636,1152
2817.1358414754536,1146
2818.893163896285,1089
2820.6501423035334,1101
2822.4067770006814,1144
2824.1630682912883,1166
2825.9190164789957,1137
2827.6746218675207,1138
2829.429884760661,1101
2831.184805462294,1096
2832.9393842763743,1147
2834.693621506936,1111
2836.4475174580916,1097
2838.201072434034,1165
2839.954286739034,1153
2841.707160677441,1140
2843.459694553685,1064
2845.2118886722724,1123
2846.96374333779,1105
2848.7152588549034,1142
2850.4664355283567,1076
2852.217273662973,1107
2853.9677735636546,1132
2855.7179355353833,1169
2857.4677598832186,1101
2859.217246912299,1142
2860.9663969278427,1102
2862.715210235146,1104
2864.4636871395846,1134
2866.211827946614,1156
2867.9596329617652,1136
2869.7071024906536,1132
2871.4542368389684,1113
2873.20103631248,1104
2874.947501217038,1139
2876.6936318585695,1122
2878.4394285430812,1084
2880.1848915766604,1167
2881.9300212654707,1129
2883.6748179157553,1157
2885.4192818338374,1128
2887.1634133261173,1129
2888.907212699077,1121
2890.6506802592744,1192
2892.393816313348,1130
2894.1366211680142,1197
2895.8790951300693,1182
2897.621238506388,1166
2899.363051603925,1101
2901.1045347297118,1129
2902.8456881908596,1169
2904.58651229456,1162
2906.327007348081,1102
2908.067173658772,1131
2909.8070115340597,1093
2911.5465212814497,1129
2913.285703208527,1137
2915.0245576229563,1059
2916.7630848324807,1124
2918.5012851449196,1136
2920.2391588681758,1151
2921.976706310227,1148
2923.7139277791334,1102
2925.4508235830313,1158
2927.187394030137,1087
2928.923639428745,1175
2930.6595600872306,1134
2932.395156314046,1111
2934.1304284177218,1140
2935.8653767068713,1121
2937.6000014901815,1169
2939.3343030764227,1114
2941.068281774442,1150
2942.8019378931644,1163
2944.5352717415976,1159
2946.2682836288236,1125
2948.0009738640065,1150
2949.7333427563885,1169
2951.465390615289,1156
2953.1971177501086,1158
2954.9285244703265,1065
2956.6596110855,1180
2958.3903779052657,1167
2960.1208252393385,1183
2961.8509533975125,1157
2963.5807626896617,1086
2965.3102534257378,1087
2967.0394259157715,1061
2968.768280469873,1138
2970.496817398232,1176
2972.2250370111146,1212
2973.952939618869,1141
2975.6805255319196,1146
2977.4077950607707,1162
2979.134748516006,1185
2980.861386208289,1155
2982.587708448359,1140
2984.313715547037,1147
2986.039407815222,1128
2987.764785563891,1117
2989.489849104102,1125
2991.2145987469908,1133
2992.9390348037705,1103
2994.6631575857346,1129
2996.3869674042576,1141
2998.1104645707887,1087
2999.83364939686,1095
3001.5565221940783,1086
3003.2790832741334,1143
3005.0013329487924,1179
3006.7232715298996,1099
3008.4448993293804,1112
3010.166216659239,1096
3011.887223831558,1085
3013.607921158498,1077
3015.3283089522993,1090
3017.0483875252826,1126
3018.7681571898443,1140
3020.4876182584626,1044
3022.2067710436927,1104
3023.9256158581707,1098
3025.644153014609,1086
3027.362382825801,1075
3029.0803056046193,1133
3030.797921664012,1117
3032.5152313170106,1105
3034.2322348767225,1133
3035.9489326563353,1118
3037.665324969115,1129
3039.3814121284063,1117
3041.097194447633,1108
3042.812672240299,1137
3044.5278458199855,1092
3046.2427155003525,1108
3047.9572815951406,1087
3049.671544418167,1095
3051.38550428333,1102
3053.0991615046073,1122
3054.812516396051,1111
3056.5255692717974,1087
3058.2383204460575,1155
3059.9507702331257,1112
3061.662918947372,1137
3063.3747669032446,1095
3065.0863144152736,1114
3066.7975617980674,1103
3068.508509366309,1146
3070.219157434767,1158
3071.9295063182844,1117
3073.639556331785,1069
3075.3493077902704,1113
3077.058761008821,1139
3078.7679163025964,1095
3080.476773986837,1121
3082.1853343768594,1128
3083.89359778806,1094
3085.6015645359153,1109
3087.3092349359786,1148
3089.016609303884,1115
3090.7236879553434,1117
3092.4304712061476,1098
3094.136959372166,1135
3095.843152769349,1095
3097.5490517137237,1111
3099.2546565213966,1113
3100.959967508554,1158
3102.66498499146,1159
3104.3697092864577,1132
3106.0741407099695,1075
3107.778279578498,1085
3109.482126208622,1095
3111.1856809170004,1119
3112.8889440203716,1121
3114.5919158355528,1096
3116.294596679439,1132
3117.996986869006,1103
3119.6990867213062,1113
3121.4008965534726,1128
3123.102416682717,1068
3124.803647426329,1121
3126.5045891016784,1131
3128.205242026213,1158
3129.90560651746,1121
3131.605682893025,1143
3133.3054714705922,1157
3135.0049725679282,1122
3136.7041865028714,1131
3138.4031135933465,1111
3140.101754157353,1142
3141.800108512971,1102
3143.498176978357,1131
3145.1959598717494,1128
3146.8934575114636,1104
3148.5906702158954,1100
3150.2875983035183,1108
3151.9842420928853,1102
3153.680601902627,1122
3155.376678051456,1044
3157.07247085816,1068
3158.767980641609,1129
3160.463207720748,1127
3162.158152414606,1130
3163.8528150422862,1115
3165.5471959229726,1105
3167.2412953759303,1165
3168.9351137204976,1083
3170.628651276098,1133
3172.3219083622307,1142
3174.014885298474,1112
3175.707582404485,1114
3177.4000000000005,1186
3179.092138404835,1135
3180.7839979388846,1118
3182.47557892212,1105
3184.166881674594,1091
3185.8579065164386,1091
3187.5486537678626,1146
3189.2391237491547,1101
3190.9293167806827,1119
3192.6192331828934,1118
3194.3088732763117,1115
3195.998237381542,1095
3197.687325819268,1097
3199.376138910251,1114
3201.064676975334,1102
3202.7529403354347,1112
3204.4409293115523,1098
3206.1286442247647,1104
3207.816085396229,1115
3209.5032531471825,1102
3211.190147798936,1074
3212.8767696728846,1068
3214.5631190905015,1077
3216.2491963733373,1093
3217.9350018430214,1084
3219.6205358212637,1135
3221.305798629851,1114
3222.990790590651,1046
3224.6755120256103,1101
3226.359963256751,1088
3228.0441446061795,1097
3229.7280563960758,1118
3231.411698948703,1097
3233.0950725863995,1115
3234.778177631587,1085
3236.461014406761,1137
3238.1435832345005,1154
3239.8258844374595,1114
3241.507918338374,1077
3243.1896852600576,1118
3244.8711855254023,1079
3246.552419457381,1120
3248.233387379042,1081
3249.914089613516,1104
3251.59452648401,1169
3253.274698313813,1131
3254.95460542629,1118
3256.6342481448855,1116
3258.313626793125,1082
3259.9927416946084,1085
3261.6715931730196,1111
3263.3501815521176,1086
3265.0285071557437,1106
3266.706570307815,1075
3268.3843713323286,1088
3270.0619105533615,1106
3271.739188295068,1100
3273.4162048816834,1106
3275.0929606375184,1151
3276.769455886966,1118
3278.445690954498,1106
3280.1216661646613,1128
3281.797381842087,1134
3283.4728383114807,1139
3285.1480358976296,1073
3286.8229749253996,1052
3288.4976557197333,1071
3290.172078605655,1078
3291.846243908266,1089
3293.5201519527463,1065
3295.193803064357,1069
3296.8671975684374,1088
3298.5403357904024,1111
3300.21321805575,1121
3301.8858446900567,1121
3303.558216018975,1109
3305.23033236824,1091
3306.9021940636603,1098
3308.57380143113,1119
3310.2451547966184,1084
3311.916254486174,1088
3313.5871008259246,1100
3315.2576941420766,1097
3316.9280347609147,1111
3318.5981230088046,1061
3320.2679592121895,1087
3321.9375436975924,1114
3323.606876791612,1129
3325.27595882093,1096
3326.944790112305,1099
3328.6133709925753,1108
3330.2817017886573,1142
3331.949782827547,1111
3333.617614436319,1077
3335.2851969421245,1082
3336.952530672199,1114
3338.619615953853,1146
3340.286453114475,1107
3341.9530424815357,1091
3343.619384382583,1122
3345.2854791452437,1089
3346.951327097224,1115
3348.6169285663073,1141
3350.2822838803577,1131
3351.947393367319,1103
3353.61225735521,1113
3355.2768761721345,1111
3356.9412501462693,1091
3358.605379605873,1110
3360.2692648792827,1158
3361.9329062949146,1138
3363.596304181263,1049
