CollectionTime,7/3/2024 2:23:59 PM
ExposureUsed,3
CalibratedSpectrum
-962.7078968117929,531
-959.9714848408522,570
-957.2358232597828,596
-954.5009119013725,550
-951.7667505983302,570
-949.0333391832855,578
-946.3006774887896,563
-943.5687653473143,569
-940.837602591253,560
-938.1071890529199,579
-935.3775245645503,569
-932.6486089583007,580
-929.9204420662485,622
-927.1930237203925,568
-924.4663537526524,563
-921.7404319948689,588
-919.0152582788041,595
-916.2908324361409,672
-913.5671542984834,652
-910.8442236973568,618
-908.1220404642074,590
-905.4006044304027,626
-902.679915427231,638
-899.959973285902,659
-897.2407778375464,630
-894.5223289132158,636
-891.8046263438832,625
-889.0876699604426,600
-886.3714595937089,637
-883.6559950744183,621
-880.9412762332282,605
-878.2273029007168,587
-875.5140749073835,535
-872.8015920836489,586
-870.0898542598545,618
-867.3788612662631,601
-864.6686129330585,567
-861.9591090903457,595
-859.2503495681506,594
-856.5423341964203,558
-853.8350628050229,571
-851.1285352237478,586
-848.4227512823054,603
-845.7177108103272,607
-843.0134136373656,630
-840.3098595928943,561
-837.6070485063082,582
-834.9049802069229,594
-832.2036545239757,606
-829.5030712866244,565
-826.8032303239481,615
-824.1041314649472,614
-821.4057745385428,624
-818.7081593735775,584
-816.0112857988148,582
-813.3151536429393,577
-810.6197627345566,612
-807.9251129021936,588
-805.2312039742981,590
-802.5380357792392,545
-799.8456081453069,579
-797.1539209007124,599
-794.462973873588,634
-791.772766891987,621
-789.083299783884,605
-786.3945723771743,570
-783.7065844996748,598
-781.0193359791231,590
-778.3328266431781,560
-775.6470563194197,580
-772.9620248353489,599
-770.2777320183878,591
-767.5941776958798,578
-764.9113616950891,586
-762.2292838432011,621
-759.5479439673222,594
-756.8673418944801,570
-754.1874774516235,586
-751.5083504656222,601
-748.8299607632671,600
-746.15230817127,603
-743.475392516264,644
-740.7992136248035,641
-738.1237713233636,652
-735.4490654383407,631
-732.7750957960521,658
-730.1018622227365,635
-727.4293645445534,609
-724.7576025875837,603
-722.0865761778291,610
-719.4162851412126,591
-716.7467293035781,635
-714.0779084906909,637
-711.409822528237,659
-708.7424712418238,654
-706.0758544569796,584
-703.4099719991541,620
-700.7448236937178,660
-698.0804093659622,628
-695.4167288411002,647
-692.7537819442656,629
-690.0915685005134,628
-687.4300883348199,614
-684.7693412720819,629
-682.1093271371178,688
-679.4500457546669,636
-676.7914969493897,624
-674.1336805458676,642
-671.4765963686034,640
-668.8202442420206,628
-666.1646239904642,620
-663.5097354382001,646
-660.8555784094151,644
-658.2021527282176,656
-655.5494582186366,646
-652.8974947046223,711
-650.2462620100463,759
-647.5957599587009,699
-644.9459883742998,684
-642.2969470804776,674
-639.6486359007902,683
-637.0010546587141,671
-634.3542031776476,669
-631.7080812809096,658
-629.0626887917401,696
-626.4180255333008,646
-623.7740913286734,643
-621.1308860008619,700
-618.4884093727904,728
-615.8466612673046,687
-613.2056415071715,679
-610.5653499150785,722
-607.9257863136347,741
-605.28695052537,718
-602.6488423727357,746
-600.0114616781036,740
-597.3748082637674,743
-594.7388819519412,756
-592.1036825647604,737
-589.4692099242818,829
-586.8354638524829,809
-584.2024441712624,820
-581.5701507024403,807
-578.9385832677575,776
-576.3077416888759,784
-573.6776257873787,741
-571.0482353847704,745
-568.4195703024757,751
-565.7916303618415,716
-563.164415384135,690
-560.5379251905453,704
-557.9121596021815,718
-555.2871184400748,715
-552.6628015251767,752
-550.0392086783606,765
-547.4163397204204,751
-544.794194472071,768
-542.1727727539491,773
-539.5520743866118,795
-536.9320991905377,807
-534.3128469861261,834
-531.6943175936979,877
-529.0765108334947,846
-526.4594265256793,892
-523.8430644903358,892
-521.2274245474689,1036
-518.612506517005,1122
-515.9983102187913,1104
-513.3848354725959,1119
-510.77208209810846,1128
-508.16004991493924,1170
-505.5487387426199,1321
-502.9381484006032,1396
-500.3282787082628,1461
-497.71912948489364,1497
-495.1107005497117,1602
-492.5029917218539,1551
-489.8960028203786,1441
-487.28973366426493,1339
-484.68418407241325,1278
-482.07935386364494,1180
-479.47524285670266,1043
-476.87185087025,1003
-474.2691777228715,994
-471.66722323307334,945
-469.0659872192821,946
-466.4654694998459,994
-463.86566989303384,998
-461.26658821703614,919
-458.66822428996414,978
-456.07057792985,940
-453.4736489546475,986
-450.877437182231,966
-448.28194243039627,952
-445.68716451686,912
-443.09310325926003,877
-440.49975847515555,921
-437.9071299820263,887
-435.31521759727354,956
-432.72402113821954,952
-430.13354042210767,946
-427.5437752661022,939
-424.95472548728867,937
-422.36639090267386,992
-419.7787713291855,1070
-417.1918665836721,1010
-414.60567648290385,994
-412.0202008435715,1007
-409.4354394822874,1039
-406.8513922155845,1016
-404.26805885991723,1061
-401.685439231661,1052
-399.103533147112,1037
-396.522340422488,1030
-393.9418608739278,1088
-391.3620943174908,1071
-388.7830405691583,1002
-386.2046994448317,943
-383.6270707603344,908
-381.05015433141045,901
-378.473949973725,836
-375.8984575028645,847
-373.32367673433623,808
-370.74960748356875,796
-368.1762495659117,812
-365.60360279663576,734
-363.03166699093265,671
-360.4604419639154,639
-357.8899275306178,648
-355.32012350599507,628
-352.7510297049233,571
-350.1826459421999,562
-347.61497203254316,562
-345.04800779059235,558
-342.4817530309082,554
-339.91620756797226,641
-337.35137121618743,639
-334.7872437898774,678
-332.22382510328725,706
-329.66111497058273,654
-327.09911320585127,599
-324.53781962310075,674
-321.9772340362607,654
-319.4173562591816,539
-316.8581861056348,555
-314.2997233893127,569
-311.7419679238294,549
-309.1849195227194,571
-306.62857799943856,593
-304.0729431673641,681
-301.51801483979375,710
-298.963792829947,733
-296.41027695096386,651
-293.85746701590574,642
-291.3053628377552,697
-288.7539642294155,762
-286.2032710037115,750
-283.65328297338897,718
-281.1039999511146,815
-278.5554217494762,726
-276.007548180983,864
-273.4603790580651,772
-270.9139141930734,709
-268.3681533982807,713
-265.8230964858798,800
-263.27874326798565,843
-260.7350935566336,778
-258.1921471637804,759
-255.6499039013039,767
-253.10836358100266,827
-250.56752601459698,808
-248.02739101372765,805
-245.48795838995704,854
-242.94922795476816,806
-240.41119951956557,824
-237.8738728956746,887
-235.33724789434166,1000
-232.80132432673452,854
-230.2661020039418,767
-227.73158073697357,771
-225.19776033676033,894
-222.66464061415422,938
-220.1322213799284,827
-217.60050244477725,837
-215.06948361931552,822
-212.53916471408013,1022
-210.00954553952818,1076
-207.48062590603843,892
-204.9524056239104,867
-202.4248845033651,927
-199.8980623545441,1030
-197.37193898751036,1017
-194.84651421224817,1047
-192.32178783866232,934
-189.79775967657952,915
-187.27442953574644,1093
-184.7517972258321,1116
-182.2298625564256,994
-179.7086253370378,937
-177.18808537710026,1053
-174.66824248596583,1309
-172.14909647290835,1489
-169.6306471471229,1373
-167.11289431772548,1275
-164.59583779375328,1111
-162.07947738416453,1198
-159.5638128978386,1392
-157.04884414357605,1578
-154.53457093009854,1446
-152.02099306604828,1330
-149.50811035998936,1096
-146.99592262040665,1178
-144.48442965570587,1465
-141.97363127421409,1728
-139.46352728417958,1684
-136.95411749377126,1659
-134.44540171107985,1530
-131.93737974411636,1384
-129.43005140081357,1477
-126.92341648902493,1628
-124.41747481652521,2186
-121.91222619101006,1942
-119.40767042009657,2018
-116.90380731132257,1964
-114.40063667214702,1867
-111.8981583099503,1768
-109.3963720320337,1813
-106.89527764561933,2970
-104.39487495785067,3764
-101.89516377579241,4010
-99.39614390642998,4996
-96.89781515667039,4580
-94.40017733334128,4803
-91.90323024319173,3733
-89.40697369289148,3525
-86.91140748903172,3092
-84.41653143812482,2811
-81.92234534660395,3198
-79.42884902082358,4709
-76.93604226705907,6431
-74.4439248915071,8710
-71.95249670028534,10224
-69.46175749943245,12404
-66.97170709490854,14772
-64.48234529259423,20362
-61.99367189829195,26511
-59.50568671772464,29333
-57.01838955653636,31409
-54.53178022029283,26819
-52.045858514480074,20722
-49.560624244506016,20670
-47.07607721569923,21662
-44.59221723330904,22352
-42.10904410250669,24691
-39.62655762838392,27775
-37.14475761595372,27086
-34.66364387015028,24479
-32.18321619582866,27834
-29.70347439776515,29724
-27.224418280657005,32519
-24.74604764912317,35280
-22.26836230770266,41092
-19.7913620608565,61092
-17.315046712966478,65038
-14.83941606833514,65038
-12.36446993118659,65038
-9.89020810566592,65038
-7.416630395839093,65038
-4.94373660569363,65038
-2.471526539137585,65038
-6.821210263296962E-13,65038
2.47084320796705,65038
4.941003281093458,65038
7.410480415786196,65038
9.879274808531363,65038
12.347386655893956,65038
14.814816154518212,65038
17.28156350112681,65038
19.74762889252179,65038
22.21301252558385,65038
24.67771459727237,23979
27.141735304626195,5980
29.605074844762612,4107
32.06773341487792,2896
34.52971121224755,2584
36.99100843422559,3003
39.45162527824516,3472
41.91156194181792,3548
44.370818622535126,3377
46.82939551806646,3245
49.287292826160524,3463
51.74451074464503,3654
54.201049471426245,3643
56.65690920448981,3006
59.112090141899785,2513
61.56659248179983,2586
64.02041642241159,2287
66.4735621620365,1950
68.92602989905402,1610
71.37781983192338,1827
73.82893215918205,1782
76.27936707944684,1471
78.72912479141326,1651
81.17820549385567,2223
83.62660938562783,2565
86.07433666566146,2468
88.5213875329681,2036
90.96776218663751,1637
93.41346082583925,1544
95.85848364982041,1724
98.30283085790859,1996
100.7465026495089,1892
103.18949922410604,1992
105.63182078126385,1914
108.07346752062438,1770
110.51443964190923,1666
112.95473734491827,1564
115.39436082953114,1687
117.83331029570547,1546
120.27158594347827,1639
122.7091879729652,1935
125.1461165843615,1747
127.58237197794062,1481
130.01795435405518,1589
132.4528639131364,1570
134.88710085569494,1351
137.32066538231982,1358
139.75355769367923,1446
142.1857779905207,1332
144.61732647366978,1202
147.04820334403132,1143
149.47840880258934,1282
151.90794305040674,1246
154.33680628862487,1332
156.76499871846443,1463
159.19252054122433,1563
161.61937195828352,1769
164.04555317109896,1890
166.47106438120693,2000
168.89590579022217,2158
171.320077599839,2179
173.7435800118302,2357
176.16641322804742,2450
178.58857745042144,2529
181.01007288096173,2650
183.43089972175687,2756
185.85105817497413,2734
188.27054844285988,2574
190.6893707277394,2505
193.10752523201643,2473
195.5250121581745,2582
197.9418317087751,2641
200.3579840864594,2680
202.7734694939469,2679
205.18828813403627,2903
207.6024402096051,2930
210.01592592360964,2927
212.42874547908548,2741
214.84089907914665,2776
217.2523869269868,2771
219.66320922587727,2751
222.0733661791695,2706
224.48285799029293,2650
226.8916848627572,2645
229.29984700014882,2744
231.7073446061355,2775
234.11417788446204,2659
236.520347038953,2702
238.92585227351185,2731
241.33069379212054,2694
243.73487179884035,2681
246.1383864978112,2754
248.541238093252,2768
250.9434267894609,2668
253.34495279081432,2715
255.74581630176783,2737
258.1460175268563,2648
260.54555667069314,2669
262.9444339379703,2651
265.3426495334594,2717
267.7402036620107,2715
270.1370965285529,2809
272.53332833809407,2655
274.9288992957214,2643
277.32380960660055,2660
279.718059475976,2636
282.1116491091717,2625
284.5045787115897,2551
286.89684848871195,2562
289.2884586460981,2567
291.67940938938807,2572
294.0697009242996,2547
296.4593334566299,2527
298.84830719225477,2452
301.23662233712923,2542
303.6242790972866,2472
306.01127767884,2443
308.39761828798066,2388
310.78330113097934,2460
313.16832641418534,2415
315.5526943440269,2363
317.9364051270112,2400
320.3194589697242,2414
322.70185607883093,2296
325.0835966610754,2333
327.4646809232805,2278
329.8451090723478,2346
332.2248813152577,2291
334.6039978590701,2276
336.9824589109231,2256
339.36026467803447,2118
341.7374153677,2216
344.113911187295,2181
346.48975234427337,2247
348.8649390461686,2166
351.2394715005918,2277
353.61334991523415,2154
355.9865744978655,2109
358.35914545633375,2156
360.73106299856715,2168
363.10232733257146,2136
365.47293866643247,2194
367.84289720831396,2171
370.2122031664593,2080
372.5808567491905,2057
374.9488581649083,2027
377.31620762209275,2070
379.6829053293021,2104
382.0489514951745,2110
384.4143463284262,2063
386.7790900378528,2001
389.14318283232853,2121
391.50662492080653,2043
393.86941651231916,2126
396.23155781597745,2156
398.5930490409713,2091
400.9538903965696,2115
403.3140820921202,2034
405.6736243370498,2033
408.03251734086336,1883
410.3907613131465,2017
412.74835646356166,2002
415.10530300185144,1979
417.4616011378372,1985
419.81725108141893,1964
422.1722530425758,1991
424.5266072313656,1978
426.880313857925,2007
429.2333731324701,1975
431.58578526529516,1920
433.9375504667738,1981
436.2886689473588,1979
438.63914091758113,2030
440.9889665880513,1934
443.33814616945835,1977
445.68667987257015,1848
448.03456790823395,1935
450.3818104873759,1912
452.72840782100013,1928
455.07436012019105,1919
457.41966759611057,1949
459.7643304600007,1936
462.10834892318155,1934
464.4517231970525,1917
466.79445349309174,1915
469.1365400228566,1889
471.4779829979826,1923
473.81878263018564,1925
476.15893913125876,1968
478.4984527130747,1882
480.8373235875855,1961
483.17555196682144,2046
485.5131380628919,2096
487.8500820879857,2118
490.1863842543697,2248
492.52204477439034,2378
494.8570638604725,2533
497.1914417251204,2662
499.52517858091653,2834
501.85827464052306,2866
504.19073011668036,2839
506.5225452222086,3003
508.85372017000566,2955
511.18425517304956,2808
513.514150444396,2817
515.8434061971808,3002
518.1720226446176,3497
520.4999999999999,3612
522.8273384766991,3640
525.1540382881666,3603
527.480099647932,3408
529.8055227696037,3127
532.1303078668694,2706
534.454455153496,2338
536.777964843328,2137
539.1008371502907,2150
541.4230722883866,2161
543.744670471698,2086
546.0656319143858,2082
548.3859568306899,2070
550.7056454349294,2068
553.0246979415016,2113
555.3431145648834,2038
557.6608955196306,2106
559.978041020377,2132
562.2945512818363,2085
564.6104265188006,2099
566.9256669461412,2124
569.2402727788082,2103
571.5542442318302,2118
573.8675815203156,2163
576.1802848594508,2134
578.4923544645015,2121
580.8037905508126,2117
583.114593333807,2184
585.4247630289875,2074
587.7342998519354,2043
590.0432040183106,2088
592.3514757438526,2109
594.6591152443794,2090
596.9661227357875,2158
599.2724984340531,2076
601.578242555231,2048
603.8833553154542,2110
606.1878369309362,2013
608.4916876179676,2033
610.7949075929192,1998
613.0974970722403,2026
615.3994562724587,2040
617.7007854101818,2067
620.0014847020951,2027
622.3015543649641,2042
624.6009946156324,2072
626.8998056710224,2043
629.1979877481361,2039
631.4955410640538,2021
633.7924658359349,2047
636.0887622810175,2054
638.3844306166192,2018
640.6794710601358,2134
642.9738838290426,2070
645.2676691408932,2044
647.5608272133207,2032
649.853358264037,2079
652.1452625108324,2052
654.4365401715764,2102
656.7271914642178,2060
659.0172166067838,2080
661.3066158173809,2052
663.5953893141935,2066
665.8835373154867,2014
668.1710600396028,1979
670.4579577049639,2068
672.7442305300709,2168
675.0298787335033,2070
677.3149025339197,2080
679.599302150058,2202
681.8830778007342,2080
684.1662297048437,2107
686.4487580813608,2096
688.7306631493387,2146
691.0119451279091,2067
693.2926042362834,2045
695.5726406937516,2145
697.8520547196814,2066
700.1308465335215,2112
702.4090163547982,2096
704.6865644031171,2062
706.9634908981619,2143
709.2397960596965,2059
711.5154801075631,2035
713.7905432616823,2029
716.0649857420548,2108
718.3388077687592,2071
720.612009561953,1988
722.8845913418733,2057
725.1565533288352,2076
727.427895743234,2061
729.6986188055427,2093
731.9687227363137,2057
734.238207756178,2072
736.5070740858458,2138
738.7753219461066,2103
741.0429515578281,2082
743.3099631419569,2027
745.5763569195191,2120
747.8421331116193,2158
750.1072919394409,2098
752.3718336242467,2115
754.6357583873777,2127
756.8990664502545,2080
759.1617580343765,2108
761.423833361321,2067
763.6852926527457,2056
765.9461361303862,2148
768.206364016058,2118
770.4659765316536,2162
772.7249738991469,2048
774.9833563405886,2132
777.2411240781092,2164
779.4982773339183,2095
781.7548163303044,2181
784.010741289634,2183
786.2660524343538,2136
788.5207499869881,2115
790.7748341701416,2169
793.0283052064964,2102
795.2811633188143,2053
797.5334087299362,2070
799.7850416627813,2174
802.0360623403484,2097
804.2864709857143,2091
806.5362678220353,2063
808.7854530725468,2049
811.0340269605625,2100
813.2819897094754,2189
815.5293415427581,2143
817.77608268396,2060
820.0222133567116,2065
822.2677337847211,2070
824.5126441917765,2073
826.7569448017433,2111
829.0006358385675,2096
831.2437175262731,2070
833.4861900889629,2065
835.7280537508192,2056
837.9693087361026,2134
840.2099552691533,2109
842.4499935743896,2099
844.689423876309,2035
846.9282463994886,2053
849.1664613685833,2071
851.4040690083276,2150
853.6410695435349,2068
855.877463199097,2092
858.1132501999847,2117
860.3484307712487,2078
862.5830051380175,2113
864.8169735254988,2058
867.0503361589791,2133
869.2830932638243,2111
871.5152450654786,2082
873.7467917894654,2112
875.9777336613873,2168
878.2080709069252,2089
880.4378037518389,2118
882.666932421968,2152
884.8954571432301,2082
887.1233781416219,2119
889.3506956432192,2173
891.5774098741766,2199
893.803521060728,2092
896.0290294291852,2130
898.2539352059397,2037
900.4782386174619,2123
902.7019398903011,2056
904.925039251085,2084
907.147536926521,2006
909.3694331433943,2069
911.59072812857,2105
913.8114221089921,2027
916.0315153116827,2061
918.2510079637437,1978
920.4699002923547,2002
922.6881925247761,2030
924.905884888345,1946
927.1229776104793,1908
929.3394709186747,1939
931.555365040506,1905
933.7706602036275,1820
935.9853566357709,1900
938.1994545647489,1938
940.4129542184515,1948
942.6258558248488,1898
944.8381596119883,1925
947.0498658079974,1915
949.2609746410825,1948
951.4714863395287,1904
953.6814011316998,1903
955.8907192460387,1844
958.0994409110671,1886
960.3075663553858,1879
962.5150958076741,1919
964.7220294966913,1910
966.928367651274,1879
969.1341105003388,1845
971.3392582728806,1876
973.5438111979742,1791
975.747769504772,1883
977.9511334225061,1897
980.153903180487,1794
982.3560790081052,1795
984.5576611348289,1896
986.7586497902058,1837
988.9590452038618,1817
991.158847605503,1800
993.3580572249133,1903
995.5566742919558,1850
997.7546990365728,1822
999.952131688785,1799
1002.1489724786926,1754
1004.3452216364743,1774
1006.5408793923874,1745
1008.7359459767691,1673
1010.9304216200343,1675
1013.1243065526781,1733
1015.3176010052733,1676
1017.510305208472,1702
1019.7024193930064,1673
1021.8939437896848,1724
1024.0848786293977,1655
1026.2752241431122,1682
1028.4649805618747,1648
1030.6541481168115,1703
1032.842727039127,1632
1035.0307175601051,1662
1037.2181199111074,1615
1039.4049343235752,1630
1041.591161029029,1607
1043.7768002590683,1604
1045.9618522453698,1594
1048.1463172196918,1568
1050.3301954138697,1615
1052.513487059818,1540
1054.69619238953,1628
1056.8783116350783,1589
1059.0598450286152,1644
1061.2407928023704,1677
1063.4211551886528,1565
1065.6009324198508,1606
1067.780124728432,1593
1069.9587323469414,1581
1072.1367555080046,1600
1074.314194444325,1576
1076.4910493886855,1520
1078.667320573947,1573
1080.843008233051,1532
1083.0181125990161,1544
1085.1926339049414,1633
1087.3665723840027,1558
1089.5399282694575,1546
1091.7127017946405,1590
1093.8848931929647,1562
1096.0565026979243,1581
1098.2275305430899,1515
1100.3979769621128,1512
1102.567842188722,1475
1104.737126456726,1531
1106.9058300000124,1514
1109.0739530525475,1530
1111.2414958483764,1526
1113.4084586216231,1492
1115.5748416064907,1447
1117.7406450372605,1506
1119.9058691482942,1558
1122.0705141740304,1482
1124.2345803489884,1498
1126.3980679077658,1521
1128.5609770850388,1531
1130.7233081155623,1588
1132.8850612341707,1435
1135.0462366757774,1470
1137.2068346753745,1458
1139.3668554680326,1501
1141.526299288901,1487
1143.68516637321,1485
1145.8434569562655,1544
1148.001171273455,1448
1150.158309560244,1464
1152.3148720521767,1467
1154.470858984876,1473
1156.626270594044,1429
1158.7811071154629,1402
1160.9353687849912,1410
1163.089055838569,1397
1165.242168512213,1482
1167.3947070420209,1465
1169.5466716641677,1460
1171.6980626149075,1457
1173.8488801305748,1454
1175.9991244475814,1409
1178.1487958024186,1356
1180.2978944316555,1406
1182.4464205719428,1353
1184.5943744600072,1402
1186.7417563326567,1418
1188.8885664267755,1450
1191.0348049793297,1434
1193.1804722273619,1426
1195.325568407995,1437
1197.4700937584303,1448
1199.614048515948,1450
1201.7574329179074,1406
1203.900247201746,1354
1206.042491604982,1448
1208.1841663652099,1483
1210.3252717201053,1478
1212.465807907422,1456
1214.6057751649923,1435
1216.7451737307279,1466
1218.8840038426192,1456
1221.0222657387353,1448
1223.1599596572241,1478
1225.2970858363137,1442
1227.4336445143094,1412
1229.5696359295966,1417
1231.705060320639,1475
1233.8399179259786,1522
1235.9742089842384,1549
1238.107933734118,1473
1240.2410924143974,1445
1242.373685263935,1377
1244.5057125216676,1479
1246.6371744266116,1465
1248.7680712178621,1455
1250.898403134593,1466
1253.028170416058,1427
1255.1573733015875,1482
1257.2860120305932,1456
1259.4140868425648,1446
1261.54159797707,1462
1263.6685456737569,1459
1265.7949301723515,1502
1267.9207517126597,1459
1270.046010534565,1450
1272.1707068780306,1426
1274.2948409830983,1471
1276.4184130898889,1461
1278.541423438603,1457
1280.6638722695184,1426
1282.785759822993,1433
1284.9070863394636,1472
1287.0278520594447,1491
1289.1480572235314,1533
1291.2677020723963,1460
1293.3867868467923,1468
1295.5053117875495,1471
1297.623277135579,1500
1299.740683131868,1467
1301.8575300174857,1496
1303.973818033578,1470
1306.0895474213703,1505
1308.2047184221678,1547
1310.3193312773528,1514
1312.4333862283888,1498
1314.5468835168163,1547
1316.659823384255,1488
1318.7722060724045,1522
1320.8840318230418,1529
1322.9953008780249,1494
1325.1060134792888,1502
1327.2161698688478,1569
1329.3257702887959,1542
1331.4348149813054,1486
1333.5433041886276,1482
1335.6512381530933,1471
1337.7586171171101,1498
1339.8654413231675,1465
1341.9717110138317,1556
1344.0774264317488,1509
1346.1825878196432,1481
1348.2871954203192,1498
1350.3912494766587,1488
1352.4947502316231,1484
1354.5976979282532,1502
1356.7000928096686,1486
1358.8019351190665,1504
1360.9032250997243,1536
1363.0039629949988,1440
1365.1041490483235,1519
1367.2037835032133,1559
1369.3028666032606,1467
1371.401398592137,1520
1373.4993797135926,1550
1375.5968102114575,1461
1377.6936903296396,1482
1379.7900203121262,1514
1381.8858004029835,1552
1383.9810308463561,1490
1386.075711886469,1494
1388.1698437676241,1482
1390.2634267342032,1490
1392.356461030667,1547
1394.4489469015557,1614
1396.5408845914872,1506
1398.6322743451592,1548
1400.7231164073469,1514
1402.813411022907,1469
1404.903158436773,1502
1406.9923588939578,1569
1409.0810126395531,1538
1411.1691199187303,1576
1413.2566809767386,1522
1415.343696058907,1531
1417.4301654106425,1582
1419.5160892774315,1625
1421.6014679048399,1564
1423.6863015385125,1636
1425.7705904241707,1529
1427.8543348076178,1529
1429.9375349347342,1564
1432.0201910514802,1530
1434.102303403894,1600
1436.1838722380944,1580
1438.2648978002767,1580
1440.3453803367174,1571
1442.4253200937692,1608
1444.5047173178677,1599
1446.5835722555234,1599
1448.6618851533285,1574
1450.739656257952,1645
1452.8168858161434,1562
1454.8935740747306,1641
1456.96972128062,1634
1459.045327680797,1608
1461.120393522327,1665
1463.1949190523528,1627
1465.2689045180973,1716
1467.3423501668608,1649
1469.415256246024,1676
1471.4876230030463,1682
1473.559450685465,1697
1475.6307395408976,1765
1477.7014898170391,1802
1479.771701761665,1715
1481.8413756226287,1683
1483.9105116478618,1758
1485.9791100853772,1728
1488.0471711832643,1781
1490.1146951896926,1796
1492.1816823529098,1822
1494.2481329212433,1869
1496.3140471430984,1808
1498.3794252669609,1839
1500.4442675413939,1870
1502.5085742150404,1868
1504.572345536622,1884
1506.6355817549388,1794
1508.6982831188702,1859
1510.7604498773744,1931
1512.8220822794883,1884
1514.8831805743293,1931
1516.9437450110909,1965
1519.003775839048,1969
1521.0632733075522,1986
1523.1222376660367,2006
1525.1806691640113,2109
1527.2385680510652,2107
1529.2959345768668,2110
1531.3527689911643,2092
1533.4090715437833,2098
1535.4648424846291,2185
1537.5200820636855,2134
1539.5747905310159,2257
1541.6289681367616,2223
1543.6826151311434,2189
1545.7357317644614,2293
1547.7883182870937,2249
1549.8403749494987,2277
1551.8919020022113,2312
1553.9428996958477,2346
1555.9933682811015,2428
1558.0433080087469,2426
1560.0927191296346,2467
1562.1416018946961,2474
1564.1899565549415,2526
1566.2377833614592,2614
1568.2850825654164,2521
1570.3318544180606,2526
1572.3780991707158,2467
1574.423817074788,2473
1576.4690083817595,2302
1578.5136733431923,2334
1580.5578122107272,2234
1582.601425236085,2166
1584.6445126710646,2105
1586.6870747675434,2113
1588.7291117774776,1957
1590.7706239529034,1951
1592.8116115459347,1949
1594.8520748087658,1879
1596.8920139936686,1767
1598.9314293529933,1793
1600.9703211391711,1744
1603.008689604711,1802
1605.0465350022005,1763
1607.0838575843068,1664
1609.1206576037753,1697
1611.1569353134305,1647
1613.1926909661765,1711
1615.2279248149953,1649
1617.2626371129481,1634
1619.2968281131757,1666
1621.3304980688963,1549
1623.3636472334088,1586
1625.39627586009,1635
1627.428384202396,1615
1629.459972513861,1619
1631.4910410480993,1531
1633.5215900588028,1581
1635.551619799744,1625
1637.5811305247717,1634
1639.6101224878166,1608
1641.6385959428862,1654
1643.6665511440683,1546
1645.693988345528,1542
1647.7209078015112,1558
1649.7473097663405,1499
1651.7731944944203,1600
1653.7985622402307,1561
1655.823413258333,1537
1657.847747803366,1519
1659.8715661300494,1526
1661.8948684931793,1542
1663.9176551476316,1577
1665.9399263483624,1592
1667.9616823504057,1557
1669.982923408873,1534
1672.0036497789574,1525
1674.0238617159293,1596
1676.043559475138,1557
1678.0627433120121,1529
1680.081413482059,1505
1682.0995702408654,1554
1684.117213844096,1518
1686.134344547495,1572
1688.1509626068864,1526
1690.1670682781705,1506
1692.182661817329,1481
1694.1977434804217,1551
1696.2123135235875,1606
1698.226372203043,1519
1700.2399197750851,1604
1702.2529564960905,1606
1704.2654826225112,1582
1706.277498410882,1527
1708.2890041178139,1575
1710.2999999999988,1618
1712.3104863142066,1502
1714.3204633172854,1545
1716.329931266163,1540
1718.3388904178469,1547
1720.3473410294214,1555
1722.3552833580516,1539
1724.3627176609807,1577
1726.3696441955308,1576
1728.3760632191033,1516
1730.3819749891782,1530
1732.3873797633146,1585
1734.3922777991502,1503
1736.3966693544012,1549
1738.4005546868639,1575
1740.4039340544127,1544
1742.406807715001,1497
1744.4091759266616,1497
1746.4110389475054,1506
1748.4123970357223,1535
1750.413250449582,1520
1752.4135994474318,1550
1754.4134442876993,1535
1756.4127852288902,1591
1758.4116225295893,1534
1760.4099564484595,1532
1762.407787244244,1476
1764.405115175764,1561
1766.4019405019203,1470
1768.3982634816916,1504
1770.3940843741357,1507
1772.3894034383907,1499
1774.3842209336717,1534
1776.378537119274,1531
1778.372352254571,1514
1780.3656665990156,1520
1782.3584804121397,1457
1784.3507939535534,1450
1786.3426074829463,1453
1788.3339212600863,1488
1790.3247355448211,1489
1792.3150505970766,1497
1794.3048666768573,1489
1796.2941840442477,1504
1798.2830029594106,1479
1800.2713236825884,1509
1802.2591464741004,1458
1804.2464715943465,1496
1806.2332993038058,1456
1808.2196298630352,1513
1810.2054635326708,1539
1812.190800573428,1444
1814.175641246101,1506
1816.1599858115628,1526
1818.1438345307652,1491
1820.127187664738,1558
1822.1100454745924,1476
1824.092408221516,1540
1826.0742761667766,1569
1828.055649571721,1551
1830.0365286977735,1504
1832.0169138064398,1503
1833.9968051593014,1534
1835.9762030180214,1569
1837.9551076443408,1509
1839.9335193000788,1482
1841.9114382471344,1533
1843.888864747485,1500
1845.8657990631878,1448
1847.842241456378,1464
1849.8181921892697,1518
1851.7936515241558,1509
1853.7686197234098,1463
1855.7430970494815,1535
1857.7170837649014,1545
1859.6905801322787,1481
1861.6635864143004,1483
1863.6361028737338,1506
1865.608129773424,1460
1867.5796673762961,1520
1869.5507159453537,1498
1871.521275743678,1471
1873.4913470344313,1507
1875.4609300808534,1510
1877.4300251462632,1539
1879.3986324940588,1552
1881.366752387717,1507
1883.3343850907936,1505
1885.3015308669228,1510
1887.268189979819,1522
1889.2343626932739,1483
1891.2000492711595,1428
1893.1652499774254,1488
1895.1299650761011,1519
1897.0941948312952,1540
1899.0579395071945,1498
1901.0211993680641,1543
1902.98397467825,1511
1904.9462657021745,1472
1906.9080727043415,1487
1908.869395949332,1548
1910.8302357018065,1557
1912.790592226504,1531
1914.7504657882428,1463
1916.7098566519212,1493
1918.6687650825133,1520
1920.6271913450764,1514
1922.5851357047422,1594
1924.5425984267245,1523
1926.499579776314,1516
1928.4560800188833,1580
1930.4120994198802,1540
1932.367638244833,1535
1934.32269675935,1532
1936.2772752291175,1583
1938.231373919899,1564
1940.1849930975404,1503
1942.1381330279637,1536
1944.0907939771696,1527
1946.0429762112412,1489
1947.9946799963363,1452
1949.9459055986945,1514
1951.896653284633,1465
1953.8469233205478,1577
1955.7967159729142,1537
1957.7460315082863,1546
1959.6948701932974,1496
1961.6432322946594,1546
1963.5911180791632,1517
1965.5385278136787,1577
1967.4854617651545,1568
1969.4319202006182,1461
1971.377903387176,1521
1973.3234115920136,1535
1975.268445082395,1490
1977.2130041256642,1541
1979.1570889892423,1546
1981.1006999406304,1580
1983.04383724741,1518
1984.986501177238,1526
1986.928691997853,1515
1988.8704099770712,1556
1990.811655382789,1493
1992.7524284829801,1532
1994.692729545698,1561
1996.6325588390755,1557
1998.5719166313224,1540
2000.5108031907307,1540
2002.4492187856677,1570
2004.387163684583,1531
2006.3246381560011,1552
2008.2616424685298,1501
2010.1981768908527,1560
2012.1342416917332,1454
2014.069837140014,1534
2016.0049635046162,1522
2017.9396210545406,1541
2019.8738100588666,1579
2021.8075307867502,1525
2023.740783507431,1525
2025.6735684902228,1536
2027.6058860045214,1554
2029.5377363198004,1511
2031.4691197056118,1534
2033.4000364315875,1496
2035.3304867674374,1463
2037.260470982952,1485
2039.189989347998,1558
2041.1190421325232,1557
2043.047629606554,1507
2044.9757520401945,1487
2046.9034097036288,1491
2048.8306028671195,1542
2050.7573318010086,1534
2052.683596775716,1532
2054.609398061742,1539
2056.5347359296647,1482
2058.4596106501403,1513
2060.384022493906,1480
2062.3079717317764,1480
2064.231458634646,1558
2066.1544834734873,1557
2068.077046519352,1539
2069.99914804337,1478
2071.9207883167524,1477
2073.8419676107865,1551
2075.7626861968406,1531
2077.6829443463607,1540
2079.6027423308715,1522
2081.522080421977,1480
2083.440958891362,1482
2085.359378010786,1490
2087.2773380520907,1511
2089.194839287196,1518
2091.111881988101,1566
2093.0284664268825,1525
2094.9445928756973,1451
2096.86026160678,1500
2098.775472892446,1516
2100.690227005088,1552
2102.604524217178,1544
2104.5183648012676,1519
2106.431749029985,1538
2108.34467717604,1513
2110.2571495122206,1549
2112.169166311393,1483
2114.080727846503,1505
2115.9918343905747,1499
2117.902486216711,1514
2119.8126835980956,1526
2121.722426807987,1450
2123.6317161197285,1530
2125.5405518067364,1570
2127.448934142509,1532
2129.356863400624,1537
2131.264339854737,1521
2133.1713637785815,1510
2135.077935445972,1538
2136.9840551308002,1482
2138.889723107037,1545
2140.7949396487334,1526
2142.699705030018,1487
2144.6040195250994,1498
2146.507883408264,1526
2148.4112969538774,1580
2150.3142604363848,1524
2152.2167741303097,1516
2154.1188383102535,1578
2156.0204532508997,1543
2157.9216192270064,1553
2159.822336513414,1577
2161.7226053850413,1571
2163.622426116884,1512
2165.5217989840185,1565
2167.4207242616,1484
2169.319202224862,1515
2171.2172331491165,1528
2173.1148173097563,1534
2175.0119549822507,1571
2176.90864644215,1550
2178.8048919650823,1588
2180.7006918267534,1547
2182.596046302952,1554
2184.4909556695407,1594
2186.3854202024645,1583
2188.279440177746,1552
2190.173015871487,1578
2192.066147559868,1555
2193.958835519149,1528
2195.851080025667,1573
2197.7428813558417,1561
2199.6342397861667,1528
2201.5251555932186,1562
2203.415629053651,1569
2205.3056604441986,1574
2207.19525004167,1515
2209.084398122958,1627
2210.9731049650327,1618
2212.861370844941,1616
2214.749196039812,1588
2216.636580826851,1636
2218.523525483344,1622
2220.410030286655,1573
2222.296095514226,1527
2224.1817214435805,1586
2226.066908352319,1589
2227.951656518121,1556
2229.835966218746,1588
2231.71983773203,1594
2233.6032713358913,1540
2235.486267308324,1557
2237.3688259274036,1585
2239.2509474712824,1587
2241.132632218193,1594
2243.013880446447,1645
2244.8946924344323,1604
2246.7750684606203,1634
2248.6550088035574,1533
2250.534513741871,1648
2252.413583554265,1499
2254.292218519526,1521
2256.170418916517,1491
2258.0481850241786,1538
2259.925517121534,1503
2261.8024154876825,1553
2263.678880401803,1562
2265.5549121431536,1590
2267.430510991071,1545
2269.305677224971,1568
2271.180411124348,1539
2273.0547129687766,1502
2274.9285830379076,1478
2276.8020216114737,1529
2278.6750289692845,1566
2280.5476053912294,1578
2282.4197511572766,1539
2284.2914665474727,1561
2286.162751841943,1606
2288.0336073208937,1609
2289.904033264608,1666
2291.774029953448,1615
2293.6435976678554,1643
2295.5127366883517,1575
2297.381447295534,1570
2299.2497297700825,1499
2301.1175843927526,1508
2302.9850114443825,1402
2304.852011205885,1422
2306.7185839582553,1431
2308.5847299825664,1382
2310.4504495599676,1327
2312.3157429716925,1302
2314.1806104990483,1336
2316.0450524234247,1282
2317.9090690262888,1303
2319.772660589186,1306
2321.635827393742,1299
2323.498569721661,1320
2325.3608878547248,1305
2327.2227820747967,1274
2329.0842526638157,1335
2330.945299903803,1308
2332.805924076857,1294
2334.6661254651535,1308
2336.525904350951,1295
2338.3852610165827,1296
2340.244195744464,1299
2342.102708817088,1265
2343.9608005170253,1300
2345.8184711269287,1304
2347.675720929526,1249
2349.532550207628,1308
2351.38895924412,1273
2353.24494832197,1262
2355.100517724223,1341
2356.955667734004,1281
2358.810398634514,1276
2360.664710709037,1297
2362.5186042409337,1319
2364.3720795136437,1289
2366.225136810686,1273
2368.0777764156583,1282
2369.929998612237,1253
2371.7818036841777,1318
2373.633191915315,1345
2375.484163589562,1314
2377.3347189909114,1276
2379.184858403434,1285
2381.03458211128,1280
2382.8838903986775,1305
2384.732783549936,1317
2386.5812618494406,1332
2388.4293255816588,1337
2390.2769750311327,1304
2392.1242104824883,1303
2393.971032220427,1240
2395.8174405297295,1295
2397.6634356952563,1292
2399.509018001947,1356
2401.3541877348193,1351
2403.1989451789705,1342
2405.043290619576,1343
2406.8872243418905,1300
2408.730746631247,1301
2410.5738577730594,1314
2412.4165580528183,1305
2414.258847756095,1291
2416.100727168537,1363
2417.9421965758734,1284
2419.783256263912,1342
2421.623906518538,1321
2423.4641476257157,1299
2425.303979871491,1316
2427.143403541984,1355
2428.9824189233977,1317
2430.821026302012,1351
2432.6592259641866,1315
2434.497018196361,1387
2436.33440328505,1347
2438.171381516851,1309
2440.00795317844,1309
2441.844118556569,1311
2443.6798779380724,1358
2445.5152316098606,1286
2447.3501798589255,1331
2449.1847229723357,1336
2451.0188612372403,1403
2452.8525949408663,1355
2454.6859243705203,1315
2456.518849813587,1278
2458.3513715575314,1319
2460.183489889895,1366
2462.015205098301,1389
2463.8465174704493,1323
2465.67742729412,1370
2467.5079348571717,1371
2469.338040447542,1325
2471.1677443532476,1307
2472.9970468623833,1376
2474.825948263123,1362
2476.6544488437207,1331
2478.482548892508,1360
2480.310248697896,1330
2482.137548548374,1378
2483.9644487325118,1335
2485.790949538956,1265
2487.617051256433,1356
2489.44275417375,1312
2491.26805857979,1305
2493.0929647635157,1316
2494.917473013971,1349
2496.741583620276,1361
2498.5652968716304,1340
2500.3886130573137,1345
2502.2115324666834,1382
2504.0340553891765,1346
2505.856182114308,1366
2507.6779129316733,1386
2509.499248130945,1394
2511.3201880018764,1329
2513.140732834298,1383
2514.9608829181198,1332
2516.780638543331,1379
2518.6,1314
2520.418967578273,1280
2522.237541568376,1386
2524.0557222606144,1343
2525.8735099453706,1362
2527.6909049131086,1383
2529.507907454368,1365
2531.32451785977,1423
2533.140736420014,1288
2534.9565634258774,1298
2536.771999168218,1396
2538.5870439379714,1389
2540.4016980261526,1335
2542.2159617238544,1368
2544.02983532225,1388
2545.8433191125914,1316
2547.656413386209,1391
2549.4691184345115,1432
2551.2814345489874,1403
2553.093362021204,1409
2554.904901142808,1390
2556.716052205523,1446
2558.526815501153,1425
2560.3371913215824,1378
2562.147179958771,1451
2563.956781704761,1405
2565.7659968516705,1437
2567.5748256916986,1385
2569.3832685171224,1382
2571.1913256202984,1382
2572.9989972936614,1414
2574.806283829725,1368
2576.613185521084,1405
2578.4197026604074,1422
2580.2258355404483,1436
2582.031584454035,1412
2583.836949694077,1397
2585.6419315535613,1383
2587.4465303255533,1461
2589.2507463032002,1448
2591.0545797797245,1447
2592.8580310484303,1461
2594.6611004026995,1426
2596.463788135992,1458
2598.266094541849,1479
2600.0680199138874,1482
2601.869564545807,1442
2603.670728731383,1456
2605.4715127644704,1472
2607.2719169390048,1554
2609.071941548998,1520
2610.8715868885433,1456
2612.670853251811,1495
2614.469740933052,1470
2616.268250226594,1519
2618.0663814268455,1521
2619.864134828292,1501
2621.6615107255006,1506
2623.458509413115,1511
2625.2551311858597,1507
2627.0513763385347,1488
2628.8472451660223,1437
2630.6427379632833,1445
2632.4378550253564,1455
2634.232596647359,1449
2636.026963124488,1467
2637.8209547520187,1517
2639.6145718253065,1425
2641.407814639785,1429
2643.200683490966,1528
2644.9931786744414,1444
2646.7853004858807,1462
2648.577049221034,1483
2650.3684251757277,1415
2652.1594286458712,1442
2653.9500599274484,1428
2655.740319316525,1490
2657.5302071092437,1418
2659.3197236018286,1397
2661.10886909058,1410
2662.8976438718782,1409
2664.686048242183,1428
2666.4740824980327,1397
2668.2617469360443,1348
2670.0490418529134,1419
2671.8359675454153,1397
2673.622524310403,1401
2675.408712444811,1364
2677.1945322456495,1418
2678.979984010009,1420
2680.76506803506,1368
2682.5497846180497,1364
2684.334134056306,1379
2686.1181166472343,1374
2687.9017326883213,1355
2689.6849824771293,1432
2691.4678663113013,1388
2693.2503844885596,1362
2695.032537306705,1346
2696.8143250636167,1363
2698.5957480572542,1361
2700.3768065856534,1393
2702.1575009469316,1375
2703.937831439283,1353
2705.717798360982,1315
2707.4974020103837,1324
2709.276642685917,1345
2711.055520686095,1350
2712.834036309506,1366
2714.612189854819,1307
2716.389981620782,1307
2718.1674119062204,1291
2719.944481010041,1295
2721.721189231226,1282
2723.4975368688415,1362
2725.273524222027,1299
2727.0491515900053,1268
2728.824419272075,1319
2730.5993275676146,1306
2732.3738767760838,1314
2734.148067197016,1301
2735.921899130031,1273
2737.6953728748194,1327
2739.468488731156,1276
2741.2412469988926,1306
2743.0136479779617,1333
2744.785691968372,1331
2746.5573792702116,1277
2748.3287101836504,1297
2750.099685008934,1331
2751.870304046388,1254
2753.640567596418,1302
2755.4104759595057,1309
2757.1800294362156,1338
2758.949228327187,1316
2760.7180729331412,1362
2762.486563554877,1328
2764.254700493272,1303
2766.022484049284,1307
2767.789914523947,1316
2769.5569922183786,1296
2771.3237174337705,1320
2773.090090471394,1332
2774.8561116326036,1306
2776.6217812188274,1309
2778.3870995315756,1258
2780.1520668724356,1315
2781.9166835430747,1277
2783.6809498452394,1315
2785.444866080754,1373
2787.2084325515225,1270
2788.971649559527,1255
2790.73451740683,1274
2792.4970363955713,1335
2794.2592068279705,1273
2796.0210290063264,1315
2797.7825032330147,1297
2799.543629810493,1283
2801.304409041296,1318
2803.0648412280366,1352
2804.8249266734088,1337
2806.5846656801846,1344
2808.344058551212,1350
2810.1031055894246,1313
2811.8618070978273,1343
2813.6201633795085,1307
2815.378174737636,1336
2817.1358414754536,1307
2818.893163896285,1323
2820.6501423035334,1332
2822.4067770006814,1331
2824.1630682912883,1287
2825.9190164789957,1316
2827.6746218675207,1301
2829.429884760661,1305
2831.184805462294,1375
2832.9393842763743,1374
2834.693621506936,1341
2836.4475174580916,1378
2838.201072434034,1343
2839.954286739034,1335
2841.707160677441,1250
2843.459694553685,1319
2845.2118886722724,1302
2846.96374333779,1361
2848.7152588549034,1335
2850.4664355283567,1311
2852.217273662973,1377
2853.9677735636546,1276
2855.7179355353833,1362
2857.4677598832186,1353
2859.217246912299,1371
2860.9663969278427,1240
2862.715210235146,1334
2864.4636871395846,1356
2866.211827946614,1268
2867.9596329617652,1317
2869.7071024906536,1310
2871.4542368389684,1312
2873.20103631248,1306
2874.947501217038,1353
2876.6936318585695,1278
2878.4394285430812,1303
2880.1848915766604,1352
2881.9300212654707,1349
2883.6748179157553,1343
2885.4192818338374,1327
2887.1634133261173,1367
2888.907212699077,1376
2890.6506802592744,1297
2892.393816313348,1349
2894.1366211680142,1326
2895.8790951300693,1328
2897.621238506388,1340
2899.363051603925,1364
2901.1045347297118,1302
2902.8456881908596,1331
2904.58651229456,1339
2906.327007348081,1347
2908.067173658772,1275
2909.8070115340597,1247
2911.5465212814497,1295
2913.285703208527,1388
2915.0245576229563,1292
2916.7630848324807,1302
2918.5012851449196,1295
2920.2391588681758,1262
2921.976706310227,1321
2923.7139277791334,1337
2925.4508235830313,1345
2927.187394030137,1371
2928.923639428745,1271
2930.6595600872306,1336
2932.395156314046,1350
2934.1304284177218,1307
2935.8653767068713,1395
2937.6000014901815,1334
2939.3343030764227,1292
2941.068281774442,1317
2942.8019378931644,1356
2944.5352717415976,1318
2946.2682836288236,1310
2948.0009738640065,1331
2949.7333427563885,1379
2951.465390615289,1355
2953.1971177501086,1350
2954.9285244703265,1317
2956.6596110855,1380
2958.3903779052657,1328
2960.1208252393385,1319
2961.8509533975125,1336
2963.5807626896617,1309
2965.3102534257378,1287
2967.0394259157715,1307
2968.768280469873,1322
2970.496817398232,1320
2972.2250370111146,1307
2973.952939618869,1350
2975.6805255319196,1369
2977.4077950607707,1367
2979.134748516006,1412
2980.861386208289,1376
2982.587708448359,1375
2984.313715547037,1343
2986.039407815222,1348
2987.764785563891,1332
2989.489849104102,1299
2991.2145987469908,1319
2992.9390348037705,1314
2994.6631575857346,1283
2996.3869674042576,1352
2998.1104645707887,1341
2999.83364939686,1288
3001.5565221940783,1284
3003.2790832741334,1333
3005.0013329487924,1284
3006.7232715298996,1322
3008.4448993293804,1302
3010.166216659239,1301
3011.887223831558,1328
3013.607921158498,1273
3015.3283089522993,1342
3017.0483875252826,1271
3018.7681571898443,1267
3020.4876182584626,1284
3022.2067710436927,1318
3023.9256158581707,1310
3025.644153014609,1314
3027.362382825801,1308
3029.0803056046193,1308
3030.797921664012,1311
3032.5152313170106,1313
3034.2322348767225,1303
3035.9489326563353,1364
3037.665324969115,1279
3039.3814121284063,1366
3041.097194447633,1295
3042.812672240299,1257
3044.5278458199855,1354
3046.2427155003525,1319
3047.9572815951406,1365
3049.671544418167,1359
3051.38550428333,1345
3053.0991615046073,1324
3054.812516396051,1264
3056.5255692717974,1290
3058.2383204460575,1266
3059.9507702331257,1276
3061.662918947372,1294
3063.3747669032446,1327
3065.0863144152736,1313
3066.7975617980674,1298
3068.508509366309,1324
3070.219157434767,1354
3071.9295063182844,1272
3073.639556331785,1329
3075.3493077902704,1388
3077.058761008821,1226
3078.7679163025964,1318
3080.476773986837,1293
3082.1853343768594,1331
3083.89359778806,1326
3085.6015645359153,1227
3087.3092349359786,1275
3089.016609303884,1314
3090.7236879553434,1316
3092.4304712061476,1298
3094.136959372166,1301
3095.843152769349,1278
3097.5490517137237,1319
3099.2546565213966,1267
3100.959967508554,1365
3102.66498499146,1346
3104.3697092864577,1297
3106.0741407099695,1301
3107.778279578498,1315
3109.482126208622,1312
3111.1856809170004,1384
3112.8889440203716,1365
3114.5919158355528,1322
3116.294596679439,1315
3117.996986869006,1357
3119.6990867213062,1340
3121.4008965534726,1349
3123.102416682717,1290
3124.803647426329,1332
3126.5045891016784,1337
3128.205242026213,1315
3129.90560651746,1332
3131.605682893025,1332
3133.3054714705922,1293
3135.0049725679282,1318
3136.7041865028714,1299
3138.4031135933465,1334
3140.101754157353,1331
3141.800108512971,1351
3143.498176978357,1316
3145.1959598717494,1304
3146.8934575114636,1301
3148.5906702158954,1334
3150.2875983035183,1274
3151.9842420928853,1304
3153.680601902627,1281
3155.376678051456,1332
3157.07247085816,1250
3158.767980641609,1279
3160.463207720748,1313
3162.158152414606,1338
3163.8528150422862,1303
3165.5471959229726,1347
3167.2412953759303,1308
3168.9351137204976,1356
3170.628651276098,1322
3172.3219083622307,1306
3174.014885298474,1258
3175.707582404485,1286
3177.4000000000005,1302
3179.092138404835,1228
3180.7839979388846,1344
3182.47557892212,1334
3184.166881674594,1333
3185.8579065164386,1310
3187.5486537678626,1319
3189.2391237491547,1297
3190.9293167806827,1313
3192.6192331828934,1271
3194.3088732763117,1310
3195.998237381542,1264
3197.687325819268,1309
3199.376138910251,1391
3201.064676975334,1322
3202.7529403354347,1285
3204.4409293115523,1258
3206.1286442247647,1282
3207.816085396229,1265
3209.5032531471825,1226
3211.190147798936,1303
3212.8767696728846,1273
3214.5631190905015,1273
3216.2491963733373,1308
3217.9350018430214,1269
3219.6205358212637,1284
3221.305798629851,1272
3222.990790590651,1304
3224.6755120256103,1233
3226.359963256751,1292
3228.0441446061795,1246
3229.7280563960758,1295
3231.411698948703,1303
3233.0950725863995,1251
3234.778177631587,1299
3236.461014406761,1278
3238.1435832345005,1283
3239.8258844374595,1287
3241.507918338374,1318
3243.1896852600576,1349
3244.8711855254023,1338
3246.552419457381,1311
3248.233387379042,1340
3249.914089613516,1326
3251.59452648401,1327
3253.274698313813,1281
3254.95460542629,1304
3256.6342481448855,1352
3258.313626793125,1279
3259.9927416946084,1292
3261.6715931730196,1256
3263.3501815521176,1305
3265.0285071557437,1274
3266.706570307815,1270
3268.3843713323286,1298
3270.0619105533615,1278
3271.739188295068,1275
3273.4162048816834,1362
3275.0929606375184,1256
3276.769455886966,1304
3278.445690954498,1323
3280.1216661646613,1347
3281.797381842087,1308
3283.4728383114807,1248
3285.1480358976296,1292
3286.8229749253996,1301
3288.4976557197333,1315
3290.172078605655,1333
3291.846243908266,1315
3293.5201519527463,1308
3295.193803064357,1267
3296.8671975684374,1240
3298.5403357904024,1271
3300.21321805575,1260
3301.8858446900567,1317
3303.558216018975,1289
3305.23033236824,1286
3306.9021940636603,1286
3308.57380143113,1287
3310.2451547966184,1274
3311.916254486174,1317
3313.5871008259246,1300
3315.2576941420766,1286
3316.9280347609147,1325
3318.5981230088046,1233
3320.2679592121895,1315
3321.9375436975924,1274
3323.606876791612,1305
3325.27595882093,1333
3326.944790112305,1270
3328.6133709925753,1275
3330.2817017886573,1248
3331.949782827547,1259
3333.617614436319,1256
3335.2851969421245,1338
3336.952530672199,1335
3338.619615953853,1325
3340.286453114475,1365
3341.9530424815357,1306
3343.619384382583,1323
3345.2854791452437,1283
3346.951327097224,1295
3348.6169285663073,1354
3350.2822838803577,1349
3351.947393367319,1332
3353.61225735521,1303
3355.2768761721345,1311
3356.9412501462693,1284
3358.605379605873,1310
3360.2692648792827,1314
3361.9329062949146,1308
3363.596304181263,1308
