CollectionTime,7/3/2024 2:22:46 PM
ExposureUsed,3
CalibratedSpectrum
-962.7078968117929,501
-959.9714848408522,553
-957.2358232597828,541
-954.5009119013725,553
-951.7667505983302,538
-949.0333391832855,592
-946.3006774887896,608
-943.5687653473143,571
-940.837602591253,528
-938.1071890529199,589
-935.3775245645503,570
-932.6486089583007,567
-929.9204420662485,632
-927.1930237203925,598
-924.4663537526524,605
-921.7404319948689,609
-919.0152582788041,560
-916.2908324361409,645
-913.5671542984834,647
-910.8442236973568,642
-908.1220404642074,592
-905.4006044304027,589
-902.679915427231,619
-899.959973285902,602
-897.2407778375464,591
-894.5223289132158,614
-891.8046263438832,630
-889.0876699604426,592
-886.3714595937089,624
-883.6559950744183,592
-880.9412762332282,596
-878.2273029007168,578
-875.5140749073835,557
-872.8015920836489,610
-870.0898542598545,604
-867.3788612662631,560
-864.6686129330585,541
-861.9591090903457,538
-859.2503495681506,556
-856.5423341964203,567
-853.8350628050229,542
-851.1285352237478,565
-848.4227512823054,576
-845.7177108103272,583
-843.0134136373656,636
-840.3098595928943,607
-837.6070485063082,568
-834.9049802069229,580
-832.2036545239757,601
-829.5030712866244,563
-826.8032303239481,600
-824.1041314649472,616
-821.4057745385428,565
-818.7081593735775,572
-816.0112857988148,590
-813.3151536429393,593
-810.6197627345566,605
-807.9251129021936,610
-805.2312039742981,565
-802.5380357792392,587
-799.8456081453069,547
-797.1539209007124,590
-794.462973873588,584
-791.772766891987,577
-789.083299783884,547
-786.3945723771743,602
-783.7065844996748,593
-781.0193359791231,554
-778.3328266431781,585
-775.6470563194197,568
-772.9620248353489,624
-770.2777320183878,571
-767.5941776958798,575
-764.9113616950891,585
-762.2292838432011,596
-759.5479439673222,578
-756.8673418944801,569
-754.1874774516235,581
-751.5083504656222,606
-748.8299607632671,602
-746.15230817127,593
-743.475392516264,627
-740.7992136248035,588
-738.1237713233636,588
-735.4490654383407,606
-732.7750957960521,615
-730.1018622227365,641
-727.4293645445534,595
-724.7576025875837,592
-722.0865761778291,580
-719.4162851412126,648
-716.7467293035781,581
-714.0779084906909,581
-711.409822528237,605
-708.7424712418238,627
-706.0758544569796,635
-703.4099719991541,636
-700.7448236937178,673
-698.0804093659622,635
-695.4167288411002,596
-692.7537819442656,618
-690.0915685005134,596
-687.4300883348199,606
-684.7693412720819,640
-682.1093271371178,654
-679.4500457546669,656
-676.7914969493897,597
-674.1336805458676,597
-671.4765963686034,651
-668.8202442420206,623
-666.1646239904642,643
-663.5097354382001,630
-660.8555784094151,593
-658.2021527282176,635
-655.5494582186366,651
-652.8974947046223,652
-650.2462620100463,694
-647.5957599587009,691
-644.9459883742998,663
-642.2969470804776,660
-639.6486359007902,646
-637.0010546587141,693
-634.3542031776476,652
-631.7080812809096,643
-629.0626887917401,666
-626.4180255333008,664
-623.7740913286734,656
-621.1308860008619,713
-618.4884093727904,699
-615.8466612673046,683
-613.2056415071715,692
-610.5653499150785,659
-607.9257863136347,728
-605.28695052537,731
-602.6488423727357,709
-600.0114616781036,749
-597.3748082637674,669
-594.7388819519412,714
-592.1036825647604,706
-589.4692099242818,727
-586.8354638524829,770
-584.2024441712624,732
-581.5701507024403,749
-578.9385832677575,723
-576.3077416888759,747
-573.6776257873787,713
-571.0482353847704,733
-568.4195703024757,741
-565.7916303618415,722
-563.164415384135,674
-560.5379251905453,745
-557.9121596021815,711
-555.2871184400748,695
-552.6628015251767,713
-550.0392086783606,713
-547.4163397204204,757
-544.794194472071,772
-542.1727727539491,760
-539.5520743866118,768
-536.9320991905377,779
-534.3128469861261,782
-531.6943175936979,818
-529.0765108334947,779
-526.4594265256793,858
-523.8430644903358,878
-521.2274245474689,1002
-518.612506517005,1111
-515.9983102187913,1057
-513.3848354725959,1086
-510.77208209810846,1089
-508.16004991493924,1131
-505.5487387426199,1242
-502.9381484006032,1365
-500.3282787082628,1476
-497.71912948489364,1576
-495.1107005497117,1599
-492.5029917218539,1638
-489.8960028203786,1553
-487.28973366426493,1337
-484.68418407241325,1299
-482.07935386364494,1146
-479.47524285670266,1049
-476.87185087025,961
-474.2691777228715,943
-471.66722323307334,974
-469.0659872192821,943
-466.4654694998459,968
-463.86566989303384,905
-461.26658821703614,938
-458.66822428996414,922
-456.07057792985,939
-453.4736489546475,913
-450.877437182231,963
-448.28194243039627,929
-445.68716451686,927
-443.09310325926003,941
-440.49975847515555,878
-437.9071299820263,832
-435.31521759727354,907
-432.72402113821954,966
-430.13354042210767,914
-427.5437752661022,935
-424.95472548728867,921
-422.36639090267386,993
-419.7787713291855,926
-417.1918665836721,956
-414.60567648290385,962
-412.0202008435715,1003
-409.4354394822874,1006
-406.8513922155845,1049
-404.26805885991723,1011
-401.685439231661,1043
-399.103533147112,980
-396.522340422488,984
-393.9418608739278,1027
-391.3620943174908,1034
-388.7830405691583,1010
-386.2046994448317,978
-383.6270707603344,934
-381.05015433141045,851
-378.473949973725,788
-375.8984575028645,797
-373.32367673433623,782
-370.74960748356875,815
-368.1762495659117,792
-365.60360279663576,725
-363.03166699093265,662
-360.4604419639154,619
-357.8899275306178,674
-355.32012350599507,619
-352.7510297049233,579
-350.1826459421999,535
-347.61497203254316,563
-345.04800779059235,528
-342.4817530309082,539
-339.91620756797226,553
-337.35137121618743,647
-334.7872437898774,615
-332.22382510328725,650
-329.66111497058273,640
-327.09911320585127,690
-324.53781962310075,706
-321.9772340362607,624
-319.4173562591816,558
-316.8581861056348,547
-314.2997233893127,574
-311.7419679238294,561
-309.1849195227194,548
-306.62857799943856,562
-304.0729431673641,606
-301.51801483979375,690
-298.963792829947,677
-296.41027695096386,623
-293.85746701590574,637
-291.3053628377552,689
-288.7539642294155,759
-286.2032710037115,724
-283.65328297338897,701
-281.1039999511146,701
-278.5554217494762,719
-276.007548180983,802
-273.4603790580651,759
-270.9139141930734,654
-268.3681533982807,694
-265.8230964858798,725
-263.27874326798565,678
-260.7350935566336,689
-258.1921471637804,697
-255.6499039013039,831
-253.10836358100266,789
-250.56752601459698,766
-248.02739101372765,822
-245.48795838995704,837
-242.94922795476816,757
-240.41119951956557,766
-237.8738728956746,890
-235.33724789434166,908
-232.80132432673452,835
-230.2661020039418,734
-227.73158073697357,752
-225.19776033676033,844
-222.66464061415422,931
-220.1322213799284,826
-217.60050244477725,792
-215.06948361931552,805
-212.53916471408013,935
-210.00954553952818,1073
-207.48062590603843,1006
-204.9524056239104,942
-202.4248845033651,931
-199.8980623545441,1061
-197.37193898751036,1047
-194.84651421224817,1048
-192.32178783866232,1013
-189.79775967657952,932
-187.27442953574644,1003
-184.7517972258321,1069
-182.2298625564256,953
-179.7086253370378,863
-177.18808537710026,993
-174.66824248596583,1309
-172.14909647290835,1439
-169.6306471471229,1280
-167.11289431772548,1064
-164.59583779375328,1039
-162.07947738416453,1139
-159.5638128978386,1156
-157.04884414357605,1345
-154.53457093009854,1333
-152.02099306604828,1272
-149.50811035998936,1088
-146.99592262040665,1143
-144.48442965570587,1277
-141.97363127421409,1500
-139.46352728417958,1512
-136.95411749377126,1462
-134.44540171107985,1336
-131.93737974411636,1179
-129.43005140081357,1190
-126.92341648902493,1388
-124.41747481652521,1982
-121.91222619101006,1818
-119.40767042009657,1991
-116.90380731132257,1897
-114.40063667214702,1620
-111.8981583099503,1405
-109.3963720320337,1529
-106.89527764561933,2692
-104.39487495785067,3686
-101.89516377579241,4057
-99.39614390642998,5081
-96.89781515667039,4664
-94.40017733334128,5052
-91.90323024319173,4237
-89.40697369289148,3998
-86.91140748903172,3509
-84.41653143812482,3037
-81.92234534660395,3111
-79.42884902082358,4865
-76.93604226705907,6238
-74.4439248915071,8624
-71.95249670028534,10214
-69.46175749943245,13622
-66.97170709490854,17001
-64.48234529259423,23172
-61.99367189829195,29506
-59.50568671772464,32641
-57.01838955653636,33364
-54.53178022029283,27378
-52.045858514480074,20396
-49.560624244506016,18948
-47.07607721569923,20239
-44.59221723330904,19786
-42.10904410250669,22172
-39.62655762838392,24724
-37.14475761595372,24643
-34.66364387015028,20864
-32.18321619582866,21520
-29.70347439776515,21625
-27.224418280657005,22266
-24.74604764912317,24983
-22.26836230770266,33561
-19.7913620608565,59963
-17.315046712966478,65039
-14.83941606833514,65039
-12.36446993118659,65039
-9.89020810566592,65039
-7.416630395839093,65039
-4.94373660569363,65039
-2.471526539137585,65039
-6.821210263296962E-13,65039
2.47084320796705,65039
4.941003281093458,65039
7.410480415786196,65039
9.879274808531363,65039
12.347386655893956,65039
14.814816154518212,65039
17.28156350112681,65039
19.74762889252179,65039
22.21301252558385,65039
24.67771459727237,24053
27.141735304626195,5688
29.605074844762612,3831
32.06773341487792,3225
34.52971121224755,2880
36.99100843422559,2975
39.45162527824516,3352
41.91156194181792,3307
44.370818622535126,2970
46.82939551806646,2836
49.287292826160524,3075
51.74451074464503,3311
54.201049471426245,3637
56.65690920448981,3000
59.112090141899785,2321
61.56659248179983,2078
64.02041642241159,2192
66.4735621620365,1981
68.92602989905402,1499
71.37781983192338,1453
73.82893215918205,1577
76.27936707944684,1499
78.72912479141326,1899
81.17820549385567,2177
83.62660938562783,2334
86.07433666566146,1973
88.5213875329681,1595
90.96776218663751,1387
93.41346082583925,1233
95.85848364982041,1405
98.30283085790859,1469
100.7465026495089,1604
103.18949922410604,1895
105.63182078126385,1848
108.07346752062438,1537
110.51443964190923,1373
112.95473734491827,1323
115.39436082953114,1425
117.83331029570547,1259
120.27158594347827,1398
122.7091879729652,1519
125.1461165843615,1296
127.58237197794062,1014
130.01795435405518,1151
132.4528639131364,1338
134.88710085569494,1319
137.32066538231982,1376
139.75355769367923,1355
142.1857779905207,1247
144.61732647366978,1032
147.04820334403132,1015
149.47840880258934,1089
151.90794305040674,1114
154.33680628862487,1299
156.76499871846443,1461
159.19252054122433,1435
161.61937195828352,1589
164.04555317109896,1755
166.47106438120693,1773
168.89590579022217,1990
171.320077599839,2103
173.7435800118302,2179
176.16641322804742,2269
178.58857745042144,2470
181.01007288096173,2620
183.43089972175687,2660
185.85105817497413,2757
188.27054844285988,2571
190.6893707277394,2454
193.10752523201643,2450
195.5250121581745,2530
197.9418317087751,2558
200.3579840864594,2589
202.7734694939469,2647
205.18828813403627,2703
207.6024402096051,2953
210.01592592360964,2895
212.42874547908548,2826
214.84089907914665,2746
217.2523869269868,2737
219.66320922587727,2727
222.0733661791695,2650
224.48285799029293,2536
226.8916848627572,2456
229.29984700014882,2674
231.7073446061355,2703
234.11417788446204,2575
236.520347038953,2593
238.92585227351185,2638
241.33069379212054,2600
243.73487179884035,2502
246.1383864978112,2599
248.541238093252,2727
250.9434267894609,2627
253.34495279081432,2620
255.74581630176783,2578
258.1460175268563,2515
260.54555667069314,2613
262.9444339379703,2540
265.3426495334594,2535
267.7402036620107,2647
270.1370965285529,2643
272.53332833809407,2620
274.9288992957214,2491
277.32380960660055,2538
279.718059475976,2625
282.1116491091717,2600
284.5045787115897,2556
286.89684848871195,2341
289.2884586460981,2414
291.67940938938807,2547
294.0697009242996,2531
296.4593334566299,2540
298.84830719225477,2527
301.23662233712923,2498
303.6242790972866,2434
306.01127767884,2422
308.39761828798066,2470
310.78330113097934,2440
313.16832641418534,2383
315.5526943440269,2355
317.9364051270112,2367
320.3194589697242,2327
322.70185607883093,2252
325.0835966610754,2321
327.4646809232805,2281
329.8451090723478,2302
332.2248813152577,2364
334.6039978590701,2312
336.9824589109231,2264
339.36026467803447,2211
341.7374153677,2171
344.113911187295,2163
346.48975234427337,2243
348.8649390461686,2298
351.2394715005918,2224
353.61334991523415,2162
355.9865744978655,2181
358.35914545633375,2076
360.73106299856715,2111
363.10232733257146,2099
365.47293866643247,2036
367.84289720831396,2053
370.2122031664593,2050
372.5808567491905,2099
374.9488581649083,2081
377.31620762209275,2000
379.6829053293021,2114
382.0489514951745,2048
384.4143463284262,2003
386.7790900378528,2045
389.14318283232853,2022
391.50662492080653,1992
393.86941651231916,2090
396.23155781597745,2104
398.5930490409713,2172
400.9538903965696,2102
403.3140820921202,2064
405.6736243370498,1982
408.03251734086336,1932
410.3907613131465,1990
412.74835646356166,1873
415.10530300185144,2051
417.4616011378372,1985
419.81725108141893,1940
422.1722530425758,1972
424.5266072313656,1980
426.880313857925,1886
429.2333731324701,1947
431.58578526529516,1942
433.9375504667738,1927
436.2886689473588,1931
438.63914091758113,1961
440.9889665880513,1902
443.33814616945835,1885
445.68667987257015,1912
448.03456790823395,1892
450.3818104873759,1961
452.72840782100013,1874
455.07436012019105,1855
457.41966759611057,1975
459.7643304600007,1912
462.10834892318155,1886
464.4517231970525,1876
466.79445349309174,1934
469.1365400228566,1928
471.4779829979826,1948
473.81878263018564,1891
476.15893913125876,1976
478.4984527130747,1969
480.8373235875855,1991
483.17555196682144,1994
485.5131380628919,2085
487.8500820879857,2228
490.1863842543697,2255
492.52204477439034,2434
494.8570638604725,2619
497.1914417251204,2682
499.52517858091653,2818
501.85827464052306,2950
504.19073011668036,3014
506.5225452222086,2964
508.85372017000566,2963
511.18425517304956,2851
513.514150444396,2754
515.8434061971808,2988
518.1720226446176,3452
520.4999999999999,3600
522.8273384766991,3814
525.1540382881666,3576
527.480099647932,3387
529.8055227696037,3180
532.1303078668694,2635
534.454455153496,2357
536.777964843328,2097
539.1008371502907,2089
541.4230722883866,2172
543.744670471698,2147
546.0656319143858,2131
548.3859568306899,2090
550.7056454349294,2154
553.0246979415016,2134
555.3431145648834,2038
557.6608955196306,2043
559.978041020377,2032
562.2945512818363,2090
564.6104265188006,2060
566.9256669461412,1957
569.2402727788082,2058
571.5542442318302,2183
573.8675815203156,2209
576.1802848594508,2141
578.4923544645015,2174
580.8037905508126,2172
583.114593333807,2161
585.4247630289875,2098
587.7342998519354,2123
590.0432040183106,1992
592.3514757438526,2026
594.6591152443794,2115
596.9661227357875,2079
599.2724984340531,2142
601.578242555231,2052
603.8833553154542,2092
606.1878369309362,2149
608.4916876179676,2069
610.7949075929192,2070
613.0974970722403,1965
615.3994562724587,1972
617.7007854101818,1914
620.0014847020951,1983
622.3015543649641,2034
624.6009946156324,1993
626.8998056710224,2022
629.1979877481361,1994
631.4955410640538,2141
633.7924658359349,2037
636.0887622810175,2036
638.3844306166192,2009
640.6794710601358,2091
642.9738838290426,2083
645.2676691408932,2024
647.5608272133207,2075
649.853358264037,2020
652.1452625108324,1960
654.4365401715764,2018
656.7271914642178,2019
659.0172166067838,2049
661.3066158173809,2064
663.5953893141935,2012
665.8835373154867,2040
668.1710600396028,1981
670.4579577049639,2005
672.7442305300709,2027
675.0298787335033,2044
677.3149025339197,1963
679.599302150058,2016
681.8830778007342,2024
684.1662297048437,2064
686.4487580813608,2041
688.7306631493387,2090
691.0119451279091,2063
693.2926042362834,2132
695.5726406937516,2111
697.8520547196814,2024
700.1308465335215,2075
702.4090163547982,2053
704.6865644031171,2055
706.9634908981619,1979
709.2397960596965,2005
711.5154801075631,2085
713.7905432616823,2061
716.0649857420548,2013
718.3388077687592,2059
720.612009561953,2065
722.8845913418733,2092
725.1565533288352,2083
727.427895743234,2067
729.6986188055427,2046
731.9687227363137,2038
734.238207756178,2059
736.5070740858458,2071
738.7753219461066,2016
741.0429515578281,2056
743.3099631419569,2000
745.5763569195191,2076
747.8421331116193,2008
750.1072919394409,2067
752.3718336242467,2132
754.6357583873777,2052
756.8990664502545,1999
759.1617580343765,2030
761.423833361321,2042
763.6852926527457,2043
765.9461361303862,2029
768.206364016058,2079
770.4659765316536,2044
772.7249738991469,2004
774.9833563405886,2081
777.2411240781092,2107
779.4982773339183,2112
781.7548163303044,2112
784.010741289634,2070
786.2660524343538,2176
788.5207499869881,2164
790.7748341701416,2139
793.0283052064964,2092
795.2811633188143,2094
797.5334087299362,2096
799.7850416627813,2121
802.0360623403484,2140
804.2864709857143,2125
806.5362678220353,2162
808.7854530725468,2120
811.0340269605625,2160
813.2819897094754,2080
815.5293415427581,2165
817.77608268396,2105
820.0222133567116,2093
822.2677337847211,2093
824.5126441917765,2112
826.7569448017433,2103
829.0006358385675,2105
831.2437175262731,2130
833.4861900889629,2187
835.7280537508192,2009
837.9693087361026,2112
840.2099552691533,2146
842.4499935743896,2078
844.689423876309,2091
846.9282463994886,2064
849.1664613685833,2136
851.4040690083276,2091
853.6410695435349,2081
855.877463199097,2127
858.1132501999847,2001
860.3484307712487,2080
862.5830051380175,2147
864.8169735254988,2184
867.0503361589791,2137
869.2830932638243,2113
871.5152450654786,2154
873.7467917894654,2106
875.9777336613873,2115
878.2080709069252,2146
880.4378037518389,2160
882.666932421968,2085
884.8954571432301,2150
887.1233781416219,2106
889.3506956432192,2203
891.5774098741766,2160
893.803521060728,2148
896.0290294291852,2077
898.2539352059397,2096
900.4782386174619,2094
902.7019398903011,2091
904.925039251085,1988
907.147536926521,2054
909.3694331433943,2079
911.59072812857,1999
913.8114221089921,2064
916.0315153116827,2015
918.2510079637437,1987
920.4699002923547,2017
922.6881925247761,1986
924.905884888345,1959
927.1229776104793,1933
929.3394709186747,1935
931.555365040506,1979
933.7706602036275,1883
935.9853566357709,1933
938.1994545647489,1929
940.4129542184515,1979
942.6258558248488,1938
944.8381596119883,1899
947.0498658079974,1944
949.2609746410825,1873
951.4714863395287,1875
953.6814011316998,1936
955.8907192460387,1900
958.0994409110671,1895
960.3075663553858,1883
962.5150958076741,1856
964.7220294966913,1881
966.928367651274,1912
969.1341105003388,1828
971.3392582728806,1877
973.5438111979742,1922
975.747769504772,1909
977.9511334225061,1840
980.153903180487,1842
982.3560790081052,1899
984.5576611348289,1819
986.7586497902058,1815
988.9590452038618,1833
991.158847605503,1873
993.3580572249133,1807
995.5566742919558,1818
997.7546990365728,1834
999.952131688785,1787
1002.1489724786926,1772
1004.3452216364743,1817
1006.5408793923874,1707
1008.7359459767691,1665
1010.9304216200343,1678
1013.1243065526781,1689
1015.3176010052733,1726
1017.510305208472,1710
1019.7024193930064,1669
1021.8939437896848,1636
1024.0848786293977,1696
1026.2752241431122,1728
1028.4649805618747,1665
1030.6541481168115,1696
1032.842727039127,1633
1035.0307175601051,1553
1037.2181199111074,1630
1039.4049343235752,1636
1041.591161029029,1644
1043.7768002590683,1673
1045.9618522453698,1626
1048.1463172196918,1596
1050.3301954138697,1660
1052.513487059818,1576
1054.69619238953,1571
1056.8783116350783,1615
1059.0598450286152,1555
1061.2407928023704,1628
1063.4211551886528,1592
1065.6009324198508,1610
1067.780124728432,1614
1069.9587323469414,1626
1072.1367555080046,1640
1074.314194444325,1560
1076.4910493886855,1603
1078.667320573947,1539
1080.843008233051,1565
1083.0181125990161,1587
1085.1926339049414,1502
1087.3665723840027,1541
1089.5399282694575,1518
1091.7127017946405,1594
1093.8848931929647,1549
1096.0565026979243,1547
1098.2275305430899,1584
1100.3979769621128,1562
1102.567842188722,1497
1104.737126456726,1495
1106.9058300000124,1493
1109.0739530525475,1556
1111.2414958483764,1551
1113.4084586216231,1490
1115.5748416064907,1522
1117.7406450372605,1484
1119.9058691482942,1471
1122.0705141740304,1459
1124.2345803489884,1462
1126.3980679077658,1508
1128.5609770850388,1501
1130.7233081155623,1506
1132.8850612341707,1494
1135.0462366757774,1427
1137.2068346753745,1416
1139.3668554680326,1482
1141.526299288901,1445
1143.68516637321,1484
1145.8434569562655,1508
1148.001171273455,1508
1150.158309560244,1474
1152.3148720521767,1460
1154.470858984876,1420
1156.626270594044,1434
1158.7811071154629,1465
1160.9353687849912,1441
1163.089055838569,1490
1165.242168512213,1478
1167.3947070420209,1410
1169.5466716641677,1451
1171.6980626149075,1431
1173.8488801305748,1453
1175.9991244475814,1452
1178.1487958024186,1416
1180.2978944316555,1442
1182.4464205719428,1469
1184.5943744600072,1442
1186.7417563326567,1414
1188.8885664267755,1370
1191.0348049793297,1429
1193.1804722273619,1406
1195.325568407995,1516
1197.4700937584303,1406
1199.614048515948,1440
1201.7574329179074,1411
1203.900247201746,1424
1206.042491604982,1442
1208.1841663652099,1379
1210.3252717201053,1403
1212.465807907422,1467
1214.6057751649923,1455
1216.7451737307279,1454
1218.8840038426192,1454
1221.0222657387353,1406
1223.1599596572241,1433
1225.2970858363137,1454
1227.4336445143094,1467
1229.5696359295966,1510
1231.705060320639,1411
1233.8399179259786,1493
1235.9742089842384,1435
1238.107933734118,1421
1240.2410924143974,1412
1242.373685263935,1478
1244.5057125216676,1484
1246.6371744266116,1470
1248.7680712178621,1456
1250.898403134593,1491
1253.028170416058,1460
1255.1573733015875,1463
1257.2860120305932,1380
1259.4140868425648,1489
1261.54159797707,1472
1263.6685456737569,1503
1265.7949301723515,1484
1267.9207517126597,1429
1270.046010534565,1426
1272.1707068780306,1523
1274.2948409830983,1479
1276.4184130898889,1437
1278.541423438603,1504
1280.6638722695184,1466
1282.785759822993,1463
1284.9070863394636,1505
1287.0278520594447,1481
1289.1480572235314,1474
1291.2677020723963,1500
1293.3867868467923,1475
1295.5053117875495,1481
1297.623277135579,1508
1299.740683131868,1469
1301.8575300174857,1495
1303.973818033578,1521
1306.0895474213703,1538
1308.2047184221678,1499
1310.3193312773528,1514
1312.4333862283888,1494
1314.5468835168163,1554
1316.659823384255,1461
1318.7722060724045,1454
1320.8840318230418,1487
1322.9953008780249,1489
1325.1060134792888,1521
1327.2161698688478,1500
1329.3257702887959,1419
1331.4348149813054,1470
1333.5433041886276,1467
1335.6512381530933,1513
1337.7586171171101,1515
1339.8654413231675,1485
1341.9717110138317,1545
1344.0774264317488,1497
1346.1825878196432,1487
1348.2871954203192,1543
1350.3912494766587,1489
1352.4947502316231,1540
1354.5976979282532,1418
1356.7000928096686,1426
1358.8019351190665,1477
1360.9032250997243,1484
1363.0039629949988,1450
1365.1041490483235,1473
1367.2037835032133,1521
1369.3028666032606,1464
1371.401398592137,1464
1373.4993797135926,1539
1375.5968102114575,1439
1377.6936903296396,1420
1379.7900203121262,1440
1381.8858004029835,1453
1383.9810308463561,1492
1386.075711886469,1559
1388.1698437676241,1527
1390.2634267342032,1515
1392.356461030667,1461
1394.4489469015557,1533
1396.5408845914872,1509
1398.6322743451592,1597
1400.7231164073469,1529
1402.813411022907,1528
1404.903158436773,1533
1406.9923588939578,1536
1409.0810126395531,1591
1411.1691199187303,1514
1413.2566809767386,1571
1415.343696058907,1565
1417.4301654106425,1552
1419.5160892774315,1552
1421.6014679048399,1540
1423.6863015385125,1560
1425.7705904241707,1601
1427.8543348076178,1595
1429.9375349347342,1537
1432.0201910514802,1517
1434.102303403894,1512
1436.1838722380944,1534
1438.2648978002767,1609
1440.3453803367174,1562
1442.4253200937692,1637
1444.5047173178677,1558
1446.5835722555234,1610
1448.6618851533285,1582
1450.739656257952,1626
1452.8168858161434,1584
1454.8935740747306,1584
1456.96972128062,1616
1459.045327680797,1658
1461.120393522327,1599
1463.1949190523528,1636
1465.2689045180973,1698
1467.3423501668608,1624
1469.415256246024,1688
1471.4876230030463,1673
1473.559450685465,1703
1475.6307395408976,1714
1477.7014898170391,1712
1479.771701761665,1634
1481.8413756226287,1706
1483.9105116478618,1743
1485.9791100853772,1709
1488.0471711832643,1712
1490.1146951896926,1745
1492.1816823529098,1844
1494.2481329212433,1771
1496.3140471430984,1724
1498.3794252669609,1773
1500.4442675413939,1735
1502.5085742150404,1776
1504.572345536622,1828
1506.6355817549388,1792
1508.6982831188702,1845
1510.7604498773744,1755
1512.8220822794883,1858
1514.8831805743293,1843
1516.9437450110909,1856
1519.003775839048,1832
1521.0632733075522,1842
1523.1222376660367,1884
1525.1806691640113,1940
1527.2385680510652,1996
1529.2959345768668,1901
1531.3527689911643,1979
1533.4090715437833,2042
1535.4648424846291,2018
1537.5200820636855,2092
1539.5747905310159,2133
1541.6289681367616,2145
1543.6826151311434,2156
1545.7357317644614,2157
1547.7883182870937,2166
1549.8403749494987,2205
1551.8919020022113,2220
1553.9428996958477,2252
1555.9933682811015,2233
1558.0433080087469,2253
1560.0927191296346,2338
1562.1416018946961,2412
1564.1899565549415,2307
1566.2377833614592,2383
1568.2850825654164,2254
1570.3318544180606,2402
1572.3780991707158,2340
1574.423817074788,2282
1576.4690083817595,2284
1578.5136733431923,2246
1580.5578122107272,2160
1582.601425236085,2061
1584.6445126710646,1977
1586.6870747675434,2012
1588.7291117774776,1928
1590.7706239529034,1852
1592.8116115459347,1756
1594.8520748087658,1874
1596.8920139936686,1803
1598.9314293529933,1806
1600.9703211391711,1811
1603.008689604711,1727
1605.0465350022005,1732
1607.0838575843068,1761
1609.1206576037753,1693
1611.1569353134305,1668
1613.1926909661765,1689
1615.2279248149953,1696
1617.2626371129481,1633
1619.2968281131757,1584
1621.3304980688963,1576
1623.3636472334088,1638
1625.39627586009,1659
1627.428384202396,1552
1629.459972513861,1541
1631.4910410480993,1578
1633.5215900588028,1629
1635.551619799744,1665
1637.5811305247717,1647
1639.6101224878166,1609
1641.6385959428862,1529
1643.6665511440683,1539
1645.693988345528,1589
1647.7209078015112,1627
1649.7473097663405,1633
1651.7731944944203,1606
1653.7985622402307,1608
1655.823413258333,1518
1657.847747803366,1547
1659.8715661300494,1566
1661.8948684931793,1558
1663.9176551476316,1574
1665.9399263483624,1533
1667.9616823504057,1547
1669.982923408873,1609
1672.0036497789574,1571
1674.0238617159293,1543
1676.043559475138,1541
1678.0627433120121,1536
1680.081413482059,1519
1682.0995702408654,1513
1684.117213844096,1580
1686.134344547495,1606
1688.1509626068864,1516
1690.1670682781705,1551
1692.182661817329,1537
1694.1977434804217,1564
1696.2123135235875,1540
1698.226372203043,1507
1700.2399197750851,1506
1702.2529564960905,1563
1704.2654826225112,1474
1706.277498410882,1494
1708.2890041178139,1563
1710.2999999999988,1542
1712.3104863142066,1549
1714.3204633172854,1569
1716.329931266163,1502
1718.3388904178469,1524
1720.3473410294214,1561
1722.3552833580516,1534
1724.3627176609807,1542
1726.3696441955308,1487
1728.3760632191033,1535
1730.3819749891782,1522
1732.3873797633146,1483
1734.3922777991502,1517
1736.3966693544012,1550
1738.4005546868639,1492
1740.4039340544127,1547
1742.406807715001,1557
1744.4091759266616,1510
1746.4110389475054,1542
1748.4123970357223,1513
1750.413250449582,1523
1752.4135994474318,1555
1754.4134442876993,1562
1756.4127852288902,1495
1758.4116225295893,1450
1760.4099564484595,1515
1762.407787244244,1562
1764.405115175764,1530
1766.4019405019203,1523
1768.3982634816916,1472
1770.3940843741357,1569
1772.3894034383907,1545
1774.3842209336717,1479
1776.378537119274,1507
1778.372352254571,1507
1780.3656665990156,1548
1782.3584804121397,1541
1784.3507939535534,1607
1786.3426074829463,1509
1788.3339212600863,1522
1790.3247355448211,1545
1792.3150505970766,1546
1794.3048666768573,1521
1796.2941840442477,1537
1798.2830029594106,1523
1800.2713236825884,1569
1802.2591464741004,1498
1804.2464715943465,1527
1806.2332993038058,1514
1808.2196298630352,1513
1810.2054635326708,1568
1812.190800573428,1609
1814.175641246101,1543
1816.1599858115628,1479
1818.1438345307652,1556
1820.127187664738,1545
1822.1100454745924,1496
1824.092408221516,1490
1826.0742761667766,1530
1828.055649571721,1554
1830.0365286977735,1568
1832.0169138064398,1532
1833.9968051593014,1455
1835.9762030180214,1574
1837.9551076443408,1519
1839.9335193000788,1564
1841.9114382471344,1541
1843.888864747485,1576
1845.8657990631878,1553
1847.842241456378,1560
1849.8181921892697,1528
1851.7936515241558,1506
1853.7686197234098,1528
1855.7430970494815,1524
1857.7170837649014,1564
1859.6905801322787,1508
1861.6635864143004,1537
1863.6361028737338,1513
1865.608129773424,1594
1867.5796673762961,1527
1869.5507159453537,1563
1871.521275743678,1555
1873.4913470344313,1587
1875.4609300808534,1592
1877.4300251462632,1500
1879.3986324940588,1506
1881.366752387717,1518
1883.3343850907936,1561
1885.3015308669228,1543
1887.268189979819,1559
1889.2343626932739,1548
1891.2000492711595,1549
1893.1652499774254,1492
1895.1299650761011,1537
1897.0941948312952,1566
1899.0579395071945,1512
1901.0211993680641,1628
1902.98397467825,1575
1904.9462657021745,1490
1906.9080727043415,1491
1908.869395949332,1531
1910.8302357018065,1576
1912.790592226504,1498
1914.7504657882428,1592
1916.7098566519212,1579
1918.6687650825133,1568
1920.6271913450764,1508
1922.5851357047422,1538
1924.5425984267245,1517
1926.499579776314,1511
1928.4560800188833,1501
1930.4120994198802,1582
1932.367638244833,1537
1934.32269675935,1550
1936.2772752291175,1606
1938.231373919899,1537
1940.1849930975404,1532
1942.1381330279637,1578
1944.0907939771696,1538
1946.0429762112412,1535
1947.9946799963363,1522
1949.9459055986945,1566
1951.896653284633,1524
1953.8469233205478,1532
1955.7967159729142,1569
1957.7460315082863,1579
1959.6948701932974,1548
1961.6432322946594,1557
1963.5911180791632,1573
1965.5385278136787,1545
1967.4854617651545,1571
1969.4319202006182,1595
1971.377903387176,1563
1973.3234115920136,1483
1975.268445082395,1576
1977.2130041256642,1585
1979.1570889892423,1552
1981.1006999406304,1570
1983.04383724741,1586
1984.986501177238,1562
1986.928691997853,1547
1988.8704099770712,1494
1990.811655382789,1606
1992.7524284829801,1568
1994.692729545698,1532
1996.6325588390755,1576
1998.5719166313224,1531
2000.5108031907307,1520
2002.4492187856677,1617
2004.387163684583,1582
2006.3246381560011,1499
2008.2616424685298,1574
2010.1981768908527,1530
2012.1342416917332,1576
2014.069837140014,1595
2016.0049635046162,1584
2017.9396210545406,1570
2019.8738100588666,1536
2021.8075307867502,1567
2023.740783507431,1586
2025.6735684902228,1591
2027.6058860045214,1586
2029.5377363198004,1557
2031.4691197056118,1593
2033.4000364315875,1569
2035.3304867674374,1546
2037.260470982952,1576
2039.189989347998,1552
2041.1190421325232,1550
2043.047629606554,1551
2044.9757520401945,1544
2046.9034097036288,1503
2048.8306028671195,1616
2050.7573318010086,1596
2052.683596775716,1561
2054.609398061742,1529
2056.5347359296647,1529
2058.4596106501403,1602
2060.384022493906,1497
2062.3079717317764,1609
2064.231458634646,1545
2066.1544834734873,1527
2068.077046519352,1559
2069.99914804337,1571
2071.9207883167524,1617
2073.8419676107865,1542
2075.7626861968406,1587
2077.6829443463607,1554
2079.6027423308715,1538
2081.522080421977,1573
2083.440958891362,1582
2085.359378010786,1548
2087.2773380520907,1531
2089.194839287196,1609
2091.111881988101,1567
2093.0284664268825,1497
2094.9445928756973,1540
2096.86026160678,1556
2098.775472892446,1591
2100.690227005088,1578
2102.604524217178,1596
2104.5183648012676,1611
2106.431749029985,1587
2108.34467717604,1539
2110.2571495122206,1607
2112.169166311393,1567
2114.080727846503,1562
2115.9918343905747,1571
2117.902486216711,1523
2119.8126835980956,1537
2121.722426807987,1641
2123.6317161197285,1557
2125.5405518067364,1549
2127.448934142509,1575
2129.356863400624,1608
2131.264339854737,1631
2133.1713637785815,1617
2135.077935445972,1571
2136.9840551308002,1549
2138.889723107037,1617
2140.7949396487334,1607
2142.699705030018,1604
2144.6040195250994,1624
2146.507883408264,1607
2148.4112969538774,1614
2150.3142604363848,1611
2152.2167741303097,1632
2154.1188383102535,1554
2156.0204532508997,1532
2157.9216192270064,1563
2159.822336513414,1600
2161.7226053850413,1639
2163.622426116884,1569
2165.5217989840185,1606
2167.4207242616,1611
2169.319202224862,1553
2171.2172331491165,1600
2173.1148173097563,1607
2175.0119549822507,1612
2176.90864644215,1617
2178.8048919650823,1686
2180.7006918267534,1644
2182.596046302952,1547
2184.4909556695407,1622
2186.3854202024645,1622
2188.279440177746,1622
2190.173015871487,1616
2192.066147559868,1661
2193.958835519149,1631
2195.851080025667,1644
2197.7428813558417,1608
2199.6342397861667,1606
2201.5251555932186,1630
2203.415629053651,1655
2205.3056604441986,1587
2207.19525004167,1605
2209.084398122958,1678
2210.9731049650327,1600
2212.861370844941,1654
2214.749196039812,1635
2216.636580826851,1619
2218.523525483344,1680
2220.410030286655,1615
2222.296095514226,1605
2224.1817214435805,1643
2226.066908352319,1559
2227.951656518121,1600
2229.835966218746,1609
2231.71983773203,1577
2233.6032713358913,1587
2235.486267308324,1597
2237.3688259274036,1559
2239.2509474712824,1579
2241.132632218193,1575
2243.013880446447,1629
2244.8946924344323,1624
2246.7750684606203,1590
2248.6550088035574,1610
2250.534513741871,1633
2252.413583554265,1650
2254.292218519526,1531
2256.170418916517,1570
2258.0481850241786,1595
2259.925517121534,1589
2261.8024154876825,1620
2263.678880401803,1583
2265.5549121431536,1612
2267.430510991071,1551
2269.305677224971,1639
2271.180411124348,1543
2273.0547129687766,1551
2274.9285830379076,1513
2276.8020216114737,1559
2278.6750289692845,1498
2280.5476053912294,1527
2282.4197511572766,1611
2284.2914665474727,1626
2286.162751841943,1621
2288.0336073208937,1683
2289.904033264608,1671
2291.774029953448,1622
2293.6435976678554,1598
2295.5127366883517,1518
2297.381447295534,1552
2299.2497297700825,1491
2301.1175843927526,1495
2302.9850114443825,1494
2304.852011205885,1508
2306.7185839582553,1426
2308.5847299825664,1373
2310.4504495599676,1398
2312.3157429716925,1336
2314.1806104990483,1396
2316.0450524234247,1351
2317.9090690262888,1388
2319.772660589186,1307
2321.635827393742,1376
2323.498569721661,1340
2325.3608878547248,1342
2327.2227820747967,1341
2329.0842526638157,1378
2330.945299903803,1348
2332.805924076857,1356
2334.6661254651535,1304
2336.525904350951,1392
2338.3852610165827,1348
2340.244195744464,1322
2342.102708817088,1342
2343.9608005170253,1362
2345.8184711269287,1319
2347.675720929526,1318
2349.532550207628,1362
2351.38895924412,1320
2353.24494832197,1363
2355.100517724223,1363
2356.955667734004,1404
2358.810398634514,1350
2360.664710709037,1344
2362.5186042409337,1356
2364.3720795136437,1392
2366.225136810686,1361
2368.0777764156583,1380
2369.929998612237,1354
2371.7818036841777,1255
2373.633191915315,1334
2375.484163589562,1392
2377.3347189909114,1318
2379.184858403434,1363
2381.03458211128,1325
2382.8838903986775,1325
2384.732783549936,1371
2386.5812618494406,1308
2388.4293255816588,1371
2390.2769750311327,1337
2392.1242104824883,1353
2393.971032220427,1318
2395.8174405297295,1370
2397.6634356952563,1397
2399.509018001947,1331
2401.3541877348193,1347
2403.1989451789705,1347
2405.043290619576,1361
2406.8872243418905,1362
2408.730746631247,1326
2410.5738577730594,1326
2412.4165580528183,1317
2414.258847756095,1304
2416.100727168537,1345
2417.9421965758734,1334
2419.783256263912,1321
2421.623906518538,1349
2423.4641476257157,1355
2425.303979871491,1380
2427.143403541984,1339
2428.9824189233977,1332
2430.821026302012,1376
2432.6592259641866,1392
2434.497018196361,1314
2436.33440328505,1426
2438.171381516851,1381
2440.00795317844,1430
2441.844118556569,1435
2443.6798779380724,1427
2445.5152316098606,1378
2447.3501798589255,1382
2449.1847229723357,1349
2451.0188612372403,1377
2452.8525949408663,1414
2454.6859243705203,1338
2456.518849813587,1360
2458.3513715575314,1371
2460.183489889895,1433
2462.015205098301,1291
2463.8465174704493,1368
2465.67742729412,1353
2467.5079348571717,1373
2469.338040447542,1305
2471.1677443532476,1344
2472.9970468623833,1340
2474.825948263123,1292
2476.6544488437207,1319
2478.482548892508,1338
2480.310248697896,1353
2482.137548548374,1358
2483.9644487325118,1367
2485.790949538956,1345
2487.617051256433,1361
2489.44275417375,1377
2491.26805857979,1368
2493.0929647635157,1372
2494.917473013971,1419
2496.741583620276,1344
2498.5652968716304,1395
2500.3886130573137,1395
2502.2115324666834,1330
2504.0340553891765,1333
2505.856182114308,1345
2507.6779129316733,1388
2509.499248130945,1374
2511.3201880018764,1366
2513.140732834298,1348
2514.9608829181198,1367
2516.780638543331,1356
2518.6,1338
2520.418967578273,1327
2522.237541568376,1414
2524.0557222606144,1357
2525.8735099453706,1307
2527.6909049131086,1381
2529.507907454368,1367
2531.32451785977,1419
2533.140736420014,1442
2534.9565634258774,1401
2536.771999168218,1461
2538.5870439379714,1382
2540.4016980261526,1379
2542.2159617238544,1389
2544.02983532225,1385
2545.8433191125914,1361
2547.656413386209,1435
2549.4691184345115,1451
2551.2814345489874,1374
2553.093362021204,1431
2554.904901142808,1360
2556.716052205523,1385
2558.526815501153,1398
2560.3371913215824,1410
2562.147179958771,1453
2563.956781704761,1451
2565.7659968516705,1437
2567.5748256916986,1425
2569.3832685171224,1359
2571.1913256202984,1416
2572.9989972936614,1416
2574.806283829725,1453
2576.613185521084,1494
2578.4197026604074,1455
2580.2258355404483,1476
2582.031584454035,1466
2583.836949694077,1401
2585.6419315535613,1471
2587.4465303255533,1403
2589.2507463032002,1447
2591.0545797797245,1459
2592.8580310484303,1438
2594.6611004026995,1496
2596.463788135992,1473
2598.266094541849,1519
2600.0680199138874,1422
2601.869564545807,1522
2603.670728731383,1473
2605.4715127644704,1531
2607.2719169390048,1482
2609.071941548998,1529
2610.8715868885433,1464
2612.670853251811,1538
2614.469740933052,1585
2616.268250226594,1539
2618.0663814268455,1529
2619.864134828292,1560
2621.6615107255006,1515
2623.458509413115,1515
2625.2551311858597,1475
2627.0513763385347,1483
2628.8472451660223,1465
2630.6427379632833,1449
2632.4378550253564,1479
2634.232596647359,1440
2636.026963124488,1504
2637.8209547520187,1464
2639.6145718253065,1467
2641.407814639785,1482
2643.200683490966,1451
2644.9931786744414,1546
2646.7853004858807,1478
2648.577049221034,1483
2650.3684251757277,1418
2652.1594286458712,1413
2653.9500599274484,1415
2655.740319316525,1468
2657.5302071092437,1435
2659.3197236018286,1435
2661.10886909058,1430
2662.8976438718782,1438
2664.686048242183,1415
2666.4740824980327,1427
2668.2617469360443,1382
2670.0490418529134,1403
2671.8359675454153,1394
2673.622524310403,1440
2675.408712444811,1386
2677.1945322456495,1385
2678.979984010009,1380
2680.76506803506,1428
2682.5497846180497,1405
2684.334134056306,1393
2686.1181166472343,1354
2687.9017326883213,1419
2689.6849824771293,1397
2691.4678663113013,1414
2693.2503844885596,1365
2695.032537306705,1367
2696.8143250636167,1377
2698.5957480572542,1351
2700.3768065856534,1332
2702.1575009469316,1353
2703.937831439283,1349
2705.717798360982,1391
2707.4974020103837,1411
2709.276642685917,1373
2711.055520686095,1322
2712.834036309506,1394
2714.612189854819,1409
2716.389981620782,1346
2718.1674119062204,1431
2719.944481010041,1347
2721.721189231226,1381
2723.4975368688415,1341
2725.273524222027,1409
2727.0491515900053,1394
2728.824419272075,1379
2730.5993275676146,1340
2732.3738767760838,1339
2734.148067197016,1289
2735.921899130031,1368
2737.6953728748194,1386
2739.468488731156,1302
2741.2412469988926,1357
2743.0136479779617,1319
2744.785691968372,1322
2746.5573792702116,1308
2748.3287101836504,1334
2750.099685008934,1366
2751.870304046388,1333
2753.640567596418,1368
2755.4104759595057,1351
2757.1800294362156,1356
2758.949228327187,1326
2760.7180729331412,1321
2762.486563554877,1345
2764.254700493272,1377
2766.022484049284,1356
2767.789914523947,1368
2769.5569922183786,1348
2771.3237174337705,1350
2773.090090471394,1343
2774.8561116326036,1338
2776.6217812188274,1348
2778.3870995315756,1314
2780.1520668724356,1290
2781.9166835430747,1331
2783.6809498452394,1334
2785.444866080754,1354
2787.2084325515225,1347
2788.971649559527,1332
2790.73451740683,1331
2792.4970363955713,1345
2794.2592068279705,1323
2796.0210290063264,1307
2797.7825032330147,1334
2799.543629810493,1337
2801.304409041296,1370
2803.0648412280366,1316
2804.8249266734088,1359
2806.5846656801846,1333
2808.344058551212,1342
2810.1031055894246,1347
2811.8618070978273,1363
2813.6201633795085,1310
2815.378174737636,1333
2817.1358414754536,1376
2818.893163896285,1330
2820.6501423035334,1383
2822.4067770006814,1381
2824.1630682912883,1326
2825.9190164789957,1364
2827.6746218675207,1374
2829.429884760661,1376
2831.184805462294,1367
2832.9393842763743,1355
2834.693621506936,1360
2836.4475174580916,1437
2838.201072434034,1377
2839.954286739034,1358
2841.707160677441,1399
2843.459694553685,1356
2845.2118886722724,1304
2846.96374333779,1384
2848.7152588549034,1370
2850.4664355283567,1336
2852.217273662973,1373
2853.9677735636546,1383
2855.7179355353833,1342
2857.4677598832186,1308
2859.217246912299,1357
2860.9663969278427,1334
2862.715210235146,1307
2864.4636871395846,1367
2866.211827946614,1351
2867.9596329617652,1349
2869.7071024906536,1411
2871.4542368389684,1359
2873.20103631248,1411
2874.947501217038,1411
2876.6936318585695,1317
2878.4394285430812,1305
2880.1848915766604,1325
2881.9300212654707,1343
2883.6748179157553,1308
2885.4192818338374,1320
2887.1634133261173,1367
2888.907212699077,1449
2890.6506802592744,1392
2892.393816313348,1382
2894.1366211680142,1388
2895.8790951300693,1370
2897.621238506388,1385
2899.363051603925,1330
2901.1045347297118,1361
2902.8456881908596,1434
2904.58651229456,1318
2906.327007348081,1387
2908.067173658772,1372
2909.8070115340597,1321
2911.5465212814497,1360
2913.285703208527,1347
2915.0245576229563,1326
2916.7630848324807,1418
2918.5012851449196,1266
2920.2391588681758,1402
2921.976706310227,1413
2923.7139277791334,1357
2925.4508235830313,1331
2927.187394030137,1351
2928.923639428745,1393
2930.6595600872306,1393
2932.395156314046,1399
2934.1304284177218,1381
2935.8653767068713,1405
2937.6000014901815,1411
2939.3343030764227,1413
2941.068281774442,1396
2942.8019378931644,1387
2944.5352717415976,1398
2946.2682836288236,1373
2948.0009738640065,1361
2949.7333427563885,1371
2951.465390615289,1392
2953.1971177501086,1360
2954.9285244703265,1333
2956.6596110855,1356
2958.3903779052657,1356
2960.1208252393385,1365
2961.8509533975125,1279
2963.5807626896617,1310
2965.3102534257378,1340
2967.0394259157715,1366
2968.768280469873,1314
2970.496817398232,1339
2972.2250370111146,1328
2973.952939618869,1408
2975.6805255319196,1339
2977.4077950607707,1422
2979.134748516006,1352
2980.861386208289,1433
2982.587708448359,1423
2984.313715547037,1381
2986.039407815222,1342
2987.764785563891,1364
2989.489849104102,1423
2991.2145987469908,1363
2992.9390348037705,1333
2994.6631575857346,1359
2996.3869674042576,1374
2998.1104645707887,1352
2999.83364939686,1370
3001.5565221940783,1359
3003.2790832741334,1363
3005.0013329487924,1371
3006.7232715298996,1287
3008.4448993293804,1321
3010.166216659239,1294
3011.887223831558,1349
3013.607921158498,1384
3015.3283089522993,1360
3017.0483875252826,1336
3018.7681571898443,1310
3020.4876182584626,1357
3022.2067710436927,1371
3023.9256158581707,1308
3025.644153014609,1401
3027.362382825801,1391
3029.0803056046193,1330
3030.797921664012,1329
3032.5152313170106,1346
3034.2322348767225,1365
3035.9489326563353,1316
3037.665324969115,1410
3039.3814121284063,1335
3041.097194447633,1347
3042.812672240299,1385
3044.5278458199855,1373
3046.2427155003525,1342
3047.9572815951406,1389
3049.671544418167,1397
3051.38550428333,1315
3053.0991615046073,1322
3054.812516396051,1319
3056.5255692717974,1349
3058.2383204460575,1375
3059.9507702331257,1363
3061.662918947372,1293
3063.3747669032446,1354
3065.0863144152736,1290
3066.7975617980674,1346
3068.508509366309,1384
3070.219157434767,1339
3071.9295063182844,1381
3073.639556331785,1385
3075.3493077902704,1298
3077.058761008821,1333
3078.7679163025964,1358
3080.476773986837,1337
3082.1853343768594,1422
3083.89359778806,1374
3085.6015645359153,1374
3087.3092349359786,1378
3089.016609303884,1335
3090.7236879553434,1348
3092.4304712061476,1313
3094.136959372166,1410
3095.843152769349,1281
3097.5490517137237,1316
3099.2546565213966,1422
3100.959967508554,1381
3102.66498499146,1391
3104.3697092864577,1358
3106.0741407099695,1322
3107.778279578498,1329
3109.482126208622,1348
3111.1856809170004,1355
3112.8889440203716,1377
3114.5919158355528,1402
3116.294596679439,1375
3117.996986869006,1335
3119.6990867213062,1333
3121.4008965534726,1366
3123.102416682717,1423
3124.803647426329,1423
3126.5045891016784,1364
3128.205242026213,1391
3129.90560651746,1378
3131.605682893025,1388
3133.3054714705922,1321
3135.0049725679282,1327
3136.7041865028714,1350
3138.4031135933465,1347
3140.101754157353,1404
3141.800108512971,1355
3143.498176978357,1386
3145.1959598717494,1389
3146.8934575114636,1368
3148.5906702158954,1360
3150.2875983035183,1343
3151.9842420928853,1297
3153.680601902627,1362
3155.376678051456,1285
3157.07247085816,1374
3158.767980641609,1348
3160.463207720748,1328
3162.158152414606,1395
3163.8528150422862,1373
3165.5471959229726,1374
3167.2412953759303,1349
3168.9351137204976,1366
3170.628651276098,1409
3172.3219083622307,1314
3174.014885298474,1353
3175.707582404485,1403
3177.4000000000005,1339
3179.092138404835,1341
3180.7839979388846,1374
3182.47557892212,1394
3184.166881674594,1390
3185.8579065164386,1350
3187.5486537678626,1380
3189.2391237491547,1337
3190.9293167806827,1378
3192.6192331828934,1339
3194.3088732763117,1412
3195.998237381542,1366
3197.687325819268,1331
3199.376138910251,1291
3201.064676975334,1372
3202.7529403354347,1344
3204.4409293115523,1356
3206.1286442247647,1371
3207.816085396229,1308
3209.5032531471825,1340
3211.190147798936,1322
3212.8767696728846,1296
3214.5631190905015,1331
3216.2491963733373,1319
3217.9350018430214,1281
3219.6205358212637,1339
3221.305798629851,1317
3222.990790590651,1306
3224.6755120256103,1306
3226.359963256751,1320
3228.0441446061795,1280
3229.7280563960758,1311
3231.411698948703,1315
3233.0950725863995,1298
3234.778177631587,1353
3236.461014406761,1342
3238.1435832345005,1338
3239.8258844374595,1310
3241.507918338374,1324
3243.1896852600576,1375
3244.8711855254023,1382
3246.552419457381,1354
3248.233387379042,1360
3249.914089613516,1341
3251.59452648401,1318
3253.274698313813,1381
3254.95460542629,1383
3256.6342481448855,1316
3258.313626793125,1312
3259.9927416946084,1336
3261.6715931730196,1312
3263.3501815521176,1327
3265.0285071557437,1246
3266.706570307815,1310
3268.3843713323286,1360
3270.0619105533615,1328
3271.739188295068,1332
3273.4162048816834,1353
3275.0929606375184,1306
3276.769455886966,1285
3278.445690954498,1357
3280.1216661646613,1364
3281.797381842087,1378
3283.4728383114807,1364
3285.1480358976296,1300
3286.8229749253996,1338
3288.4976557197333,1319
3290.172078605655,1337
3291.846243908266,1310
3293.5201519527463,1297
3295.193803064357,1304
3296.8671975684374,1289
3298.5403357904024,1328
3300.21321805575,1333
3301.8858446900567,1290
3303.558216018975,1302
3305.23033236824,1377
3306.9021940636603,1309
3308.57380143113,1325
3310.2451547966184,1327
3311.916254486174,1347
3313.5871008259246,1369
3315.2576941420766,1370
3316.9280347609147,1354
3318.5981230088046,1370
3320.2679592121895,1347
3321.9375436975924,1333
3323.606876791612,1334
3325.27595882093,1307
3326.944790112305,1375
3328.6133709925753,1358
3330.2817017886573,1316
3331.949782827547,1286
3333.617614436319,1341
3335.2851969421245,1368
3336.952530672199,1390
3338.619615953853,1346
3340.286453114475,1349
3341.9530424815357,1400
3343.619384382583,1369
3345.2854791452437,1346
3346.951327097224,1365
3348.6169285663073,1338
3350.2822838803577,1374
3351.947393367319,1305
3353.61225735521,1335
3355.2768761721345,1356
3356.9412501462693,1347
3358.605379605873,1392
3360.2692648792827,1335
3361.9329062949146,1353
3363.596304181263,1320
