CollectionTime,7/3/2024 2:26:11 PM
ExposureUsed,3
CalibratedSpectrum
-962.7078968117929,544
-959.9714848408522,611
-957.2358232597828,602
-954.5009119013725,597
-951.7667505983302,587
-949.0333391832855,622
-946.3006774887896,593
-943.5687653473143,588
-940.837602591253,566
-938.1071890529199,614
-935.3775245645503,575
-932.6486089583007,607
-929.9204420662485,643
-927.1930237203925,624
-924.4663537526524,625
-921.7404319948689,661
-919.0152582788041,654
-916.2908324361409,714
-913.5671542984834,658
-910.8442236973568,622
-908.1220404642074,632
-905.4006044304027,610
-902.679915427231,653
-899.959973285902,607
-897.2407778375464,607
-894.5223289132158,586
-891.8046263438832,678
-889.0876699604426,659
-886.3714595937089,580
-883.6559950744183,597
-880.9412762332282,665
-878.2273029007168,621
-875.5140749073835,617
-872.8015920836489,629
-870.0898542598545,593
-867.3788612662631,613
-864.6686129330585,595
-861.9591090903457,581
-859.2503495681506,568
-856.5423341964203,556
-853.8350628050229,594
-851.1285352237478,566
-848.4227512823054,622
-845.7177108103272,627
-843.0134136373656,639
-840.3098595928943,612
-837.6070485063082,611
-834.9049802069229,630
-832.2036545239757,592
-829.5030712866244,601
-826.8032303239481,651
-824.1041314649472,650
-821.4057745385428,586
-818.7081593735775,589
-816.0112857988148,592
-813.3151536429393,590
-810.6197627345566,616
-807.9251129021936,608
-805.2312039742981,603
-802.5380357792392,615
-799.8456081453069,664
-797.1539209007124,604
-794.462973873588,590
-791.772766891987,589
-789.083299783884,586
-786.3945723771743,576
-783.7065844996748,611
-781.0193359791231,591
-778.3328266431781,598
-775.6470563194197,598
-772.9620248353489,629
-770.2777320183878,600
-767.5941776958798,605
-764.9113616950891,607
-762.2292838432011,608
-759.5479439673222,613
-756.8673418944801,601
-754.1874774516235,628
-751.5083504656222,643
-748.8299607632671,631
-746.15230817127,627
-743.475392516264,654
-740.7992136248035,599
-738.1237713233636,606
-735.4490654383407,616
-732.7750957960521,609
-730.1018622227365,613
-727.4293645445534,626
-724.7576025875837,609
-722.0865761778291,648
-719.4162851412126,620
-716.7467293035781,655
-714.0779084906909,636
-711.409822528237,635
-708.7424712418238,632
-706.0758544569796,683
-703.4099719991541,704
-700.7448236937178,697
-698.0804093659622,671
-695.4167288411002,640
-692.7537819442656,676
-690.0915685005134,646
-687.4300883348199,622
-684.7693412720819,641
-682.1093271371178,667
-679.4500457546669,643
-676.7914969493897,646
-674.1336805458676,668
-671.4765963686034,670
-668.8202442420206,667
-666.1646239904642,655
-663.5097354382001,650
-660.8555784094151,634
-658.2021527282176,627
-655.5494582186366,687
-652.8974947046223,657
-650.2462620100463,718
-647.5957599587009,699
-644.9459883742998,708
-642.2969470804776,725
-639.6486359007902,696
-637.0010546587141,691
-634.3542031776476,703
-631.7080812809096,645
-629.0626887917401,686
-626.4180255333008,652
-623.7740913286734,715
-621.1308860008619,752
-618.4884093727904,751
-615.8466612673046,716
-613.2056415071715,705
-610.5653499150785,720
-607.9257863136347,755
-605.28695052537,786
-602.6488423727357,741
-600.0114616781036,733
-597.3748082637674,732
-594.7388819519412,738
-592.1036825647604,733
-589.4692099242818,808
-586.8354638524829,815
-584.2024441712624,775
-581.5701507024403,798
-578.9385832677575,818
-576.3077416888759,796
-573.6776257873787,768
-571.0482353847704,750
-568.4195703024757,779
-565.7916303618415,732
-563.164415384135,720
-560.5379251905453,708
-557.9121596021815,725
-555.2871184400748,708
-552.6628015251767,700
-550.0392086783606,735
-547.4163397204204,772
-544.794194472071,739
-542.1727727539491,790
-539.5520743866118,813
-536.9320991905377,782
-534.3128469861261,779
-531.6943175936979,795
-529.0765108334947,808
-526.4594265256793,878
-523.8430644903358,945
-521.2274245474689,1004
-518.612506517005,1061
-515.9983102187913,1062
-513.3848354725959,1051
-510.77208209810846,1086
-508.16004991493924,1178
-505.5487387426199,1276
-502.9381484006032,1389
-500.3282787082628,1472
-497.71912948489364,1541
-495.1107005497117,1547
-492.5029917218539,1498
-489.8960028203786,1394
-487.28973366426493,1334
-484.68418407241325,1207
-482.07935386364494,1077
-479.47524285670266,1005
-476.87185087025,954
-474.2691777228715,922
-471.66722323307334,937
-469.0659872192821,961
-466.4654694998459,963
-463.86566989303384,926
-461.26658821703614,883
-458.66822428996414,916
-456.07057792985,923
-453.4736489546475,944
-450.877437182231,929
-448.28194243039627,919
-445.68716451686,899
-443.09310325926003,892
-440.49975847515555,887
-437.9071299820263,918
-435.31521759727354,864
-432.72402113821954,952
-430.13354042210767,918
-427.5437752661022,957
-424.95472548728867,954
-422.36639090267386,951
-419.7787713291855,1010
-417.1918665836721,975
-414.60567648290385,1012
-412.0202008435715,1057
-409.4354394822874,1059
-406.8513922155845,984
-404.26805885991723,1009
-401.685439231661,1032
-399.103533147112,987
-396.522340422488,958
-393.9418608739278,1046
-391.3620943174908,1036
-388.7830405691583,970
-386.2046994448317,968
-383.6270707603344,961
-381.05015433141045,895
-378.473949973725,801
-375.8984575028645,757
-373.32367673433623,787
-370.74960748356875,864
-368.1762495659117,868
-365.60360279663576,724
-363.03166699093265,615
-360.4604419639154,640
-357.8899275306178,602
-355.32012350599507,600
-352.7510297049233,550
-350.1826459421999,560
-347.61497203254316,575
-345.04800779059235,545
-342.4817530309082,536
-339.91620756797226,568
-337.35137121618743,562
-334.7872437898774,610
-332.22382510328725,610
-329.66111497058273,604
-327.09911320585127,657
-324.53781962310075,629
-321.9772340362607,581
-319.4173562591816,528
-316.8581861056348,556
-314.2997233893127,558
-311.7419679238294,577
-309.1849195227194,567
-306.62857799943856,566
-304.0729431673641,627
-301.51801483979375,641
-298.963792829947,617
-296.41027695096386,622
-293.85746701590574,620
-291.3053628377552,627
-288.7539642294155,664
-286.2032710037115,669
-283.65328297338897,655
-281.1039999511146,707
-278.5554217494762,698
-276.007548180983,757
-273.4603790580651,680
-270.9139141930734,625
-268.3681533982807,649
-265.8230964858798,712
-263.27874326798565,621
-260.7350935566336,685
-258.1921471637804,719
-255.6499039013039,784
-253.10836358100266,822
-250.56752601459698,760
-248.02739101372765,751
-245.48795838995704,767
-242.94922795476816,778
-240.41119951956557,769
-237.8738728956746,875
-235.33724789434166,892
-232.80132432673452,800
-230.2661020039418,753
-227.73158073697357,748
-225.19776033676033,787
-222.66464061415422,897
-220.1322213799284,836
-217.60050244477725,778
-215.06948361931552,788
-212.53916471408013,935
-210.00954553952818,1009
-207.48062590603843,890
-204.9524056239104,838
-202.4248845033651,803
-199.8980623545441,944
-197.37193898751036,978
-194.84651421224817,984
-192.32178783866232,947
-189.79775967657952,953
-187.27442953574644,1019
-184.7517972258321,1033
-182.2298625564256,965
-179.7086253370378,867
-177.18808537710026,900
-174.66824248596583,1231
-172.14909647290835,1422
-169.6306471471229,1192
-167.11289431772548,963
-164.59583779375328,862
-162.07947738416453,1022
-159.5638128978386,1184
-157.04884414357605,1391
-154.53457093009854,1330
-152.02099306604828,1318
-149.50811035998936,1060
-146.99592262040665,1059
-144.48442965570587,1371
-141.97363127421409,1381
-139.46352728417958,1351
-136.95411749377126,1393
-134.44540171107985,1254
-131.93737974411636,1117
-129.43005140081357,1250
-126.92341648902493,1520
-124.41747481652521,1807
-121.91222619101006,1738
-119.40767042009657,1746
-116.90380731132257,1709
-114.40063667214702,1450
-111.8981583099503,1370
-109.3963720320337,1493
-106.89527764561933,2431
-104.39487495785067,3268
-101.89516377579241,3731
-99.39614390642998,4868
-96.89781515667039,4604
-94.40017733334128,4655
-91.90323024319173,3862
-89.40697369289148,3759
-86.91140748903172,3199
-84.41653143812482,2627
-81.92234534660395,2608
-79.42884902082358,3829
-76.93604226705907,6126
-74.4439248915071,8505
-71.95249670028534,9379
-69.46175749943245,11751
-66.97170709490854,13597
-64.48234529259423,18823
-61.99367189829195,24599
-59.50568671772464,26945
-57.01838955653636,28072
-54.53178022029283,24032
-52.045858514480074,19429
-49.560624244506016,18515
-47.07607721569923,18034
-44.59221723330904,18562
-42.10904410250669,23590
-39.62655762838392,26225
-37.14475761595372,24544
-34.66364387015028,20621
-32.18321619582866,20009
-29.70347439776515,19839
-27.224418280657005,20155
-24.74604764912317,22623
-22.26836230770266,31370
-19.7913620608565,57367
-17.315046712966478,65039
-14.83941606833514,65039
-12.36446993118659,65039
-9.89020810566592,65039
-7.416630395839093,65039
-4.94373660569363,65039
-2.471526539137585,65039
-6.821210263296962E-13,65039
2.47084320796705,65039
4.941003281093458,65039
7.410480415786196,65039
9.879274808531363,65039
12.347386655893956,65039
14.814816154518212,65039
17.28156350112681,65039
19.74762889252179,65039
22.21301252558385,65039
24.67771459727237,22180
27.141735304626195,4957
29.605074844762612,3259
32.06773341487792,2886
34.52971121224755,2316
36.99100843422559,2492
39.45162527824516,3058
41.91156194181792,3182
44.370818622535126,2834
46.82939551806646,2744
49.287292826160524,3201
51.74451074464503,3800
54.201049471426245,3373
56.65690920448981,2677
59.112090141899785,2406
61.56659248179983,2167
64.02041642241159,1982
66.4735621620365,1805
68.92602989905402,1487
71.37781983192338,1491
73.82893215918205,1564
76.27936707944684,1540
78.72912479141326,1738
81.17820549385567,2185
83.62660938562783,2228
86.07433666566146,1858
88.5213875329681,1555
90.96776218663751,1422
93.41346082583925,1354
95.85848364982041,1343
98.30283085790859,1428
100.7465026495089,1555
103.18949922410604,1854
105.63182078126385,1831
108.07346752062438,1509
110.51443964190923,1225
112.95473734491827,1225
115.39436082953114,1168
117.83331029570547,1067
120.27158594347827,1235
122.7091879729652,1440
125.1461165843615,1352
127.58237197794062,1315
130.01795435405518,1386
132.4528639131364,1422
134.88710085569494,1396
137.32066538231982,1335
139.75355769367923,1337
142.1857779905207,1139
144.61732647366978,978
147.04820334403132,1028
149.47840880258934,1066
151.90794305040674,1114
154.33680628862487,1116
156.76499871846443,1262
159.19252054122433,1446
161.61937195828352,1593
164.04555317109896,1768
166.47106438120693,1821
168.89590579022217,2009
171.320077599839,2107
173.7435800118302,2267
176.16641322804742,2364
178.58857745042144,2668
181.01007288096173,2828
183.43089972175687,2803
185.85105817497413,2692
188.27054844285988,2546
190.6893707277394,2589
193.10752523201643,2542
195.5250121581745,2506
197.9418317087751,2548
200.3579840864594,2705
202.7734694939469,2704
205.18828813403627,2819
207.6024402096051,2867
210.01592592360964,2887
212.42874547908548,2805
214.84089907914665,2811
217.2523869269868,2718
219.66320922587727,2630
222.0733661791695,2527
224.48285799029293,2518
226.8916848627572,2539
229.29984700014882,2639
231.7073446061355,2704
234.11417788446204,2634
236.520347038953,2707
238.92585227351185,2594
241.33069379212054,2546
243.73487179884035,2590
246.1383864978112,2669
248.541238093252,2756
250.9434267894609,2770
253.34495279081432,2731
255.74581630176783,2681
258.1460175268563,2639
260.54555667069314,2678
262.9444339379703,2630
265.3426495334594,2647
267.7402036620107,2701
270.1370965285529,2731
272.53332833809407,2640
274.9288992957214,2546
277.32380960660055,2616
279.718059475976,2617
282.1116491091717,2522
284.5045787115897,2490
286.89684848871195,2450
289.2884586460981,2464
291.67940938938807,2534
294.0697009242996,2465
296.4593334566299,2411
298.84830719225477,2436
301.23662233712923,2416
303.6242790972866,2458
306.01127767884,2354
308.39761828798066,2455
310.78330113097934,2375
313.16832641418534,2244
315.5526943440269,2315
317.9364051270112,2191
320.3194589697242,2253
322.70185607883093,2187
325.0835966610754,2256
327.4646809232805,2270
329.8451090723478,2234
332.2248813152577,2204
334.6039978590701,2264
336.9824589109231,2212
339.36026467803447,2202
341.7374153677,2080
344.113911187295,2055
346.48975234427337,2135
348.8649390461686,2188
351.2394715005918,2107
353.61334991523415,2070
355.9865744978655,2102
358.35914545633375,2061
360.73106299856715,2081
363.10232733257146,2111
365.47293866643247,2058
367.84289720831396,2073
370.2122031664593,2036
372.5808567491905,1995
374.9488581649083,2022
377.31620762209275,2027
379.6829053293021,1955
382.0489514951745,1914
384.4143463284262,1944
386.7790900378528,1955
389.14318283232853,2056
391.50662492080653,2041
393.86941651231916,1981
396.23155781597745,2074
398.5930490409713,2053
400.9538903965696,2045
403.3140820921202,2092
405.6736243370498,1963
408.03251734086336,1959
410.3907613131465,1955
412.74835646356166,1897
415.10530300185144,1930
417.4616011378372,1925
419.81725108141893,1904
422.1722530425758,1956
424.5266072313656,1950
426.880313857925,1971
429.2333731324701,1915
431.58578526529516,1847
433.9375504667738,1833
436.2886689473588,1841
438.63914091758113,1847
440.9889665880513,1901
443.33814616945835,1865
445.68667987257015,1886
448.03456790823395,1868
450.3818104873759,1884
452.72840782100013,1813
455.07436012019105,1792
457.41966759611057,1868
459.7643304600007,1866
462.10834892318155,1838
464.4517231970525,1846
466.79445349309174,1819
469.1365400228566,1887
471.4779829979826,1863
473.81878263018564,1863
476.15893913125876,1872
478.4984527130747,1946
480.8373235875855,1927
483.17555196682144,1927
485.5131380628919,2008
487.8500820879857,2051
490.1863842543697,2205
492.52204477439034,2280
494.8570638604725,2360
497.1914417251204,2446
499.52517858091653,2657
501.85827464052306,2827
504.19073011668036,2835
506.5225452222086,2899
508.85372017000566,2894
511.18425517304956,2703
513.514150444396,2728
515.8434061971808,2965
518.1720226446176,3427
520.4999999999999,3504
522.8273384766991,3541
525.1540382881666,3572
527.480099647932,3375
529.8055227696037,2983
532.1303078668694,2598
534.454455153496,2291
536.777964843328,2121
539.1008371502907,2030
541.4230722883866,2092
543.744670471698,2042
546.0656319143858,2001
548.3859568306899,1981
550.7056454349294,2026
553.0246979415016,2106
555.3431145648834,2103
557.6608955196306,1974
559.978041020377,2037
562.2945512818363,1904
564.6104265188006,2023
566.9256669461412,1947
569.2402727788082,2036
571.5542442318302,2057
573.8675815203156,2062
576.1802848594508,2072
578.4923544645015,2084
580.8037905508126,2203
583.114593333807,2107
585.4247630289875,2064
587.7342998519354,1993
590.0432040183106,1922
592.3514757438526,1947
594.6591152443794,1973
596.9661227357875,1991
599.2724984340531,2036
601.578242555231,1986
603.8833553154542,2050
606.1878369309362,1992
608.4916876179676,2024
610.7949075929192,2010
613.0974970722403,1929
615.3994562724587,1986
617.7007854101818,1988
620.0014847020951,1987
622.3015543649641,1855
624.6009946156324,1949
626.8998056710224,1980
629.1979877481361,1950
631.4955410640538,1987
633.7924658359349,1992
636.0887622810175,1999
638.3844306166192,2054
640.6794710601358,2048
642.9738838290426,1933
645.2676691408932,2032
647.5608272133207,2008
649.853358264037,2004
652.1452625108324,1991
654.4365401715764,2005
656.7271914642178,2044
659.0172166067838,2101
661.3066158173809,2001
663.5953893141935,2096
665.8835373154867,1948
668.1710600396028,2043
670.4579577049639,2093
672.7442305300709,2098
675.0298787335033,2012
677.3149025339197,2041
679.599302150058,1974
681.8830778007342,2044
684.1662297048437,1906
686.4487580813608,1986
688.7306631493387,2020
691.0119451279091,2044
693.2926042362834,2072
695.5726406937516,2026
697.8520547196814,2031
700.1308465335215,1906
702.4090163547982,1985
704.6865644031171,2006
706.9634908981619,2009
709.2397960596965,2030
711.5154801075631,1938
713.7905432616823,1962
716.0649857420548,2009
718.3388077687592,1998
720.612009561953,1944
722.8845913418733,2026
725.1565533288352,2093
727.427895743234,1903
729.6986188055427,1982
731.9687227363137,1995
734.238207756178,1972
736.5070740858458,1961
738.7753219461066,1994
741.0429515578281,2017
743.3099631419569,1980
745.5763569195191,2020
747.8421331116193,2034
750.1072919394409,1963
752.3718336242467,2047
754.6357583873777,2056
756.8990664502545,2029
759.1617580343765,1953
761.423833361321,1958
763.6852926527457,2057
765.9461361303862,2028
768.206364016058,1998
770.4659765316536,2030
772.7249738991469,1990
774.9833563405886,2044
777.2411240781092,2070
779.4982773339183,1962
781.7548163303044,2043
784.010741289634,2091
786.2660524343538,2170
788.5207499869881,2057
790.7748341701416,2099
793.0283052064964,2057
795.2811633188143,2001
797.5334087299362,2028
799.7850416627813,2095
802.0360623403484,2025
804.2864709857143,2059
806.5362678220353,2068
808.7854530725468,2056
811.0340269605625,2056
813.2819897094754,2042
815.5293415427581,2082
817.77608268396,2044
820.0222133567116,2021
822.2677337847211,1997
824.5126441917765,2059
826.7569448017433,2106
829.0006358385675,2079
831.2437175262731,2026
833.4861900889629,2002
835.7280537508192,2042
837.9693087361026,2075
840.2099552691533,2024
842.4499935743896,1940
844.689423876309,1992
846.9282463994886,2024
849.1664613685833,2069
851.4040690083276,1988
853.6410695435349,2053
855.877463199097,1986
858.1132501999847,2034
860.3484307712487,2066
862.5830051380175,2096
864.8169735254988,2059
867.0503361589791,2134
869.2830932638243,2056
871.5152450654786,2045
873.7467917894654,2091
875.9777336613873,2024
878.2080709069252,2065
880.4378037518389,2101
882.666932421968,2108
884.8954571432301,1995
887.1233781416219,2105
889.3506956432192,2095
891.5774098741766,2028
893.803521060728,2079
896.0290294291852,2020
898.2539352059397,2074
900.4782386174619,2123
902.7019398903011,2019
904.925039251085,2001
907.147536926521,2064
909.3694331433943,1987
911.59072812857,2027
913.8114221089921,1987
916.0315153116827,1927
918.2510079637437,1953
920.4699002923547,1972
922.6881925247761,1919
924.905884888345,1915
927.1229776104793,1939
929.3394709186747,1950
931.555365040506,1872
933.7706602036275,1817
935.9853566357709,1906
938.1994545647489,1882
940.4129542184515,1930
942.6258558248488,1921
944.8381596119883,1901
947.0498658079974,1878
949.2609746410825,1880
951.4714863395287,1874
953.6814011316998,1884
955.8907192460387,1795
958.0994409110671,1843
960.3075663553858,1857
962.5150958076741,1807
964.7220294966913,1861
966.928367651274,1899
969.1341105003388,1844
971.3392582728806,1897
973.5438111979742,1843
975.747769504772,1857
977.9511334225061,1864
980.153903180487,1798
982.3560790081052,1766
984.5576611348289,1858
986.7586497902058,1750
988.9590452038618,1802
991.158847605503,1798
993.3580572249133,1815
995.5566742919558,1795
997.7546990365728,1869
999.952131688785,1731
1002.1489724786926,1660
1004.3452216364743,1708
1006.5408793923874,1671
1008.7359459767691,1644
1010.9304216200343,1675
1013.1243065526781,1690
1015.3176010052733,1648
1017.510305208472,1693
1019.7024193930064,1635
1021.8939437896848,1742
1024.0848786293977,1646
1026.2752241431122,1667
1028.4649805618747,1628
1030.6541481168115,1649
1032.842727039127,1584
1035.0307175601051,1626
1037.2181199111074,1596
1039.4049343235752,1627
1041.591161029029,1615
1043.7768002590683,1627
1045.9618522453698,1619
1048.1463172196918,1505
1050.3301954138697,1595
1052.513487059818,1593
1054.69619238953,1670
1056.8783116350783,1551
1059.0598450286152,1582
1061.2407928023704,1565
1063.4211551886528,1606
1065.6009324198508,1600
1067.780124728432,1604
1069.9587323469414,1566
1072.1367555080046,1570
1074.314194444325,1553
1076.4910493886855,1582
1078.667320573947,1527
1080.843008233051,1533
1083.0181125990161,1549
1085.1926339049414,1545
1087.3665723840027,1579
1089.5399282694575,1545
1091.7127017946405,1490
1093.8848931929647,1547
1096.0565026979243,1443
1098.2275305430899,1528
1100.3979769621128,1474
1102.567842188722,1527
1104.737126456726,1493
1106.9058300000124,1426
1109.0739530525475,1531
1111.2414958483764,1490
1113.4084586216231,1523
1115.5748416064907,1478
1117.7406450372605,1556
1119.9058691482942,1502
1122.0705141740304,1465
1124.2345803489884,1472
1126.3980679077658,1473
1128.5609770850388,1432
1130.7233081155623,1368
1132.8850612341707,1425
1135.0462366757774,1425
1137.2068346753745,1402
1139.3668554680326,1472
1141.526299288901,1423
1143.68516637321,1494
1145.8434569562655,1431
1148.001171273455,1448
1150.158309560244,1436
1152.3148720521767,1423
1154.470858984876,1420
1156.626270594044,1407
1158.7811071154629,1391
1160.9353687849912,1390
1163.089055838569,1425
1165.242168512213,1438
1167.3947070420209,1385
1169.5466716641677,1429
1171.6980626149075,1432
1173.8488801305748,1376
1175.9991244475814,1370
1178.1487958024186,1379
1180.2978944316555,1455
1182.4464205719428,1379
1184.5943744600072,1379
1186.7417563326567,1391
1188.8885664267755,1372
1191.0348049793297,1364
1193.1804722273619,1324
1195.325568407995,1364
1197.4700937584303,1395
1199.614048515948,1412
1201.7574329179074,1402
1203.900247201746,1365
1206.042491604982,1379
1208.1841663652099,1365
1210.3252717201053,1446
1212.465807907422,1389
1214.6057751649923,1384
1216.7451737307279,1388
1218.8840038426192,1382
1221.0222657387353,1358
1223.1599596572241,1416
1225.2970858363137,1370
1227.4336445143094,1391
1229.5696359295966,1432
1231.705060320639,1387
1233.8399179259786,1340
1235.9742089842384,1442
1238.107933734118,1409
1240.2410924143974,1374
1242.373685263935,1401
1244.5057125216676,1384
1246.6371744266116,1452
1248.7680712178621,1428
1250.898403134593,1420
1253.028170416058,1463
1255.1573733015875,1456
1257.2860120305932,1417
1259.4140868425648,1427
1261.54159797707,1415
1263.6685456737569,1447
1265.7949301723515,1432
1267.9207517126597,1423
1270.046010534565,1393
1272.1707068780306,1417
1274.2948409830983,1491
1276.4184130898889,1454
1278.541423438603,1449
1280.6638722695184,1403
1282.785759822993,1440
1284.9070863394636,1394
1287.0278520594447,1414
1289.1480572235314,1464
1291.2677020723963,1437
1293.3867868467923,1477
1295.5053117875495,1420
1297.623277135579,1504
1299.740683131868,1564
1301.8575300174857,1461
1303.973818033578,1482
1306.0895474213703,1495
1308.2047184221678,1484
1310.3193312773528,1488
1312.4333862283888,1419
1314.5468835168163,1446
1316.659823384255,1437
1318.7722060724045,1513
1320.8840318230418,1479
1322.9953008780249,1473
1325.1060134792888,1491
1327.2161698688478,1492
1329.3257702887959,1453
1331.4348149813054,1391
1333.5433041886276,1432
1335.6512381530933,1495
1337.7586171171101,1418
1339.8654413231675,1483
1341.9717110138317,1466
1344.0774264317488,1411
1346.1825878196432,1466
1348.2871954203192,1510
1350.3912494766587,1463
1352.4947502316231,1449
1354.5976979282532,1534
1356.7000928096686,1493
1358.8019351190665,1490
1360.9032250997243,1429
1363.0039629949988,1509
1365.1041490483235,1506
1367.2037835032133,1488
1369.3028666032606,1461
1371.401398592137,1486
1373.4993797135926,1490
1375.5968102114575,1452
1377.6936903296396,1542
1379.7900203121262,1506
1381.8858004029835,1452
1383.9810308463561,1537
1386.075711886469,1491
1388.1698437676241,1502
1390.2634267342032,1525
1392.356461030667,1511
1394.4489469015557,1459
1396.5408845914872,1571
1398.6322743451592,1470
1400.7231164073469,1550
1402.813411022907,1533
1404.903158436773,1523
1406.9923588939578,1477
1409.0810126395531,1514
1411.1691199187303,1520
1413.2566809767386,1587
1415.343696058907,1522
1417.4301654106425,1571
1419.5160892774315,1535
1421.6014679048399,1562
1423.6863015385125,1536
1425.7705904241707,1552
1427.8543348076178,1572
1429.9375349347342,1580
1432.0201910514802,1523
1434.102303403894,1612
1436.1838722380944,1612
1438.2648978002767,1541
1440.3453803367174,1629
1442.4253200937692,1637
1444.5047173178677,1552
1446.5835722555234,1606
1448.6618851533285,1615
1450.739656257952,1673
1452.8168858161434,1658
1454.8935740747306,1669
1456.96972128062,1675
1459.045327680797,1648
1461.120393522327,1699
1463.1949190523528,1651
1465.2689045180973,1741
1467.3423501668608,1736
1469.415256246024,1734
1471.4876230030463,1753
1473.559450685465,1704
1475.6307395408976,1795
1477.7014898170391,1848
1479.771701761665,1810
1481.8413756226287,1774
1483.9105116478618,1815
1485.9791100853772,1746
1488.0471711832643,1820
1490.1146951896926,1847
1492.1816823529098,1882
1494.2481329212433,1941
1496.3140471430984,1949
1498.3794252669609,1936
1500.4442675413939,1928
1502.5085742150404,1937
1504.572345536622,2027
1506.6355817549388,1974
1508.6982831188702,2073
1510.7604498773744,2047
1512.8220822794883,2093
1514.8831805743293,2067
1516.9437450110909,2093
1519.003775839048,2192
1521.0632733075522,2114
1523.1222376660367,2192
1525.1806691640113,2161
1527.2385680510652,2255
1529.2959345768668,2299
1531.3527689911643,2262
1533.4090715437833,2303
1535.4648424846291,2388
1537.5200820636855,2461
1539.5747905310159,2476
1541.6289681367616,2471
1543.6826151311434,2584
1545.7357317644614,2512
1547.7883182870937,2639
1549.8403749494987,2603
1551.8919020022113,2650
1553.9428996958477,2742
1555.9933682811015,2646
1558.0433080087469,2842
1560.0927191296346,2868
1562.1416018946961,2875
1564.1899565549415,2923
1566.2377833614592,2986
1568.2850825654164,2969
1570.3318544180606,2915
1572.3780991707158,2866
1574.423817074788,2805
1576.4690083817595,2701
1578.5136733431923,2657
1580.5578122107272,2523
1582.601425236085,2439
1584.6445126710646,2333
1586.6870747675434,2286
1588.7291117774776,2224
1590.7706239529034,2100
1592.8116115459347,2054
1594.8520748087658,1954
1596.8920139936686,1954
1598.9314293529933,1851
1600.9703211391711,1782
1603.008689604711,1858
1605.0465350022005,1800
1607.0838575843068,1750
1609.1206576037753,1755
1611.1569353134305,1715
1613.1926909661765,1727
1615.2279248149953,1714
1617.2626371129481,1636
1619.2968281131757,1570
1621.3304980688963,1585
1623.3636472334088,1642
1625.39627586009,1616
1627.428384202396,1636
1629.459972513861,1580
1631.4910410480993,1519
1633.5215900588028,1562
1635.551619799744,1588
1637.5811305247717,1518
1639.6101224878166,1582
1641.6385959428862,1573
1643.6665511440683,1573
1645.693988345528,1491
1647.7209078015112,1603
1649.7473097663405,1568
1651.7731944944203,1539
1653.7985622402307,1557
1655.823413258333,1550
1657.847747803366,1457
1659.8715661300494,1556
1661.8948684931793,1564
1663.9176551476316,1521
1665.9399263483624,1544
1667.9616823504057,1530
1669.982923408873,1483
1672.0036497789574,1517
1674.0238617159293,1417
1676.043559475138,1527
1678.0627433120121,1460
1680.081413482059,1455
1682.0995702408654,1499
1684.117213844096,1517
1686.134344547495,1505
1688.1509626068864,1575
1690.1670682781705,1548
1692.182661817329,1467
1694.1977434804217,1501
1696.2123135235875,1513
1698.226372203043,1505
1700.2399197750851,1538
1702.2529564960905,1531
1704.2654826225112,1552
1706.277498410882,1535
1708.2890041178139,1455
1710.2999999999988,1505
1712.3104863142066,1511
1714.3204633172854,1534
1716.329931266163,1453
1718.3388904178469,1490
1720.3473410294214,1466
1722.3552833580516,1504
1724.3627176609807,1511
1726.3696441955308,1541
1728.3760632191033,1528
1730.3819749891782,1451
1732.3873797633146,1519
1734.3922777991502,1417
1736.3966693544012,1500
1738.4005546868639,1492
1740.4039340544127,1478
1742.406807715001,1479
1744.4091759266616,1489
1746.4110389475054,1455
1748.4123970357223,1452
1750.413250449582,1479
1752.4135994474318,1413
1754.4134442876993,1443
1756.4127852288902,1407
1758.4116225295893,1400
1760.4099564484595,1448
1762.407787244244,1457
1764.405115175764,1435
1766.4019405019203,1446
1768.3982634816916,1441
1770.3940843741357,1450
1772.3894034383907,1490
1774.3842209336717,1537
1776.378537119274,1462
1778.372352254571,1489
1780.3656665990156,1467
1782.3584804121397,1466
1784.3507939535534,1413
1786.3426074829463,1455
1788.3339212600863,1425
1790.3247355448211,1483
1792.3150505970766,1413
1794.3048666768573,1452
1796.2941840442477,1459
1798.2830029594106,1398
1800.2713236825884,1342
1802.2591464741004,1408
1804.2464715943465,1403
1806.2332993038058,1433
1808.2196298630352,1427
1810.2054635326708,1438
1812.190800573428,1411
1814.175641246101,1404
1816.1599858115628,1431
1818.1438345307652,1460
1820.127187664738,1382
1822.1100454745924,1454
1824.092408221516,1442
1826.0742761667766,1394
1828.055649571721,1457
1830.0365286977735,1425
1832.0169138064398,1467
1833.9968051593014,1436
1835.9762030180214,1435
1837.9551076443408,1458
1839.9335193000788,1428
1841.9114382471344,1469
1843.888864747485,1454
1845.8657990631878,1435
1847.842241456378,1429
1849.8181921892697,1426
1851.7936515241558,1439
1853.7686197234098,1473
1855.7430970494815,1406
1857.7170837649014,1428
1859.6905801322787,1426
1861.6635864143004,1429
1863.6361028737338,1363
1865.608129773424,1435
1867.5796673762961,1415
1869.5507159453537,1443
1871.521275743678,1403
1873.4913470344313,1441
1875.4609300808534,1414
1877.4300251462632,1445
1879.3986324940588,1461
1881.366752387717,1466
1883.3343850907936,1438
1885.3015308669228,1444
1887.268189979819,1420
1889.2343626932739,1458
1891.2000492711595,1428
1893.1652499774254,1408
1895.1299650761011,1449
1897.0941948312952,1405
1899.0579395071945,1423
1901.0211993680641,1459
1902.98397467825,1467
1904.9462657021745,1449
1906.9080727043415,1456
1908.869395949332,1376
1910.8302357018065,1408
1912.790592226504,1489
1914.7504657882428,1415
1916.7098566519212,1427
1918.6687650825133,1482
1920.6271913450764,1417
1922.5851357047422,1444
1924.5425984267245,1408
1926.499579776314,1449
1928.4560800188833,1431
1930.4120994198802,1536
1932.367638244833,1535
1934.32269675935,1459
1936.2772752291175,1415
1938.231373919899,1479
1940.1849930975404,1463
1942.1381330279637,1456
1944.0907939771696,1459
1946.0429762112412,1469
1947.9946799963363,1448
1949.9459055986945,1448
1951.896653284633,1421
1953.8469233205478,1415
1955.7967159729142,1431
1957.7460315082863,1458
1959.6948701932974,1429
1961.6432322946594,1467
1963.5911180791632,1480
1965.5385278136787,1485
1967.4854617651545,1479
1969.4319202006182,1469
1971.377903387176,1438
1973.3234115920136,1426
1975.268445082395,1446
1977.2130041256642,1459
1979.1570889892423,1484
1981.1006999406304,1369
1983.04383724741,1489
1984.986501177238,1464
1986.928691997853,1438
1988.8704099770712,1403
1990.811655382789,1474
1992.7524284829801,1467
1994.692729545698,1446
1996.6325588390755,1486
1998.5719166313224,1471
2000.5108031907307,1477
2002.4492187856677,1474
2004.387163684583,1401
2006.3246381560011,1450
2008.2616424685298,1433
2010.1981768908527,1470
2012.1342416917332,1463
2014.069837140014,1465
2016.0049635046162,1410
2017.9396210545406,1480
2019.8738100588666,1461
2021.8075307867502,1494
2023.740783507431,1451
2025.6735684902228,1482
2027.6058860045214,1463
2029.5377363198004,1411
2031.4691197056118,1416
2033.4000364315875,1441
2035.3304867674374,1384
2037.260470982952,1440
2039.189989347998,1457
2041.1190421325232,1436
2043.047629606554,1454
2044.9757520401945,1393
2046.9034097036288,1413
2048.8306028671195,1474
2050.7573318010086,1421
2052.683596775716,1428
2054.609398061742,1470
2056.5347359296647,1461
2058.4596106501403,1433
2060.384022493906,1435
2062.3079717317764,1468
2064.231458634646,1464
2066.1544834734873,1443
2068.077046519352,1455
2069.99914804337,1471
2071.9207883167524,1479
2073.8419676107865,1441
2075.7626861968406,1440
2077.6829443463607,1490
2079.6027423308715,1448
2081.522080421977,1498
2083.440958891362,1503
2085.359378010786,1458
2087.2773380520907,1451
2089.194839287196,1465
2091.111881988101,1504
2093.0284664268825,1407
2094.9445928756973,1466
2096.86026160678,1483
2098.775472892446,1529
2100.690227005088,1482
2102.604524217178,1463
2104.5183648012676,1434
2106.431749029985,1469
2108.34467717604,1443
2110.2571495122206,1449
2112.169166311393,1479
2114.080727846503,1444
2115.9918343905747,1440
2117.902486216711,1455
2119.8126835980956,1484
2121.722426807987,1471
2123.6317161197285,1477
2125.5405518067364,1471
2127.448934142509,1501
2129.356863400624,1480
2131.264339854737,1450
2133.1713637785815,1496
2135.077935445972,1493
2136.9840551308002,1477
2138.889723107037,1499
2140.7949396487334,1480
2142.699705030018,1475
2144.6040195250994,1479
2146.507883408264,1484
2148.4112969538774,1474
2150.3142604363848,1531
2152.2167741303097,1434
2154.1188383102535,1474
2156.0204532508997,1494
2157.9216192270064,1453
2159.822336513414,1492
2161.7226053850413,1468
2163.622426116884,1501
2165.5217989840185,1530
2167.4207242616,1488
2169.319202224862,1499
2171.2172331491165,1500
2173.1148173097563,1486
2175.0119549822507,1499
2176.90864644215,1520
2178.8048919650823,1555
2180.7006918267534,1525
2182.596046302952,1461
2184.4909556695407,1479
2186.3854202024645,1487
2188.279440177746,1524
2190.173015871487,1484
2192.066147559868,1508
2193.958835519149,1450
2195.851080025667,1483
2197.7428813558417,1524
2199.6342397861667,1531
2201.5251555932186,1506
2203.415629053651,1494
2205.3056604441986,1537
2207.19525004167,1531
2209.084398122958,1511
2210.9731049650327,1566
2212.861370844941,1566
2214.749196039812,1481
2216.636580826851,1606
2218.523525483344,1493
2220.410030286655,1569
2222.296095514226,1514
2224.1817214435805,1471
2226.066908352319,1511
2227.951656518121,1483
2229.835966218746,1515
2231.71983773203,1462
2233.6032713358913,1505
2235.486267308324,1511
2237.3688259274036,1490
2239.2509474712824,1478
2241.132632218193,1467
2243.013880446447,1476
2244.8946924344323,1531
2246.7750684606203,1510
2248.6550088035574,1482
2250.534513741871,1495
2252.413583554265,1473
2254.292218519526,1466
2256.170418916517,1547
2258.0481850241786,1445
2259.925517121534,1479
2261.8024154876825,1415
2263.678880401803,1509
2265.5549121431536,1411
2267.430510991071,1497
2269.305677224971,1489
2271.180411124348,1476
2273.0547129687766,1476
2274.9285830379076,1456
2276.8020216114737,1489
2278.6750289692845,1515
2280.5476053912294,1435
2282.4197511572766,1497
2284.2914665474727,1481
2286.162751841943,1569
2288.0336073208937,1534
2289.904033264608,1498
2291.774029953448,1478
2293.6435976678554,1524
2295.5127366883517,1464
2297.381447295534,1452
2299.2497297700825,1425
2301.1175843927526,1389
2302.9850114443825,1363
2304.852011205885,1340
2306.7185839582553,1304
2308.5847299825664,1311
2310.4504495599676,1289
2312.3157429716925,1269
2314.1806104990483,1280
2316.0450524234247,1273
2317.9090690262888,1230
2319.772660589186,1284
2321.635827393742,1250
2323.498569721661,1255
2325.3608878547248,1273
2327.2227820747967,1270
2329.0842526638157,1316
2330.945299903803,1237
2332.805924076857,1262
2334.6661254651535,1293
2336.525904350951,1283
2338.3852610165827,1263
2340.244195744464,1219
2342.102708817088,1274
2343.9608005170253,1224
2345.8184711269287,1288
2347.675720929526,1236
2349.532550207628,1293
2351.38895924412,1301
2353.24494832197,1273
2355.100517724223,1274
2356.955667734004,1244
2358.810398634514,1267
2360.664710709037,1303
2362.5186042409337,1271
2364.3720795136437,1256
2366.225136810686,1283
2368.0777764156583,1270
2369.929998612237,1286
2371.7818036841777,1259
2373.633191915315,1257
2375.484163589562,1241
2377.3347189909114,1263
2379.184858403434,1291
2381.03458211128,1283
2382.8838903986775,1286
2384.732783549936,1284
2386.5812618494406,1283
2388.4293255816588,1274
2390.2769750311327,1262
2392.1242104824883,1309
2393.971032220427,1272
2395.8174405297295,1252
2397.6634356952563,1301
2399.509018001947,1300
2401.3541877348193,1294
2403.1989451789705,1263
2405.043290619576,1313
2406.8872243418905,1290
2408.730746631247,1272
2410.5738577730594,1237
2412.4165580528183,1264
2414.258847756095,1328
2416.100727168537,1306
2417.9421965758734,1325
2419.783256263912,1290
2421.623906518538,1256
2423.4641476257157,1244
2425.303979871491,1275
2427.143403541984,1304
2428.9824189233977,1271
2430.821026302012,1307
2432.6592259641866,1318
2434.497018196361,1280
2436.33440328505,1252
2438.171381516851,1278
2440.00795317844,1312
2441.844118556569,1270
2443.6798779380724,1313
2445.5152316098606,1337
2447.3501798589255,1245
2449.1847229723357,1276
2451.0188612372403,1307
2452.8525949408663,1255
2454.6859243705203,1291
2456.518849813587,1333
2458.3513715575314,1298
2460.183489889895,1307
2462.015205098301,1329
2463.8465174704493,1296
2465.67742729412,1275
2467.5079348571717,1285
2469.338040447542,1299
2471.1677443532476,1327
2472.9970468623833,1280
2474.825948263123,1336
2476.6544488437207,1273
2478.482548892508,1306
2480.310248697896,1334
2482.137548548374,1283
2483.9644487325118,1300
2485.790949538956,1252
2487.617051256433,1271
2489.44275417375,1319
2491.26805857979,1299
2493.0929647635157,1332
2494.917473013971,1272
2496.741583620276,1334
2498.5652968716304,1363
2500.3886130573137,1365
2502.2115324666834,1295
2504.0340553891765,1320
2505.856182114308,1327
2507.6779129316733,1318
2509.499248130945,1293
2511.3201880018764,1351
2513.140732834298,1339
2514.9608829181198,1327
2516.780638543331,1275
2518.6,1287
2520.418967578273,1316
2522.237541568376,1340
2524.0557222606144,1274
2525.8735099453706,1347
2527.6909049131086,1334
2529.507907454368,1249
2531.32451785977,1333
2533.140736420014,1361
2534.9565634258774,1363
2536.771999168218,1366
2538.5870439379714,1386
2540.4016980261526,1390
2542.2159617238544,1359
2544.02983532225,1375
2545.8433191125914,1316
2547.656413386209,1361
2549.4691184345115,1357
2551.2814345489874,1397
2553.093362021204,1340
2554.904901142808,1339
2556.716052205523,1424
2558.526815501153,1427
2560.3371913215824,1427
2562.147179958771,1382
2563.956781704761,1382
2565.7659968516705,1375
2567.5748256916986,1389
2569.3832685171224,1402
2571.1913256202984,1429
2572.9989972936614,1389
2574.806283829725,1365
2576.613185521084,1404
2578.4197026604074,1480
2580.2258355404483,1425
2582.031584454035,1411
2583.836949694077,1487
2585.6419315535613,1419
2587.4465303255533,1388
2589.2507463032002,1498
2591.0545797797245,1440
2592.8580310484303,1473
2594.6611004026995,1485
2596.463788135992,1460
2598.266094541849,1506
2600.0680199138874,1509
2601.869564545807,1498
2603.670728731383,1480
2605.4715127644704,1497
2607.2719169390048,1468
2609.071941548998,1512
2610.8715868885433,1498
2612.670853251811,1500
2614.469740933052,1562
2616.268250226594,1520
2618.0663814268455,1517
2619.864134828292,1538
2621.6615107255006,1515
2623.458509413115,1538
2625.2551311858597,1584
2627.0513763385347,1470
2628.8472451660223,1476
2630.6427379632833,1512
2632.4378550253564,1503
2634.232596647359,1456
2636.026963124488,1487
2637.8209547520187,1462
2639.6145718253065,1505
2641.407814639785,1493
2643.200683490966,1440
2644.9931786744414,1459
2646.7853004858807,1486
2648.577049221034,1481
2650.3684251757277,1468
2652.1594286458712,1415
2653.9500599274484,1449
2655.740319316525,1429
2657.5302071092437,1389
2659.3197236018286,1402
2661.10886909058,1413
2662.8976438718782,1383
2664.686048242183,1436
2666.4740824980327,1389
2668.2617469360443,1381
2670.0490418529134,1400
2671.8359675454153,1357
2673.622524310403,1349
2675.408712444811,1411
2677.1945322456495,1308
2678.979984010009,1310
2680.76506803506,1363
2682.5497846180497,1358
2684.334134056306,1318
2686.1181166472343,1320
2687.9017326883213,1342
2689.6849824771293,1314
2691.4678663113013,1383
2693.2503844885596,1390
2695.032537306705,1304
2696.8143250636167,1351
2698.5957480572542,1321
2700.3768065856534,1312
2702.1575009469316,1323
2703.937831439283,1294
2705.717798360982,1287
2707.4974020103837,1304
2709.276642685917,1346
2711.055520686095,1320
2712.834036309506,1273
2714.612189854819,1255
2716.389981620782,1249
2718.1674119062204,1272
2719.944481010041,1359
2721.721189231226,1283
2723.4975368688415,1305
2725.273524222027,1315
2727.0491515900053,1343
2728.824419272075,1316
2730.5993275676146,1255
2732.3738767760838,1297
2734.148067197016,1289
2735.921899130031,1259
2737.6953728748194,1286
2739.468488731156,1274
2741.2412469988926,1292
2743.0136479779617,1235
2744.785691968372,1270
2746.5573792702116,1336
2748.3287101836504,1242
2750.099685008934,1270
2751.870304046388,1300
2753.640567596418,1285
2755.4104759595057,1267
2757.1800294362156,1243
2758.949228327187,1230
2760.7180729331412,1280
2762.486563554877,1296
2764.254700493272,1263
2766.022484049284,1325
2767.789914523947,1304
2769.5569922183786,1261
2771.3237174337705,1238
2773.090090471394,1257
2774.8561116326036,1274
2776.6217812188274,1274
2778.3870995315756,1222
2780.1520668724356,1280
2781.9166835430747,1257
2783.6809498452394,1227
2785.444866080754,1296
2787.2084325515225,1268
2788.971649559527,1252
2790.73451740683,1249
2792.4970363955713,1278
2794.2592068279705,1269
2796.0210290063264,1258
2797.7825032330147,1235
2799.543629810493,1257
2801.304409041296,1255
2803.0648412280366,1290
2804.8249266734088,1234
2806.5846656801846,1236
2808.344058551212,1297
2810.1031055894246,1274
2811.8618070978273,1266
2813.6201633795085,1249
2815.378174737636,1307
2817.1358414754536,1261
2818.893163896285,1263
2820.6501423035334,1323
2822.4067770006814,1275
2824.1630682912883,1302
2825.9190164789957,1297
2827.6746218675207,1292
2829.429884760661,1271
2831.184805462294,1295
2832.9393842763743,1324
2834.693621506936,1297
2836.4475174580916,1260
2838.201072434034,1281
2839.954286739034,1288
2841.707160677441,1262
2843.459694553685,1227
2845.2118886722724,1294
2846.96374333779,1223
2848.7152588549034,1261
2850.4664355283567,1276
2852.217273662973,1296
2853.9677735636546,1254
2855.7179355353833,1282
2857.4677598832186,1233
2859.217246912299,1262
2860.9663969278427,1308
2862.715210235146,1264
2864.4636871395846,1267
2866.211827946614,1231
2867.9596329617652,1297
2869.7071024906536,1315
2871.4542368389684,1279
2873.20103631248,1291
2874.947501217038,1245
2876.6936318585695,1258
2878.4394285430812,1287
2880.1848915766604,1272
2881.9300212654707,1245
2883.6748179157553,1235
2885.4192818338374,1229
2887.1634133261173,1233
2888.907212699077,1304
2890.6506802592744,1342
2892.393816313348,1315
2894.1366211680142,1302
2895.8790951300693,1230
2897.621238506388,1305
2899.363051603925,1257
2901.1045347297118,1267
2902.8456881908596,1246
2904.58651229456,1286
2906.327007348081,1248
2908.067173658772,1266
2909.8070115340597,1268
2911.5465212814497,1255
2913.285703208527,1243
2915.0245576229563,1295
2916.7630848324807,1283
2918.5012851449196,1268
2920.2391588681758,1281
2921.976706310227,1287
2923.7139277791334,1208
2925.4508235830313,1288
2927.187394030137,1253
2928.923639428745,1213
2930.6595600872306,1281
2932.395156314046,1244
2934.1304284177218,1310
2935.8653767068713,1276
2937.6000014901815,1286
2939.3343030764227,1264
2941.068281774442,1259
2942.8019378931644,1253
2944.5352717415976,1264
2946.2682836288236,1301
2948.0009738640065,1338
2949.7333427563885,1260
2951.465390615289,1297
2953.1971177501086,1263
2954.9285244703265,1297
2956.6596110855,1294
2958.3903779052657,1285
2960.1208252393385,1357
2961.8509533975125,1281
2963.5807626896617,1282
2965.3102534257378,1289
2967.0394259157715,1292
2968.768280469873,1260
2970.496817398232,1261
2972.2250370111146,1257
2973.952939618869,1271
2975.6805255319196,1289
2977.4077950607707,1291
2979.134748516006,1321
2980.861386208289,1298
2982.587708448359,1272
2984.313715547037,1300
2986.039407815222,1294
2987.764785563891,1248
2989.489849104102,1309
2991.2145987469908,1261
2992.9390348037705,1269
2994.6631575857346,1209
2996.3869674042576,1210
2998.1104645707887,1244
2999.83364939686,1296
3001.5565221940783,1296
3003.2790832741334,1250
3005.0013329487924,1268
3006.7232715298996,1275
3008.4448993293804,1221
3010.166216659239,1282
3011.887223831558,1233
3013.607921158498,1279
3015.3283089522993,1282
3017.0483875252826,1237
3018.7681571898443,1249
3020.4876182584626,1206
3022.2067710436927,1270
3023.9256158581707,1275
3025.644153014609,1246
3027.362382825801,1246
3029.0803056046193,1266
3030.797921664012,1290
3032.5152313170106,1264
3034.2322348767225,1268
3035.9489326563353,1285
3037.665324969115,1250
3039.3814121284063,1212
3041.097194447633,1297
3042.812672240299,1224
3044.5278458199855,1265
3046.2427155003525,1307
3047.9572815951406,1312
3049.671544418167,1328
3051.38550428333,1245
3053.0991615046073,1196
3054.812516396051,1269
3056.5255692717974,1251
3058.2383204460575,1269
3059.9507702331257,1234
3061.662918947372,1243
3063.3747669032446,1211
3065.0863144152736,1206
3066.7975617980674,1237
3068.508509366309,1283
3070.219157434767,1240
3071.9295063182844,1219
3073.639556331785,1199
3075.3493077902704,1247
3077.058761008821,1226
3078.7679163025964,1247
3080.476773986837,1264
3082.1853343768594,1263
3083.89359778806,1217
3085.6015645359153,1253
3087.3092349359786,1262
3089.016609303884,1225
3090.7236879553434,1248
3092.4304712061476,1243
3094.136959372166,1278
3095.843152769349,1241
3097.5490517137237,1224
3099.2546565213966,1265
3100.959967508554,1287
3102.66498499146,1358
3104.3697092864577,1288
3106.0741407099695,1294
3107.778279578498,1269
3109.482126208622,1283
3111.1856809170004,1288
3112.8889440203716,1255
3114.5919158355528,1299
3116.294596679439,1281
3117.996986869006,1268
3119.6990867213062,1278
3121.4008965534726,1311
3123.102416682717,1252
3124.803647426329,1304
3126.5045891016784,1300
3128.205242026213,1315
3129.90560651746,1263
3131.605682893025,1319
3133.3054714705922,1292
3135.0049725679282,1321
3136.7041865028714,1249
3138.4031135933465,1250
3140.101754157353,1290
3141.800108512971,1273
3143.498176978357,1272
3145.1959598717494,1248
3146.8934575114636,1294
3148.5906702158954,1253
3150.2875983035183,1281
3151.9842420928853,1263
3153.680601902627,1240
3155.376678051456,1259
3157.07247085816,1265
3158.767980641609,1258
3160.463207720748,1250
3162.158152414606,1198
3163.8528150422862,1254
3165.5471959229726,1297
3167.2412953759303,1279
3168.9351137204976,1292
3170.628651276098,1300
3172.3219083622307,1301
3174.014885298474,1234
3175.707582404485,1298
3177.4000000000005,1237
3179.092138404835,1292
3180.7839979388846,1285
3182.47557892212,1260
3184.166881674594,1263
3185.8579065164386,1290
3187.5486537678626,1249
3189.2391237491547,1311
3190.9293167806827,1331
3192.6192331828934,1284
3194.3088732763117,1217
3195.998237381542,1216
3197.687325819268,1287
3199.376138910251,1272
3201.064676975334,1238
3202.7529403354347,1206
3204.4409293115523,1238
3206.1286442247647,1281
3207.816085396229,1223
3209.5032531471825,1226
3211.190147798936,1263
3212.8767696728846,1254
3214.5631190905015,1255
3216.2491963733373,1257
3217.9350018430214,1270
3219.6205358212637,1269
3221.305798629851,1219
3222.990790590651,1223
3224.6755120256103,1258
3226.359963256751,1234
3228.0441446061795,1216
3229.7280563960758,1229
3231.411698948703,1241
3233.0950725863995,1240
3234.778177631587,1258
3236.461014406761,1202
3238.1435832345005,1281
3239.8258844374595,1231
3241.507918338374,1236
3243.1896852600576,1205
3244.8711855254023,1205
3246.552419457381,1244
3248.233387379042,1231
3249.914089613516,1221
3251.59452648401,1274
3253.274698313813,1247
3254.95460542629,1238
3256.6342481448855,1178
3258.313626793125,1251
3259.9927416946084,1174
3261.6715931730196,1220
3263.3501815521176,1231
3265.0285071557437,1196
3266.706570307815,1274
3268.3843713323286,1260
3270.0619105533615,1223
3271.739188295068,1216
3273.4162048816834,1247
3275.0929606375184,1202
3276.769455886966,1237
3278.445690954498,1233
3280.1216661646613,1265
3281.797381842087,1262
3283.4728383114807,1310
3285.1480358976296,1256
3286.8229749253996,1262
3288.4976557197333,1259
3290.172078605655,1207
3291.846243908266,1246
3293.5201519527463,1244
3295.193803064357,1179
3296.8671975684374,1201
3298.5403357904024,1239
3300.21321805575,1220
3301.8858446900567,1226
3303.558216018975,1242
3305.23033236824,1224
3306.9021940636603,1229
3308.57380143113,1235
3310.2451547966184,1235
3311.916254486174,1222
3313.5871008259246,1230
3315.2576941420766,1287
3316.9280347609147,1299
3318.5981230088046,1280
3320.2679592121895,1209
3321.9375436975924,1198
3323.606876791612,1231
3325.27595882093,1206
3326.944790112305,1181
3328.6133709925753,1243
3330.2817017886573,1271
3331.949782827547,1248
3333.617614436319,1254
3335.2851969421245,1247
3336.952530672199,1293
3338.619615953853,1288
3340.286453114475,1307
3341.9530424815357,1304
3343.619384382583,1282
3345.2854791452437,1266
3346.951327097224,1286
3348.6169285663073,1264
3350.2822838803577,1220
3351.947393367319,1282
3353.61225735521,1272
3355.2768761721345,1248
3356.9412501462693,1251
3358.605379605873,1218
3360.2692648792827,1233
3361.9329062949146,1260
3363.596304181263,1235
