CollectionTime,7/3/2024 2:26:04 PM
ExposureUsed,3
CalibratedSpectrum
-962.7078968117929,569
-959.9714848408522,585
-957.2358232597828,584
-954.5009119013725,617
-951.7667505983302,575
-949.0333391832855,583
-946.3006774887896,611
-943.5687653473143,578
-940.837602591253,585
-938.1071890529199,623
-935.3775245645503,595
-932.6486089583007,568
-929.9204420662485,604
-927.1930237203925,593
-924.4663537526524,636
-921.7404319948689,636
-919.0152582788041,606
-916.2908324361409,688
-913.5671542984834,695
-910.8442236973568,609
-908.1220404642074,612
-905.4006044304027,643
-902.679915427231,656
-899.959973285902,653
-897.2407778375464,594
-894.5223289132158,617
-891.8046263438832,633
-889.0876699604426,594
-886.3714595937089,624
-883.6559950744183,594
-880.9412762332282,631
-878.2273029007168,609
-875.5140749073835,607
-872.8015920836489,624
-870.0898542598545,612
-867.3788612662631,581
-864.6686129330585,607
-861.9591090903457,570
-859.2503495681506,608
-856.5423341964203,594
-853.8350628050229,593
-851.1285352237478,606
-848.4227512823054,621
-845.7177108103272,641
-843.0134136373656,623
-840.3098595928943,578
-837.6070485063082,609
-834.9049802069229,599
-832.2036545239757,564
-829.5030712866244,578
-826.8032303239481,632
-824.1041314649472,650
-821.4057745385428,604
-818.7081593735775,614
-816.0112857988148,607
-813.3151536429393,649
-810.6197627345566,610
-807.9251129021936,581
-805.2312039742981,597
-802.5380357792392,647
-799.8456081453069,675
-797.1539209007124,609
-794.462973873588,627
-791.772766891987,552
-789.083299783884,584
-786.3945723771743,596
-783.7065844996748,605
-781.0193359791231,587
-778.3328266431781,626
-775.6470563194197,606
-772.9620248353489,636
-770.2777320183878,619
-767.5941776958798,620
-764.9113616950891,652
-762.2292838432011,634
-759.5479439673222,607
-756.8673418944801,575
-754.1874774516235,610
-751.5083504656222,641
-748.8299607632671,636
-746.15230817127,612
-743.475392516264,675
-740.7992136248035,639
-738.1237713233636,601
-735.4490654383407,597
-732.7750957960521,587
-730.1018622227365,655
-727.4293645445534,593
-724.7576025875837,602
-722.0865761778291,609
-719.4162851412126,614
-716.7467293035781,641
-714.0779084906909,636
-711.409822528237,705
-708.7424712418238,636
-706.0758544569796,686
-703.4099719991541,663
-700.7448236937178,667
-698.0804093659622,675
-695.4167288411002,659
-692.7537819442656,659
-690.0915685005134,676
-687.4300883348199,643
-684.7693412720819,675
-682.1093271371178,679
-679.4500457546669,688
-676.7914969493897,668
-674.1336805458676,615
-671.4765963686034,670
-668.8202442420206,686
-666.1646239904642,702
-663.5097354382001,642
-660.8555784094151,630
-658.2021527282176,665
-655.5494582186366,702
-652.8974947046223,678
-650.2462620100463,721
-647.5957599587009,690
-644.9459883742998,703
-642.2969470804776,684
-639.6486359007902,700
-637.0010546587141,717
-634.3542031776476,687
-631.7080812809096,654
-629.0626887917401,704
-626.4180255333008,681
-623.7740913286734,682
-621.1308860008619,735
-618.4884093727904,754
-615.8466612673046,725
-613.2056415071715,698
-610.5653499150785,695
-607.9257863136347,781
-605.28695052537,757
-602.6488423727357,745
-600.0114616781036,714
-597.3748082637674,705
-594.7388819519412,747
-592.1036825647604,790
-589.4692099242818,813
-586.8354638524829,786
-584.2024441712624,776
-581.5701507024403,821
-578.9385832677575,794
-576.3077416888759,807
-573.6776257873787,724
-571.0482353847704,744
-568.4195703024757,765
-565.7916303618415,802
-563.164415384135,755
-560.5379251905453,748
-557.9121596021815,754
-555.2871184400748,723
-552.6628015251767,740
-550.0392086783606,720
-547.4163397204204,772
-544.794194472071,778
-542.1727727539491,805
-539.5520743866118,761
-536.9320991905377,813
-534.3128469861261,804
-531.6943175936979,824
-529.0765108334947,815
-526.4594265256793,861
-523.8430644903358,961
-521.2274245474689,983
-518.612506517005,1075
-515.9983102187913,1079
-513.3848354725959,1123
-510.77208209810846,1120
-508.16004991493924,1227
-505.5487387426199,1347
-502.9381484006032,1393
-500.3282787082628,1545
-497.71912948489364,1610
-495.1107005497117,1541
-492.5029917218539,1548
-489.8960028203786,1432
-487.28973366426493,1337
-484.68418407241325,1222
-482.07935386364494,1108
-479.47524285670266,1072
-476.87185087025,961
-474.2691777228715,967
-471.66722323307334,962
-469.0659872192821,929
-466.4654694998459,959
-463.86566989303384,930
-461.26658821703614,939
-458.66822428996414,931
-456.07057792985,931
-453.4736489546475,931
-450.877437182231,944
-448.28194243039627,922
-445.68716451686,900
-443.09310325926003,899
-440.49975847515555,881
-437.9071299820263,866
-435.31521759727354,931
-432.72402113821954,954
-430.13354042210767,987
-427.5437752661022,968
-424.95472548728867,926
-422.36639090267386,970
-419.7787713291855,994
-417.1918665836721,1009
-414.60567648290385,967
-412.0202008435715,1036
-409.4354394822874,1088
-406.8513922155845,1021
-404.26805885991723,972
-401.685439231661,1015
-399.103533147112,995
-396.522340422488,953
-393.9418608739278,1046
-391.3620943174908,1054
-388.7830405691583,1015
-386.2046994448317,942
-383.6270707603344,943
-381.05015433141045,928
-378.473949973725,850
-375.8984575028645,783
-373.32367673433623,785
-370.74960748356875,844
-368.1762495659117,865
-365.60360279663576,755
-363.03166699093265,638
-360.4604419639154,588
-357.8899275306178,590
-355.32012350599507,567
-352.7510297049233,567
-350.1826459421999,619
-347.61497203254316,593
-345.04800779059235,570
-342.4817530309082,523
-339.91620756797226,552
-337.35137121618743,591
-334.7872437898774,668
-332.22382510328725,694
-329.66111497058273,594
-327.09911320585127,651
-324.53781962310075,685
-321.9772340362607,634
-319.4173562591816,541
-316.8581861056348,560
-314.2997233893127,563
-311.7419679238294,578
-309.1849195227194,571
-306.62857799943856,583
-304.0729431673641,608
-301.51801483979375,646
-298.963792829947,662
-296.41027695096386,617
-293.85746701590574,608
-291.3053628377552,635
-288.7539642294155,708
-286.2032710037115,661
-283.65328297338897,696
-281.1039999511146,692
-278.5554217494762,715
-276.007548180983,771
-273.4603790580651,699
-270.9139141930734,640
-268.3681533982807,663
-265.8230964858798,706
-263.27874326798565,689
-260.7350935566336,672
-258.1921471637804,704
-255.6499039013039,827
-253.10836358100266,795
-250.56752601459698,744
-248.02739101372765,789
-245.48795838995704,835
-242.94922795476816,788
-240.41119951956557,803
-237.8738728956746,872
-235.33724789434166,882
-232.80132432673452,833
-230.2661020039418,789
-227.73158073697357,742
-225.19776033676033,842
-222.66464061415422,888
-220.1322213799284,866
-217.60050244477725,810
-215.06948361931552,788
-212.53916471408013,918
-210.00954553952818,971
-207.48062590603843,838
-204.9524056239104,775
-202.4248845033651,836
-199.8980623545441,970
-197.37193898751036,998
-194.84651421224817,1073
-192.32178783866232,977
-189.79775967657952,974
-187.27442953574644,1025
-184.7517972258321,1167
-182.2298625564256,1020
-179.7086253370378,862
-177.18808537710026,903
-174.66824248596583,1244
-172.14909647290835,1385
-169.6306471471229,1296
-167.11289431772548,968
-164.59583779375328,816
-162.07947738416453,1137
-159.5638128978386,1253
-157.04884414357605,1402
-154.53457093009854,1362
-152.02099306604828,1269
-149.50811035998936,1115
-146.99592262040665,1107
-144.48442965570587,1405
-141.97363127421409,1504
-139.46352728417958,1486
-136.95411749377126,1450
-134.44540171107985,1322
-131.93737974411636,1163
-129.43005140081357,1215
-126.92341648902493,1539
-124.41747481652521,1920
-121.91222619101006,1929
-119.40767042009657,1852
-116.90380731132257,1728
-114.40063667214702,1526
-111.8981583099503,1443
-109.3963720320337,1572
-106.89527764561933,2525
-104.39487495785067,3378
-101.89516377579241,3978
-99.39614390642998,5168
-96.89781515667039,4586
-94.40017733334128,4666
-91.90323024319173,3777
-89.40697369289148,3584
-86.91140748903172,3250
-84.41653143812482,2774
-81.92234534660395,2694
-79.42884902082358,3982
-76.93604226705907,6419
-74.4439248915071,8701
-71.95249670028534,9518
-69.46175749943245,11931
-66.97170709490854,13559
-64.48234529259423,19233
-61.99367189829195,25542
-59.50568671772464,27631
-57.01838955653636,29386
-54.53178022029283,25414
-52.045858514480074,20206
-49.560624244506016,19127
-47.07607721569923,18958
-44.59221723330904,19299
-42.10904410250669,24173
-39.62655762838392,26758
-37.14475761595372,25030
-34.66364387015028,20882
-32.18321619582866,19835
-29.70347439776515,19113
-27.224418280657005,20127
-24.74604764912317,22983
-22.26836230770266,32438
-19.7913620608565,58646
-17.315046712966478,65038
-14.83941606833514,65038
-12.36446993118659,65038
-9.89020810566592,65038
-7.416630395839093,65038
-4.94373660569363,65038
-2.471526539137585,65038
-6.821210263296962E-13,65038
2.47084320796705,65038
4.941003281093458,65038
7.410480415786196,65038
9.879274808531363,65038
12.347386655893956,65038
14.814816154518212,65038
17.28156350112681,65038
19.74762889252179,65038
22.21301252558385,65038
24.67771459727237,21909
27.141735304626195,5113
29.605074844762612,3253
32.06773341487792,2678
34.52971121224755,2327
36.99100843422559,2530
39.45162527824516,3025
41.91156194181792,3162
44.370818622535126,3029
46.82939551806646,2915
49.287292826160524,3334
51.74451074464503,3847
54.201049471426245,3446
56.65690920448981,2660
59.112090141899785,2498
61.56659248179983,2287
64.02041642241159,1981
66.4735621620365,1844
68.92602989905402,1523
71.37781983192338,1528
73.82893215918205,1637
76.27936707944684,1518
78.72912479141326,1777
81.17820549385567,2222
83.62660938562783,2267
86.07433666566146,1914
88.5213875329681,1490
90.96776218663751,1404
93.41346082583925,1316
95.85848364982041,1379
98.30283085790859,1486
100.7465026495089,1606
103.18949922410604,1935
105.63182078126385,1743
108.07346752062438,1586
110.51443964190923,1288
112.95473734491827,1231
115.39436082953114,1189
117.83331029570547,1045
120.27158594347827,1341
122.7091879729652,1568
125.1461165843615,1414
127.58237197794062,1371
130.01795435405518,1466
132.4528639131364,1437
134.88710085569494,1390
137.32066538231982,1345
139.75355769367923,1330
142.1857779905207,1229
144.61732647366978,976
147.04820334403132,1034
149.47840880258934,1095
151.90794305040674,1153
154.33680628862487,1227
156.76499871846443,1396
159.19252054122433,1433
161.61937195828352,1635
164.04555317109896,1811
166.47106438120693,1886
168.89590579022217,1991
171.320077599839,2218
173.7435800118302,2355
176.16641322804742,2458
178.58857745042144,2616
181.01007288096173,2807
183.43089972175687,2854
185.85105817497413,2683
188.27054844285988,2576
190.6893707277394,2510
193.10752523201643,2516
195.5250121581745,2536
197.9418317087751,2572
200.3579840864594,2723
202.7734694939469,2828
205.18828813403627,2969
207.6024402096051,2996
210.01592592360964,2971
212.42874547908548,2802
214.84089907914665,2731
217.2523869269868,2646
219.66320922587727,2696
222.0733661791695,2635
224.48285799029293,2633
226.8916848627572,2594
229.29984700014882,2674
231.7073446061355,2736
234.11417788446204,2685
236.520347038953,2698
238.92585227351185,2634
241.33069379212054,2705
243.73487179884035,2745
246.1383864978112,2682
248.541238093252,2837
250.9434267894609,2726
253.34495279081432,2720
255.74581630176783,2626
258.1460175268563,2725
260.54555667069314,2679
262.9444339379703,2766
265.3426495334594,2789
267.7402036620107,2661
270.1370965285529,2762
272.53332833809407,2660
274.9288992957214,2522
277.32380960660055,2612
279.718059475976,2663
282.1116491091717,2593
284.5045787115897,2521
286.89684848871195,2464
289.2884586460981,2485
291.67940938938807,2477
294.0697009242996,2480
296.4593334566299,2493
298.84830719225477,2442
301.23662233712923,2495
303.6242790972866,2458
306.01127767884,2384
308.39761828798066,2464
310.78330113097934,2364
313.16832641418534,2361
315.5526943440269,2376
317.9364051270112,2230
320.3194589697242,2291
322.70185607883093,2239
325.0835966610754,2228
327.4646809232805,2294
329.8451090723478,2248
332.2248813152577,2254
334.6039978590701,2228
336.9824589109231,2214
339.36026467803447,2229
341.7374153677,2130
344.113911187295,2142
346.48975234427337,2155
348.8649390461686,2098
351.2394715005918,2234
353.61334991523415,2083
355.9865744978655,2211
358.35914545633375,2111
360.73106299856715,2132
363.10232733257146,2098
365.47293866643247,2131
367.84289720831396,2045
370.2122031664593,2053
372.5808567491905,2152
374.9488581649083,2021
377.31620762209275,2023
379.6829053293021,1998
382.0489514951745,1918
384.4143463284262,1929
386.7790900378528,1998
389.14318283232853,2009
391.50662492080653,2095
393.86941651231916,2037
396.23155781597745,2032
398.5930490409713,2045
400.9538903965696,2060
403.3140820921202,2007
405.6736243370498,2018
408.03251734086336,1973
410.3907613131465,1939
412.74835646356166,1952
415.10530300185144,1990
417.4616011378372,1939
419.81725108141893,1993
422.1722530425758,1951
424.5266072313656,1966
426.880313857925,1889
429.2333731324701,1922
431.58578526529516,1909
433.9375504667738,1823
436.2886689473588,1894
438.63914091758113,1954
440.9889665880513,1865
443.33814616945835,1860
445.68667987257015,1853
448.03456790823395,1932
450.3818104873759,1912
452.72840782100013,1869
455.07436012019105,1878
457.41966759611057,1879
459.7643304600007,1882
462.10834892318155,1879
464.4517231970525,1828
466.79445349309174,1850
469.1365400228566,1846
471.4779829979826,1837
473.81878263018564,1882
476.15893913125876,1847
478.4984527130747,1893
480.8373235875855,1942
483.17555196682144,1989
485.5131380628919,2073
487.8500820879857,2068
490.1863842543697,2108
492.52204477439034,2242
494.8570638604725,2371
497.1914417251204,2604
499.52517858091653,2711
501.85827464052306,2752
504.19073011668036,2944
506.5225452222086,2792
508.85372017000566,2834
511.18425517304956,2718
513.514150444396,2784
515.8434061971808,2921
518.1720226446176,3276
520.4999999999999,3499
522.8273384766991,3474
525.1540382881666,3471
527.480099647932,3431
529.8055227696037,3107
532.1303078668694,2640
534.454455153496,2292
536.777964843328,2131
539.1008371502907,2079
541.4230722883866,2027
543.744670471698,2065
546.0656319143858,2072
548.3859568306899,2013
550.7056454349294,2060
553.0246979415016,2036
555.3431145648834,2066
557.6608955196306,2054
559.978041020377,2067
562.2945512818363,2051
564.6104265188006,2006
566.9256669461412,1982
569.2402727788082,2058
571.5542442318302,2123
573.8675815203156,1989
576.1802848594508,2127
578.4923544645015,2110
580.8037905508126,2112
583.114593333807,2125
585.4247630289875,2112
587.7342998519354,1937
590.0432040183106,1971
592.3514757438526,2035
594.6591152443794,2048
596.9661227357875,2042
599.2724984340531,2045
601.578242555231,2063
603.8833553154542,1981
606.1878369309362,2026
608.4916876179676,2045
610.7949075929192,1986
613.0974970722403,2044
615.3994562724587,1959
617.7007854101818,1956
620.0014847020951,1908
622.3015543649641,2015
624.6009946156324,1976
626.8998056710224,1989
629.1979877481361,2005
631.4955410640538,2065
633.7924658359349,2040
636.0887622810175,2011
638.3844306166192,2059
640.6794710601358,1981
642.9738838290426,1980
645.2676691408932,1959
647.5608272133207,1942
649.853358264037,1965
652.1452625108324,2064
654.4365401715764,1972
656.7271914642178,2037
659.0172166067838,2018
661.3066158173809,2044
663.5953893141935,2020
665.8835373154867,1971
668.1710600396028,1962
670.4579577049639,2023
672.7442305300709,2022
675.0298787335033,2006
677.3149025339197,1979
679.599302150058,1966
681.8830778007342,2063
684.1662297048437,1987
686.4487580813608,1986
688.7306631493387,2051
691.0119451279091,2024
693.2926042362834,2036
695.5726406937516,2011
697.8520547196814,2081
700.1308465335215,2064
702.4090163547982,1942
704.6865644031171,2017
706.9634908981619,1990
709.2397960596965,1996
711.5154801075631,1990
713.7905432616823,2050
716.0649857420548,2035
718.3388077687592,2051
720.612009561953,1974
722.8845913418733,2020
725.1565533288352,1996
727.427895743234,1968
729.6986188055427,2013
731.9687227363137,2048
734.238207756178,2023
736.5070740858458,2037
738.7753219461066,2023
741.0429515578281,2049
743.3099631419569,1982
745.5763569195191,2038
747.8421331116193,2054
750.1072919394409,2080
752.3718336242467,2007
754.6357583873777,1993
756.8990664502545,2052
759.1617580343765,2005
761.423833361321,2029
763.6852926527457,2069
765.9461361303862,2034
768.206364016058,2053
770.4659765316536,2103
772.7249738991469,2073
774.9833563405886,2022
777.2411240781092,2028
779.4982773339183,2071
781.7548163303044,2063
784.010741289634,2031
786.2660524343538,2189
788.5207499869881,2126
790.7748341701416,2122
793.0283052064964,2136
795.2811633188143,2048
797.5334087299362,2061
799.7850416627813,1986
802.0360623403484,2027
804.2864709857143,2066
806.5362678220353,2042
808.7854530725468,2060
811.0340269605625,2011
813.2819897094754,2082
815.5293415427581,2074
817.77608268396,2011
820.0222133567116,2101
822.2677337847211,2038
824.5126441917765,2044
826.7569448017433,2100
829.0006358385675,2026
831.2437175262731,2028
833.4861900889629,2001
835.7280537508192,2107
837.9693087361026,2053
840.2099552691533,2058
842.4499935743896,2034
844.689423876309,2088
846.9282463994886,2057
849.1664613685833,2062
851.4040690083276,2012
853.6410695435349,2000
855.877463199097,2018
858.1132501999847,2030
860.3484307712487,2031
862.5830051380175,2048
864.8169735254988,2115
867.0503361589791,2063
869.2830932638243,2035
871.5152450654786,2031
873.7467917894654,2095
875.9777336613873,2015
878.2080709069252,2120
880.4378037518389,2073
882.666932421968,2072
884.8954571432301,2066
887.1233781416219,2165
889.3506956432192,2135
891.5774098741766,2059
893.803521060728,2054
896.0290294291852,2089
898.2539352059397,2058
900.4782386174619,2073
902.7019398903011,2050
904.925039251085,1993
907.147536926521,2062
909.3694331433943,1973
911.59072812857,2021
913.8114221089921,2033
916.0315153116827,1978
918.2510079637437,1982
920.4699002923547,1983
922.6881925247761,2055
924.905884888345,1961
927.1229776104793,1946
929.3394709186747,1955
931.555365040506,1995
933.7706602036275,1925
935.9853566357709,1885
938.1994545647489,1904
940.4129542184515,1879
942.6258558248488,1872
944.8381596119883,1880
947.0498658079974,1850
949.2609746410825,1846
951.4714863395287,1877
953.6814011316998,1865
955.8907192460387,1800
958.0994409110671,1897
960.3075663553858,1882
962.5150958076741,1904
964.7220294966913,1882
966.928367651274,1870
969.1341105003388,1863
971.3392582728806,1880
973.5438111979742,1917
975.747769504772,1841
977.9511334225061,1831
980.153903180487,1785
982.3560790081052,1820
984.5576611348289,1835
986.7586497902058,1761
988.9590452038618,1778
991.158847605503,1791
993.3580572249133,1758
995.5566742919558,1759
997.7546990365728,1743
999.952131688785,1782
1002.1489724786926,1707
1004.3452216364743,1764
1006.5408793923874,1759
1008.7359459767691,1751
1010.9304216200343,1653
1013.1243065526781,1668
1015.3176010052733,1712
1017.510305208472,1690
1019.7024193930064,1652
1021.8939437896848,1655
1024.0848786293977,1637
1026.2752241431122,1626
1028.4649805618747,1707
1030.6541481168115,1604
1032.842727039127,1573
1035.0307175601051,1591
1037.2181199111074,1552
1039.4049343235752,1629
1041.591161029029,1655
1043.7768002590683,1585
1045.9618522453698,1610
1048.1463172196918,1635
1050.3301954138697,1640
1052.513487059818,1610
1054.69619238953,1622
1056.8783116350783,1595
1059.0598450286152,1576
1061.2407928023704,1648
1063.4211551886528,1574
1065.6009324198508,1591
1067.780124728432,1557
1069.9587323469414,1588
1072.1367555080046,1534
1074.314194444325,1494
1076.4910493886855,1593
1078.667320573947,1551
1080.843008233051,1573
1083.0181125990161,1587
1085.1926339049414,1498
1087.3665723840027,1488
1089.5399282694575,1485
1091.7127017946405,1478
1093.8848931929647,1575
1096.0565026979243,1542
1098.2275305430899,1510
1100.3979769621128,1518
1102.567842188722,1543
1104.737126456726,1512
1106.9058300000124,1493
1109.0739530525475,1528
1111.2414958483764,1516
1113.4084586216231,1489
1115.5748416064907,1453
1117.7406450372605,1478
1119.9058691482942,1545
1122.0705141740304,1568
1124.2345803489884,1408
1126.3980679077658,1487
1128.5609770850388,1458
1130.7233081155623,1452
1132.8850612341707,1460
1135.0462366757774,1427
1137.2068346753745,1420
1139.3668554680326,1422
1141.526299288901,1451
1143.68516637321,1509
1145.8434569562655,1439
1148.001171273455,1503
1150.158309560244,1427
1152.3148720521767,1438
1154.470858984876,1361
1156.626270594044,1410
1158.7811071154629,1418
1160.9353687849912,1396
1163.089055838569,1422
1165.242168512213,1446
1167.3947070420209,1334
1169.5466716641677,1392
1171.6980626149075,1375
1173.8488801305748,1340
1175.9991244475814,1412
1178.1487958024186,1381
1180.2978944316555,1408
1182.4464205719428,1414
1184.5943744600072,1397
1186.7417563326567,1367
1188.8885664267755,1361
1191.0348049793297,1371
1193.1804722273619,1343
1195.325568407995,1343
1197.4700937584303,1385
1199.614048515948,1423
1201.7574329179074,1433
1203.900247201746,1439
1206.042491604982,1358
1208.1841663652099,1439
1210.3252717201053,1476
1212.465807907422,1394
1214.6057751649923,1392
1216.7451737307279,1423
1218.8840038426192,1377
1221.0222657387353,1448
1223.1599596572241,1421
1225.2970858363137,1422
1227.4336445143094,1343
1229.5696359295966,1415
1231.705060320639,1430
1233.8399179259786,1455
1235.9742089842384,1443
1238.107933734118,1415
1240.2410924143974,1405
1242.373685263935,1403
1244.5057125216676,1410
1246.6371744266116,1432
1248.7680712178621,1435
1250.898403134593,1411
1253.028170416058,1424
1255.1573733015875,1397
1257.2860120305932,1433
1259.4140868425648,1444
1261.54159797707,1421
1263.6685456737569,1446
1265.7949301723515,1449
1267.9207517126597,1430
1270.046010534565,1469
1272.1707068780306,1426
1274.2948409830983,1437
1276.4184130898889,1461
1278.541423438603,1407
1280.6638722695184,1404
1282.785759822993,1438
1284.9070863394636,1476
1287.0278520594447,1437
1289.1480572235314,1418
1291.2677020723963,1517
1293.3867868467923,1473
1295.5053117875495,1500
1297.623277135579,1525
1299.740683131868,1484
1301.8575300174857,1445
1303.973818033578,1376
1306.0895474213703,1498
1308.2047184221678,1477
1310.3193312773528,1450
1312.4333862283888,1437
1314.5468835168163,1458
1316.659823384255,1469
1318.7722060724045,1515
1320.8840318230418,1410
1322.9953008780249,1510
1325.1060134792888,1471
1327.2161698688478,1438
1329.3257702887959,1474
1331.4348149813054,1454
1333.5433041886276,1482
1335.6512381530933,1541
1337.7586171171101,1456
1339.8654413231675,1433
1341.9717110138317,1482
1344.0774264317488,1470
1346.1825878196432,1453
1348.2871954203192,1470
1350.3912494766587,1477
1352.4947502316231,1484
1354.5976979282532,1509
1356.7000928096686,1506
1358.8019351190665,1550
1360.9032250997243,1467
1363.0039629949988,1505
1365.1041490483235,1454
1367.2037835032133,1471
1369.3028666032606,1495
1371.401398592137,1450
1373.4993797135926,1486
1375.5968102114575,1419
1377.6936903296396,1514
1379.7900203121262,1504
1381.8858004029835,1490
1383.9810308463561,1503
1386.075711886469,1519
1388.1698437676241,1412
1390.2634267342032,1519
1392.356461030667,1475
1394.4489469015557,1520
1396.5408845914872,1569
1398.6322743451592,1549
1400.7231164073469,1497
1402.813411022907,1507
1404.903158436773,1582
1406.9923588939578,1554
1409.0810126395531,1514
1411.1691199187303,1562
1413.2566809767386,1595
1415.343696058907,1510
1417.4301654106425,1581
1419.5160892774315,1495
1421.6014679048399,1528
1423.6863015385125,1575
1425.7705904241707,1563
1427.8543348076178,1561
1429.9375349347342,1519
1432.0201910514802,1638
1434.102303403894,1573
1436.1838722380944,1589
1438.2648978002767,1586
1440.3453803367174,1602
1442.4253200937692,1621
1444.5047173178677,1667
1446.5835722555234,1612
1448.6618851533285,1578
1450.739656257952,1684
1452.8168858161434,1634
1454.8935740747306,1733
1456.96972128062,1712
1459.045327680797,1708
1461.120393522327,1705
1463.1949190523528,1714
1465.2689045180973,1764
1467.3423501668608,1782
1469.415256246024,1733
1471.4876230030463,1806
1473.559450685465,1802
1475.6307395408976,1806
1477.7014898170391,1749
1479.771701761665,1874
1481.8413756226287,1836
1483.9105116478618,1860
1485.9791100853772,1953
1488.0471711832643,1879
1490.1146951896926,1936
1492.1816823529098,2008
1494.2481329212433,1897
1496.3140471430984,1934
1498.3794252669609,1865
1500.4442675413939,2029
1502.5085742150404,1979
1504.572345536622,1989
1506.6355817549388,2006
1508.6982831188702,2021
1510.7604498773744,2067
1512.8220822794883,2075
1514.8831805743293,2062
1516.9437450110909,2108
1519.003775839048,2133
1521.0632733075522,2120
1523.1222376660367,2223
1525.1806691640113,2208
1527.2385680510652,2289
1529.2959345768668,2269
1531.3527689911643,2288
1533.4090715437833,2413
1535.4648424846291,2433
1537.5200820636855,2465
1539.5747905310159,2418
1541.6289681367616,2426
1543.6826151311434,2479
1545.7357317644614,2601
1547.7883182870937,2571
1549.8403749494987,2581
1551.8919020022113,2683
1553.9428996958477,2681
1555.9933682811015,2742
1558.0433080087469,2738
1560.0927191296346,2869
1562.1416018946961,2998
1564.1899565549415,3029
1566.2377833614592,2900
1568.2850825654164,2985
1570.3318544180606,2928
1572.3780991707158,2871
1574.423817074788,2716
1576.4690083817595,2649
1578.5136733431923,2560
1580.5578122107272,2534
1582.601425236085,2376
1584.6445126710646,2382
1586.6870747675434,2261
1588.7291117774776,2230
1590.7706239529034,2127
1592.8116115459347,1984
1594.8520748087658,2009
1596.8920139936686,1964
1598.9314293529933,1841
1600.9703211391711,1839
1603.008689604711,1875
1605.0465350022005,1871
1607.0838575843068,1778
1609.1206576037753,1778
1611.1569353134305,1734
1613.1926909661765,1729
1615.2279248149953,1686
1617.2626371129481,1695
1619.2968281131757,1653
1621.3304980688963,1620
1623.3636472334088,1716
1625.39627586009,1566
1627.428384202396,1569
1629.459972513861,1635
1631.4910410480993,1600
1633.5215900588028,1563
1635.551619799744,1549
1637.5811305247717,1536
1639.6101224878166,1537
1641.6385959428862,1619
1643.6665511440683,1618
1645.693988345528,1543
1647.7209078015112,1531
1649.7473097663405,1597
1651.7731944944203,1622
1653.7985622402307,1559
1655.823413258333,1545
1657.847747803366,1553
1659.8715661300494,1527
1661.8948684931793,1544
1663.9176551476316,1617
1665.9399263483624,1546
1667.9616823504057,1518
1669.982923408873,1597
1672.0036497789574,1568
1674.0238617159293,1533
1676.043559475138,1529
1678.0627433120121,1488
1680.081413482059,1432
1682.0995702408654,1499
1684.117213844096,1565
1686.134344547495,1596
1688.1509626068864,1497
1690.1670682781705,1527
1692.182661817329,1524
1694.1977434804217,1562
1696.2123135235875,1500
1698.226372203043,1490
1700.2399197750851,1493
1702.2529564960905,1547
1704.2654826225112,1463
1706.277498410882,1506
1708.2890041178139,1495
1710.2999999999988,1454
1712.3104863142066,1565
1714.3204633172854,1542
1716.329931266163,1492
1718.3388904178469,1501
1720.3473410294214,1507
1722.3552833580516,1469
1724.3627176609807,1519
1726.3696441955308,1515
1728.3760632191033,1533
1730.3819749891782,1547
1732.3873797633146,1496
1734.3922777991502,1415
1736.3966693544012,1496
1738.4005546868639,1471
1740.4039340544127,1495
1742.406807715001,1515
1744.4091759266616,1503
1746.4110389475054,1458
1748.4123970357223,1540
1750.413250449582,1466
1752.4135994474318,1432
1754.4134442876993,1491
1756.4127852288902,1433
1758.4116225295893,1480
1760.4099564484595,1457
1762.407787244244,1460
1764.405115175764,1488
1766.4019405019203,1465
1768.3982634816916,1453
1770.3940843741357,1445
1772.3894034383907,1414
1774.3842209336717,1526
1776.378537119274,1479
1778.372352254571,1468
1780.3656665990156,1473
1782.3584804121397,1484
1784.3507939535534,1475
1786.3426074829463,1464
1788.3339212600863,1396
1790.3247355448211,1457
1792.3150505970766,1458
1794.3048666768573,1476
1796.2941840442477,1489
1798.2830029594106,1458
1800.2713236825884,1401
1802.2591464741004,1478
1804.2464715943465,1458
1806.2332993038058,1448
1808.2196298630352,1497
1810.2054635326708,1474
1812.190800573428,1462
1814.175641246101,1461
1816.1599858115628,1481
1818.1438345307652,1450
1820.127187664738,1468
1822.1100454745924,1460
1824.092408221516,1467
1826.0742761667766,1434
1828.055649571721,1415
1830.0365286977735,1441
1832.0169138064398,1375
1833.9968051593014,1378
1835.9762030180214,1449
1837.9551076443408,1434
1839.9335193000788,1426
1841.9114382471344,1477
1843.888864747485,1453
1845.8657990631878,1461
1847.842241456378,1448
1849.8181921892697,1472
1851.7936515241558,1440
1853.7686197234098,1450
1855.7430970494815,1483
1857.7170837649014,1432
1859.6905801322787,1412
1861.6635864143004,1423
1863.6361028737338,1438
1865.608129773424,1419
1867.5796673762961,1447
1869.5507159453537,1460
1871.521275743678,1494
1873.4913470344313,1465
1875.4609300808534,1475
1877.4300251462632,1424
1879.3986324940588,1438
1881.366752387717,1435
1883.3343850907936,1452
1885.3015308669228,1490
1887.268189979819,1472
1889.2343626932739,1410
1891.2000492711595,1449
1893.1652499774254,1426
1895.1299650761011,1409
1897.0941948312952,1445
1899.0579395071945,1401
1901.0211993680641,1439
1902.98397467825,1491
1904.9462657021745,1374
1906.9080727043415,1359
1908.869395949332,1462
1910.8302357018065,1525
1912.790592226504,1405
1914.7504657882428,1485
1916.7098566519212,1417
1918.6687650825133,1437
1920.6271913450764,1440
1922.5851357047422,1383
1924.5425984267245,1414
1926.499579776314,1422
1928.4560800188833,1470
1930.4120994198802,1448
1932.367638244833,1437
1934.32269675935,1444
1936.2772752291175,1486
1938.231373919899,1446
1940.1849930975404,1494
1942.1381330279637,1442
1944.0907939771696,1438
1946.0429762112412,1519
1947.9946799963363,1427
1949.9459055986945,1477
1951.896653284633,1503
1953.8469233205478,1450
1955.7967159729142,1440
1957.7460315082863,1435
1959.6948701932974,1431
1961.6432322946594,1454
1963.5911180791632,1453
1965.5385278136787,1423
1967.4854617651545,1387
1969.4319202006182,1456
1971.377903387176,1443
1973.3234115920136,1405
1975.268445082395,1484
1977.2130041256642,1515
1979.1570889892423,1478
1981.1006999406304,1466
1983.04383724741,1507
1984.986501177238,1514
1986.928691997853,1462
1988.8704099770712,1416
1990.811655382789,1455
1992.7524284829801,1425
1994.692729545698,1508
1996.6325588390755,1468
1998.5719166313224,1488
2000.5108031907307,1410
2002.4492187856677,1512
2004.387163684583,1479
2006.3246381560011,1407
2008.2616424685298,1445
2010.1981768908527,1398
2012.1342416917332,1476
2014.069837140014,1418
2016.0049635046162,1497
2017.9396210545406,1402
2019.8738100588666,1477
2021.8075307867502,1516
2023.740783507431,1411
2025.6735684902228,1473
2027.6058860045214,1435
2029.5377363198004,1460
2031.4691197056118,1424
2033.4000364315875,1461
2035.3304867674374,1434
2037.260470982952,1493
2039.189989347998,1464
2041.1190421325232,1425
2043.047629606554,1471
2044.9757520401945,1392
2046.9034097036288,1471
2048.8306028671195,1479
2050.7573318010086,1395
2052.683596775716,1469
2054.609398061742,1459
2056.5347359296647,1479
2058.4596106501403,1557
2060.384022493906,1498
2062.3079717317764,1444
2064.231458634646,1467
2066.1544834734873,1501
2068.077046519352,1462
2069.99914804337,1477
2071.9207883167524,1422
2073.8419676107865,1490
2075.7626861968406,1442
2077.6829443463607,1483
2079.6027423308715,1488
2081.522080421977,1490
2083.440958891362,1412
2085.359378010786,1469
2087.2773380520907,1467
2089.194839287196,1554
2091.111881988101,1474
2093.0284664268825,1466
2094.9445928756973,1499
2096.86026160678,1555
2098.775472892446,1459
2100.690227005088,1494
2102.604524217178,1494
2104.5183648012676,1472
2106.431749029985,1502
2108.34467717604,1512
2110.2571495122206,1496
2112.169166311393,1471
2114.080727846503,1467
2115.9918343905747,1487
2117.902486216711,1440
2119.8126835980956,1409
2121.722426807987,1490
2123.6317161197285,1526
2125.5405518067364,1461
2127.448934142509,1505
2129.356863400624,1497
2131.264339854737,1513
2133.1713637785815,1516
2135.077935445972,1527
2136.9840551308002,1457
2138.889723107037,1435
2140.7949396487334,1464
2142.699705030018,1440
2144.6040195250994,1548
2146.507883408264,1476
2148.4112969538774,1518
2150.3142604363848,1547
2152.2167741303097,1485
2154.1188383102535,1456
2156.0204532508997,1474
2157.9216192270064,1495
2159.822336513414,1453
2161.7226053850413,1513
2163.622426116884,1429
2165.5217989840185,1446
2167.4207242616,1493
2169.319202224862,1529
2171.2172331491165,1450
2173.1148173097563,1496
2175.0119549822507,1513
2176.90864644215,1470
2178.8048919650823,1531
2180.7006918267534,1513
2182.596046302952,1505
2184.4909556695407,1606
2186.3854202024645,1541
2188.279440177746,1496
2190.173015871487,1495
2192.066147559868,1490
2193.958835519149,1456
2195.851080025667,1465
2197.7428813558417,1571
2199.6342397861667,1426
2201.5251555932186,1474
2203.415629053651,1573
2205.3056604441986,1492
2207.19525004167,1555
2209.084398122958,1535
2210.9731049650327,1502
2212.861370844941,1553
2214.749196039812,1483
2216.636580826851,1509
2218.523525483344,1502
2220.410030286655,1514
2222.296095514226,1435
2224.1817214435805,1537
2226.066908352319,1515
2227.951656518121,1494
2229.835966218746,1534
2231.71983773203,1526
2233.6032713358913,1445
2235.486267308324,1484
2237.3688259274036,1506
2239.2509474712824,1445
2241.132632218193,1434
2243.013880446447,1548
2244.8946924344323,1502
2246.7750684606203,1475
2248.6550088035574,1526
2250.534513741871,1435
2252.413583554265,1505
2254.292218519526,1468
2256.170418916517,1505
2258.0481850241786,1472
2259.925517121534,1456
2261.8024154876825,1472
2263.678880401803,1535
2265.5549121431536,1540
2267.430510991071,1528
2269.305677224971,1494
2271.180411124348,1445
2273.0547129687766,1471
2274.9285830379076,1524
2276.8020216114737,1462
2278.6750289692845,1449
2280.5476053912294,1485
2282.4197511572766,1535
2284.2914665474727,1470
2286.162751841943,1567
2288.0336073208937,1555
2289.904033264608,1556
2291.774029953448,1480
2293.6435976678554,1503
2295.5127366883517,1469
2297.381447295534,1452
2299.2497297700825,1441
2301.1175843927526,1352
2302.9850114443825,1376
2304.852011205885,1346
2306.7185839582553,1312
2308.5847299825664,1318
2310.4504495599676,1309
2312.3157429716925,1275
2314.1806104990483,1300
2316.0450524234247,1379
2317.9090690262888,1295
2319.772660589186,1255
2321.635827393742,1304
2323.498569721661,1325
2325.3608878547248,1316
2327.2227820747967,1275
2329.0842526638157,1283
2330.945299903803,1248
2332.805924076857,1296
2334.6661254651535,1262
2336.525904350951,1244
2338.3852610165827,1235
2340.244195744464,1169
2342.102708817088,1266
2343.9608005170253,1267
2345.8184711269287,1242
2347.675720929526,1229
2349.532550207628,1284
2351.38895924412,1308
2353.24494832197,1290
2355.100517724223,1228
2356.955667734004,1292
2358.810398634514,1307
2360.664710709037,1326
2362.5186042409337,1323
2364.3720795136437,1299
2366.225136810686,1278
2368.0777764156583,1288
2369.929998612237,1286
2371.7818036841777,1274
2373.633191915315,1317
2375.484163589562,1283
2377.3347189909114,1274
2379.184858403434,1302
2381.03458211128,1345
2382.8838903986775,1336
2384.732783549936,1274
2386.5812618494406,1259
2388.4293255816588,1292
2390.2769750311327,1282
2392.1242104824883,1259
2393.971032220427,1292
2395.8174405297295,1292
2397.6634356952563,1326
2399.509018001947,1325
2401.3541877348193,1302
2403.1989451789705,1246
2405.043290619576,1242
2406.8872243418905,1337
2408.730746631247,1295
2410.5738577730594,1297
2412.4165580528183,1298
2414.258847756095,1307
2416.100727168537,1339
2417.9421965758734,1358
2419.783256263912,1281
2421.623906518538,1249
2423.4641476257157,1290
2425.303979871491,1277
2427.143403541984,1323
2428.9824189233977,1306
2430.821026302012,1293
2432.6592259641866,1311
2434.497018196361,1347
2436.33440328505,1294
2438.171381516851,1343
2440.00795317844,1320
2441.844118556569,1280
2443.6798779380724,1302
2445.5152316098606,1303
2447.3501798589255,1317
2449.1847229723357,1328
2451.0188612372403,1351
2452.8525949408663,1258
2454.6859243705203,1298
2456.518849813587,1343
2458.3513715575314,1288
2460.183489889895,1321
2462.015205098301,1313
2463.8465174704493,1290
2465.67742729412,1306
2467.5079348571717,1328
2469.338040447542,1307
2471.1677443532476,1313
2472.9970468623833,1305
2474.825948263123,1254
2476.6544488437207,1323
2478.482548892508,1298
2480.310248697896,1287
2482.137548548374,1311
2483.9644487325118,1318
2485.790949538956,1275
2487.617051256433,1300
2489.44275417375,1339
2491.26805857979,1260
2493.0929647635157,1300
2494.917473013971,1318
2496.741583620276,1315
2498.5652968716304,1298
2500.3886130573137,1339
2502.2115324666834,1347
2504.0340553891765,1392
2505.856182114308,1292
2507.6779129316733,1335
2509.499248130945,1314
2511.3201880018764,1328
2513.140732834298,1231
2514.9608829181198,1354
2516.780638543331,1331
2518.6,1315
2520.418967578273,1329
2522.237541568376,1362
2524.0557222606144,1287
2525.8735099453706,1302
2527.6909049131086,1307
2529.507907454368,1349
2531.32451785977,1333
2533.140736420014,1314
2534.9565634258774,1318
2536.771999168218,1347
2538.5870439379714,1332
2540.4016980261526,1346
2542.2159617238544,1332
2544.02983532225,1370
2545.8433191125914,1381
2547.656413386209,1362
2549.4691184345115,1346
2551.2814345489874,1386
2553.093362021204,1390
2554.904901142808,1387
2556.716052205523,1398
2558.526815501153,1345
2560.3371913215824,1347
2562.147179958771,1377
2563.956781704761,1392
2565.7659968516705,1402
2567.5748256916986,1404
2569.3832685171224,1389
2571.1913256202984,1447
2572.9989972936614,1414
2574.806283829725,1403
2576.613185521084,1455
2578.4197026604074,1399
2580.2258355404483,1429
2582.031584454035,1401
2583.836949694077,1405
2585.6419315535613,1455
2587.4465303255533,1475
2589.2507463032002,1520
2591.0545797797245,1481
2592.8580310484303,1511
2594.6611004026995,1529
2596.463788135992,1477
2598.266094541849,1508
2600.0680199138874,1491
2601.869564545807,1485
2603.670728731383,1525
2605.4715127644704,1455
2607.2719169390048,1478
2609.071941548998,1498
2610.8715868885433,1509
2612.670853251811,1520
2614.469740933052,1508
2616.268250226594,1522
2618.0663814268455,1520
2619.864134828292,1486
2621.6615107255006,1545
2623.458509413115,1527
2625.2551311858597,1480
2627.0513763385347,1482
2628.8472451660223,1489
2630.6427379632833,1542
2632.4378550253564,1568
2634.232596647359,1513
2636.026963124488,1483
2637.8209547520187,1459
2639.6145718253065,1427
2641.407814639785,1492
2643.200683490966,1513
2644.9931786744414,1488
2646.7853004858807,1504
2648.577049221034,1512
2650.3684251757277,1471
2652.1594286458712,1443
2653.9500599274484,1447
2655.740319316525,1406
2657.5302071092437,1435
2659.3197236018286,1426
2661.10886909058,1399
2662.8976438718782,1358
2664.686048242183,1452
2666.4740824980327,1358
2668.2617469360443,1377
2670.0490418529134,1407
2671.8359675454153,1384
2673.622524310403,1388
2675.408712444811,1400
2677.1945322456495,1347
2678.979984010009,1314
2680.76506803506,1331
2682.5497846180497,1348
2684.334134056306,1370
2686.1181166472343,1369
2687.9017326883213,1327
2689.6849824771293,1294
2691.4678663113013,1347
2693.2503844885596,1287
2695.032537306705,1358
2696.8143250636167,1320
2698.5957480572542,1347
2700.3768065856534,1355
2702.1575009469316,1398
2703.937831439283,1346
2705.717798360982,1309
2707.4974020103837,1344
2709.276642685917,1335
2711.055520686095,1280
2712.834036309506,1314
2714.612189854819,1326
2716.389981620782,1232
2718.1674119062204,1246
2719.944481010041,1247
2721.721189231226,1343
2723.4975368688415,1300
2725.273524222027,1315
2727.0491515900053,1238
2728.824419272075,1329
2730.5993275676146,1307
2732.3738767760838,1338
2734.148067197016,1322
2735.921899130031,1269
2737.6953728748194,1218
2739.468488731156,1264
2741.2412469988926,1266
2743.0136479779617,1313
2744.785691968372,1205
2746.5573792702116,1252
2748.3287101836504,1201
2750.099685008934,1263
2751.870304046388,1292
2753.640567596418,1286
2755.4104759595057,1295
2757.1800294362156,1229
2758.949228327187,1299
2760.7180729331412,1302
2762.486563554877,1264
2764.254700493272,1267
2766.022484049284,1333
2767.789914523947,1296
2769.5569922183786,1229
2771.3237174337705,1265
2773.090090471394,1275
2774.8561116326036,1298
2776.6217812188274,1275
2778.3870995315756,1244
2780.1520668724356,1282
2781.9166835430747,1297
2783.6809498452394,1244
2785.444866080754,1269
2787.2084325515225,1327
2788.971649559527,1266
2790.73451740683,1311
2792.4970363955713,1309
2794.2592068279705,1288
2796.0210290063264,1293
2797.7825032330147,1270
2799.543629810493,1285
2801.304409041296,1217
2803.0648412280366,1274
2804.8249266734088,1230
2806.5846656801846,1252
2808.344058551212,1247
2810.1031055894246,1258
2811.8618070978273,1293
2813.6201633795085,1276
2815.378174737636,1264
2817.1358414754536,1311
2818.893163896285,1314
2820.6501423035334,1280
2822.4067770006814,1271
2824.1630682912883,1260
2825.9190164789957,1342
2827.6746218675207,1337
2829.429884760661,1297
2831.184805462294,1288
2832.9393842763743,1312
2834.693621506936,1312
2836.4475174580916,1295
2838.201072434034,1267
2839.954286739034,1289
2841.707160677441,1255
2843.459694553685,1273
2845.2118886722724,1287
2846.96374333779,1310
2848.7152588549034,1398
2850.4664355283567,1320
2852.217273662973,1323
2853.9677735636546,1267
2855.7179355353833,1329
2857.4677598832186,1264
2859.217246912299,1222
2860.9663969278427,1236
2862.715210235146,1287
2864.4636871395846,1290
2866.211827946614,1266
2867.9596329617652,1275
2869.7071024906536,1296
2871.4542368389684,1261
2873.20103631248,1256
2874.947501217038,1287
2876.6936318585695,1276
2878.4394285430812,1276
2880.1848915766604,1309
2881.9300212654707,1277
2883.6748179157553,1266
2885.4192818338374,1287
2887.1634133261173,1300
2888.907212699077,1299
2890.6506802592744,1295
2892.393816313348,1278
2894.1366211680142,1279
2895.8790951300693,1254
2897.621238506388,1294
2899.363051603925,1292
2901.1045347297118,1270
2902.8456881908596,1268
2904.58651229456,1270
2906.327007348081,1280
2908.067173658772,1271
2909.8070115340597,1263
2911.5465212814497,1273
2913.285703208527,1298
2915.0245576229563,1287
2916.7630848324807,1246
2918.5012851449196,1324
2920.2391588681758,1256
2921.976706310227,1253
2923.7139277791334,1279
2925.4508235830313,1261
2927.187394030137,1287
2928.923639428745,1275
2930.6595600872306,1274
2932.395156314046,1297
2934.1304284177218,1275
2935.8653767068713,1298
2937.6000014901815,1314
2939.3343030764227,1294
2941.068281774442,1299
2942.8019378931644,1258
2944.5352717415976,1308
2946.2682836288236,1304
2948.0009738640065,1247
2949.7333427563885,1262
2951.465390615289,1292
2953.1971177501086,1307
2954.9285244703265,1301
2956.6596110855,1296
2958.3903779052657,1298
2960.1208252393385,1282
2961.8509533975125,1280
2963.5807626896617,1319
2965.3102534257378,1241
2967.0394259157715,1249
2968.768280469873,1286
2970.496817398232,1287
2972.2250370111146,1291
2973.952939618869,1254
2975.6805255319196,1276
2977.4077950607707,1307
2979.134748516006,1312
2980.861386208289,1323
2982.587708448359,1313
2984.313715547037,1301
2986.039407815222,1310
2987.764785563891,1208
2989.489849104102,1286
2991.2145987469908,1331
2992.9390348037705,1263
2994.6631575857346,1235
2996.3869674042576,1282
2998.1104645707887,1319
2999.83364939686,1284
3001.5565221940783,1316
3003.2790832741334,1267
3005.0013329487924,1251
3006.7232715298996,1268
3008.4448993293804,1233
3010.166216659239,1309
3011.887223831558,1269
3013.607921158498,1285
3015.3283089522993,1283
3017.0483875252826,1259
3018.7681571898443,1298
3020.4876182584626,1271
3022.2067710436927,1250
3023.9256158581707,1258
3025.644153014609,1307
3027.362382825801,1307
3029.0803056046193,1271
3030.797921664012,1279
3032.5152313170106,1263
3034.2322348767225,1311
3035.9489326563353,1245
3037.665324969115,1253
3039.3814121284063,1265
3041.097194447633,1253
3042.812672240299,1277
3044.5278458199855,1279
3046.2427155003525,1277
3047.9572815951406,1313
3049.671544418167,1240
3051.38550428333,1270
3053.0991615046073,1238
3054.812516396051,1235
3056.5255692717974,1248
3058.2383204460575,1237
3059.9507702331257,1285
3061.662918947372,1294
3063.3747669032446,1262
3065.0863144152736,1224
3066.7975617980674,1221
3068.508509366309,1278
3070.219157434767,1266
3071.9295063182844,1235
3073.639556331785,1258
3075.3493077902704,1265
3077.058761008821,1255
3078.7679163025964,1284
3080.476773986837,1241
3082.1853343768594,1337
3083.89359778806,1294
3085.6015645359153,1238
3087.3092349359786,1242
3089.016609303884,1267
3090.7236879553434,1323
3092.4304712061476,1298
3094.136959372166,1270
3095.843152769349,1256
3097.5490517137237,1204
3099.2546565213966,1275
3100.959967508554,1284
3102.66498499146,1274
3104.3697092864577,1243
3106.0741407099695,1238
3107.778279578498,1294
3109.482126208622,1248
3111.1856809170004,1333
3112.8889440203716,1263
3114.5919158355528,1298
3116.294596679439,1337
3117.996986869006,1273
3119.6990867213062,1276
3121.4008965534726,1226
3123.102416682717,1263
3124.803647426329,1328
3126.5045891016784,1316
3128.205242026213,1315
3129.90560651746,1290
3131.605682893025,1238
3133.3054714705922,1242
3135.0049725679282,1281
3136.7041865028714,1281
3138.4031135933465,1250
3140.101754157353,1258
3141.800108512971,1252
3143.498176978357,1270
3145.1959598717494,1257
3146.8934575114636,1249
3148.5906702158954,1299
3150.2875983035183,1292
3151.9842420928853,1248
3153.680601902627,1295
3155.376678051456,1249
3157.07247085816,1285
3158.767980641609,1271
3160.463207720748,1321
3162.158152414606,1283
3163.8528150422862,1321
3165.5471959229726,1284
3167.2412953759303,1283
3168.9351137204976,1253
3170.628651276098,1337
3172.3219083622307,1339
3174.014885298474,1274
3175.707582404485,1269
3177.4000000000005,1288
3179.092138404835,1285
3180.7839979388846,1266
3182.47557892212,1250
3184.166881674594,1294
3185.8579065164386,1267
3187.5486537678626,1294
3189.2391237491547,1294
3190.9293167806827,1308
3192.6192331828934,1352
3194.3088732763117,1269
3195.998237381542,1275
3197.687325819268,1308
3199.376138910251,1310
3201.064676975334,1298
3202.7529403354347,1267
3204.4409293115523,1262
3206.1286442247647,1269
3207.816085396229,1284
3209.5032531471825,1258
3211.190147798936,1232
3212.8767696728846,1254
3214.5631190905015,1240
3216.2491963733373,1252
3217.9350018430214,1286
3219.6205358212637,1227
3221.305798629851,1232
3222.990790590651,1265
3224.6755120256103,1268
3226.359963256751,1300
3228.0441446061795,1240
3229.7280563960758,1256
3231.411698948703,1245
3233.0950725863995,1255
3234.778177631587,1276
3236.461014406761,1255
3238.1435832345005,1259
3239.8258844374595,1262
3241.507918338374,1277
3243.1896852600576,1276
3244.8711855254023,1262
3246.552419457381,1314
3248.233387379042,1271
3249.914089613516,1304
3251.59452648401,1302
3253.274698313813,1310
3254.95460542629,1242
3256.6342481448855,1258
3258.313626793125,1238
3259.9927416946084,1250
3261.6715931730196,1231
3263.3501815521176,1259
3265.0285071557437,1233
3266.706570307815,1230
3268.3843713323286,1213
3270.0619105533615,1215
3271.739188295068,1247
3273.4162048816834,1253
3275.0929606375184,1208
3276.769455886966,1250
3278.445690954498,1287
3280.1216661646613,1338
3281.797381842087,1268
3283.4728383114807,1289
3285.1480358976296,1218
3286.8229749253996,1213
3288.4976557197333,1265
3290.172078605655,1252
3291.846243908266,1297
3293.5201519527463,1240
3295.193803064357,1276
3296.8671975684374,1250
3298.5403357904024,1220
3300.21321805575,1204
3301.8858446900567,1276
3303.558216018975,1252
3305.23033236824,1306
3306.9021940636603,1282
3308.57380143113,1280
3310.2451547966184,1258
3311.916254486174,1246
3313.5871008259246,1286
3315.2576941420766,1250
3316.9280347609147,1250
3318.5981230088046,1260
3320.2679592121895,1215
3321.9375436975924,1205
3323.606876791612,1240
3325.27595882093,1267
3326.944790112305,1282
3328.6133709925753,1238
3330.2817017886573,1219
3331.949782827547,1260
3333.617614436319,1234
3335.2851969421245,1269
3336.952530672199,1294
3338.619615953853,1276
3340.286453114475,1294
3341.9530424815357,1267
3343.619384382583,1259
3345.2854791452437,1306
3346.951327097224,1231
3348.6169285663073,1319
3350.2822838803577,1278
3351.947393367319,1252
3353.61225735521,1294
3355.2768761721345,1249
3356.9412501462693,1286
3358.605379605873,1223
3360.2692648792827,1286
3361.9329062949146,1264
3363.596304181263,1274
