CollectionTime,7/3/2024 2:25:48 PM
ExposureUsed,3
CalibratedSpectrum
-962.7078968117929,558
-959.9714848408522,618
-957.2358232597828,598
-954.5009119013725,586
-951.7667505983302,588
-949.0333391832855,592
-946.3006774887896,616
-943.5687653473143,602
-940.837602591253,578
-938.1071890529199,626
-935.3775245645503,582
-932.6486089583007,612
-929.9204420662485,624
-927.1930237203925,634
-924.4663537526524,651
-921.7404319948689,650
-919.0152582788041,646
-916.2908324361409,689
-913.5671542984834,694
-910.8442236973568,651
-908.1220404642074,617
-905.4006044304027,643
-902.679915427231,673
-899.959973285902,642
-897.2407778375464,595
-894.5223289132158,610
-891.8046263438832,655
-889.0876699604426,593
-886.3714595937089,607
-883.6559950744183,592
-880.9412762332282,609
-878.2273029007168,581
-875.5140749073835,584
-872.8015920836489,581
-870.0898542598545,615
-867.3788612662631,603
-864.6686129330585,600
-861.9591090903457,578
-859.2503495681506,592
-856.5423341964203,567
-853.8350628050229,585
-851.1285352237478,596
-848.4227512823054,602
-845.7177108103272,624
-843.0134136373656,627
-840.3098595928943,601
-837.6070485063082,602
-834.9049802069229,596
-832.2036545239757,620
-829.5030712866244,576
-826.8032303239481,634
-824.1041314649472,657
-821.4057745385428,623
-818.7081593735775,590
-816.0112857988148,589
-813.3151536429393,560
-810.6197627345566,603
-807.9251129021936,587
-805.2312039742981,618
-802.5380357792392,601
-799.8456081453069,617
-797.1539209007124,622
-794.462973873588,580
-791.772766891987,576
-789.083299783884,556
-786.3945723771743,605
-783.7065844996748,603
-781.0193359791231,584
-778.3328266431781,597
-775.6470563194197,592
-772.9620248353489,612
-770.2777320183878,613
-767.5941776958798,612
-764.9113616950891,625
-762.2292838432011,632
-759.5479439673222,603
-756.8673418944801,627
-754.1874774516235,605
-751.5083504656222,649
-748.8299607632671,641
-746.15230817127,617
-743.475392516264,648
-740.7992136248035,630
-738.1237713233636,590
-735.4490654383407,633
-732.7750957960521,588
-730.1018622227365,615
-727.4293645445534,602
-724.7576025875837,589
-722.0865761778291,568
-719.4162851412126,635
-716.7467293035781,639
-714.0779084906909,650
-711.409822528237,672
-708.7424712418238,655
-706.0758544569796,660
-703.4099719991541,654
-700.7448236937178,642
-698.0804093659622,685
-695.4167288411002,614
-692.7537819442656,656
-690.0915685005134,657
-687.4300883348199,637
-684.7693412720819,666
-682.1093271371178,722
-679.4500457546669,665
-676.7914969493897,627
-674.1336805458676,649
-671.4765963686034,631
-668.8202442420206,661
-666.1646239904642,676
-663.5097354382001,643
-660.8555784094151,633
-658.2021527282176,644
-655.5494582186366,681
-652.8974947046223,672
-650.2462620100463,677
-647.5957599587009,714
-644.9459883742998,698
-642.2969470804776,721
-639.6486359007902,706
-637.0010546587141,688
-634.3542031776476,683
-631.7080812809096,682
-629.0626887917401,671
-626.4180255333008,673
-623.7740913286734,676
-621.1308860008619,708
-618.4884093727904,758
-615.8466612673046,718
-613.2056415071715,711
-610.5653499150785,717
-607.9257863136347,734
-605.28695052537,783
-602.6488423727357,709
-600.0114616781036,717
-597.3748082637674,730
-594.7388819519412,758
-592.1036825647604,766
-589.4692099242818,770
-586.8354638524829,827
-584.2024441712624,794
-581.5701507024403,781
-578.9385832677575,752
-576.3077416888759,791
-573.6776257873787,741
-571.0482353847704,739
-568.4195703024757,796
-565.7916303618415,760
-563.164415384135,703
-560.5379251905453,695
-557.9121596021815,759
-555.2871184400748,741
-552.6628015251767,764
-550.0392086783606,748
-547.4163397204204,794
-544.794194472071,803
-542.1727727539491,809
-539.5520743866118,812
-536.9320991905377,799
-534.3128469861261,849
-531.6943175936979,869
-529.0765108334947,770
-526.4594265256793,831
-523.8430644903358,909
-521.2274245474689,1000
-518.612506517005,1065
-515.9983102187913,1090
-513.3848354725959,1125
-510.77208209810846,1136
-508.16004991493924,1208
-505.5487387426199,1253
-502.9381484006032,1347
-500.3282787082628,1504
-497.71912948489364,1552
-495.1107005497117,1600
-492.5029917218539,1494
-489.8960028203786,1412
-487.28973366426493,1327
-484.68418407241325,1217
-482.07935386364494,1154
-479.47524285670266,1007
-476.87185087025,975
-474.2691777228715,1032
-471.66722323307334,989
-469.0659872192821,921
-466.4654694998459,1015
-463.86566989303384,956
-461.26658821703614,930
-458.66822428996414,927
-456.07057792985,943
-453.4736489546475,916
-450.877437182231,981
-448.28194243039627,950
-445.68716451686,889
-443.09310325926003,891
-440.49975847515555,879
-437.9071299820263,894
-435.31521759727354,959
-432.72402113821954,943
-430.13354042210767,956
-427.5437752661022,950
-424.95472548728867,962
-422.36639090267386,957
-419.7787713291855,1074
-417.1918665836721,1089
-414.60567648290385,1011
-412.0202008435715,1038
-409.4354394822874,1040
-406.8513922155845,1029
-404.26805885991723,1018
-401.685439231661,1082
-399.103533147112,956
-396.522340422488,985
-393.9418608739278,1046
-391.3620943174908,1060
-388.7830405691583,991
-386.2046994448317,965
-383.6270707603344,926
-381.05015433141045,893
-378.473949973725,849
-375.8984575028645,818
-373.32367673433623,802
-370.74960748356875,748
-368.1762495659117,862
-365.60360279663576,750
-363.03166699093265,653
-360.4604419639154,614
-357.8899275306178,604
-355.32012350599507,588
-352.7510297049233,582
-350.1826459421999,551
-347.61497203254316,583
-345.04800779059235,570
-342.4817530309082,571
-339.91620756797226,602
-337.35137121618743,549
-334.7872437898774,638
-332.22382510328725,695
-329.66111497058273,602
-327.09911320585127,608
-324.53781962310075,699
-321.9772340362607,631
-319.4173562591816,532
-316.8581861056348,569
-314.2997233893127,602
-311.7419679238294,591
-309.1849195227194,626
-306.62857799943856,589
-304.0729431673641,640
-301.51801483979375,641
-298.963792829947,652
-296.41027695096386,602
-293.85746701590574,601
-291.3053628377552,683
-288.7539642294155,756
-286.2032710037115,671
-283.65328297338897,666
-281.1039999511146,773
-278.5554217494762,777
-276.007548180983,781
-273.4603790580651,754
-270.9139141930734,675
-268.3681533982807,707
-265.8230964858798,759
-263.27874326798565,721
-260.7350935566336,682
-258.1921471637804,688
-255.6499039013039,793
-253.10836358100266,810
-250.56752601459698,795
-248.02739101372765,777
-245.48795838995704,811
-242.94922795476816,750
-240.41119951956557,755
-237.8738728956746,851
-235.33724789434166,879
-232.80132432673452,839
-230.2661020039418,783
-227.73158073697357,743
-225.19776033676033,831
-222.66464061415422,924
-220.1322213799284,853
-217.60050244477725,808
-215.06948361931552,794
-212.53916471408013,966
-210.00954553952818,975
-207.48062590603843,860
-204.9524056239104,774
-202.4248845033651,811
-199.8980623545441,990
-197.37193898751036,1031
-194.84651421224817,1067
-192.32178783866232,979
-189.79775967657952,965
-187.27442953574644,1004
-184.7517972258321,1103
-182.2298625564256,987
-179.7086253370378,932
-177.18808537710026,943
-174.66824248596583,1291
-172.14909647290835,1485
-169.6306471471229,1286
-167.11289431772548,1031
-164.59583779375328,941
-162.07947738416453,1118
-159.5638128978386,1355
-157.04884414357605,1465
-154.53457093009854,1370
-152.02099306604828,1309
-149.50811035998936,1078
-146.99592262040665,1123
-144.48442965570587,1437
-141.97363127421409,1676
-139.46352728417958,1535
-136.95411749377126,1566
-134.44540171107985,1354
-131.93737974411636,1234
-129.43005140081357,1332
-126.92341648902493,1662
-124.41747481652521,2087
-121.91222619101006,1950
-119.40767042009657,1952
-116.90380731132257,1688
-114.40063667214702,1558
-111.8981583099503,1605
-109.3963720320337,1610
-106.89527764561933,2504
-104.39487495785067,3528
-101.89516377579241,4088
-99.39614390642998,5086
-96.89781515667039,4548
-94.40017733334128,4463
-91.90323024319173,3723
-89.40697369289148,3403
-86.91140748903172,3167
-84.41653143812482,2763
-81.92234534660395,2842
-79.42884902082358,4131
-76.93604226705907,6432
-74.4439248915071,8465
-71.95249670028534,9350
-69.46175749943245,11419
-66.97170709490854,13572
-64.48234529259423,18979
-61.99367189829195,25424
-59.50568671772464,28898
-57.01838955653636,30960
-54.53178022029283,27483
-52.045858514480074,21803
-49.560624244506016,20698
-47.07607721569923,19680
-44.59221723330904,19836
-42.10904410250669,24612
-39.62655762838392,27618
-37.14475761595372,26335
-34.66364387015028,23541
-32.18321619582866,23810
-29.70347439776515,23749
-27.224418280657005,26013
-24.74604764912317,28375
-22.26836230770266,34928
-19.7913620608565,56245
-17.315046712966478,65038
-14.83941606833514,65038
-12.36446993118659,65038
-9.89020810566592,65038
-7.416630395839093,65038
-4.94373660569363,65038
-2.471526539137585,65038
-6.821210263296962E-13,65038
2.47084320796705,65038
4.941003281093458,65038
7.410480415786196,65038
9.879274808531363,65038
12.347386655893956,65038
14.814816154518212,65038
17.28156350112681,65038
19.74762889252179,65038
22.21301252558385,65038
24.67771459727237,22209
27.141735304626195,5378
29.605074844762612,3666
32.06773341487792,2701
34.52971121224755,2332
36.99100843422559,2579
39.45162527824516,3092
41.91156194181792,3330
44.370818622535126,3244
46.82939551806646,3234
49.287292826160524,3437
51.74451074464503,3824
54.201049471426245,3535
56.65690920448981,2724
59.112090141899785,2532
61.56659248179983,2466
64.02041642241159,2075
66.4735621620365,1726
68.92602989905402,1496
71.37781983192338,1580
73.82893215918205,1626
76.27936707944684,1551
78.72912479141326,1751
81.17820549385567,2411
83.62660938562783,2442
86.07433666566146,2165
88.5213875329681,1818
90.96776218663751,1547
93.41346082583925,1363
95.85848364982041,1430
98.30283085790859,1631
100.7465026495089,1735
103.18949922410604,2050
105.63182078126385,1877
108.07346752062438,1639
110.51443964190923,1435
112.95473734491827,1306
115.39436082953114,1313
117.83331029570547,1181
120.27158594347827,1372
122.7091879729652,1712
125.1461165843615,1432
127.58237197794062,1395
130.01795435405518,1598
132.4528639131364,1579
134.88710085569494,1369
137.32066538231982,1312
139.75355769367923,1339
142.1857779905207,1223
144.61732647366978,1088
147.04820334403132,1063
149.47840880258934,1258
151.90794305040674,1256
154.33680628862487,1257
156.76499871846443,1358
159.19252054122433,1476
161.61937195828352,1732
164.04555317109896,1873
166.47106438120693,1967
168.89590579022217,2042
171.320077599839,2207
173.7435800118302,2317
176.16641322804742,2471
178.58857745042144,2611
181.01007288096173,2665
183.43089972175687,2722
185.85105817497413,2701
188.27054844285988,2578
190.6893707277394,2620
193.10752523201643,2543
195.5250121581745,2575
197.9418317087751,2654
200.3579840864594,2713
202.7734694939469,2754
205.18828813403627,2782
207.6024402096051,2883
210.01592592360964,2826
212.42874547908548,2781
214.84089907914665,2813
217.2523869269868,2636
219.66320922587727,2643
222.0733661791695,2671
224.48285799029293,2664
226.8916848627572,2721
229.29984700014882,2671
231.7073446061355,2747
234.11417788446204,2692
236.520347038953,2713
238.92585227351185,2749
241.33069379212054,2812
243.73487179884035,2673
246.1383864978112,2741
248.541238093252,2804
250.9434267894609,2752
253.34495279081432,2711
255.74581630176783,2760
258.1460175268563,2657
260.54555667069314,2677
262.9444339379703,2630
265.3426495334594,2672
267.7402036620107,2744
270.1370965285529,2743
272.53332833809407,2689
274.9288992957214,2627
277.32380960660055,2585
279.718059475976,2652
282.1116491091717,2621
284.5045787115897,2511
286.89684848871195,2526
289.2884586460981,2436
291.67940938938807,2433
294.0697009242996,2396
296.4593334566299,2519
298.84830719225477,2487
301.23662233712923,2495
303.6242790972866,2495
306.01127767884,2369
308.39761828798066,2385
310.78330113097934,2456
313.16832641418534,2349
315.5526943440269,2356
317.9364051270112,2234
320.3194589697242,2259
322.70185607883093,2346
325.0835966610754,2256
327.4646809232805,2242
329.8451090723478,2274
332.2248813152577,2200
334.6039978590701,2268
336.9824589109231,2257
339.36026467803447,2200
341.7374153677,2259
344.113911187295,2115
346.48975234427337,2115
348.8649390461686,2140
351.2394715005918,2161
353.61334991523415,2213
355.9865744978655,2112
358.35914545633375,2095
360.73106299856715,2147
363.10232733257146,2125
365.47293866643247,2106
367.84289720831396,2068
370.2122031664593,2093
372.5808567491905,2085
374.9488581649083,2087
377.31620762209275,2030
379.6829053293021,2029
382.0489514951745,1944
384.4143463284262,2062
386.7790900378528,2022
389.14318283232853,2056
391.50662492080653,2105
393.86941651231916,2050
396.23155781597745,2102
398.5930490409713,2008
400.9538903965696,2139
403.3140820921202,2040
405.6736243370498,1954
408.03251734086336,1974
410.3907613131465,1959
412.74835646356166,1973
415.10530300185144,1969
417.4616011378372,1909
419.81725108141893,1939
422.1722530425758,1936
424.5266072313656,2022
426.880313857925,1939
429.2333731324701,1993
431.58578526529516,1896
433.9375504667738,1943
436.2886689473588,1956
438.63914091758113,1911
440.9889665880513,1926
443.33814616945835,1852
445.68667987257015,1896
448.03456790823395,1905
450.3818104873759,1907
452.72840782100013,1971
455.07436012019105,1846
457.41966759611057,1946
459.7643304600007,1961
462.10834892318155,1950
464.4517231970525,1856
466.79445349309174,1838
469.1365400228566,1814
471.4779829979826,1864
473.81878263018564,1823
476.15893913125876,1938
478.4984527130747,1912
480.8373235875855,1948
483.17555196682144,2030
485.5131380628919,1997
487.8500820879857,2058
490.1863842543697,2189
492.52204477439034,2277
494.8570638604725,2431
497.1914417251204,2520
499.52517858091653,2751
501.85827464052306,2783
504.19073011668036,2903
506.5225452222086,2941
508.85372017000566,2909
511.18425517304956,2842
513.514150444396,2801
515.8434061971808,2909
518.1720226446176,3415
520.4999999999999,3577
522.8273384766991,3513
525.1540382881666,3654
527.480099647932,3463
529.8055227696037,3136
532.1303078668694,2716
534.454455153496,2311
536.777964843328,2188
539.1008371502907,2152
541.4230722883866,2188
543.744670471698,2136
546.0656319143858,2106
548.3859568306899,2163
550.7056454349294,2175
553.0246979415016,2099
555.3431145648834,2101
557.6608955196306,2128
559.978041020377,2040
562.2945512818363,2083
564.6104265188006,2134
566.9256669461412,2071
569.2402727788082,2146
571.5542442318302,2091
573.8675815203156,2167
576.1802848594508,2155
578.4923544645015,2163
580.8037905508126,2227
583.114593333807,2199
585.4247630289875,2132
587.7342998519354,2055
590.0432040183106,2140
592.3514757438526,2113
594.6591152443794,2104
596.9661227357875,2083
599.2724984340531,2070
601.578242555231,2174
603.8833553154542,2107
606.1878369309362,2104
608.4916876179676,1952
610.7949075929192,2000
613.0974970722403,2005
615.3994562724587,2022
617.7007854101818,2056
620.0014847020951,2025
622.3015543649641,2028
624.6009946156324,1980
626.8998056710224,1997
629.1979877481361,2127
631.4955410640538,2103
633.7924658359349,2074
636.0887622810175,2019
638.3844306166192,2012
640.6794710601358,1986
642.9738838290426,2039
645.2676691408932,2078
647.5608272133207,2057
649.853358264037,2043
652.1452625108324,2123
654.4365401715764,2090
656.7271914642178,2121
659.0172166067838,2055
661.3066158173809,2118
663.5953893141935,2105
665.8835373154867,2094
668.1710600396028,2069
670.4579577049639,2125
672.7442305300709,2111
675.0298787335033,2068
677.3149025339197,2065
679.599302150058,2064
681.8830778007342,2038
684.1662297048437,2010
686.4487580813608,2068
688.7306631493387,2152
691.0119451279091,2050
693.2926042362834,2073
695.5726406937516,2076
697.8520547196814,2063
700.1308465335215,2014
702.4090163547982,2082
704.6865644031171,2070
706.9634908981619,2098
709.2397960596965,2035
711.5154801075631,2027
713.7905432616823,2083
716.0649857420548,2079
718.3388077687592,1984
720.612009561953,2013
722.8845913418733,2033
725.1565533288352,2044
727.427895743234,2103
729.6986188055427,2115
731.9687227363137,2013
734.238207756178,2029
736.5070740858458,2098
738.7753219461066,2087
741.0429515578281,2070
743.3099631419569,2009
745.5763569195191,2057
747.8421331116193,2079
750.1072919394409,2079
752.3718336242467,1972
754.6357583873777,2062
756.8990664502545,2052
759.1617580343765,2036
761.423833361321,1991
763.6852926527457,1979
765.9461361303862,2040
768.206364016058,2063
770.4659765316536,2117
772.7249738991469,2080
774.9833563405886,2165
777.2411240781092,2121
779.4982773339183,2071
781.7548163303044,2160
784.010741289634,2056
786.2660524343538,2072
788.5207499869881,2089
790.7748341701416,2169
793.0283052064964,2123
795.2811633188143,2090
797.5334087299362,2037
799.7850416627813,2053
802.0360623403484,2053
804.2864709857143,2059
806.5362678220353,2107
808.7854530725468,2029
811.0340269605625,2079
813.2819897094754,2042
815.5293415427581,2132
817.77608268396,2045
820.0222133567116,2144
822.2677337847211,2072
824.5126441917765,2069
826.7569448017433,2032
829.0006358385675,2145
831.2437175262731,2022
833.4861900889629,2070
835.7280537508192,2098
837.9693087361026,2163
840.2099552691533,2104
842.4499935743896,2011
844.689423876309,2072
846.9282463994886,2035
849.1664613685833,2124
851.4040690083276,1932
853.6410695435349,1997
855.877463199097,2025
858.1132501999847,2024
860.3484307712487,2004
862.5830051380175,2060
864.8169735254988,2115
867.0503361589791,2056
869.2830932638243,2031
871.5152450654786,2094
873.7467917894654,2072
875.9777336613873,2054
878.2080709069252,2080
880.4378037518389,2138
882.666932421968,2083
884.8954571432301,2103
887.1233781416219,2138
889.3506956432192,2133
891.5774098741766,2088
893.803521060728,2128
896.0290294291852,2100
898.2539352059397,2124
900.4782386174619,2076
902.7019398903011,2036
904.925039251085,2033
907.147536926521,1962
909.3694331433943,2045
911.59072812857,2024
913.8114221089921,1953
916.0315153116827,1930
918.2510079637437,1887
920.4699002923547,1948
922.6881925247761,1917
924.905884888345,1918
927.1229776104793,1923
929.3394709186747,1896
931.555365040506,1890
933.7706602036275,1857
935.9853566357709,1904
938.1994545647489,1826
940.4129542184515,1849
942.6258558248488,1944
944.8381596119883,1872
947.0498658079974,1893
949.2609746410825,1912
951.4714863395287,1863
953.6814011316998,1930
955.8907192460387,1913
958.0994409110671,1875
960.3075663553858,1909
962.5150958076741,1854
964.7220294966913,1880
966.928367651274,1946
969.1341105003388,1911
971.3392582728806,1906
973.5438111979742,1835
975.747769504772,1886
977.9511334225061,1794
980.153903180487,1818
982.3560790081052,1842
984.5576611348289,1775
986.7586497902058,1838
988.9590452038618,1831
991.158847605503,1767
993.3580572249133,1797
995.5566742919558,1846
997.7546990365728,1813
999.952131688785,1736
1002.1489724786926,1761
1004.3452216364743,1771
1006.5408793923874,1631
1008.7359459767691,1683
1010.9304216200343,1748
1013.1243065526781,1676
1015.3176010052733,1739
1017.510305208472,1660
1019.7024193930064,1684
1021.8939437896848,1685
1024.0848786293977,1681
1026.2752241431122,1656
1028.4649805618747,1611
1030.6541481168115,1688
1032.842727039127,1554
1035.0307175601051,1642
1037.2181199111074,1681
1039.4049343235752,1664
1041.591161029029,1678
1043.7768002590683,1610
1045.9618522453698,1581
1048.1463172196918,1532
1050.3301954138697,1603
1052.513487059818,1582
1054.69619238953,1594
1056.8783116350783,1555
1059.0598450286152,1627
1061.2407928023704,1636
1063.4211551886528,1601
1065.6009324198508,1546
1067.780124728432,1570
1069.9587323469414,1562
1072.1367555080046,1509
1074.314194444325,1512
1076.4910493886855,1586
1078.667320573947,1556
1080.843008233051,1500
1083.0181125990161,1546
1085.1926339049414,1564
1087.3665723840027,1554
1089.5399282694575,1557
1091.7127017946405,1535
1093.8848931929647,1554
1096.0565026979243,1541
1098.2275305430899,1561
1100.3979769621128,1480
1102.567842188722,1475
1104.737126456726,1483
1106.9058300000124,1505
1109.0739530525475,1551
1111.2414958483764,1523
1113.4084586216231,1494
1115.5748416064907,1468
1117.7406450372605,1578
1119.9058691482942,1514
1122.0705141740304,1465
1124.2345803489884,1490
1126.3980679077658,1560
1128.5609770850388,1527
1130.7233081155623,1525
1132.8850612341707,1484
1135.0462366757774,1486
1137.2068346753745,1461
1139.3668554680326,1444
1141.526299288901,1481
1143.68516637321,1489
1145.8434569562655,1497
1148.001171273455,1425
1150.158309560244,1454
1152.3148720521767,1454
1154.470858984876,1430
1156.626270594044,1422
1158.7811071154629,1427
1160.9353687849912,1403
1163.089055838569,1446
1165.242168512213,1439
1167.3947070420209,1461
1169.5466716641677,1437
1171.6980626149075,1403
1173.8488801305748,1436
1175.9991244475814,1392
1178.1487958024186,1352
1180.2978944316555,1417
1182.4464205719428,1424
1184.5943744600072,1402
1186.7417563326567,1399
1188.8885664267755,1416
1191.0348049793297,1396
1193.1804722273619,1421
1195.325568407995,1396
1197.4700937584303,1407
1199.614048515948,1401
1201.7574329179074,1402
1203.900247201746,1459
1206.042491604982,1437
1208.1841663652099,1407
1210.3252717201053,1368
1212.465807907422,1420
1214.6057751649923,1369
1216.7451737307279,1404
1218.8840038426192,1412
1221.0222657387353,1373
1223.1599596572241,1389
1225.2970858363137,1397
1227.4336445143094,1368
1229.5696359295966,1396
1231.705060320639,1455
1233.8399179259786,1459
1235.9742089842384,1459
1238.107933734118,1480
1240.2410924143974,1431
1242.373685263935,1430
1244.5057125216676,1475
1246.6371744266116,1448
1248.7680712178621,1419
1250.898403134593,1412
1253.028170416058,1410
1255.1573733015875,1479
1257.2860120305932,1382
1259.4140868425648,1449
1261.54159797707,1462
1263.6685456737569,1488
1265.7949301723515,1478
1267.9207517126597,1440
1270.046010534565,1360
1272.1707068780306,1448
1274.2948409830983,1514
1276.4184130898889,1463
1278.541423438603,1445
1280.6638722695184,1408
1282.785759822993,1434
1284.9070863394636,1452
1287.0278520594447,1473
1289.1480572235314,1453
1291.2677020723963,1438
1293.3867868467923,1460
1295.5053117875495,1434
1297.623277135579,1481
1299.740683131868,1476
1301.8575300174857,1501
1303.973818033578,1502
1306.0895474213703,1491
1308.2047184221678,1492
1310.3193312773528,1495
1312.4333862283888,1500
1314.5468835168163,1493
1316.659823384255,1499
1318.7722060724045,1436
1320.8840318230418,1514
1322.9953008780249,1473
1325.1060134792888,1489
1327.2161698688478,1502
1329.3257702887959,1442
1331.4348149813054,1499
1333.5433041886276,1499
1335.6512381530933,1488
1337.7586171171101,1491
1339.8654413231675,1497
1341.9717110138317,1460
1344.0774264317488,1515
1346.1825878196432,1488
1348.2871954203192,1473
1350.3912494766587,1481
1352.4947502316231,1435
1354.5976979282532,1507
1356.7000928096686,1472
1358.8019351190665,1489
1360.9032250997243,1484
1363.0039629949988,1516
1365.1041490483235,1494
1367.2037835032133,1469
1369.3028666032606,1428
1371.401398592137,1522
1373.4993797135926,1536
1375.5968102114575,1457
1377.6936903296396,1519
1379.7900203121262,1493
1381.8858004029835,1521
1383.9810308463561,1514
1386.075711886469,1510
1388.1698437676241,1448
1390.2634267342032,1554
1392.356461030667,1566
1394.4489469015557,1523
1396.5408845914872,1503
1398.6322743451592,1511
1400.7231164073469,1511
1402.813411022907,1499
1404.903158436773,1549
1406.9923588939578,1566
1409.0810126395531,1515
1411.1691199187303,1544
1413.2566809767386,1548
1415.343696058907,1608
1417.4301654106425,1556
1419.5160892774315,1561
1421.6014679048399,1524
1423.6863015385125,1613
1425.7705904241707,1620
1427.8543348076178,1538
1429.9375349347342,1617
1432.0201910514802,1629
1434.102303403894,1660
1436.1838722380944,1613
1438.2648978002767,1543
1440.3453803367174,1534
1442.4253200937692,1588
1444.5047173178677,1650
1446.5835722555234,1629
1448.6618851533285,1656
1450.739656257952,1615
1452.8168858161434,1629
1454.8935740747306,1659
1456.96972128062,1675
1459.045327680797,1659
1461.120393522327,1631
1463.1949190523528,1613
1465.2689045180973,1706
1467.3423501668608,1705
1469.415256246024,1722
1471.4876230030463,1746
1473.559450685465,1803
1475.6307395408976,1775
1477.7014898170391,1866
1479.771701761665,1821
1481.8413756226287,1846
1483.9105116478618,1849
1485.9791100853772,1783
1488.0471711832643,1859
1490.1146951896926,1888
1492.1816823529098,1884
1494.2481329212433,1847
1496.3140471430984,1933
1498.3794252669609,1955
1500.4442675413939,1865
1502.5085742150404,1896
1504.572345536622,1954
1506.6355817549388,2041
1508.6982831188702,1990
1510.7604498773744,2035
1512.8220822794883,2037
1514.8831805743293,2009
1516.9437450110909,2042
1519.003775839048,2144
1521.0632733075522,2126
1523.1222376660367,2073
1525.1806691640113,2218
1527.2385680510652,2198
1529.2959345768668,2248
1531.3527689911643,2278
1533.4090715437833,2304
1535.4648424846291,2328
1537.5200820636855,2368
1539.5747905310159,2418
1541.6289681367616,2440
1543.6826151311434,2485
1545.7357317644614,2450
1547.7883182870937,2579
1549.8403749494987,2548
1551.8919020022113,2587
1553.9428996958477,2611
1555.9933682811015,2717
1558.0433080087469,2770
1560.0927191296346,2801
1562.1416018946961,2835
1564.1899565549415,2901
1566.2377833614592,2901
1568.2850825654164,2877
1570.3318544180606,2792
1572.3780991707158,2698
1574.423817074788,2666
1576.4690083817595,2636
1578.5136733431923,2485
1580.5578122107272,2436
1582.601425236085,2406
1584.6445126710646,2301
1586.6870747675434,2164
1588.7291117774776,2032
1590.7706239529034,2073
1592.8116115459347,2027
1594.8520748087658,1898
1596.8920139936686,1900
1598.9314293529933,1897
1600.9703211391711,1834
1603.008689604711,1858
1605.0465350022005,1784
1607.0838575843068,1732
1609.1206576037753,1746
1611.1569353134305,1719
1613.1926909661765,1766
1615.2279248149953,1754
1617.2626371129481,1669
1619.2968281131757,1639
1621.3304980688963,1650
1623.3636472334088,1600
1625.39627586009,1598
1627.428384202396,1638
1629.459972513861,1563
1631.4910410480993,1611
1633.5215900588028,1560
1635.551619799744,1612
1637.5811305247717,1538
1639.6101224878166,1561
1641.6385959428862,1540
1643.6665511440683,1591
1645.693988345528,1561
1647.7209078015112,1504
1649.7473097663405,1524
1651.7731944944203,1486
1653.7985622402307,1542
1655.823413258333,1602
1657.847747803366,1532
1659.8715661300494,1576
1661.8948684931793,1547
1663.9176551476316,1601
1665.9399263483624,1525
1667.9616823504057,1508
1669.982923408873,1564
1672.0036497789574,1506
1674.0238617159293,1476
1676.043559475138,1476
1678.0627433120121,1544
1680.081413482059,1537
1682.0995702408654,1494
1684.117213844096,1558
1686.134344547495,1529
1688.1509626068864,1527
1690.1670682781705,1506
1692.182661817329,1581
1694.1977434804217,1535
1696.2123135235875,1568
1698.226372203043,1511
1700.2399197750851,1602
1702.2529564960905,1541
1704.2654826225112,1495
1706.277498410882,1573
1708.2890041178139,1511
1710.2999999999988,1536
1712.3104863142066,1514
1714.3204633172854,1538
1716.329931266163,1492
1718.3388904178469,1535
1720.3473410294214,1548
1722.3552833580516,1544
1724.3627176609807,1493
1726.3696441955308,1509
1728.3760632191033,1494
1730.3819749891782,1512
1732.3873797633146,1479
1734.3922777991502,1551
1736.3966693544012,1518
1738.4005546868639,1553
1740.4039340544127,1541
1742.406807715001,1498
1744.4091759266616,1552
1746.4110389475054,1450
1748.4123970357223,1519
1750.413250449582,1499
1752.4135994474318,1524
1754.4134442876993,1504
1756.4127852288902,1462
1758.4116225295893,1542
1760.4099564484595,1472
1762.407787244244,1461
1764.405115175764,1495
1766.4019405019203,1467
1768.3982634816916,1466
1770.3940843741357,1523
1772.3894034383907,1447
1774.3842209336717,1449
1776.378537119274,1498
1778.372352254571,1521
1780.3656665990156,1426
1782.3584804121397,1473
1784.3507939535534,1433
1786.3426074829463,1455
1788.3339212600863,1523
1790.3247355448211,1486
1792.3150505970766,1520
1794.3048666768573,1475
1796.2941840442477,1491
1798.2830029594106,1401
1800.2713236825884,1530
1802.2591464741004,1534
1804.2464715943465,1503
1806.2332993038058,1519
1808.2196298630352,1530
1810.2054635326708,1465
1812.190800573428,1389
1814.175641246101,1411
1816.1599858115628,1452
1818.1438345307652,1465
1820.127187664738,1479
1822.1100454745924,1468
1824.092408221516,1461
1826.0742761667766,1464
1828.055649571721,1472
1830.0365286977735,1513
1832.0169138064398,1498
1833.9968051593014,1530
1835.9762030180214,1511
1837.9551076443408,1431
1839.9335193000788,1488
1841.9114382471344,1505
1843.888864747485,1488
1845.8657990631878,1508
1847.842241456378,1486
1849.8181921892697,1467
1851.7936515241558,1484
1853.7686197234098,1427
1855.7430970494815,1474
1857.7170837649014,1474
1859.6905801322787,1437
1861.6635864143004,1468
1863.6361028737338,1408
1865.608129773424,1466
1867.5796673762961,1485
1869.5507159453537,1450
1871.521275743678,1462
1873.4913470344313,1490
1875.4609300808534,1493
1877.4300251462632,1480
1879.3986324940588,1585
1881.366752387717,1554
1883.3343850907936,1453
1885.3015308669228,1391
1887.268189979819,1456
1889.2343626932739,1494
1891.2000492711595,1537
1893.1652499774254,1483
1895.1299650761011,1489
1897.0941948312952,1478
1899.0579395071945,1508
1901.0211993680641,1475
1902.98397467825,1511
1904.9462657021745,1469
1906.9080727043415,1446
1908.869395949332,1552
1910.8302357018065,1500
1912.790592226504,1465
1914.7504657882428,1405
1916.7098566519212,1451
1918.6687650825133,1519
1920.6271913450764,1458
1922.5851357047422,1489
1924.5425984267245,1456
1926.499579776314,1441
1928.4560800188833,1517
1930.4120994198802,1493
1932.367638244833,1520
1934.32269675935,1547
1936.2772752291175,1439
1938.231373919899,1528
1940.1849930975404,1536
1942.1381330279637,1497
1944.0907939771696,1498
1946.0429762112412,1485
1947.9946799963363,1542
1949.9459055986945,1512
1951.896653284633,1463
1953.8469233205478,1486
1955.7967159729142,1445
1957.7460315082863,1537
1959.6948701932974,1467
1961.6432322946594,1484
1963.5911180791632,1452
1965.5385278136787,1519
1967.4854617651545,1443
1969.4319202006182,1502
1971.377903387176,1492
1973.3234115920136,1455
1975.268445082395,1514
1977.2130041256642,1475
1979.1570889892423,1403
1981.1006999406304,1432
1983.04383724741,1420
1984.986501177238,1509
1986.928691997853,1470
1988.8704099770712,1485
1990.811655382789,1504
1992.7524284829801,1465
1994.692729545698,1486
1996.6325588390755,1483
1998.5719166313224,1466
2000.5108031907307,1452
2002.4492187856677,1452
2004.387163684583,1510
2006.3246381560011,1443
2008.2616424685298,1462
2010.1981768908527,1478
2012.1342416917332,1458
2014.069837140014,1490
2016.0049635046162,1467
2017.9396210545406,1507
2019.8738100588666,1536
2021.8075307867502,1507
2023.740783507431,1488
2025.6735684902228,1484
2027.6058860045214,1470
2029.5377363198004,1461
2031.4691197056118,1497
2033.4000364315875,1445
2035.3304867674374,1462
2037.260470982952,1493
2039.189989347998,1467
2041.1190421325232,1457
2043.047629606554,1443
2044.9757520401945,1454
2046.9034097036288,1430
2048.8306028671195,1507
2050.7573318010086,1423
2052.683596775716,1491
2054.609398061742,1533
2056.5347359296647,1489
2058.4596106501403,1495
2060.384022493906,1492
2062.3079717317764,1449
2064.231458634646,1491
2066.1544834734873,1488
2068.077046519352,1467
2069.99914804337,1459
2071.9207883167524,1558
2073.8419676107865,1491
2075.7626861968406,1471
2077.6829443463607,1510
2079.6027423308715,1541
2081.522080421977,1445
2083.440958891362,1468
2085.359378010786,1453
2087.2773380520907,1494
2089.194839287196,1457
2091.111881988101,1466
2093.0284664268825,1473
2094.9445928756973,1473
2096.86026160678,1473
2098.775472892446,1472
2100.690227005088,1526
2102.604524217178,1483
2104.5183648012676,1508
2106.431749029985,1532
2108.34467717604,1513
2110.2571495122206,1489
2112.169166311393,1531
2114.080727846503,1489
2115.9918343905747,1536
2117.902486216711,1522
2119.8126835980956,1411
2121.722426807987,1501
2123.6317161197285,1477
2125.5405518067364,1549
2127.448934142509,1498
2129.356863400624,1535
2131.264339854737,1493
2133.1713637785815,1575
2135.077935445972,1470
2136.9840551308002,1454
2138.889723107037,1510
2140.7949396487334,1558
2142.699705030018,1529
2144.6040195250994,1500
2146.507883408264,1537
2148.4112969538774,1461
2150.3142604363848,1520
2152.2167741303097,1592
2154.1188383102535,1519
2156.0204532508997,1519
2157.9216192270064,1473
2159.822336513414,1515
2161.7226053850413,1483
2163.622426116884,1421
2165.5217989840185,1508
2167.4207242616,1502
2169.319202224862,1511
2171.2172331491165,1539
2173.1148173097563,1483
2175.0119549822507,1573
2176.90864644215,1500
2178.8048919650823,1487
2180.7006918267534,1505
2182.596046302952,1550
2184.4909556695407,1468
2186.3854202024645,1548
2188.279440177746,1490
2190.173015871487,1503
2192.066147559868,1486
2193.958835519149,1463
2195.851080025667,1442
2197.7428813558417,1477
2199.6342397861667,1534
2201.5251555932186,1487
2203.415629053651,1510
2205.3056604441986,1503
2207.19525004167,1494
2209.084398122958,1550
2210.9731049650327,1489
2212.861370844941,1493
2214.749196039812,1551
2216.636580826851,1521
2218.523525483344,1540
2220.410030286655,1503
2222.296095514226,1525
2224.1817214435805,1550
2226.066908352319,1530
2227.951656518121,1499
2229.835966218746,1542
2231.71983773203,1484
2233.6032713358913,1575
2235.486267308324,1586
2237.3688259274036,1478
2239.2509474712824,1521
2241.132632218193,1442
2243.013880446447,1499
2244.8946924344323,1532
2246.7750684606203,1532
2248.6550088035574,1497
2250.534513741871,1549
2252.413583554265,1496
2254.292218519526,1497
2256.170418916517,1503
2258.0481850241786,1508
2259.925517121534,1497
2261.8024154876825,1468
2263.678880401803,1452
2265.5549121431536,1508
2267.430510991071,1505
2269.305677224971,1445
2271.180411124348,1484
2273.0547129687766,1507
2274.9285830379076,1470
2276.8020216114737,1479
2278.6750289692845,1475
2280.5476053912294,1473
2282.4197511572766,1499
2284.2914665474727,1579
2286.162751841943,1538
2288.0336073208937,1593
2289.904033264608,1556
2291.774029953448,1571
2293.6435976678554,1517
2295.5127366883517,1526
2297.381447295534,1430
2299.2497297700825,1475
2301.1175843927526,1370
2302.9850114443825,1395
2304.852011205885,1375
2306.7185839582553,1339
2308.5847299825664,1346
2310.4504495599676,1324
2312.3157429716925,1314
2314.1806104990483,1273
2316.0450524234247,1303
2317.9090690262888,1321
2319.772660589186,1313
2321.635827393742,1314
2323.498569721661,1321
2325.3608878547248,1291
2327.2227820747967,1303
2329.0842526638157,1322
2330.945299903803,1223
2332.805924076857,1261
2334.6661254651535,1271
2336.525904350951,1256
2338.3852610165827,1253
2340.244195744464,1255
2342.102708817088,1297
2343.9608005170253,1263
2345.8184711269287,1286
2347.675720929526,1302
2349.532550207628,1259
2351.38895924412,1274
2353.24494832197,1303
2355.100517724223,1338
2356.955667734004,1304
2358.810398634514,1324
2360.664710709037,1270
2362.5186042409337,1247
2364.3720795136437,1240
2366.225136810686,1336
2368.0777764156583,1197
2369.929998612237,1284
2371.7818036841777,1282
2373.633191915315,1261
2375.484163589562,1324
2377.3347189909114,1254
2379.184858403434,1232
2381.03458211128,1246
2382.8838903986775,1322
2384.732783549936,1275
2386.5812618494406,1308
2388.4293255816588,1282
2390.2769750311327,1303
2392.1242104824883,1311
2393.971032220427,1276
2395.8174405297295,1239
2397.6634356952563,1263
2399.509018001947,1309
2401.3541877348193,1339
2403.1989451789705,1309
2405.043290619576,1357
2406.8872243418905,1288
2408.730746631247,1304
2410.5738577730594,1295
2412.4165580528183,1321
2414.258847756095,1294
2416.100727168537,1306
2417.9421965758734,1271
2419.783256263912,1289
2421.623906518538,1370
2423.4641476257157,1341
2425.303979871491,1294
2427.143403541984,1287
2428.9824189233977,1221
2430.821026302012,1354
2432.6592259641866,1316
2434.497018196361,1296
2436.33440328505,1345
2438.171381516851,1327
2440.00795317844,1282
2441.844118556569,1337
2443.6798779380724,1382
2445.5152316098606,1320
2447.3501798589255,1355
2449.1847229723357,1281
2451.0188612372403,1311
2452.8525949408663,1307
2454.6859243705203,1373
2456.518849813587,1300
2458.3513715575314,1310
2460.183489889895,1281
2462.015205098301,1319
2463.8465174704493,1344
2465.67742729412,1330
2467.5079348571717,1285
2469.338040447542,1301
2471.1677443532476,1279
2472.9970468623833,1306
2474.825948263123,1314
2476.6544488437207,1323
2478.482548892508,1285
2480.310248697896,1316
2482.137548548374,1288
2483.9644487325118,1352
2485.790949538956,1317
2487.617051256433,1310
2489.44275417375,1332
2491.26805857979,1381
2493.0929647635157,1354
2494.917473013971,1323
2496.741583620276,1345
2498.5652968716304,1241
2500.3886130573137,1314
2502.2115324666834,1377
2504.0340553891765,1297
2505.856182114308,1321
2507.6779129316733,1316
2509.499248130945,1328
2511.3201880018764,1379
2513.140732834298,1324
2514.9608829181198,1256
2516.780638543331,1354
2518.6,1310
2520.418967578273,1326
2522.237541568376,1294
2524.0557222606144,1322
2525.8735099453706,1300
2527.6909049131086,1377
2529.507907454368,1337
2531.32451785977,1356
2533.140736420014,1341
2534.9565634258774,1391
2536.771999168218,1368
2538.5870439379714,1382
2540.4016980261526,1357
2542.2159617238544,1377
2544.02983532225,1374
2545.8433191125914,1410
2547.656413386209,1397
2549.4691184345115,1378
2551.2814345489874,1380
2553.093362021204,1386
2554.904901142808,1409
2556.716052205523,1411
2558.526815501153,1407
2560.3371913215824,1420
2562.147179958771,1393
2563.956781704761,1311
2565.7659968516705,1353
2567.5748256916986,1436
2569.3832685171224,1440
2571.1913256202984,1486
2572.9989972936614,1448
2574.806283829725,1406
2576.613185521084,1404
2578.4197026604074,1433
2580.2258355404483,1438
2582.031584454035,1403
2583.836949694077,1493
2585.6419315535613,1473
2587.4465303255533,1440
2589.2507463032002,1472
2591.0545797797245,1421
2592.8580310484303,1463
2594.6611004026995,1389
2596.463788135992,1426
2598.266094541849,1488
2600.0680199138874,1523
2601.869564545807,1512
2603.670728731383,1503
2605.4715127644704,1488
2607.2719169390048,1495
2609.071941548998,1465
2610.8715868885433,1551
2612.670853251811,1570
2614.469740933052,1592
2616.268250226594,1502
2618.0663814268455,1475
2619.864134828292,1504
2621.6615107255006,1541
2623.458509413115,1601
2625.2551311858597,1516
2627.0513763385347,1472
2628.8472451660223,1483
2630.6427379632833,1504
2632.4378550253564,1479
2634.232596647359,1510
2636.026963124488,1459
2637.8209547520187,1550
2639.6145718253065,1524
2641.407814639785,1550
2643.200683490966,1474
2644.9931786744414,1485
2646.7853004858807,1404
2648.577049221034,1462
2650.3684251757277,1455
2652.1594286458712,1451
2653.9500599274484,1399
2655.740319316525,1417
2657.5302071092437,1420
2659.3197236018286,1447
2661.10886909058,1427
2662.8976438718782,1411
2664.686048242183,1377
2666.4740824980327,1364
2668.2617469360443,1404
2670.0490418529134,1326
2671.8359675454153,1370
2673.622524310403,1404
2675.408712444811,1432
2677.1945322456495,1352
2678.979984010009,1392
2680.76506803506,1365
2682.5497846180497,1378
2684.334134056306,1322
2686.1181166472343,1356
2687.9017326883213,1384
2689.6849824771293,1356
2691.4678663113013,1322
2693.2503844885596,1338
2695.032537306705,1377
2696.8143250636167,1358
2698.5957480572542,1299
2700.3768065856534,1351
2702.1575009469316,1344
2703.937831439283,1293
2705.717798360982,1334
2707.4974020103837,1341
2709.276642685917,1295
2711.055520686095,1286
2712.834036309506,1353
2714.612189854819,1318
2716.389981620782,1341
2718.1674119062204,1319
2719.944481010041,1324
2721.721189231226,1264
2723.4975368688415,1331
2725.273524222027,1294
2727.0491515900053,1325
2728.824419272075,1286
2730.5993275676146,1304
2732.3738767760838,1303
2734.148067197016,1246
2735.921899130031,1300
2737.6953728748194,1328
2739.468488731156,1328
2741.2412469988926,1287
2743.0136479779617,1301
2744.785691968372,1292
2746.5573792702116,1292
2748.3287101836504,1233
2750.099685008934,1287
2751.870304046388,1253
2753.640567596418,1251
2755.4104759595057,1252
2757.1800294362156,1283
2758.949228327187,1223
2760.7180729331412,1313
2762.486563554877,1263
2764.254700493272,1313
2766.022484049284,1313
2767.789914523947,1333
2769.5569922183786,1339
2771.3237174337705,1269
2773.090090471394,1247
2774.8561116326036,1334
2776.6217812188274,1275
2778.3870995315756,1305
2780.1520668724356,1306
2781.9166835430747,1268
2783.6809498452394,1299
2785.444866080754,1248
2787.2084325515225,1302
2788.971649559527,1288
2790.73451740683,1270
2792.4970363955713,1221
2794.2592068279705,1255
2796.0210290063264,1272
2797.7825032330147,1300
2799.543629810493,1243
2801.304409041296,1263
2803.0648412280366,1314
2804.8249266734088,1269
2806.5846656801846,1317
2808.344058551212,1264
2810.1031055894246,1305
2811.8618070978273,1310
2813.6201633795085,1314
2815.378174737636,1296
2817.1358414754536,1266
2818.893163896285,1314
2820.6501423035334,1329
2822.4067770006814,1256
2824.1630682912883,1324
2825.9190164789957,1328
2827.6746218675207,1306
2829.429884760661,1314
2831.184805462294,1261
2832.9393842763743,1317
2834.693621506936,1312
2836.4475174580916,1278
2838.201072434034,1335
2839.954286739034,1294
2841.707160677441,1308
2843.459694553685,1277
2845.2118886722724,1338
2846.96374333779,1323
2848.7152588549034,1235
2850.4664355283567,1289
2852.217273662973,1302
2853.9677735636546,1294
2855.7179355353833,1265
2857.4677598832186,1316
2859.217246912299,1271
2860.9663969278427,1255
2862.715210235146,1231
2864.4636871395846,1266
2866.211827946614,1313
2867.9596329617652,1241
2869.7071024906536,1242
2871.4542368389684,1284
2873.20103631248,1319
2874.947501217038,1332
2876.6936318585695,1330
2878.4394285430812,1302
2880.1848915766604,1299
2881.9300212654707,1331
2883.6748179157553,1306
2885.4192818338374,1244
2887.1634133261173,1280
2888.907212699077,1276
2890.6506802592744,1331
2892.393816313348,1290
2894.1366211680142,1284
2895.8790951300693,1293
2897.621238506388,1298
2899.363051603925,1325
2901.1045347297118,1321
2902.8456881908596,1286
2904.58651229456,1295
2906.327007348081,1317
2908.067173658772,1347
2909.8070115340597,1303
2911.5465212814497,1289
2913.285703208527,1322
2915.0245576229563,1281
2916.7630848324807,1259
2918.5012851449196,1308
2920.2391588681758,1318
2921.976706310227,1289
2923.7139277791334,1272
2925.4508235830313,1280
2927.187394030137,1335
2928.923639428745,1305
2930.6595600872306,1275
2932.395156314046,1291
2934.1304284177218,1330
2935.8653767068713,1324
2937.6000014901815,1305
2939.3343030764227,1305
2941.068281774442,1288
2942.8019378931644,1283
2944.5352717415976,1263
2946.2682836288236,1326
2948.0009738640065,1322
2949.7333427563885,1301
2951.465390615289,1276
2953.1971177501086,1334
2954.9285244703265,1323
2956.6596110855,1304
2958.3903779052657,1292
2960.1208252393385,1329
2961.8509533975125,1306
2963.5807626896617,1278
2965.3102534257378,1274
2967.0394259157715,1290
2968.768280469873,1320
2970.496817398232,1323
2972.2250370111146,1319
2973.952939618869,1258
2975.6805255319196,1316
2977.4077950607707,1330
2979.134748516006,1346
2980.861386208289,1318
2982.587708448359,1336
2984.313715547037,1343
2986.039407815222,1331
2987.764785563891,1293
2989.489849104102,1273
2991.2145987469908,1282
2992.9390348037705,1293
2994.6631575857346,1301
2996.3869674042576,1370
2998.1104645707887,1316
2999.83364939686,1279
3001.5565221940783,1294
3003.2790832741334,1302
3005.0013329487924,1286
3006.7232715298996,1282
3008.4448993293804,1240
3010.166216659239,1252
3011.887223831558,1281
3013.607921158498,1327
3015.3283089522993,1217
3017.0483875252826,1282
3018.7681571898443,1294
3020.4876182584626,1290
3022.2067710436927,1294
3023.9256158581707,1256
3025.644153014609,1351
3027.362382825801,1267
3029.0803056046193,1316
3030.797921664012,1289
3032.5152313170106,1249
3034.2322348767225,1280
3035.9489326563353,1282
3037.665324969115,1228
3039.3814121284063,1273
3041.097194447633,1234
3042.812672240299,1266
3044.5278458199855,1329
3046.2427155003525,1333
3047.9572815951406,1312
3049.671544418167,1331
3051.38550428333,1307
3053.0991615046073,1296
3054.812516396051,1268
3056.5255692717974,1259
3058.2383204460575,1271
3059.9507702331257,1254
3061.662918947372,1284
3063.3747669032446,1275
3065.0863144152736,1253
3066.7975617980674,1236
3068.508509366309,1269
3070.219157434767,1278
3071.9295063182844,1289
3073.639556331785,1324
3075.3493077902704,1313
3077.058761008821,1312
3078.7679163025964,1265
3080.476773986837,1275
3082.1853343768594,1379
3083.89359778806,1281
3085.6015645359153,1284
3087.3092349359786,1314
3089.016609303884,1328
3090.7236879553434,1292
3092.4304712061476,1287
3094.136959372166,1293
3095.843152769349,1292
3097.5490517137237,1282
3099.2546565213966,1307
3100.959967508554,1354
3102.66498499146,1306
3104.3697092864577,1302
3106.0741407099695,1314
3107.778279578498,1320
3109.482126208622,1279
3111.1856809170004,1259
3112.8889440203716,1348
3114.5919158355528,1290
3116.294596679439,1278
3117.996986869006,1309
3119.6990867213062,1262
3121.4008965534726,1257
3123.102416682717,1304
3124.803647426329,1290
3126.5045891016784,1325
3128.205242026213,1257
3129.90560651746,1264
3131.605682893025,1279
3133.3054714705922,1308
3135.0049725679282,1342
3136.7041865028714,1291
3138.4031135933465,1248
3140.101754157353,1304
3141.800108512971,1305
3143.498176978357,1322
3145.1959598717494,1271
3146.8934575114636,1255
3148.5906702158954,1270
3150.2875983035183,1271
3151.9842420928853,1286
3153.680601902627,1303
3155.376678051456,1234
3157.07247085816,1264
3158.767980641609,1306
3160.463207720748,1312
3162.158152414606,1310
3163.8528150422862,1278
3165.5471959229726,1305
3167.2412953759303,1298
3168.9351137204976,1288
3170.628651276098,1335
3172.3219083622307,1318
3174.014885298474,1329
3175.707582404485,1310
3177.4000000000005,1336
3179.092138404835,1288
3180.7839979388846,1310
3182.47557892212,1284
3184.166881674594,1291
3185.8579065164386,1298
3187.5486537678626,1314
3189.2391237491547,1339
3190.9293167806827,1288
3192.6192331828934,1256
3194.3088732763117,1314
3195.998237381542,1303
3197.687325819268,1286
3199.376138910251,1362
3201.064676975334,1227
3202.7529403354347,1295
3204.4409293115523,1258
3206.1286442247647,1267
3207.816085396229,1306
3209.5032531471825,1251
3211.190147798936,1306
3212.8767696728846,1299
3214.5631190905015,1294
3216.2491963733373,1283
3217.9350018430214,1268
3219.6205358212637,1228
3221.305798629851,1215
3222.990790590651,1245
3224.6755120256103,1244
3226.359963256751,1260
3228.0441446061795,1253
3229.7280563960758,1262
3231.411698948703,1252
3233.0950725863995,1258
3234.778177631587,1262
3236.461014406761,1288
3238.1435832345005,1289
3239.8258844374595,1259
3241.507918338374,1306
3243.1896852600576,1317
3244.8711855254023,1303
3246.552419457381,1278
3248.233387379042,1311
3249.914089613516,1321
3251.59452648401,1285
3253.274698313813,1323
3254.95460542629,1265
3256.6342481448855,1263
3258.313626793125,1263
3259.9927416946084,1251
3261.6715931730196,1243
3263.3501815521176,1261
3265.0285071557437,1239
3266.706570307815,1181
3268.3843713323286,1262
3270.0619105533615,1247
3271.739188295068,1278
3273.4162048816834,1221
3275.0929606375184,1276
3276.769455886966,1312
3278.445690954498,1279
3280.1216661646613,1265
3281.797381842087,1321
3283.4728383114807,1305
3285.1480358976296,1258
3286.8229749253996,1265
3288.4976557197333,1239
3290.172078605655,1199
3291.846243908266,1239
3293.5201519527463,1240
3295.193803064357,1267
3296.8671975684374,1298
3298.5403357904024,1251
3300.21321805575,1295
3301.8858446900567,1237
3303.558216018975,1259
3305.23033236824,1242
3306.9021940636603,1338
3308.57380143113,1288
3310.2451547966184,1280
3311.916254486174,1308
3313.5871008259246,1282
3315.2576941420766,1253
3316.9280347609147,1277
3318.5981230088046,1281
3320.2679592121895,1271
3321.9375436975924,1295
3323.606876791612,1276
3325.27595882093,1242
3326.944790112305,1227
3328.6133709925753,1347
3330.2817017886573,1306
3331.949782827547,1247
3333.617614436319,1290
3335.2851969421245,1205
3336.952530672199,1295
3338.619615953853,1266
3340.286453114475,1266
3341.9530424815357,1317
3343.619384382583,1342
3345.2854791452437,1254
3346.951327097224,1271
3348.6169285663073,1345
3350.2822838803577,1315
3351.947393367319,1375
3353.61225735521,1299
3355.2768761721345,1302
3356.9412501462693,1293
3358.605379605873,1280
3360.2692648792827,1233
3361.9329062949146,1248
3363.596304181263,1254
