CollectionTime,7/3/2024 2:24:32 PM
ExposureUsed,3
CalibratedSpectrum
-962.7078968117929,514
-959.9714848408522,576
-957.2358232597828,594
-954.5009119013725,586
-951.7667505983302,557
-949.0333391832855,592
-946.3006774887896,603
-943.5687653473143,551
-940.837602591253,570
-938.1071890529199,567
-935.3775245645503,558
-932.6486089583007,569
-929.9204420662485,556
-927.1930237203925,612
-924.4663537526524,607
-921.7404319948689,601
-919.0152582788041,598
-916.2908324361409,657
-913.5671542984834,657
-910.8442236973568,643
-908.1220404642074,597
-905.4006044304027,611
-902.679915427231,641
-899.959973285902,623
-897.2407778375464,580
-894.5223289132158,591
-891.8046263438832,579
-889.0876699604426,615
-886.3714595937089,603
-883.6559950744183,580
-880.9412762332282,636
-878.2273029007168,587
-875.5140749073835,579
-872.8015920836489,589
-870.0898542598545,589
-867.3788612662631,573
-864.6686129330585,564
-861.9591090903457,577
-859.2503495681506,572
-856.5423341964203,540
-853.8350628050229,546
-851.1285352237478,561
-848.4227512823054,550
-845.7177108103272,592
-843.0134136373656,590
-840.3098595928943,573
-837.6070485063082,582
-834.9049802069229,578
-832.2036545239757,605
-829.5030712866244,577
-826.8032303239481,633
-824.1041314649472,608
-821.4057745385428,594
-818.7081593735775,556
-816.0112857988148,592
-813.3151536429393,592
-810.6197627345566,613
-807.9251129021936,613
-805.2312039742981,556
-802.5380357792392,571
-799.8456081453069,586
-797.1539209007124,597
-794.462973873588,604
-791.772766891987,655
-789.083299783884,587
-786.3945723771743,596
-783.7065844996748,605
-781.0193359791231,589
-778.3328266431781,606
-775.6470563194197,583
-772.9620248353489,621
-770.2777320183878,615
-767.5941776958798,603
-764.9113616950891,605
-762.2292838432011,584
-759.5479439673222,590
-756.8673418944801,577
-754.1874774516235,593
-751.5083504656222,581
-748.8299607632671,585
-746.15230817127,622
-743.475392516264,637
-740.7992136248035,651
-738.1237713233636,622
-735.4490654383407,619
-732.7750957960521,621
-730.1018622227365,613
-727.4293645445534,608
-724.7576025875837,580
-722.0865761778291,609
-719.4162851412126,625
-716.7467293035781,602
-714.0779084906909,636
-711.409822528237,611
-708.7424712418238,660
-706.0758544569796,632
-703.4099719991541,646
-700.7448236937178,646
-698.0804093659622,599
-695.4167288411002,620
-692.7537819442656,647
-690.0915685005134,634
-687.4300883348199,649
-684.7693412720819,624
-682.1093271371178,665
-679.4500457546669,637
-676.7914969493897,643
-674.1336805458676,609
-671.4765963686034,633
-668.8202442420206,683
-666.1646239904642,655
-663.5097354382001,643
-660.8555784094151,636
-658.2021527282176,674
-655.5494582186366,647
-652.8974947046223,647
-650.2462620100463,699
-647.5957599587009,706
-644.9459883742998,655
-642.2969470804776,670
-639.6486359007902,655
-637.0010546587141,673
-634.3542031776476,682
-631.7080812809096,693
-629.0626887917401,669
-626.4180255333008,676
-623.7740913286734,695
-621.1308860008619,728
-618.4884093727904,740
-615.8466612673046,704
-613.2056415071715,710
-610.5653499150785,692
-607.9257863136347,751
-605.28695052537,730
-602.6488423727357,716
-600.0114616781036,702
-597.3748082637674,717
-594.7388819519412,740
-592.1036825647604,762
-589.4692099242818,829
-586.8354638524829,770
-584.2024441712624,775
-581.5701507024403,798
-578.9385832677575,748
-576.3077416888759,724
-573.6776257873787,715
-571.0482353847704,726
-568.4195703024757,751
-565.7916303618415,722
-563.164415384135,703
-560.5379251905453,743
-557.9121596021815,742
-555.2871184400748,697
-552.6628015251767,737
-550.0392086783606,755
-547.4163397204204,728
-544.794194472071,756
-542.1727727539491,792
-539.5520743866118,821
-536.9320991905377,771
-534.3128469861261,820
-531.6943175936979,767
-529.0765108334947,789
-526.4594265256793,857
-523.8430644903358,913
-521.2274245474689,995
-518.612506517005,1090
-515.9983102187913,1088
-513.3848354725959,1126
-510.77208209810846,1153
-508.16004991493924,1141
-505.5487387426199,1227
-502.9381484006032,1391
-500.3282787082628,1452
-497.71912948489364,1516
-495.1107005497117,1551
-492.5029917218539,1521
-489.8960028203786,1468
-487.28973366426493,1427
-484.68418407241325,1234
-482.07935386364494,1149
-479.47524285670266,1020
-476.87185087025,1023
-474.2691777228715,989
-471.66722323307334,999
-469.0659872192821,973
-466.4654694998459,940
-463.86566989303384,931
-461.26658821703614,931
-458.66822428996414,945
-456.07057792985,928
-453.4736489546475,933
-450.877437182231,928
-448.28194243039627,933
-445.68716451686,919
-443.09310325926003,901
-440.49975847515555,860
-437.9071299820263,879
-435.31521759727354,899
-432.72402113821954,972
-430.13354042210767,965
-427.5437752661022,948
-424.95472548728867,913
-422.36639090267386,946
-419.7787713291855,1033
-417.1918665836721,964
-414.60567648290385,984
-412.0202008435715,1044
-409.4354394822874,979
-406.8513922155845,975
-404.26805885991723,993
-401.685439231661,1016
-399.103533147112,964
-396.522340422488,1008
-393.9418608739278,1005
-391.3620943174908,1074
-388.7830405691583,998
-386.2046994448317,918
-383.6270707603344,913
-381.05015433141045,868
-378.473949973725,822
-375.8984575028645,864
-373.32367673433623,752
-370.74960748356875,794
-368.1762495659117,770
-365.60360279663576,707
-363.03166699093265,653
-360.4604419639154,631
-357.8899275306178,635
-355.32012350599507,615
-352.7510297049233,593
-350.1826459421999,557
-347.61497203254316,543
-345.04800779059235,491
-342.4817530309082,521
-339.91620756797226,600
-337.35137121618743,669
-334.7872437898774,637
-332.22382510328725,668
-329.66111497058273,680
-327.09911320585127,650
-324.53781962310075,654
-321.9772340362607,638
-319.4173562591816,563
-316.8581861056348,554
-314.2997233893127,563
-311.7419679238294,587
-309.1849195227194,537
-306.62857799943856,602
-304.0729431673641,640
-301.51801483979375,664
-298.963792829947,689
-296.41027695096386,639
-293.85746701590574,646
-291.3053628377552,705
-288.7539642294155,774
-286.2032710037115,748
-283.65328297338897,647
-281.1039999511146,688
-278.5554217494762,742
-276.007548180983,779
-273.4603790580651,745
-270.9139141930734,688
-268.3681533982807,643
-265.8230964858798,672
-263.27874326798565,704
-260.7350935566336,715
-258.1921471637804,750
-255.6499039013039,797
-253.10836358100266,838
-250.56752601459698,761
-248.02739101372765,801
-245.48795838995704,834
-242.94922795476816,780
-240.41119951956557,786
-237.8738728956746,903
-235.33724789434166,893
-232.80132432673452,802
-230.2661020039418,720
-227.73158073697357,726
-225.19776033676033,853
-222.66464061415422,903
-220.1322213799284,813
-217.60050244477725,800
-215.06948361931552,819
-212.53916471408013,980
-210.00954553952818,1089
-207.48062590603843,1027
-204.9524056239104,923
-202.4248845033651,934
-199.8980623545441,1074
-197.37193898751036,1033
-194.84651421224817,1045
-192.32178783866232,1006
-189.79775967657952,943
-187.27442953574644,1072
-184.7517972258321,1108
-182.2298625564256,990
-179.7086253370378,935
-177.18808537710026,978
-174.66824248596583,1270
-172.14909647290835,1443
-169.6306471471229,1170
-167.11289431772548,1146
-164.59583779375328,1100
-162.07947738416453,1143
-159.5638128978386,1228
-157.04884414357605,1388
-154.53457093009854,1354
-152.02099306604828,1290
-149.50811035998936,1115
-146.99592262040665,1162
-144.48442965570587,1349
-141.97363127421409,1597
-139.46352728417958,1564
-136.95411749377126,1436
-134.44540171107985,1370
-131.93737974411636,1247
-129.43005140081357,1306
-126.92341648902493,1519
-124.41747481652521,1986
-121.91222619101006,1799
-119.40767042009657,1845
-116.90380731132257,1906
-114.40063667214702,1798
-111.8981583099503,1659
-109.3963720320337,1656
-106.89527764561933,2637
-104.39487495785067,3508
-101.89516377579241,3537
-99.39614390642998,4756
-96.89781515667039,4287
-94.40017733334128,4549
-91.90323024319173,3779
-89.40697369289148,3639
-86.91140748903172,3113
-84.41653143812482,2718
-81.92234534660395,2793
-79.42884902082358,4142
-76.93604226705907,5727
-74.4439248915071,7974
-71.95249670028534,9260
-69.46175749943245,11901
-66.97170709490854,14360
-64.48234529259423,20123
-61.99367189829195,25383
-59.50568671772464,27624
-57.01838955653636,28880
-54.53178022029283,23353
-52.045858514480074,17686
-49.560624244506016,17620
-47.07607721569923,18901
-44.59221723330904,19485
-42.10904410250669,23029
-39.62655762838392,25978
-37.14475761595372,24896
-34.66364387015028,23638
-32.18321619582866,25910
-29.70347439776515,27910
-27.224418280657005,30647
-24.74604764912317,33792
-22.26836230770266,40847
-19.7913620608565,64962
-17.315046712966478,65038
-14.83941606833514,65038
-12.36446993118659,65038
-9.89020810566592,65038
-7.416630395839093,65038
-4.94373660569363,65038
-2.471526539137585,65038
-6.821210263296962E-13,65038
2.47084320796705,65038
4.941003281093458,65038
7.410480415786196,65038
9.879274808531363,65038
12.347386655893956,65038
14.814816154518212,65038
17.28156350112681,65038
19.74762889252179,65038
22.21301252558385,65038
24.67771459727237,24079
27.141735304626195,5841
29.605074844762612,3802
32.06773341487792,3163
34.52971121224755,2745
36.99100843422559,3051
39.45162527824516,3198
41.91156194181792,2950
44.370818622535126,2776
46.82939551806646,2786
49.287292826160524,3055
51.74451074464503,3429
54.201049471426245,3583
56.65690920448981,2695
59.112090141899785,2172
61.56659248179983,2055
64.02041642241159,2215
66.4735621620365,2042
68.92602989905402,1509
71.37781983192338,1558
73.82893215918205,1517
76.27936707944684,1402
78.72912479141326,1649
81.17820549385567,2052
83.62660938562783,2358
86.07433666566146,2168
88.5213875329681,1860
90.96776218663751,1536
93.41346082583925,1357
95.85848364982041,1440
98.30283085790859,1709
100.7465026495089,1596
103.18949922410604,1956
105.63182078126385,1920
108.07346752062438,1565
110.51443964190923,1340
112.95473734491827,1402
115.39436082953114,1577
117.83331029570547,1475
120.27158594347827,1417
122.7091879729652,1692
125.1461165843615,1382
127.58237197794062,1101
130.01795435405518,1180
132.4528639131364,1312
134.88710085569494,1251
137.32066538231982,1289
139.75355769367923,1359
142.1857779905207,1265
144.61732647366978,1100
147.04820334403132,1048
149.47840880258934,1068
151.90794305040674,1112
154.33680628862487,1316
156.76499871846443,1497
159.19252054122433,1525
161.61937195828352,1667
164.04555317109896,1794
166.47106438120693,1824
168.89590579022217,1981
171.320077599839,1980
173.7435800118302,2088
176.16641322804742,2310
178.58857745042144,2403
181.01007288096173,2414
183.43089972175687,2738
185.85105817497413,2794
188.27054844285988,2710
190.6893707277394,2513
193.10752523201643,2525
195.5250121581745,2486
197.9418317087751,2599
200.3579840864594,2679
202.7734694939469,2751
205.18828813403627,2831
207.6024402096051,2978
210.01592592360964,2866
212.42874547908548,2761
214.84089907914665,2745
217.2523869269868,2720
219.66320922587727,2689
222.0733661791695,2651
224.48285799029293,2609
226.8916848627572,2673
229.29984700014882,2738
231.7073446061355,2691
234.11417788446204,2638
236.520347038953,2619
238.92585227351185,2619
241.33069379212054,2607
243.73487179884035,2599
246.1383864978112,2744
248.541238093252,2872
250.9434267894609,2699
253.34495279081432,2686
255.74581630176783,2660
258.1460175268563,2758
260.54555667069314,2670
262.9444339379703,2652
265.3426495334594,2671
267.7402036620107,2678
270.1370965285529,2796
272.53332833809407,2681
274.9288992957214,2567
277.32380960660055,2543
279.718059475976,2629
282.1116491091717,2594
284.5045787115897,2610
286.89684848871195,2493
289.2884586460981,2487
291.67940938938807,2471
294.0697009242996,2432
296.4593334566299,2449
298.84830719225477,2478
301.23662233712923,2507
303.6242790972866,2372
306.01127767884,2417
308.39761828798066,2395
310.78330113097934,2314
313.16832641418534,2353
315.5526943440269,2241
317.9364051270112,2294
320.3194589697242,2336
322.70185607883093,2268
325.0835966610754,2300
327.4646809232805,2248
329.8451090723478,2303
332.2248813152577,2233
334.6039978590701,2250
336.9824589109231,2218
339.36026467803447,2216
341.7374153677,2158
344.113911187295,2164
346.48975234427337,2147
348.8649390461686,2162
351.2394715005918,2256
353.61334991523415,2169
355.9865744978655,2096
358.35914545633375,2145
360.73106299856715,2098
363.10232733257146,2145
365.47293866643247,2101
367.84289720831396,2127
370.2122031664593,2107
372.5808567491905,2031
374.9488581649083,2025
377.31620762209275,2015
379.6829053293021,2026
382.0489514951745,2039
384.4143463284262,2010
386.7790900378528,1954
389.14318283232853,2046
391.50662492080653,1999
393.86941651231916,2090
396.23155781597745,2050
398.5930490409713,2073
400.9538903965696,2008
403.3140820921202,1980
405.6736243370498,2014
408.03251734086336,1949
410.3907613131465,1976
412.74835646356166,1929
415.10530300185144,1936
417.4616011378372,1946
419.81725108141893,1921
422.1722530425758,1902
424.5266072313656,1945
426.880313857925,1973
429.2333731324701,1967
431.58578526529516,1956
433.9375504667738,1899
436.2886689473588,1966
438.63914091758113,2005
440.9889665880513,1937
443.33814616945835,1839
445.68667987257015,1811
448.03456790823395,1854
450.3818104873759,1917
452.72840782100013,1845
455.07436012019105,1919
457.41966759611057,1926
459.7643304600007,1942
462.10834892318155,1869
464.4517231970525,1875
466.79445349309174,1830
469.1365400228566,1859
471.4779829979826,1893
473.81878263018564,1861
476.15893913125876,1838
478.4984527130747,1930
480.8373235875855,2001
483.17555196682144,2016
485.5131380628919,2033
487.8500820879857,2127
490.1863842543697,2135
492.52204477439034,2320
494.8570638604725,2389
497.1914417251204,2604
499.52517858091653,2731
501.85827464052306,2850
504.19073011668036,2921
506.5225452222086,2839
508.85372017000566,2791
511.18425517304956,2789
513.514150444396,2738
515.8434061971808,2985
518.1720226446176,3372
520.4999999999999,3570
522.8273384766991,3575
525.1540382881666,3583
527.480099647932,3354
529.8055227696037,3139
532.1303078668694,2681
534.454455153496,2311
536.777964843328,2204
539.1008371502907,2034
541.4230722883866,2100
543.744670471698,2003
546.0656319143858,1980
548.3859568306899,2072
550.7056454349294,2120
553.0246979415016,2080
555.3431145648834,2083
557.6608955196306,2075
559.978041020377,2054
562.2945512818363,1983
564.6104265188006,2006
566.9256669461412,2034
569.2402727788082,2061
571.5542442318302,2034
573.8675815203156,2050
576.1802848594508,2036
578.4923544645015,2119
580.8037905508126,2162
583.114593333807,2075
585.4247630289875,2024
587.7342998519354,2023
590.0432040183106,2006
592.3514757438526,1970
594.6591152443794,2050
596.9661227357875,2036
599.2724984340531,2071
601.578242555231,2112
603.8833553154542,2079
606.1878369309362,2072
608.4916876179676,1996
610.7949075929192,2018
613.0974970722403,1999
615.3994562724587,2016
617.7007854101818,2005
620.0014847020951,1927
622.3015543649641,1964
624.6009946156324,1927
626.8998056710224,1943
629.1979877481361,2046
631.4955410640538,2019
633.7924658359349,2045
636.0887622810175,1998
638.3844306166192,2052
640.6794710601358,2041
642.9738838290426,2076
645.2676691408932,1979
647.5608272133207,2008
649.853358264037,2039
652.1452625108324,2035
654.4365401715764,2068
656.7271914642178,2013
659.0172166067838,2022
661.3066158173809,2010
663.5953893141935,2079
665.8835373154867,2071
668.1710600396028,2012
670.4579577049639,2051
672.7442305300709,2127
675.0298787335033,2046
677.3149025339197,2042
679.599302150058,2057
681.8830778007342,2061
684.1662297048437,2019
686.4487580813608,2030
688.7306631493387,2066
691.0119451279091,2044
693.2926042362834,2043
695.5726406937516,2073
697.8520547196814,2038
700.1308465335215,2109
702.4090163547982,2048
704.6865644031171,2079
706.9634908981619,2064
709.2397960596965,2051
711.5154801075631,2026
713.7905432616823,1999
716.0649857420548,2020
718.3388077687592,2076
720.612009561953,2021
722.8845913418733,2031
725.1565533288352,2000
727.427895743234,2054
729.6986188055427,2023
731.9687227363137,1958
734.238207756178,1994
736.5070740858458,1982
738.7753219461066,2027
741.0429515578281,1976
743.3099631419569,1926
745.5763569195191,2070
747.8421331116193,2108
750.1072919394409,2014
752.3718336242467,2002
754.6357583873777,2001
756.8990664502545,2058
759.1617580343765,2014
761.423833361321,1984
763.6852926527457,2032
765.9461361303862,2102
768.206364016058,2092
770.4659765316536,2127
772.7249738991469,2057
774.9833563405886,2086
777.2411240781092,2096
779.4982773339183,2094
781.7548163303044,2048
784.010741289634,2116
786.2660524343538,2076
788.5207499869881,2070
790.7748341701416,2079
793.0283052064964,2058
795.2811633188143,2097
797.5334087299362,1985
799.7850416627813,2054
802.0360623403484,2124
804.2864709857143,2110
806.5362678220353,2086
808.7854530725468,2006
811.0340269605625,2017
813.2819897094754,2038
815.5293415427581,2187
817.77608268396,2150
820.0222133567116,2098
822.2677337847211,2002
824.5126441917765,2019
826.7569448017433,2064
829.0006358385675,2076
831.2437175262731,2055
833.4861900889629,2018
835.7280537508192,2008
837.9693087361026,1978
840.2099552691533,2128
842.4499935743896,2079
844.689423876309,2006
846.9282463994886,2028
849.1664613685833,2081
851.4040690083276,2094
853.6410695435349,2012
855.877463199097,2022
858.1132501999847,2059
860.3484307712487,2015
862.5830051380175,2097
864.8169735254988,2066
867.0503361589791,2050
869.2830932638243,1929
871.5152450654786,2069
873.7467917894654,2049
875.9777336613873,2021
878.2080709069252,2111
880.4378037518389,2103
882.666932421968,2119
884.8954571432301,2056
887.1233781416219,2151
889.3506956432192,2161
891.5774098741766,2059
893.803521060728,2114
896.0290294291852,2143
898.2539352059397,2089
900.4782386174619,2099
902.7019398903011,1985
904.925039251085,2043
907.147536926521,1992
909.3694331433943,1995
911.59072812857,1963
913.8114221089921,1958
916.0315153116827,1992
918.2510079637437,1988
920.4699002923547,1982
922.6881925247761,1937
924.905884888345,2017
927.1229776104793,1925
929.3394709186747,1930
931.555365040506,1803
933.7706602036275,1940
935.9853566357709,1975
938.1994545647489,1947
940.4129542184515,1962
942.6258558248488,1898
944.8381596119883,1941
947.0498658079974,1872
949.2609746410825,1921
951.4714863395287,1918
953.6814011316998,1963
955.8907192460387,1914
958.0994409110671,1817
960.3075663553858,1938
962.5150958076741,1911
964.7220294966913,1913
966.928367651274,1906
969.1341105003388,1778
971.3392582728806,1875
973.5438111979742,1886
975.747769504772,1895
977.9511334225061,1854
980.153903180487,1882
982.3560790081052,1811
984.5576611348289,1813
986.7586497902058,1797
988.9590452038618,1834
991.158847605503,1940
993.3580572249133,1820
995.5566742919558,1812
997.7546990365728,1875
999.952131688785,1754
1002.1489724786926,1763
1004.3452216364743,1748
1006.5408793923874,1686
1008.7359459767691,1712
1010.9304216200343,1662
1013.1243065526781,1676
1015.3176010052733,1656
1017.510305208472,1675
1019.7024193930064,1616
1021.8939437896848,1615
1024.0848786293977,1671
1026.2752241431122,1658
1028.4649805618747,1666
1030.6541481168115,1636
1032.842727039127,1621
1035.0307175601051,1640
1037.2181199111074,1651
1039.4049343235752,1641
1041.591161029029,1610
1043.7768002590683,1659
1045.9618522453698,1630
1048.1463172196918,1568
1050.3301954138697,1596
1052.513487059818,1566
1054.69619238953,1584
1056.8783116350783,1542
1059.0598450286152,1586
1061.2407928023704,1548
1063.4211551886528,1511
1065.6009324198508,1666
1067.780124728432,1575
1069.9587323469414,1549
1072.1367555080046,1603
1074.314194444325,1573
1076.4910493886855,1506
1078.667320573947,1609
1080.843008233051,1557
1083.0181125990161,1544
1085.1926339049414,1520
1087.3665723840027,1549
1089.5399282694575,1551
1091.7127017946405,1481
1093.8848931929647,1526
1096.0565026979243,1526
1098.2275305430899,1505
1100.3979769621128,1554
1102.567842188722,1513
1104.737126456726,1514
1106.9058300000124,1540
1109.0739530525475,1479
1111.2414958483764,1473
1113.4084586216231,1469
1115.5748416064907,1450
1117.7406450372605,1514
1119.9058691482942,1446
1122.0705141740304,1469
1124.2345803489884,1518
1126.3980679077658,1452
1128.5609770850388,1497
1130.7233081155623,1433
1132.8850612341707,1479
1135.0462366757774,1361
1137.2068346753745,1471
1139.3668554680326,1484
1141.526299288901,1456
1143.68516637321,1488
1145.8434569562655,1502
1148.001171273455,1455
1150.158309560244,1454
1152.3148720521767,1438
1154.470858984876,1381
1156.626270594044,1452
1158.7811071154629,1425
1160.9353687849912,1435
1163.089055838569,1492
1165.242168512213,1451
1167.3947070420209,1414
1169.5466716641677,1471
1171.6980626149075,1474
1173.8488801305748,1427
1175.9991244475814,1401
1178.1487958024186,1452
1180.2978944316555,1432
1182.4464205719428,1388
1184.5943744600072,1410
1186.7417563326567,1410
1188.8885664267755,1437
1191.0348049793297,1395
1193.1804722273619,1432
1195.325568407995,1387
1197.4700937584303,1367
1199.614048515948,1365
1201.7574329179074,1444
1203.900247201746,1356
1206.042491604982,1430
1208.1841663652099,1399
1210.3252717201053,1419
1212.465807907422,1445
1214.6057751649923,1481
1216.7451737307279,1492
1218.8840038426192,1399
1221.0222657387353,1475
1223.1599596572241,1407
1225.2970858363137,1436
1227.4336445143094,1433
1229.5696359295966,1419
1231.705060320639,1454
1233.8399179259786,1449
1235.9742089842384,1435
1238.107933734118,1450
1240.2410924143974,1451
1242.373685263935,1436
1244.5057125216676,1444
1246.6371744266116,1418
1248.7680712178621,1398
1250.898403134593,1453
1253.028170416058,1480
1255.1573733015875,1471
1257.2860120305932,1453
1259.4140868425648,1405
1261.54159797707,1410
1263.6685456737569,1444
1265.7949301723515,1376
1267.9207517126597,1398
1270.046010534565,1457
1272.1707068780306,1415
1274.2948409830983,1448
1276.4184130898889,1455
1278.541423438603,1525
1280.6638722695184,1470
1282.785759822993,1376
1284.9070863394636,1442
1287.0278520594447,1472
1289.1480572235314,1487
1291.2677020723963,1459
1293.3867868467923,1478
1295.5053117875495,1509
1297.623277135579,1464
1299.740683131868,1457
1301.8575300174857,1436
1303.973818033578,1432
1306.0895474213703,1446
1308.2047184221678,1514
1310.3193312773528,1453
1312.4333862283888,1471
1314.5468835168163,1488
1316.659823384255,1537
1318.7722060724045,1516
1320.8840318230418,1472
1322.9953008780249,1441
1325.1060134792888,1496
1327.2161698688478,1484
1329.3257702887959,1481
1331.4348149813054,1496
1333.5433041886276,1469
1335.6512381530933,1498
1337.7586171171101,1500
1339.8654413231675,1508
1341.9717110138317,1466
1344.0774264317488,1471
1346.1825878196432,1488
1348.2871954203192,1498
1350.3912494766587,1503
1352.4947502316231,1470
1354.5976979282532,1482
1356.7000928096686,1498
1358.8019351190665,1478
1360.9032250997243,1450
1363.0039629949988,1490
1365.1041490483235,1460
1367.2037835032133,1471
1369.3028666032606,1488
1371.401398592137,1463
1373.4993797135926,1452
1375.5968102114575,1460
1377.6936903296396,1478
1379.7900203121262,1486
1381.8858004029835,1481
1383.9810308463561,1459
1386.075711886469,1496
1388.1698437676241,1504
1390.2634267342032,1544
1392.356461030667,1610
1394.4489469015557,1466
1396.5408845914872,1539
1398.6322743451592,1459
1400.7231164073469,1458
1402.813411022907,1525
1404.903158436773,1564
1406.9923588939578,1501
1409.0810126395531,1498
1411.1691199187303,1500
1413.2566809767386,1514
1415.343696058907,1557
1417.4301654106425,1533
1419.5160892774315,1517
1421.6014679048399,1552
1423.6863015385125,1545
1425.7705904241707,1543
1427.8543348076178,1529
1429.9375349347342,1542
1432.0201910514802,1559
1434.102303403894,1579
1436.1838722380944,1621
1438.2648978002767,1602
1440.3453803367174,1540
1442.4253200937692,1632
1444.5047173178677,1556
1446.5835722555234,1631
1448.6618851533285,1647
1450.739656257952,1647
1452.8168858161434,1651
1454.8935740747306,1640
1456.96972128062,1646
1459.045327680797,1591
1461.120393522327,1674
1463.1949190523528,1691
1465.2689045180973,1704
1467.3423501668608,1753
1469.415256246024,1671
1471.4876230030463,1685
1473.559450685465,1673
1475.6307395408976,1741
1477.7014898170391,1742
1479.771701761665,1736
1481.8413756226287,1730
1483.9105116478618,1772
1485.9791100853772,1705
1488.0471711832643,1789
1490.1146951896926,1777
1492.1816823529098,1747
1494.2481329212433,1754
1496.3140471430984,1810
1498.3794252669609,1808
1500.4442675413939,1804
1502.5085742150404,1806
1504.572345536622,1841
1506.6355817549388,1859
1508.6982831188702,1900
1510.7604498773744,1912
1512.8220822794883,1990
1514.8831805743293,1971
1516.9437450110909,1996
1519.003775839048,1977
1521.0632733075522,1900
1523.1222376660367,2033
1525.1806691640113,1991
1527.2385680510652,2072
1529.2959345768668,2101
1531.3527689911643,2105
1533.4090715437833,2088
1535.4648424846291,2083
1537.5200820636855,2126
1539.5747905310159,2192
1541.6289681367616,2235
1543.6826151311434,2246
1545.7357317644614,2285
1547.7883182870937,2329
1549.8403749494987,2340
1551.8919020022113,2349
1553.9428996958477,2364
1555.9933682811015,2434
1558.0433080087469,2528
1560.0927191296346,2505
1562.1416018946961,2542
1564.1899565549415,2529
1566.2377833614592,2564
1568.2850825654164,2630
1570.3318544180606,2574
1572.3780991707158,2467
1574.423817074788,2481
1576.4690083817595,2360
1578.5136733431923,2224
1580.5578122107272,2241
1582.601425236085,2097
1584.6445126710646,2066
1586.6870747675434,2033
1588.7291117774776,2036
1590.7706239529034,2018
1592.8116115459347,1870
1594.8520748087658,1848
1596.8920139936686,1785
1598.9314293529933,1800
1600.9703211391711,1725
1603.008689604711,1727
1605.0465350022005,1773
1607.0838575843068,1718
1609.1206576037753,1770
1611.1569353134305,1693
1613.1926909661765,1662
1615.2279248149953,1635
1617.2626371129481,1584
1619.2968281131757,1620
1621.3304980688963,1598
1623.3636472334088,1582
1625.39627586009,1606
1627.428384202396,1572
1629.459972513861,1600
1631.4910410480993,1574
1633.5215900588028,1589
1635.551619799744,1638
1637.5811305247717,1493
1639.6101224878166,1523
1641.6385959428862,1603
1643.6665511440683,1526
1645.693988345528,1457
1647.7209078015112,1537
1649.7473097663405,1610
1651.7731944944203,1607
1653.7985622402307,1549
1655.823413258333,1553
1657.847747803366,1477
1659.8715661300494,1563
1661.8948684931793,1554
1663.9176551476316,1511
1665.9399263483624,1482
1667.9616823504057,1554
1669.982923408873,1533
1672.0036497789574,1548
1674.0238617159293,1558
1676.043559475138,1532
1678.0627433120121,1576
1680.081413482059,1536
1682.0995702408654,1517
1684.117213844096,1504
1686.134344547495,1515
1688.1509626068864,1498
1690.1670682781705,1510
1692.182661817329,1572
1694.1977434804217,1524
1696.2123135235875,1518
1698.226372203043,1516
1700.2399197750851,1452
1702.2529564960905,1552
1704.2654826225112,1508
1706.277498410882,1506
1708.2890041178139,1516
1710.2999999999988,1521
1712.3104863142066,1491
1714.3204633172854,1494
1716.329931266163,1568
1718.3388904178469,1452
1720.3473410294214,1528
1722.3552833580516,1520
1724.3627176609807,1523
1726.3696441955308,1589
1728.3760632191033,1531
1730.3819749891782,1529
1732.3873797633146,1501
1734.3922777991502,1550
1736.3966693544012,1503
1738.4005546868639,1522
1740.4039340544127,1476
1742.406807715001,1471
1744.4091759266616,1488
1746.4110389475054,1487
1748.4123970357223,1525
1750.413250449582,1514
1752.4135994474318,1474
1754.4134442876993,1519
1756.4127852288902,1518
1758.4116225295893,1471
1760.4099564484595,1513
1762.407787244244,1530
1764.405115175764,1489
1766.4019405019203,1466
1768.3982634816916,1496
1770.3940843741357,1547
1772.3894034383907,1488
1774.3842209336717,1452
1776.378537119274,1491
1778.372352254571,1450
1780.3656665990156,1491
1782.3584804121397,1486
1784.3507939535534,1516
1786.3426074829463,1520
1788.3339212600863,1473
1790.3247355448211,1503
1792.3150505970766,1495
1794.3048666768573,1439
1796.2941840442477,1453
1798.2830029594106,1466
1800.2713236825884,1436
1802.2591464741004,1474
1804.2464715943465,1476
1806.2332993038058,1525
1808.2196298630352,1491
1810.2054635326708,1578
1812.190800573428,1491
1814.175641246101,1500
1816.1599858115628,1512
1818.1438345307652,1487
1820.127187664738,1525
1822.1100454745924,1472
1824.092408221516,1429
1826.0742761667766,1513
1828.055649571721,1470
1830.0365286977735,1534
1832.0169138064398,1488
1833.9968051593014,1469
1835.9762030180214,1503
1837.9551076443408,1534
1839.9335193000788,1488
1841.9114382471344,1429
1843.888864747485,1475
1845.8657990631878,1450
1847.842241456378,1500
1849.8181921892697,1469
1851.7936515241558,1501
1853.7686197234098,1435
1855.7430970494815,1476
1857.7170837649014,1514
1859.6905801322787,1441
1861.6635864143004,1486
1863.6361028737338,1525
1865.608129773424,1554
1867.5796673762961,1473
1869.5507159453537,1465
1871.521275743678,1445
1873.4913470344313,1556
1875.4609300808534,1514
1877.4300251462632,1498
1879.3986324940588,1478
1881.366752387717,1432
1883.3343850907936,1505
1885.3015308669228,1517
1887.268189979819,1514
1889.2343626932739,1487
1891.2000492711595,1470
1893.1652499774254,1514
1895.1299650761011,1533
1897.0941948312952,1540
1899.0579395071945,1471
1901.0211993680641,1551
1902.98397467825,1578
1904.9462657021745,1441
1906.9080727043415,1450
1908.869395949332,1514
1910.8302357018065,1479
1912.790592226504,1497
1914.7504657882428,1523
1916.7098566519212,1535
1918.6687650825133,1426
1920.6271913450764,1457
1922.5851357047422,1427
1924.5425984267245,1447
1926.499579776314,1535
1928.4560800188833,1571
1930.4120994198802,1477
1932.367638244833,1486
1934.32269675935,1484
1936.2772752291175,1536
1938.231373919899,1560
1940.1849930975404,1567
1942.1381330279637,1522
1944.0907939771696,1545
1946.0429762112412,1429
1947.9946799963363,1515
1949.9459055986945,1525
1951.896653284633,1514
1953.8469233205478,1505
1955.7967159729142,1461
1957.7460315082863,1556
1959.6948701932974,1501
1961.6432322946594,1482
1963.5911180791632,1580
1965.5385278136787,1553
1967.4854617651545,1511
1969.4319202006182,1523
1971.377903387176,1526
1973.3234115920136,1510
1975.268445082395,1550
1977.2130041256642,1497
1979.1570889892423,1493
1981.1006999406304,1532
1983.04383724741,1502
1984.986501177238,1525
1986.928691997853,1542
1988.8704099770712,1511
1990.811655382789,1522
1992.7524284829801,1505
1994.692729545698,1530
1996.6325588390755,1530
1998.5719166313224,1593
2000.5108031907307,1476
2002.4492187856677,1566
2004.387163684583,1473
2006.3246381560011,1493
2008.2616424685298,1489
2010.1981768908527,1472
2012.1342416917332,1487
2014.069837140014,1467
2016.0049635046162,1532
2017.9396210545406,1496
2019.8738100588666,1514
2021.8075307867502,1467
2023.740783507431,1522
2025.6735684902228,1526
2027.6058860045214,1518
2029.5377363198004,1529
2031.4691197056118,1574
2033.4000364315875,1479
2035.3304867674374,1478
2037.260470982952,1464
2039.189989347998,1519
2041.1190421325232,1521
2043.047629606554,1511
2044.9757520401945,1565
2046.9034097036288,1489
2048.8306028671195,1470
2050.7573318010086,1545
2052.683596775716,1506
2054.609398061742,1485
2056.5347359296647,1478
2058.4596106501403,1522
2060.384022493906,1511
2062.3079717317764,1491
2064.231458634646,1473
2066.1544834734873,1493
2068.077046519352,1495
2069.99914804337,1447
2071.9207883167524,1487
2073.8419676107865,1457
2075.7626861968406,1529
2077.6829443463607,1524
2079.6027423308715,1558
2081.522080421977,1478
2083.440958891362,1589
2085.359378010786,1486
2087.2773380520907,1512
2089.194839287196,1496
2091.111881988101,1492
2093.0284664268825,1553
2094.9445928756973,1498
2096.86026160678,1498
2098.775472892446,1547
2100.690227005088,1434
2102.604524217178,1530
2104.5183648012676,1509
2106.431749029985,1505
2108.34467717604,1496
2110.2571495122206,1509
2112.169166311393,1513
2114.080727846503,1527
2115.9918343905747,1525
2117.902486216711,1554
2119.8126835980956,1514
2121.722426807987,1492
2123.6317161197285,1528
2125.5405518067364,1519
2127.448934142509,1506
2129.356863400624,1534
2131.264339854737,1537
2133.1713637785815,1536
2135.077935445972,1494
2136.9840551308002,1471
2138.889723107037,1515
2140.7949396487334,1547
2142.699705030018,1508
2144.6040195250994,1537
2146.507883408264,1555
2148.4112969538774,1543
2150.3142604363848,1529
2152.2167741303097,1535
2154.1188383102535,1570
2156.0204532508997,1578
2157.9216192270064,1519
2159.822336513414,1549
2161.7226053850413,1542
2163.622426116884,1551
2165.5217989840185,1530
2167.4207242616,1548
2169.319202224862,1509
2171.2172331491165,1569
2173.1148173097563,1526
2175.0119549822507,1479
2176.90864644215,1519
2178.8048919650823,1546
2180.7006918267534,1605
2182.596046302952,1571
2184.4909556695407,1552
2186.3854202024645,1555
2188.279440177746,1558
2190.173015871487,1523
2192.066147559868,1573
2193.958835519149,1569
2195.851080025667,1528
2197.7428813558417,1551
2199.6342397861667,1592
2201.5251555932186,1544
2203.415629053651,1550
2205.3056604441986,1517
2207.19525004167,1609
2209.084398122958,1606
2210.9731049650327,1547
2212.861370844941,1644
2214.749196039812,1613
2216.636580826851,1598
2218.523525483344,1531
2220.410030286655,1606
2222.296095514226,1572
2224.1817214435805,1545
2226.066908352319,1540
2227.951656518121,1559
2229.835966218746,1540
2231.71983773203,1509
2233.6032713358913,1527
2235.486267308324,1631
2237.3688259274036,1581
2239.2509474712824,1592
2241.132632218193,1696
2243.013880446447,1573
2244.8946924344323,1586
2246.7750684606203,1592
2248.6550088035574,1585
2250.534513741871,1544
2252.413583554265,1493
2254.292218519526,1581
2256.170418916517,1603
2258.0481850241786,1636
2259.925517121534,1616
2261.8024154876825,1534
2263.678880401803,1595
2265.5549121431536,1600
2267.430510991071,1586
2269.305677224971,1540
2271.180411124348,1582
2273.0547129687766,1518
2274.9285830379076,1545
2276.8020216114737,1504
2278.6750289692845,1539
2280.5476053912294,1532
2282.4197511572766,1556
2284.2914665474727,1623
2286.162751841943,1648
2288.0336073208937,1656
2289.904033264608,1687
2291.774029953448,1587
2293.6435976678554,1602
2295.5127366883517,1570
2297.381447295534,1570
2299.2497297700825,1484
2301.1175843927526,1468
2302.9850114443825,1450
2304.852011205885,1451
2306.7185839582553,1403
2308.5847299825664,1357
2310.4504495599676,1372
2312.3157429716925,1399
2314.1806104990483,1316
2316.0450524234247,1326
2317.9090690262888,1339
2319.772660589186,1263
2321.635827393742,1304
2323.498569721661,1303
2325.3608878547248,1304
2327.2227820747967,1243
2329.0842526638157,1278
2330.945299903803,1293
2332.805924076857,1323
2334.6661254651535,1333
2336.525904350951,1302
2338.3852610165827,1307
2340.244195744464,1266
2342.102708817088,1272
2343.9608005170253,1281
2345.8184711269287,1295
2347.675720929526,1353
2349.532550207628,1327
2351.38895924412,1304
2353.24494832197,1294
2355.100517724223,1251
2356.955667734004,1278
2358.810398634514,1300
2360.664710709037,1318
2362.5186042409337,1306
2364.3720795136437,1326
2366.225136810686,1345
2368.0777764156583,1258
2369.929998612237,1291
2371.7818036841777,1269
2373.633191915315,1250
2375.484163589562,1378
2377.3347189909114,1284
2379.184858403434,1277
2381.03458211128,1334
2382.8838903986775,1263
2384.732783549936,1275
2386.5812618494406,1297
2388.4293255816588,1268
2390.2769750311327,1317
2392.1242104824883,1318
2393.971032220427,1341
2395.8174405297295,1292
2397.6634356952563,1281
2399.509018001947,1332
2401.3541877348193,1309
2403.1989451789705,1370
2405.043290619576,1335
2406.8872243418905,1276
2408.730746631247,1315
2410.5738577730594,1313
2412.4165580528183,1311
2414.258847756095,1269
2416.100727168537,1306
2417.9421965758734,1247
2419.783256263912,1302
2421.623906518538,1348
2423.4641476257157,1323
2425.303979871491,1298
2427.143403541984,1309
2428.9824189233977,1345
2430.821026302012,1340
2432.6592259641866,1338
2434.497018196361,1276
2436.33440328505,1362
2438.171381516851,1303
2440.00795317844,1328
2441.844118556569,1309
2443.6798779380724,1279
2445.5152316098606,1350
2447.3501798589255,1331
2449.1847229723357,1322
2451.0188612372403,1349
2452.8525949408663,1318
2454.6859243705203,1334
2456.518849813587,1360
2458.3513715575314,1328
2460.183489889895,1285
2462.015205098301,1340
2463.8465174704493,1320
2465.67742729412,1322
2467.5079348571717,1288
2469.338040447542,1300
2471.1677443532476,1321
2472.9970468623833,1312
2474.825948263123,1334
2476.6544488437207,1275
2478.482548892508,1295
2480.310248697896,1294
2482.137548548374,1305
2483.9644487325118,1365
2485.790949538956,1267
2487.617051256433,1329
2489.44275417375,1350
2491.26805857979,1321
2493.0929647635157,1368
2494.917473013971,1343
2496.741583620276,1285
2498.5652968716304,1331
2500.3886130573137,1319
2502.2115324666834,1369
2504.0340553891765,1322
2505.856182114308,1337
2507.6779129316733,1313
2509.499248130945,1326
2511.3201880018764,1323
2513.140732834298,1411
2514.9608829181198,1340
2516.780638543331,1360
2518.6,1365
2520.418967578273,1342
2522.237541568376,1356
2524.0557222606144,1303
2525.8735099453706,1370
2527.6909049131086,1348
2529.507907454368,1387
2531.32451785977,1327
2533.140736420014,1361
2534.9565634258774,1332
2536.771999168218,1332
2538.5870439379714,1382
2540.4016980261526,1393
2542.2159617238544,1411
2544.02983532225,1395
2545.8433191125914,1365
2547.656413386209,1402
2549.4691184345115,1352
2551.2814345489874,1402
2553.093362021204,1439
2554.904901142808,1367
2556.716052205523,1448
2558.526815501153,1362
2560.3371913215824,1410
2562.147179958771,1443
2563.956781704761,1367
2565.7659968516705,1370
2567.5748256916986,1375
2569.3832685171224,1473
2571.1913256202984,1398
2572.9989972936614,1373
2574.806283829725,1448
2576.613185521084,1449
2578.4197026604074,1412
2580.2258355404483,1390
2582.031584454035,1436
2583.836949694077,1414
2585.6419315535613,1379
2587.4465303255533,1466
2589.2507463032002,1503
2591.0545797797245,1431
2592.8580310484303,1505
2594.6611004026995,1450
2596.463788135992,1446
2598.266094541849,1468
2600.0680199138874,1500
2601.869564545807,1498
2603.670728731383,1456
2605.4715127644704,1442
2607.2719169390048,1500
2609.071941548998,1449
2610.8715868885433,1496
2612.670853251811,1494
2614.469740933052,1545
2616.268250226594,1481
2618.0663814268455,1501
2619.864134828292,1551
2621.6615107255006,1561
2623.458509413115,1499
2625.2551311858597,1547
2627.0513763385347,1481
2628.8472451660223,1429
2630.6427379632833,1462
2632.4378550253564,1467
2634.232596647359,1522
2636.026963124488,1499
2637.8209547520187,1444
2639.6145718253065,1490
2641.407814639785,1467
2643.200683490966,1521
2644.9931786744414,1430
2646.7853004858807,1458
2648.577049221034,1464
2650.3684251757277,1465
2652.1594286458712,1430
2653.9500599274484,1348
2655.740319316525,1417
2657.5302071092437,1400
2659.3197236018286,1408
2661.10886909058,1373
2662.8976438718782,1416
2664.686048242183,1345
2666.4740824980327,1380
2668.2617469360443,1364
2670.0490418529134,1399
2671.8359675454153,1407
2673.622524310403,1409
2675.408712444811,1370
2677.1945322456495,1396
2678.979984010009,1401
2680.76506803506,1435
2682.5497846180497,1345
2684.334134056306,1374
2686.1181166472343,1383
2687.9017326883213,1398
2689.6849824771293,1382
2691.4678663113013,1350
2693.2503844885596,1347
2695.032537306705,1320
2696.8143250636167,1324
2698.5957480572542,1339
2700.3768065856534,1322
2702.1575009469316,1292
2703.937831439283,1375
2705.717798360982,1307
2707.4974020103837,1317
2709.276642685917,1296
2711.055520686095,1344
2712.834036309506,1309
2714.612189854819,1348
2716.389981620782,1335
2718.1674119062204,1323
2719.944481010041,1397
2721.721189231226,1344
2723.4975368688415,1318
2725.273524222027,1362
2727.0491515900053,1314
2728.824419272075,1319
2730.5993275676146,1315
2732.3738767760838,1255
2734.148067197016,1332
2735.921899130031,1335
2737.6953728748194,1286
2739.468488731156,1268
2741.2412469988926,1253
2743.0136479779617,1274
2744.785691968372,1304
2746.5573792702116,1320
2748.3287101836504,1333
2750.099685008934,1295
2751.870304046388,1322
2753.640567596418,1319
2755.4104759595057,1245
2757.1800294362156,1309
2758.949228327187,1297
2760.7180729331412,1318
2762.486563554877,1325
2764.254700493272,1300
2766.022484049284,1295
2767.789914523947,1280
2769.5569922183786,1232
2771.3237174337705,1317
2773.090090471394,1273
2774.8561116326036,1330
2776.6217812188274,1297
2778.3870995315756,1344
2780.1520668724356,1313
2781.9166835430747,1294
2783.6809498452394,1281
2785.444866080754,1307
2787.2084325515225,1354
2788.971649559527,1330
2790.73451740683,1327
2792.4970363955713,1281
2794.2592068279705,1282
2796.0210290063264,1282
2797.7825032330147,1210
2799.543629810493,1317
2801.304409041296,1324
2803.0648412280366,1288
2804.8249266734088,1265
2806.5846656801846,1302
2808.344058551212,1325
2810.1031055894246,1367
2811.8618070978273,1304
2813.6201633795085,1286
2815.378174737636,1318
2817.1358414754536,1336
2818.893163896285,1334
2820.6501423035334,1319
2822.4067770006814,1289
2824.1630682912883,1331
2825.9190164789957,1292
2827.6746218675207,1328
2829.429884760661,1298
2831.184805462294,1286
2832.9393842763743,1306
2834.693621506936,1327
2836.4475174580916,1315
2838.201072434034,1323
2839.954286739034,1337
2841.707160677441,1283
2843.459694553685,1298
2845.2118886722724,1298
2846.96374333779,1256
2848.7152588549034,1328
2850.4664355283567,1331
2852.217273662973,1379
2853.9677735636546,1293
2855.7179355353833,1286
2857.4677598832186,1320
2859.217246912299,1315
2860.9663969278427,1304
2862.715210235146,1221
2864.4636871395846,1323
2866.211827946614,1339
2867.9596329617652,1341
2869.7071024906536,1304
2871.4542368389684,1313
2873.20103631248,1298
2874.947501217038,1325
2876.6936318585695,1271
2878.4394285430812,1324
2880.1848915766604,1351
2881.9300212654707,1313
2883.6748179157553,1301
2885.4192818338374,1297
2887.1634133261173,1376
2888.907212699077,1323
2890.6506802592744,1310
2892.393816313348,1310
2894.1366211680142,1338
2895.8790951300693,1359
2897.621238506388,1362
2899.363051603925,1257
2901.1045347297118,1253
2902.8456881908596,1317
2904.58651229456,1336
2906.327007348081,1322
2908.067173658772,1301
2909.8070115340597,1292
2911.5465212814497,1290
2913.285703208527,1250
2915.0245576229563,1287
2916.7630848324807,1269
2918.5012851449196,1305
2920.2391588681758,1292
2921.976706310227,1276
2923.7139277791334,1302
2925.4508235830313,1287
2927.187394030137,1355
2928.923639428745,1392
2930.6595600872306,1311
2932.395156314046,1330
2934.1304284177218,1339
2935.8653767068713,1274
2937.6000014901815,1375
2939.3343030764227,1281
2941.068281774442,1333
2942.8019378931644,1340
2944.5352717415976,1377
2946.2682836288236,1319
2948.0009738640065,1270
2949.7333427563885,1303
2951.465390615289,1326
2953.1971177501086,1353
2954.9285244703265,1302
2956.6596110855,1394
2958.3903779052657,1364
2960.1208252393385,1325
2961.8509533975125,1341
2963.5807626896617,1334
2965.3102534257378,1290
2967.0394259157715,1345
2968.768280469873,1305
2970.496817398232,1303
2972.2250370111146,1351
2973.952939618869,1344
2975.6805255319196,1315
2977.4077950607707,1308
2979.134748516006,1378
2980.861386208289,1355
2982.587708448359,1341
2984.313715547037,1318
2986.039407815222,1365
2987.764785563891,1311
2989.489849104102,1271
2991.2145987469908,1273
2992.9390348037705,1313
2994.6631575857346,1274
2996.3869674042576,1269
2998.1104645707887,1303
2999.83364939686,1395
3001.5565221940783,1300
3003.2790832741334,1349
3005.0013329487924,1324
3006.7232715298996,1308
3008.4448993293804,1277
3010.166216659239,1292
3011.887223831558,1306
3013.607921158498,1359
3015.3283089522993,1337
3017.0483875252826,1318
3018.7681571898443,1345
3020.4876182584626,1308
3022.2067710436927,1319
3023.9256158581707,1266
3025.644153014609,1321
3027.362382825801,1289
3029.0803056046193,1332
3030.797921664012,1319
3032.5152313170106,1262
3034.2322348767225,1292
3035.9489326563353,1265
3037.665324969115,1267
3039.3814121284063,1266
3041.097194447633,1307
3042.812672240299,1282
3044.5278458199855,1332
3046.2427155003525,1353
3047.9572815951406,1381
3049.671544418167,1327
3051.38550428333,1298
3053.0991615046073,1317
3054.812516396051,1300
3056.5255692717974,1317
3058.2383204460575,1323
3059.9507702331257,1336
3061.662918947372,1295
3063.3747669032446,1274
3065.0863144152736,1294
3066.7975617980674,1288
3068.508509366309,1262
3070.219157434767,1305
3071.9295063182844,1293
3073.639556331785,1324
3075.3493077902704,1279
3077.058761008821,1343
3078.7679163025964,1301
3080.476773986837,1291
3082.1853343768594,1326
3083.89359778806,1348
3085.6015645359153,1296
3087.3092349359786,1290
3089.016609303884,1317
3090.7236879553434,1275
3092.4304712061476,1334
3094.136959372166,1287
3095.843152769349,1255
3097.5490517137237,1339
3099.2546565213966,1336
3100.959967508554,1260
3102.66498499146,1348
3104.3697092864577,1307
3106.0741407099695,1300
3107.778279578498,1320
3109.482126208622,1329
3111.1856809170004,1318
3112.8889440203716,1316
3114.5919158355528,1334
3116.294596679439,1304
3117.996986869006,1267
3119.6990867213062,1259
3121.4008965534726,1303
3123.102416682717,1284
3124.803647426329,1304
3126.5045891016784,1323
3128.205242026213,1283
3129.90560651746,1333
3131.605682893025,1327
3133.3054714705922,1287
3135.0049725679282,1390
3136.7041865028714,1284
3138.4031135933465,1377
3140.101754157353,1261
3141.800108512971,1345
3143.498176978357,1307
3145.1959598717494,1320
3146.8934575114636,1341
3148.5906702158954,1262
3150.2875983035183,1312
3151.9842420928853,1320
3153.680601902627,1317
3155.376678051456,1294
3157.07247085816,1279
3158.767980641609,1296
3160.463207720748,1317
3162.158152414606,1336
3163.8528150422862,1295
3165.5471959229726,1278
3167.2412953759303,1266
3168.9351137204976,1282
3170.628651276098,1257
3172.3219083622307,1361
3174.014885298474,1273
3175.707582404485,1265
3177.4000000000005,1239
3179.092138404835,1287
3180.7839979388846,1323
3182.47557892212,1342
3184.166881674594,1337
3185.8579065164386,1272
3187.5486537678626,1319
3189.2391237491547,1295
3190.9293167806827,1302
3192.6192331828934,1324
3194.3088732763117,1271
3195.998237381542,1229
3197.687325819268,1279
3199.376138910251,1201
3201.064676975334,1260
3202.7529403354347,1295
3204.4409293115523,1302
3206.1286442247647,1309
3207.816085396229,1245
3209.5032531471825,1267
3211.190147798936,1286
3212.8767696728846,1222
3214.5631190905015,1256
3216.2491963733373,1268
3217.9350018430214,1310
3219.6205358212637,1217
3221.305798629851,1285
3222.990790590651,1249
3224.6755120256103,1293
3226.359963256751,1257
3228.0441446061795,1233
3229.7280563960758,1316
3231.411698948703,1346
3233.0950725863995,1307
3234.778177631587,1260
3236.461014406761,1330
3238.1435832345005,1304
3239.8258844374595,1323
3241.507918338374,1359
3243.1896852600576,1283
3244.8711855254023,1355
3246.552419457381,1311
3248.233387379042,1313
3249.914089613516,1294
3251.59452648401,1288
3253.274698313813,1354
3254.95460542629,1266
3256.6342481448855,1285
3258.313626793125,1285
3259.9927416946084,1249
3261.6715931730196,1200
3263.3501815521176,1324
3265.0285071557437,1255
3266.706570307815,1220
3268.3843713323286,1303
3270.0619105533615,1294
3271.739188295068,1300
3273.4162048816834,1299
3275.0929606375184,1264
3276.769455886966,1248
3278.445690954498,1273
3280.1216661646613,1322
3281.797381842087,1361
3283.4728383114807,1292
3285.1480358976296,1304
3286.8229749253996,1306
3288.4976557197333,1291
3290.172078605655,1279
3291.846243908266,1283
3293.5201519527463,1292
3295.193803064357,1255
3296.8671975684374,1246
3298.5403357904024,1256
3300.21321805575,1263
3301.8858446900567,1312
3303.558216018975,1288
3305.23033236824,1235
3306.9021940636603,1268
3308.57380143113,1322
3310.2451547966184,1283
3311.916254486174,1313
3313.5871008259246,1270
3315.2576941420766,1313
3316.9280347609147,1332
3318.5981230088046,1265
3320.2679592121895,1310
3321.9375436975924,1266
3323.606876791612,1272
3325.27595882093,1269
3326.944790112305,1317
3328.6133709925753,1299
3330.2817017886573,1300
3331.949782827547,1259
3333.617614436319,1313
3335.2851969421245,1235
3336.952530672199,1338
3338.619615953853,1322
3340.286453114475,1300
3341.9530424815357,1344
3343.619384382583,1324
3345.2854791452437,1298
3346.951327097224,1302
3348.6169285663073,1335
3350.2822838803577,1333
3351.947393367319,1269
3353.61225735521,1314
3355.2768761721345,1304
3356.9412501462693,1266
3358.605379605873,1254
3360.2692648792827,1291
3361.9329062949146,1262
3363.596304181263,1310
