CollectionTime,9/20/2024 12:51:43 PM
ExposureUsed,3
CalibratedSpectrum
-962.7078968117929,605
-959.9714848408522,632
-957.2358232597828,639
-954.5009119013725,667
-951.7667505983302,639
-949.0333391832855,691
-946.3006774887896,662
-943.5687653473143,700
-940.837602591253,701
-938.1071890529199,701
-935.3775245645503,671
-932.6486089583007,666
-929.9204420662485,728
-927.1930237203925,694
-924.4663537526524,690
-921.7404319948689,715
-919.0152582788041,714
-916.2908324361409,732
-913.5671542984834,683
-910.8442236973568,672
-908.1220404642074,659
-905.4006044304027,680
-902.679915427231,720
-899.959973285902,677
-897.2407778375464,646
-894.5223289132158,696
-891.8046263438832,663
-889.0876699604426,705
-886.3714595937089,708
-883.6559950744183,652
-880.9412762332282,620
-878.2273029007168,646
-875.5140749073835,642
-872.8015920836489,596
-870.0898542598545,620
-867.3788612662631,617
-864.6686129330585,630
-861.9591090903457,624
-859.2503495681506,602
-856.5423341964203,627
-853.8350628050229,617
-851.1285352237478,641
-848.4227512823054,631
-845.7177108103272,656
-843.0134136373656,641
-840.3098595928943,641
-837.6070485063082,645
-834.9049802069229,633
-832.2036545239757,675
-829.5030712866244,656
-826.8032303239481,679
-824.1041314649472,590
-821.4057745385428,654
-818.7081593735775,663
-816.0112857988148,646
-813.3151536429393,635
-810.6197627345566,638
-807.9251129021936,643
-805.2312039742981,621
-802.5380357792392,626
-799.8456081453069,645
-797.1539209007124,652
-794.462973873588,662
-791.772766891987,683
-789.083299783884,618
-786.3945723771743,641
-783.7065844996748,640
-781.0193359791231,631
-778.3328266431781,665
-775.6470563194197,641
-772.9620248353489,670
-770.2777320183878,682
-767.5941776958798,660
-764.9113616950891,655
-762.2292838432011,661
-759.5479439673222,672
-756.8673418944801,692
-754.1874774516235,654
-751.5083504656222,702
-748.8299607632671,690
-746.15230817127,681
-743.475392516264,708
-740.7992136248035,712
-738.1237713233636,699
-735.4490654383407,666
-732.7750957960521,664
-730.1018622227365,669
-727.4293645445534,651
-724.7576025875837,679
-722.0865761778291,753
-719.4162851412126,718
-716.7467293035781,741
-714.0779084906909,730
-711.409822528237,719
-708.7424712418238,712
-706.0758544569796,725
-703.4099719991541,712
-700.7448236937178,693
-698.0804093659622,698
-695.4167288411002,691
-692.7537819442656,709
-690.0915685005134,719
-687.4300883348199,777
-684.7693412720819,762
-682.1093271371178,723
-679.4500457546669,734
-676.7914969493897,754
-674.1336805458676,746
-671.4765963686034,736
-668.8202442420206,753
-666.1646239904642,726
-663.5097354382001,776
-660.8555784094151,767
-658.2021527282176,711
-655.5494582186366,761
-652.8974947046223,742
-650.2462620100463,762
-647.5957599587009,767
-644.9459883742998,784
-642.2969470804776,750
-639.6486359007902,796
-637.0010546587141,769
-634.3542031776476,824
-631.7080812809096,828
-629.0626887917401,800
-626.4180255333008,772
-623.7740913286734,837
-621.1308860008619,827
-618.4884093727904,810
-615.8466612673046,751
-613.2056415071715,783
-610.5653499150785,792
-607.9257863136347,817
-605.28695052537,843
-602.6488423727357,808
-600.0114616781036,797
-597.3748082637674,764
-594.7388819519412,823
-592.1036825647604,805
-589.4692099242818,781
-586.8354638524829,845
-584.2024441712624,776
-581.5701507024403,833
-578.9385832677575,851
-576.3077416888759,825
-573.6776257873787,821
-571.0482353847704,804
-568.4195703024757,812
-565.7916303618415,820
-563.164415384135,812
-560.5379251905453,830
-557.9121596021815,873
-555.2871184400748,798
-552.6628015251767,841
-550.0392086783606,911
-547.4163397204204,871
-544.794194472071,954
-542.1727727539491,882
-539.5520743866118,872
-536.9320991905377,873
-534.3128469861261,939
-531.6943175936979,920
-529.0765108334947,928
-526.4594265256793,1049
-523.8430644903358,1221
-521.2274245474689,1416
-518.612506517005,1458
-515.9983102187913,1457
-513.3848354725959,1448
-510.77208209810846,1463
-508.16004991493924,1513
-505.5487387426199,1646
-502.9381484006032,1859
-500.3282787082628,1928
-497.71912948489364,2067
-495.1107005497117,1939
-492.5029917218539,1930
-489.8960028203786,1801
-487.28973366426493,1621
-484.68418407241325,1414
-482.07935386364494,1330
-479.47524285670266,1212
-476.87185087025,1208
-474.2691777228715,1206
-471.66722323307334,1199
-469.0659872192821,1132
-466.4654694998459,1132
-463.86566989303384,1102
-461.26658821703614,1121
-458.66822428996414,1060
-456.07057792985,1107
-453.4736489546475,1073
-450.877437182231,1078
-448.28194243039627,1039
-445.68716451686,1002
-443.09310325926003,1040
-440.49975847515555,1064
-437.9071299820263,1036
-435.31521759727354,1061
-432.72402113821954,1074
-430.13354042210767,1032
-427.5437752661022,1035
-424.95472548728867,1036
-422.36639090267386,1080
-419.7787713291855,1126
-417.1918665836721,1072
-414.60567648290385,1114
-412.0202008435715,1129
-409.4354394822874,1136
-406.8513922155845,1133
-404.26805885991723,1086
-401.685439231661,1168
-399.103533147112,1129
-396.522340422488,1097
-393.9418608739278,1123
-391.3620943174908,1161
-388.7830405691583,1088
-386.2046994448317,1038
-383.6270707603344,1001
-381.05015433141045,969
-378.473949973725,962
-375.8984575028645,889
-373.32367673433623,813
-370.74960748356875,834
-368.1762495659117,780
-365.60360279663576,704
-363.03166699093265,686
-360.4604419639154,624
-357.8899275306178,642
-355.32012350599507,597
-352.7510297049233,566
-350.1826459421999,578
-347.61497203254316,546
-345.04800779059235,548
-342.4817530309082,556
-339.91620756797226,612
-337.35137121618743,602
-334.7872437898774,534
-332.22382510328725,533
-329.66111497058273,523
-327.09911320585127,512
-324.53781962310075,561
-321.9772340362607,520
-319.4173562591816,543
-316.8581861056348,568
-314.2997233893127,574
-311.7419679238294,624
-309.1849195227194,585
-306.62857799943856,633
-304.0729431673641,581
-301.51801483979375,584
-298.963792829947,562
-296.41027695096386,577
-293.85746701590574,597
-291.3053628377552,605
-288.7539642294155,636
-286.2032710037115,696
-283.65328297338897,658
-281.1039999511146,647
-278.5554217494762,656
-276.007548180983,646
-273.4603790580651,667
-270.9139141930734,638
-268.3681533982807,714
-265.8230964858798,728
-263.27874326798565,796
-260.7350935566336,716
-258.1921471637804,780
-255.6499039013039,860
-253.10836358100266,906
-250.56752601459698,836
-248.02739101372765,864
-245.48795838995704,855
-242.94922795476816,838
-240.41119951956557,834
-237.8738728956746,810
-235.33724789434166,769
-232.80132432673452,804
-230.2661020039418,802
-227.73158073697357,879
-225.19776033676033,1004
-222.66464061415422,931
-220.1322213799284,903
-217.60050244477725,906
-215.06948361931552,959
-212.53916471408013,1078
-210.00954553952818,981
-207.48062590603843,886
-204.9524056239104,911
-202.4248845033651,1003
-199.8980623545441,979
-197.37193898751036,1051
-194.84651421224817,1006
-192.32178783866232,942
-189.79775967657952,999
-187.27442953574644,1098
-184.7517972258321,1092
-182.2298625564256,1003
-179.7086253370378,959
-177.18808537710026,1007
-174.66824248596583,1065
-172.14909647290835,1156
-169.6306471471229,1056
-167.11289431772548,1014
-164.59583779375328,1151
-162.07947738416453,1250
-159.5638128978386,1589
-157.04884414357605,1616
-154.53457093009854,1647
-152.02099306604828,1247
-149.50811035998936,1148
-146.99592262040665,1280
-144.48442965570587,1571
-141.97363127421409,1580
-139.46352728417958,1688
-136.95411749377126,1682
-134.44540171107985,1475
-131.93737974411636,1280
-129.43005140081357,1314
-126.92341648902493,1518
-124.41747481652521,1805
-121.91222619101006,2193
-119.40767042009657,2738
-116.90380731132257,2857
-114.40063667214702,3547
-111.8981583099503,4768
-109.3963720320337,7028
-106.89527764561933,8944
-104.39487495785067,10765
-101.89516377579241,13595
-99.39614390642998,19002
-96.89781515667039,24156
-94.40017733334128,27597
-91.90323024319173,27720
-89.40697369289148,19756
-86.91140748903172,11442
-84.41653143812482,9744
-81.92234534660395,12612
-79.42884902082358,16940
-76.93604226705907,19314
-74.4439248915071,18452
-71.95249670028534,15849
-69.46175749943245,10735
-66.97170709490854,7487
-64.48234529259423,6986
-61.99367189829195,8512
-59.50568671772464,9565
-57.01838955653636,13145
-54.53178022029283,16813
-52.045858514480074,17783
-49.560624244506016,20274
-47.07607721569923,21233
-44.59221723330904,18640
-42.10904410250669,17403
-39.62655762838392,17742
-37.14475761595372,19729
-34.66364387015028,17215
-32.18321619582866,16163
-29.70347439776515,15958
-27.224418280657005,17109
-24.74604764912317,22052
-22.26836230770266,39045
-19.7913620608565,65034
-17.315046712966478,65034
-14.83941606833514,65034
-12.36446993118659,65034
-9.89020810566592,65034
-7.416630395839093,65034
-4.94373660569363,65034
-2.471526539137585,65034
-6.821210263296962E-13,65034
2.47084320796705,65034
4.941003281093458,65034
7.410480415786196,65034
9.879274808531363,65034
12.347386655893956,65034
14.814816154518212,65034
17.28156350112681,65034
19.74762889252179,65034
22.21301252558385,65034
24.67771459727237,25090
27.141735304626195,7984
29.605074844762612,7049
32.06773341487792,6042
34.52971121224755,5491
36.99100843422559,4616
39.45162527824516,4187
41.91156194181792,4670
44.370818622535126,4302
46.82939551806646,3661
49.287292826160524,5399
51.74451074464503,5230
54.201049471426245,4205
56.65690920448981,3361
59.112090141899785,2451
61.56659248179983,3123
64.02041642241159,3050
66.4735621620365,2923
68.92602989905402,3220
71.37781983192338,3152
73.82893215918205,2646
76.27936707944684,2201
78.72912479141326,2292
81.17820549385567,2230
83.62660938562783,1765
86.07433666566146,1774
88.5213875329681,1969
90.96776218663751,2166
93.41346082583925,2103
95.85848364982041,2440
98.30283085790859,2143
100.7465026495089,1847
103.18949922410604,1685
105.63182078126385,1461
108.07346752062438,1719
110.51443964190923,1619
112.95473734491827,1722
115.39436082953114,1632
117.83331029570547,1401
120.27158594347827,1580
122.7091879729652,1555
125.1461165843615,1548
127.58237197794062,1436
130.01795435405518,1410
132.4528639131364,1344
134.88710085569494,1400
137.32066538231982,1458
139.75355769367923,1519
142.1857779905207,1358
144.61732647366978,1151
147.04820334403132,1297
149.47840880258934,1358
151.90794305040674,1501
154.33680628862487,1426
156.76499871846443,1548
159.19252054122433,1678
161.61937195828352,1908
164.04555317109896,2104
166.47106438120693,2245
168.89590579022217,2364
171.320077599839,2595
173.7435800118302,2780
176.16641322804742,2939
178.58857745042144,3069
181.01007288096173,2991
183.43089972175687,2971
185.85105817497413,2960
188.27054844285988,2966
190.6893707277394,3084
193.10752523201643,3143
195.5250121581745,3269
197.9418317087751,3235
200.3579840864594,3238
202.7734694939469,3273
205.18828813403627,3503
207.6024402096051,3362
210.01592592360964,3288
212.42874547908548,3465
214.84089907914665,3403
217.2523869269868,3423
219.66320922587727,3321
222.0733661791695,3207
224.48285799029293,3259
226.8916848627572,3356
229.29984700014882,3361
231.7073446061355,3365
234.11417788446204,3358
236.520347038953,3424
238.92585227351185,3401
241.33069379212054,3366
243.73487179884035,3444
246.1383864978112,3528
248.541238093252,3457
250.9434267894609,3394
253.34495279081432,3394
255.74581630176783,3360
258.1460175268563,3382
260.54555667069314,3411
262.9444339379703,3239
265.3426495334594,3352
267.7402036620107,3504
270.1370965285529,3310
272.53332833809407,3175
274.9288992957214,3092
277.32380960660055,3021
279.718059475976,3057
282.1116491091717,3132
284.5045787115897,3116
286.89684848871195,3134
289.2884586460981,3108
291.67940938938807,3223
294.0697009242996,3228
296.4593334566299,3087
298.84830719225477,3004
301.23662233712923,3059
303.6242790972866,2989
306.01127767884,2913
308.39761828798066,2857
310.78330113097934,2875
313.16832641418534,2830
315.5526943440269,2800
317.9364051270112,2816
320.3194589697242,2748
322.70185607883093,2752
325.0835966610754,2631
327.4646809232805,2735
329.8451090723478,2715
332.2248813152577,2592
334.6039978590701,2707
336.9824589109231,2666
339.36026467803447,2628
341.7374153677,2543
344.113911187295,2555
346.48975234427337,2552
348.8649390461686,2513
351.2394715005918,2590
353.61334991523415,2584
355.9865744978655,2550
358.35914545633375,2634
360.73106299856715,2606
363.10232733257146,2501
365.47293866643247,2434
367.84289720831396,2394
370.2122031664593,2389
372.5808567491905,2439
374.9488581649083,2369
377.31620762209275,2371
379.6829053293021,2374
382.0489514951745,2488
384.4143463284262,2383
386.7790900378528,2294
389.14318283232853,2343
391.50662492080653,2332
393.86941651231916,2290
396.23155781597745,2338
398.5930490409713,2403
400.9538903965696,2309
403.3140820921202,2231
405.6736243370498,2273
408.03251734086336,2271
410.3907613131465,2280
412.74835646356166,2310
415.10530300185144,2232
417.4616011378372,2326
419.81725108141893,2321
422.1722530425758,2297
424.5266072313656,2346
426.880313857925,2318
429.2333731324701,2265
431.58578526529516,2275
433.9375504667738,2295
436.2886689473588,2256
438.63914091758113,2296
440.9889665880513,2327
443.33814616945835,2230
445.68667987257015,2230
448.03456790823395,2191
450.3818104873759,2181
452.72840782100013,2171
455.07436012019105,2225
457.41966759611057,2252
459.7643304600007,2236
462.10834892318155,2217
464.4517231970525,2207
466.79445349309174,2216
469.1365400228566,2328
471.4779829979826,2230
473.81878263018564,2314
476.15893913125876,2367
478.4984527130747,2433
480.8373235875855,2498
483.17555196682144,2502
485.5131380628919,2714
487.8500820879857,2893
490.1863842543697,3044
492.52204477439034,3311
494.8570638604725,3582
497.1914417251204,4022
499.52517858091653,4153
501.85827464052306,4245
504.19073011668036,4086
506.5225452222086,3941
508.85372017000566,3808
511.18425517304956,3751
513.514150444396,4242
515.8434061971808,5380
518.1720226446176,6461
520.4999999999999,6710
522.8273384766991,6599
525.1540382881666,6233
527.480099647932,5629
529.8055227696037,4542
532.1303078668694,3396
534.454455153496,2878
536.777964843328,2622
539.1008371502907,2619
541.4230722883866,2505
543.744670471698,2482
546.0656319143858,2479
548.3859568306899,2427
550.7056454349294,2460
553.0246979415016,2381
555.3431145648834,2346
557.6608955196306,2234
559.978041020377,2228
562.2945512818363,2305
564.6104265188006,2294
566.9256669461412,2421
569.2402727788082,2286
571.5542442318302,2308
573.8675815203156,2308
576.1802848594508,2415
578.4923544645015,2364
580.8037905508126,2434
583.114593333807,2412
585.4247630289875,2426
587.7342998519354,2354
590.0432040183106,2395
592.3514757438526,2447
594.6591152443794,2509
596.9661227357875,2455
599.2724984340531,2479
601.578242555231,2386
603.8833553154542,2408
606.1878369309362,2417
608.4916876179676,2297
610.7949075929192,2336
613.0974970722403,2370
615.3994562724587,2366
617.7007854101818,2321
620.0014847020951,2374
622.3015543649641,2383
624.6009946156324,2359
626.8998056710224,2317
629.1979877481361,2320
631.4955410640538,2331
633.7924658359349,2384
636.0887622810175,2398
638.3844306166192,2303
640.6794710601358,2393
642.9738838290426,2377
645.2676691408932,2324
647.5608272133207,2424
649.853358264037,2470
652.1452625108324,2386
654.4365401715764,2359
656.7271914642178,2474
659.0172166067838,2337
661.3066158173809,2443
663.5953893141935,2375
665.8835373154867,2390
668.1710600396028,2478
670.4579577049639,2392
672.7442305300709,2307
675.0298787335033,2394
677.3149025339197,2308
679.599302150058,2335
681.8830778007342,2390
684.1662297048437,2306
686.4487580813608,2294
688.7306631493387,2405
691.0119451279091,2316
693.2926042362834,2284
695.5726406937516,2306
697.8520547196814,2315
700.1308465335215,2305
702.4090163547982,2301
704.6865644031171,2305
706.9634908981619,2308
709.2397960596965,2357
711.5154801075631,2334
713.7905432616823,2237
716.0649857420548,2304
718.3388077687592,2332
720.612009561953,2301
722.8845913418733,2330
725.1565533288352,2360
727.427895743234,2395
729.6986188055427,2346
731.9687227363137,2222
734.238207756178,2265
736.5070740858458,2300
738.7753219461066,2251
741.0429515578281,2274
743.3099631419569,2257
745.5763569195191,2286
747.8421331116193,2332
750.1072919394409,2313
752.3718336242467,2312
754.6357583873777,2197
756.8990664502545,2341
759.1617580343765,2277
761.423833361321,2351
763.6852926527457,2374
765.9461361303862,2399
768.206364016058,2374
770.4659765316536,2284
772.7249738991469,2348
774.9833563405886,2384
777.2411240781092,2348
779.4982773339183,2358
781.7548163303044,2387
784.010741289634,2387
786.2660524343538,2478
788.5207499869881,2407
790.7748341701416,2385
793.0283052064964,2409
795.2811633188143,2358
797.5334087299362,2409
799.7850416627813,2360
802.0360623403484,2399
804.2864709857143,2336
806.5362678220353,2374
808.7854530725468,2474
811.0340269605625,2399
813.2819897094754,2427
815.5293415427581,2344
817.77608268396,2363
820.0222133567116,2324
822.2677337847211,2299
824.5126441917765,2383
826.7569448017433,2350
829.0006358385675,2346
831.2437175262731,2348
833.4861900889629,2398
835.7280537508192,2386
837.9693087361026,2362
840.2099552691533,2442
842.4499935743896,2347
844.689423876309,2399
846.9282463994886,2357
849.1664613685833,2362
851.4040690083276,2427
853.6410695435349,2383
855.877463199097,2411
858.1132501999847,2410
860.3484307712487,2430
862.5830051380175,2323
864.8169735254988,2349
867.0503361589791,2410
869.2830932638243,2495
871.5152450654786,2414
873.7467917894654,2438
875.9777336613873,2384
878.2080709069252,2468
880.4378037518389,2431
882.666932421968,2453
884.8954571432301,2450
887.1233781416219,2429
889.3506956432192,2441
891.5774098741766,2534
893.803521060728,2552
896.0290294291852,2494
898.2539352059397,2520
900.4782386174619,2443
902.7019398903011,2359
904.925039251085,2441
907.147536926521,2432
909.3694331433943,2483
911.59072812857,2378
913.8114221089921,2491
916.0315153116827,2373
918.2510079637437,2307
920.4699002923547,2394
922.6881925247761,2277
924.905884888345,2310
927.1229776104793,2364
929.3394709186747,2317
931.555365040506,2268
933.7706602036275,2397
935.9853566357709,2390
938.1994545647489,2378
940.4129542184515,2406
942.6258558248488,2349
944.8381596119883,2403
947.0498658079974,2456
949.2609746410825,2342
951.4714863395287,2294
953.6814011316998,2371
955.8907192460387,2316
958.0994409110671,2397
960.3075663553858,2252
962.5150958076741,2351
964.7220294966913,2291
966.928367651274,2302
969.1341105003388,2281
971.3392582728806,2265
973.5438111979742,2250
975.747769504772,2196
977.9511334225061,2254
980.153903180487,2242
982.3560790081052,2201
984.5576611348289,2184
986.7586497902058,2226
988.9590452038618,2179
991.158847605503,2226
993.3580572249133,2140
995.5566742919558,2105
997.7546990365728,2067
999.952131688785,2015
1002.1489724786926,1975
1004.3452216364743,2073
1006.5408793923874,2024
1008.7359459767691,1983
1010.9304216200343,1991
1013.1243065526781,1946
1015.3176010052733,1892
1017.510305208472,1938
1019.7024193930064,1867
1021.8939437896848,1938
1024.0848786293977,1869
1026.2752241431122,1957
1028.4649805618747,1930
1030.6541481168115,1891
1032.842727039127,1841
1035.0307175601051,1905
1037.2181199111074,1863
1039.4049343235752,1771
1041.591161029029,1869
1043.7768002590683,1817
1045.9618522453698,1843
1048.1463172196918,1860
1050.3301954138697,1811
1052.513487059818,1831
1054.69619238953,1920
1056.8783116350783,1848
1059.0598450286152,1795
1061.2407928023704,1829
1063.4211551886528,1940
1065.6009324198508,1918
1067.780124728432,1796
1069.9587323469414,1838
1072.1367555080046,1841
1074.314194444325,1878
1076.4910493886855,1796
1078.667320573947,1840
1080.843008233051,1803
1083.0181125990161,1849
1085.1926339049414,1768
1087.3665723840027,1774
1089.5399282694575,1872
1091.7127017946405,1738
1093.8848931929647,1773
1096.0565026979243,1781
1098.2275305430899,1750
1100.3979769621128,1771
1102.567842188722,1748
1104.737126456726,1715
1106.9058300000124,1755
1109.0739530525475,1728
1111.2414958483764,1761
1113.4084586216231,1765
1115.5748416064907,1738
1117.7406450372605,1763
1119.9058691482942,1735
1122.0705141740304,1761
1124.2345803489884,1734
1126.3980679077658,1755
1128.5609770850388,1723
1130.7233081155623,1804
1132.8850612341707,1757
1135.0462366757774,1706
1137.2068346753745,1762
1139.3668554680326,1700
1141.526299288901,1711
1143.68516637321,1667
1145.8434569562655,1775
1148.001171273455,1745
1150.158309560244,1696
1152.3148720521767,1610
1154.470858984876,1652
1156.626270594044,1662
1158.7811071154629,1691
1160.9353687849912,1638
1163.089055838569,1690
1165.242168512213,1703
1167.3947070420209,1662
1169.5466716641677,1639
1171.6980626149075,1645
1173.8488801305748,1715
1175.9991244475814,1707
1178.1487958024186,1662
1180.2978944316555,1681
1182.4464205719428,1641
1184.5943744600072,1698
1186.7417563326567,1721
1188.8885664267755,1678
1191.0348049793297,1647
1193.1804722273619,1721
1195.325568407995,1689
1197.4700937584303,1674
1199.614048515948,1707
1201.7574329179074,1681
1203.900247201746,1670
1206.042491604982,1731
1208.1841663652099,1692
1210.3252717201053,1656
1212.465807907422,1658
1214.6057751649923,1735
1216.7451737307279,1686
1218.8840038426192,1725
1221.0222657387353,1629
1223.1599596572241,1697
1225.2970858363137,1726
1227.4336445143094,1694
1229.5696359295966,1702
1231.705060320639,1696
1233.8399179259786,1727
1235.9742089842384,1702
1238.107933734118,1725
1240.2410924143974,1753
1242.373685263935,1770
1244.5057125216676,1737
1246.6371744266116,1729
1248.7680712178621,1743
1250.898403134593,1707
1253.028170416058,1743
1255.1573733015875,1830
1257.2860120305932,1732
1259.4140868425648,1733
1261.54159797707,1792
1263.6685456737569,1723
1265.7949301723515,1764
1267.9207517126597,1744
1270.046010534565,1727
1272.1707068780306,1731
1274.2948409830983,1749
1276.4184130898889,1826
1278.541423438603,1845
1280.6638722695184,1741
1282.785759822993,1798
1284.9070863394636,1780
1287.0278520594447,1815
1289.1480572235314,1821
1291.2677020723963,1846
1293.3867868467923,1857
1295.5053117875495,1838
1297.623277135579,1841
1299.740683131868,1853
1301.8575300174857,1922
1303.973818033578,1837
1306.0895474213703,1925
1308.2047184221678,1894
1310.3193312773528,1923
1312.4333862283888,1954
1314.5468835168163,1893
1316.659823384255,1856
1318.7722060724045,1921
1320.8840318230418,1881
1322.9953008780249,1936
1325.1060134792888,1936
1327.2161698688478,1859
1329.3257702887959,1897
1331.4348149813054,1925
1333.5433041886276,1929
1335.6512381530933,1905
1337.7586171171101,1915
1339.8654413231675,1908
1341.9717110138317,1965
1344.0774264317488,1846
1346.1825878196432,1851
1348.2871954203192,1936
1350.3912494766587,1927
1352.4947502316231,1827
1354.5976979282532,1796
1356.7000928096686,1943
1358.8019351190665,1830
1360.9032250997243,1852
1363.0039629949988,1878
1365.1041490483235,1817
1367.2037835032133,1875
1369.3028666032606,1911
1371.401398592137,1926
1373.4993797135926,1877
1375.5968102114575,1942
1377.6936903296396,1883
1379.7900203121262,1814
1381.8858004029835,1870
1383.9810308463561,1898
1386.075711886469,1837
1388.1698437676241,1888
1390.2634267342032,1829
1392.356461030667,1958
1394.4489469015557,1927
1396.5408845914872,1909
1398.6322743451592,1901
1400.7231164073469,1921
1402.813411022907,1892
1404.903158436773,2042
1406.9923588939578,1932
1409.0810126395531,1957
1411.1691199187303,1967
1413.2566809767386,1961
1415.343696058907,1922
1417.4301654106425,1942
1419.5160892774315,1976
1421.6014679048399,1986
1423.6863015385125,1993
1425.7705904241707,2015
1427.8543348076178,1951
1429.9375349347342,2009
1432.0201910514802,2019
1434.102303403894,2073
1436.1838722380944,2087
1438.2648978002767,2107
1440.3453803367174,2161
1442.4253200937692,2141
1444.5047173178677,2228
1446.5835722555234,2215
1448.6618851533285,2175
1450.739656257952,2157
1452.8168858161434,2132
1454.8935740747306,2225
1456.96972128062,2285
1459.045327680797,2350
1461.120393522327,2348
1463.1949190523528,2333
1465.2689045180973,2372
1467.3423501668608,2422
1469.415256246024,2380
1471.4876230030463,2571
1473.559450685465,2497
1475.6307395408976,2482
1477.7014898170391,2589
1479.771701761665,2671
1481.8413756226287,2530
1483.9105116478618,2687
1485.9791100853772,2761
1488.0471711832643,2804
1490.1146951896926,2830
1492.1816823529098,2904
1494.2481329212433,2879
1496.3140471430984,2835
1498.3794252669609,2968
1500.4442675413939,2992
1502.5085742150404,3028
1504.572345536622,3057
1506.6355817549388,3115
1508.6982831188702,3289
1510.7604498773744,3139
1512.8220822794883,3224
1514.8831805743293,3326
1516.9437450110909,3260
1519.003775839048,3343
1521.0632733075522,3319
1523.1222376660367,3449
1525.1806691640113,3517
1527.2385680510652,3642
1529.2959345768668,3663
1531.3527689911643,3697
1533.4090715437833,3905
1535.4648424846291,3858
1537.5200820636855,3886
1539.5747905310159,4009
1541.6289681367616,4034
1543.6826151311434,4037
1545.7357317644614,4167
1547.7883182870937,4270
1549.8403749494987,4321
1551.8919020022113,4463
1553.9428996958477,4497
1555.9933682811015,4634
1558.0433080087469,4675
1560.0927191296346,4768
1562.1416018946961,4782
1564.1899565549415,4799
1566.2377833614592,4709
1568.2850825654164,4623
1570.3318544180606,4485
1572.3780991707158,4389
1574.423817074788,4204
1576.4690083817595,3988
1578.5136733431923,3766
1580.5578122107272,3564
1582.601425236085,3356
1584.6445126710646,3334
1586.6870747675434,3188
1588.7291117774776,3050
1590.7706239529034,2858
1592.8116115459347,2745
1594.8520748087658,2731
1596.8920139936686,2702
1598.9314293529933,2482
1600.9703211391711,2420
1603.008689604711,2356
1605.0465350022005,2298
1607.0838575843068,2255
1609.1206576037753,2124
1611.1569353134305,2199
1613.1926909661765,2199
1615.2279248149953,2127
1617.2626371129481,2050
1619.2968281131757,2022
1621.3304980688963,2038
1623.3636472334088,2015
1625.39627586009,1906
1627.428384202396,2038
1629.459972513861,1949
1631.4910410480993,1975
1633.5215900588028,1928
1635.551619799744,1929
1637.5811305247717,1880
1639.6101224878166,1826
1641.6385959428862,1916
1643.6665511440683,1905
1645.693988345528,1845
1647.7209078015112,1896
1649.7473097663405,1881
1651.7731944944203,1854
1653.7985622402307,1888
1655.823413258333,1774
1657.847747803366,1740
1659.8715661300494,1820
1661.8948684931793,1813
1663.9176551476316,1835
1665.9399263483624,1922
1667.9616823504057,1829
1669.982923408873,1867
1672.0036497789574,1739
1674.0238617159293,1830
1676.043559475138,1776
1678.0627433120121,1804
1680.081413482059,1790
1682.0995702408654,1766
1684.117213844096,1787
1686.134344547495,1827
1688.1509626068864,1768
1690.1670682781705,1775
1692.182661817329,1834
1694.1977434804217,1831
1696.2123135235875,1810
1698.226372203043,1786
1700.2399197750851,1798
1702.2529564960905,1773
1704.2654826225112,1796
1706.277498410882,1793
1708.2890041178139,1764
1710.2999999999988,1789
1712.3104863142066,1765
1714.3204633172854,1799
1716.329931266163,1783
1718.3388904178469,1810
1720.3473410294214,1775
1722.3552833580516,1770
1724.3627176609807,1795
1726.3696441955308,1762
1728.3760632191033,1777
1730.3819749891782,1696
1732.3873797633146,1761
1734.3922777991502,1784
1736.3966693544012,1733
1738.4005546868639,1771
1740.4039340544127,1712
1742.406807715001,1692
1744.4091759266616,1823
1746.4110389475054,1788
1748.4123970357223,1802
1750.413250449582,1774
1752.4135994474318,1704
1754.4134442876993,1694
1756.4127852288902,1691
1758.4116225295893,1735
1760.4099564484595,1744
1762.407787244244,1697
1764.405115175764,1600
1766.4019405019203,1701
1768.3982634816916,1677
1770.3940843741357,1750
1772.3894034383907,1738
1774.3842209336717,1690
1776.378537119274,1660
1778.372352254571,1634
1780.3656665990156,1723
1782.3584804121397,1698
1784.3507939535534,1646
1786.3426074829463,1740
1788.3339212600863,1772
1790.3247355448211,1681
1792.3150505970766,1702
1794.3048666768573,1644
1796.2941840442477,1691
1798.2830029594106,1724
1800.2713236825884,1679
1802.2591464741004,1669
1804.2464715943465,1668
1806.2332993038058,1665
1808.2196298630352,1626
1810.2054635326708,1679
1812.190800573428,1717
1814.175641246101,1686
1816.1599858115628,1680
1818.1438345307652,1731
1820.127187664738,1695
1822.1100454745924,1687
1824.092408221516,1642
1826.0742761667766,1678
1828.055649571721,1683
1830.0365286977735,1665
1832.0169138064398,1750
1833.9968051593014,1792
1835.9762030180214,1707
1837.9551076443408,1703
1839.9335193000788,1761
1841.9114382471344,1718
1843.888864747485,1689
1845.8657990631878,1724
1847.842241456378,1745
1849.8181921892697,1715
1851.7936515241558,1683
1853.7686197234098,1660
1855.7430970494815,1717
1857.7170837649014,1665
1859.6905801322787,1621
1861.6635864143004,1666
1863.6361028737338,1680
1865.608129773424,1707
1867.5796673762961,1715
1869.5507159453537,1750
1871.521275743678,1712
1873.4913470344313,1737
1875.4609300808534,1721
1877.4300251462632,1701
1879.3986324940588,1665
1881.366752387717,1671
1883.3343850907936,1686
1885.3015308669228,1712
1887.268189979819,1705
1889.2343626932739,1706
1891.2000492711595,1709
1893.1652499774254,1653
1895.1299650761011,1648
1897.0941948312952,1693
1899.0579395071945,1696
1901.0211993680641,1697
1902.98397467825,1696
1904.9462657021745,1736
1906.9080727043415,1677
1908.869395949332,1683
1910.8302357018065,1701
1912.790592226504,1703
1914.7504657882428,1714
1916.7098566519212,1718
1918.6687650825133,1636
1920.6271913450764,1646
1922.5851357047422,1666
1924.5425984267245,1631
1926.499579776314,1685
1928.4560800188833,1702
1930.4120994198802,1691
1932.367638244833,1685
1934.32269675935,1664
1936.2772752291175,1675
1938.231373919899,1701
1940.1849930975404,1672
1942.1381330279637,1655
1944.0907939771696,1679
1946.0429762112412,1710
1947.9946799963363,1626
1949.9459055986945,1653
1951.896653284633,1635
1953.8469233205478,1686
1955.7967159729142,1694
1957.7460315082863,1679
1959.6948701932974,1662
1961.6432322946594,1655
1963.5911180791632,1674
1965.5385278136787,1685
1967.4854617651545,1701
1969.4319202006182,1674
1971.377903387176,1588
1973.3234115920136,1655
1975.268445082395,1646
1977.2130041256642,1671
1979.1570889892423,1672
1981.1006999406304,1647
1983.04383724741,1639
1984.986501177238,1652
1986.928691997853,1617
1988.8704099770712,1691
1990.811655382789,1714
1992.7524284829801,1664
1994.692729545698,1660
1996.6325588390755,1642
1998.5719166313224,1642
2000.5108031907307,1588
2002.4492187856677,1577
2004.387163684583,1618
2006.3246381560011,1659
2008.2616424685298,1628
2010.1981768908527,1623
2012.1342416917332,1628
2014.069837140014,1632
2016.0049635046162,1648
2017.9396210545406,1629
2019.8738100588666,1578
2021.8075307867502,1624
2023.740783507431,1621
2025.6735684902228,1646
2027.6058860045214,1578
2029.5377363198004,1620
2031.4691197056118,1614
2033.4000364315875,1674
2035.3304867674374,1613
2037.260470982952,1614
2039.189989347998,1578
2041.1190421325232,1669
2043.047629606554,1619
2044.9757520401945,1604
2046.9034097036288,1634
2048.8306028671195,1603
2050.7573318010086,1619
2052.683596775716,1640
2054.609398061742,1627
2056.5347359296647,1611
2058.4596106501403,1607
2060.384022493906,1642
2062.3079717317764,1662
2064.231458634646,1664
2066.1544834734873,1589
2068.077046519352,1612
2069.99914804337,1602
2071.9207883167524,1599
2073.8419676107865,1602
2075.7626861968406,1637
2077.6829443463607,1649
2079.6027423308715,1595
2081.522080421977,1566
2083.440958891362,1573
2085.359378010786,1557
2087.2773380520907,1568
2089.194839287196,1641
2091.111881988101,1628
2093.0284664268825,1670
2094.9445928756973,1661
2096.86026160678,1593
2098.775472892446,1670
2100.690227005088,1641
2102.604524217178,1650
2104.5183648012676,1620
2106.431749029985,1669
2108.34467717604,1667
2110.2571495122206,1640
2112.169166311393,1644
2114.080727846503,1670
2115.9918343905747,1617
2117.902486216711,1668
2119.8126835980956,1620
2121.722426807987,1569
2123.6317161197285,1638
2125.5405518067364,1687
2127.448934142509,1715
2129.356863400624,1668
2131.264339854737,1708
2133.1713637785815,1779
2135.077935445972,1746
2136.9840551308002,1731
2138.889723107037,1727
2140.7949396487334,1662
2142.699705030018,1682
2144.6040195250994,1735
2146.507883408264,1602
2148.4112969538774,1716
2150.3142604363848,1716
2152.2167741303097,1697
2154.1188383102535,1722
2156.0204532508997,1659
2157.9216192270064,1648
2159.822336513414,1784
2161.7226053850413,1768
2163.622426116884,1727
2165.5217989840185,1698
2167.4207242616,1750
2169.319202224862,1738
2171.2172331491165,1785
2173.1148173097563,1822
2175.0119549822507,1766
2176.90864644215,1807
2178.8048919650823,1777
2180.7006918267534,1779
2182.596046302952,1735
2184.4909556695407,1766
2186.3854202024645,1773
2188.279440177746,1761
2190.173015871487,1769
2192.066147559868,1784
2193.958835519149,1829
2195.851080025667,1756
2197.7428813558417,1757
2199.6342397861667,1822
2201.5251555932186,1804
2203.415629053651,1866
2205.3056604441986,1841
2207.19525004167,1827
2209.084398122958,1821
2210.9731049650327,1859
2212.861370844941,1830
2214.749196039812,1829
2216.636580826851,1849
2218.523525483344,1802
2220.410030286655,1913
2222.296095514226,1830
2224.1817214435805,1812
2226.066908352319,1799
2227.951656518121,1924
2229.835966218746,1813
2231.71983773203,1811
2233.6032713358913,1911
2235.486267308324,1852
2237.3688259274036,1874
2239.2509474712824,1890
2241.132632218193,1812
2243.013880446447,1819
2244.8946924344323,1880
2246.7750684606203,1859
2248.6550088035574,1839
2250.534513741871,1899
2252.413583554265,1937
2254.292218519526,1903
2256.170418916517,1825
2258.0481850241786,1861
2259.925517121534,1791
2261.8024154876825,1862
2263.678880401803,1871
2265.5549121431536,1925
2267.430510991071,1864
2269.305677224971,1835
2271.180411124348,1840
2273.0547129687766,1802
2274.9285830379076,1769
2276.8020216114737,1733
2278.6750289692845,1793
2280.5476053912294,1831
2282.4197511572766,1865
2284.2914665474727,1894
2286.162751841943,1819
2288.0336073208937,1947
2289.904033264608,1949
2291.774029953448,1939
2293.6435976678554,1870
2295.5127366883517,1867
2297.381447295534,1836
2299.2497297700825,1700
2301.1175843927526,1662
2302.9850114443825,1648
2304.852011205885,1643
2306.7185839582553,1611
2308.5847299825664,1564
2310.4504495599676,1542
2312.3157429716925,1567
2314.1806104990483,1597
2316.0450524234247,1464
2317.9090690262888,1429
2319.772660589186,1529
2321.635827393742,1467
2323.498569721661,1471
2325.3608878547248,1485
2327.2227820747967,1511
2329.0842526638157,1493
2330.945299903803,1526
2332.805924076857,1426
2334.6661254651535,1439
2336.525904350951,1503
2338.3852610165827,1474
2340.244195744464,1516
2342.102708817088,1479
2343.9608005170253,1523
2345.8184711269287,1457
2347.675720929526,1496
2349.532550207628,1438
2351.38895924412,1516
2353.24494832197,1492
2355.100517724223,1483
2356.955667734004,1505
2358.810398634514,1505
2360.664710709037,1508
2362.5186042409337,1531
2364.3720795136437,1472
2366.225136810686,1509
2368.0777764156583,1545
2369.929998612237,1533
2371.7818036841777,1540
2373.633191915315,1542
2375.484163589562,1498
2377.3347189909114,1488
2379.184858403434,1537
2381.03458211128,1544
2382.8838903986775,1531
2384.732783549936,1503
2386.5812618494406,1554
2388.4293255816588,1515
2390.2769750311327,1508
2392.1242104824883,1554
2393.971032220427,1534
2395.8174405297295,1573
2397.6634356952563,1501
2399.509018001947,1539
2401.3541877348193,1555
2403.1989451789705,1506
2405.043290619576,1540
2406.8872243418905,1563
2408.730746631247,1554
2410.5738577730594,1515
2412.4165580528183,1526
2414.258847756095,1509
2416.100727168537,1519
2417.9421965758734,1593
2419.783256263912,1533
2421.623906518538,1557
2423.4641476257157,1535
2425.303979871491,1529
2427.143403541984,1522
2428.9824189233977,1541
2430.821026302012,1595
2432.6592259641866,1590
2434.497018196361,1511
2436.33440328505,1532
2438.171381516851,1532
2440.00795317844,1537
2441.844118556569,1578
2443.6798779380724,1486
2445.5152316098606,1537
2447.3501798589255,1520
2449.1847229723357,1586
2451.0188612372403,1538
2452.8525949408663,1570
2454.6859243705203,1494
2456.518849813587,1496
2458.3513715575314,1568
2460.183489889895,1592
2462.015205098301,1552
2463.8465174704493,1558
2465.67742729412,1525
2467.5079348571717,1552
2469.338040447542,1530
2471.1677443532476,1582
2472.9970468623833,1613
2474.825948263123,1536
2476.6544488437207,1518
2478.482548892508,1508
2480.310248697896,1554
2482.137548548374,1585
2483.9644487325118,1576
2485.790949538956,1523
2487.617051256433,1580
2489.44275417375,1533
2491.26805857979,1507
2493.0929647635157,1557
2494.917473013971,1600
2496.741583620276,1614
2498.5652968716304,1597
2500.3886130573137,1515
2502.2115324666834,1567
2504.0340553891765,1601
2505.856182114308,1661
2507.6779129316733,1630
2509.499248130945,1598
2511.3201880018764,1631
2513.140732834298,1516
2514.9608829181198,1575
2516.780638543331,1560
2518.6,1525
2520.418967578273,1647
2522.237541568376,1590
2524.0557222606144,1622
2525.8735099453706,1598
2527.6909049131086,1635
2529.507907454368,1680
2531.32451785977,1702
2533.140736420014,1614
2534.9565634258774,1669
2536.771999168218,1702
2538.5870439379714,1695
2540.4016980261526,1665
2542.2159617238544,1743
2544.02983532225,1650
2545.8433191125914,1719
2547.656413386209,1713
2549.4691184345115,1713
2551.2814345489874,1759
2553.093362021204,1751
2554.904901142808,1746
2556.716052205523,1700
2558.526815501153,1764
2560.3371913215824,1762
2562.147179958771,1780
2563.956781704761,1727
2565.7659968516705,1769
2567.5748256916986,1851
2569.3832685171224,1809
2571.1913256202984,1816
2572.9989972936614,1778
2574.806283829725,1849
2576.613185521084,1825
2578.4197026604074,1882
2580.2258355404483,1854
2582.031584454035,1933
2583.836949694077,1861
2585.6419315535613,1894
2587.4465303255533,1930
2589.2507463032002,1910
2591.0545797797245,1849
2592.8580310484303,1934
2594.6611004026995,1940
2596.463788135992,1930
2598.266094541849,1922
2600.0680199138874,1959
2601.869564545807,1969
2603.670728731383,1896
2605.4715127644704,1967
2607.2719169390048,2007
2609.071941548998,2027
2610.8715868885433,1989
2612.670853251811,2028
2614.469740933052,2073
2616.268250226594,2009
2618.0663814268455,1971
2619.864134828292,1986
2621.6615107255006,1962
2623.458509413115,2007
2625.2551311858597,2014
2627.0513763385347,2066
2628.8472451660223,1975
2630.6427379632833,1917
2632.4378550253564,1950
2634.232596647359,1850
2636.026963124488,1819
2637.8209547520187,1823
2639.6145718253065,1835
2641.407814639785,1805
2643.200683490966,1878
2644.9931786744414,1886
2646.7853004858807,1807
2648.577049221034,1849
2650.3684251757277,1759
2652.1594286458712,1809
2653.9500599274484,1748
2655.740319316525,1801
2657.5302071092437,1755
2659.3197236018286,1775
2661.10886909058,1767
2662.8976438718782,1757
2664.686048242183,1710
2666.4740824980327,1716
2668.2617469360443,1690
2670.0490418529134,1697
2671.8359675454153,1699
2673.622524310403,1642
2675.408712444811,1674
2677.1945322456495,1683
2678.979984010009,1692
2680.76506803506,1668
2682.5497846180497,1604
2684.334134056306,1622
2686.1181166472343,1649
2687.9017326883213,1640
2689.6849824771293,1633
2691.4678663113013,1570
2693.2503844885596,1629
2695.032537306705,1558
2696.8143250636167,1612
2698.5957480572542,1605
2700.3768065856534,1522
2702.1575009469316,1521
2703.937831439283,1557
2705.717798360982,1535
2707.4974020103837,1574
2709.276642685917,1506
2711.055520686095,1563
2712.834036309506,1568
2714.612189854819,1570
2716.389981620782,1560
2718.1674119062204,1509
2719.944481010041,1512
2721.721189231226,1540
2723.4975368688415,1540
2725.273524222027,1511
2727.0491515900053,1529
2728.824419272075,1561
2730.5993275676146,1563
2732.3738767760838,1514
2734.148067197016,1500
2735.921899130031,1574
2737.6953728748194,1504
2739.468488731156,1559
2741.2412469988926,1474
2743.0136479779617,1592
2744.785691968372,1501
2746.5573792702116,1519
2748.3287101836504,1503
2750.099685008934,1538
2751.870304046388,1526
2753.640567596418,1524
2755.4104759595057,1523
2757.1800294362156,1549
2758.949228327187,1553
2760.7180729331412,1580
2762.486563554877,1569
2764.254700493272,1498
2766.022484049284,1545
2767.789914523947,1538
2769.5569922183786,1559
2771.3237174337705,1551
2773.090090471394,1568
2774.8561116326036,1500
2776.6217812188274,1558
2778.3870995315756,1551
2780.1520668724356,1498
2781.9166835430747,1473
2783.6809498452394,1500
2785.444866080754,1592
2787.2084325515225,1486
2788.971649559527,1525
2790.73451740683,1511
2792.4970363955713,1483
2794.2592068279705,1540
2796.0210290063264,1524
2797.7825032330147,1500
2799.543629810493,1440
2801.304409041296,1527
2803.0648412280366,1537
2804.8249266734088,1539
2806.5846656801846,1493
2808.344058551212,1477
2810.1031055894246,1524
2811.8618070978273,1529
2813.6201633795085,1490
2815.378174737636,1554
2817.1358414754536,1547
2818.893163896285,1500
2820.6501423035334,1436
2822.4067770006814,1556
2824.1630682912883,1473
2825.9190164789957,1526
2827.6746218675207,1497
2829.429884760661,1473
2831.184805462294,1500
2832.9393842763743,1527
2834.693621506936,1621
2836.4475174580916,1522
2838.201072434034,1609
2839.954286739034,1546
2841.707160677441,1549
2843.459694553685,1554
2845.2118886722724,1484
2846.96374333779,1477
2848.7152588549034,1509
2850.4664355283567,1512
2852.217273662973,1500
2853.9677735636546,1525
2855.7179355353833,1536
2857.4677598832186,1547
2859.217246912299,1478
2860.9663969278427,1529
2862.715210235146,1462
2864.4636871395846,1462
2866.211827946614,1467
2867.9596329617652,1482
2869.7071024906536,1459
2871.4542368389684,1535
2873.20103631248,1478
2874.947501217038,1463
2876.6936318585695,1514
2878.4394285430812,1474
2880.1848915766604,1535
2881.9300212654707,1550
2883.6748179157553,1498
2885.4192818338374,1496
2887.1634133261173,1523
2888.907212699077,1519
2890.6506802592744,1501
2892.393816313348,1523
2894.1366211680142,1566
2895.8790951300693,1556
2897.621238506388,1536
2899.363051603925,1543
2901.1045347297118,1512
2902.8456881908596,1576
2904.58651229456,1527
2906.327007348081,1502
2908.067173658772,1515
2909.8070115340597,1607
2911.5465212814497,1488
2913.285703208527,1471
2915.0245576229563,1486
2916.7630848324807,1540
2918.5012851449196,1447
2920.2391588681758,1477
2921.976706310227,1543
2923.7139277791334,1512
2925.4508235830313,1473
2927.187394030137,1487
2928.923639428745,1471
2930.6595600872306,1507
2932.395156314046,1486
2934.1304284177218,1552
2935.8653767068713,1569
2937.6000014901815,1624
2939.3343030764227,1533
2941.068281774442,1502
2942.8019378931644,1540
2944.5352717415976,1516
2946.2682836288236,1517
2948.0009738640065,1522
2949.7333427563885,1437
2951.465390615289,1482
2953.1971177501086,1521
2954.9285244703265,1481
2956.6596110855,1500
2958.3903779052657,1441
2960.1208252393385,1475
2961.8509533975125,1536
2963.5807626896617,1447
2965.3102534257378,1478
2967.0394259157715,1483
2968.768280469873,1482
2970.496817398232,1546
2972.2250370111146,1517
2973.952939618869,1511
2975.6805255319196,1502
2977.4077950607707,1507
2979.134748516006,1526
2980.861386208289,1588
2982.587708448359,1512
2984.313715547037,1546
2986.039407815222,1531
2987.764785563891,1483
2989.489849104102,1518
2991.2145987469908,1495
2992.9390348037705,1485
2994.6631575857346,1502
2996.3869674042576,1534
2998.1104645707887,1485
2999.83364939686,1506
3001.5565221940783,1524
3003.2790832741334,1486
3005.0013329487924,1432
3006.7232715298996,1411
3008.4448993293804,1502
3010.166216659239,1507
3011.887223831558,1564
3013.607921158498,1545
3015.3283089522993,1510
3017.0483875252826,1480
3018.7681571898443,1502
3020.4876182584626,1523
3022.2067710436927,1479
3023.9256158581707,1505
3025.644153014609,1479
3027.362382825801,1439
3029.0803056046193,1451
3030.797921664012,1470
3032.5152313170106,1435
3034.2322348767225,1470
3035.9489326563353,1448
3037.665324969115,1437
3039.3814121284063,1504
3041.097194447633,1495
3042.812672240299,1476
3044.5278458199855,1507
3046.2427155003525,1456
3047.9572815951406,1503
3049.671544418167,1435
3051.38550428333,1530
3053.0991615046073,1531
3054.812516396051,1473
3056.5255692717974,1449
3058.2383204460575,1473
3059.9507702331257,1510
3061.662918947372,1482
3063.3747669032446,1510
3065.0863144152736,1471
3066.7975617980674,1482
3068.508509366309,1507
3070.219157434767,1490
3071.9295063182844,1474
3073.639556331785,1524
3075.3493077902704,1523
3077.058761008821,1564
3078.7679163025964,1491
3080.476773986837,1520
3082.1853343768594,1546
3083.89359778806,1556
3085.6015645359153,1522
3087.3092349359786,1479
3089.016609303884,1475
3090.7236879553434,1541
3092.4304712061476,1477
3094.136959372166,1482
3095.843152769349,1487
3097.5490517137237,1516
3099.2546565213966,1480
3100.959967508554,1443
3102.66498499146,1531
3104.3697092864577,1522
3106.0741407099695,1461
3107.778279578498,1530
3109.482126208622,1544
3111.1856809170004,1516
3112.8889440203716,1528
3114.5919158355528,1505
3116.294596679439,1519
3117.996986869006,1509
3119.6990867213062,1482
3121.4008965534726,1495
3123.102416682717,1529
3124.803647426329,1502
3126.5045891016784,1525
3128.205242026213,1539
3129.90560651746,1502
3131.605682893025,1534
3133.3054714705922,1487
3135.0049725679282,1521
3136.7041865028714,1553
3138.4031135933465,1508
3140.101754157353,1499
3141.800108512971,1486
3143.498176978357,1479
3145.1959598717494,1503
3146.8934575114636,1526
3148.5906702158954,1517
3150.2875983035183,1510
3151.9842420928853,1503
3153.680601902627,1501
3155.376678051456,1539
3157.07247085816,1503
3158.767980641609,1459
3160.463207720748,1471
3162.158152414606,1520
3163.8528150422862,1515
3165.5471959229726,1496
3167.2412953759303,1506
3168.9351137204976,1528
3170.628651276098,1453
3172.3219083622307,1518
3174.014885298474,1523
3175.707582404485,1490
3177.4000000000005,1438
3179.092138404835,1507
3180.7839979388846,1516
3182.47557892212,1529
3184.166881674594,1506
3185.8579065164386,1497
3187.5486537678626,1526
3189.2391237491547,1537
3190.9293167806827,1504
3192.6192331828934,1485
3194.3088732763117,1467
3195.998237381542,1469
3197.687325819268,1515
3199.376138910251,1432
3201.064676975334,1496
3202.7529403354347,1491
3204.4409293115523,1542
3206.1286442247647,1450
3207.816085396229,1400
3209.5032531471825,1425
3211.190147798936,1510
3212.8767696728846,1492
3214.5631190905015,1432
3216.2491963733373,1434
3217.9350018430214,1387
3219.6205358212637,1455
3221.305798629851,1445
3222.990790590651,1398
3224.6755120256103,1471
3226.359963256751,1422
3228.0441446061795,1433
3229.7280563960758,1432
3231.411698948703,1442
3233.0950725863995,1423
3234.778177631587,1431
3236.461014406761,1462
3238.1435832345005,1473
3239.8258844374595,1518
3241.507918338374,1463
3243.1896852600576,1528
3244.8711855254023,1511
3246.552419457381,1454
3248.233387379042,1517
3249.914089613516,1493
3251.59452648401,1495
3253.274698313813,1447
3254.95460542629,1458
3256.6342481448855,1461
3258.313626793125,1567
3259.9927416946084,1528
3261.6715931730196,1483
3263.3501815521176,1501
3265.0285071557437,1418
3266.706570307815,1452
3268.3843713323286,1458
3270.0619105533615,1506
3271.739188295068,1465
3273.4162048816834,1511
3275.0929606375184,1510
3276.769455886966,1543
3278.445690954498,1478
3280.1216661646613,1466
3281.797381842087,1501
3283.4728383114807,1457
3285.1480358976296,1487
3286.8229749253996,1445
3288.4976557197333,1430
3290.172078605655,1425
3291.846243908266,1421
3293.5201519527463,1465
3295.193803064357,1408
3296.8671975684374,1456
3298.5403357904024,1417
3300.21321805575,1469
3301.8858446900567,1436
3303.558216018975,1424
3305.23033236824,1527
3306.9021940636603,1501
3308.57380143113,1485
3310.2451547966184,1549
3311.916254486174,1467
3313.5871008259246,1497
3315.2576941420766,1463
3316.9280347609147,1449
3318.5981230088046,1494
3320.2679592121895,1419
3321.9375436975924,1367
3323.606876791612,1395
3325.27595882093,1388
3326.944790112305,1495
3328.6133709925753,1437
3330.2817017886573,1410
3331.949782827547,1482
3333.617614436319,1531
3335.2851969421245,1468
3336.952530672199,1475
3338.619615953853,1449
3340.286453114475,1492
3341.9530424815357,1480
3343.619384382583,1455
3345.2854791452437,1483
3346.951327097224,1425
3348.6169285663073,1481
3350.2822838803577,1396
3351.947393367319,1442
3353.61225735521,1470
3355.2768761721345,1504
3356.9412501462693,1433
3358.605379605873,1467
3360.2692648792827,1431
3361.9329062949146,1429
3363.596304181263,1382
