CollectionTime,9/20/2024 12:50:41 PM
ExposureUsed,3
CalibratedSpectrum
-962.7078968117929,564
-959.9714848408522,618
-957.2358232597828,643
-954.5009119013725,618
-951.7667505983302,655
-949.0333391832855,696
-946.3006774887896,695
-943.5687653473143,713
-940.837602591253,655
-938.1071890529199,667
-935.3775245645503,650
-932.6486089583007,655
-929.9204420662485,656
-927.1930237203925,738
-924.4663537526524,698
-921.7404319948689,713
-919.0152582788041,739
-916.2908324361409,725
-913.5671542984834,690
-910.8442236973568,644
-908.1220404642074,656
-905.4006044304027,645
-902.679915427231,663
-899.959973285902,685
-897.2407778375464,683
-894.5223289132158,708
-891.8046263438832,633
-889.0876699604426,672
-886.3714595937089,652
-883.6559950744183,637
-880.9412762332282,672
-878.2273029007168,652
-875.5140749073835,636
-872.8015920836489,638
-870.0898542598545,612
-867.3788612662631,613
-864.6686129330585,689
-861.9591090903457,612
-859.2503495681506,627
-856.5423341964203,613
-853.8350628050229,667
-851.1285352237478,652
-848.4227512823054,663
-845.7177108103272,656
-843.0134136373656,655
-840.3098595928943,658
-837.6070485063082,641
-834.9049802069229,657
-832.2036545239757,648
-829.5030712866244,638
-826.8032303239481,627
-824.1041314649472,600
-821.4057745385428,632
-818.7081593735775,633
-816.0112857988148,598
-813.3151536429393,632
-810.6197627345566,642
-807.9251129021936,624
-805.2312039742981,628
-802.5380357792392,641
-799.8456081453069,650
-797.1539209007124,648
-794.462973873588,700
-791.772766891987,665
-789.083299783884,674
-786.3945723771743,669
-783.7065844996748,656
-781.0193359791231,636
-778.3328266431781,680
-775.6470563194197,639
-772.9620248353489,675
-770.2777320183878,670
-767.5941776958798,662
-764.9113616950891,666
-762.2292838432011,642
-759.5479439673222,634
-756.8673418944801,625
-754.1874774516235,688
-751.5083504656222,651
-748.8299607632671,655
-746.15230817127,691
-743.475392516264,713
-740.7992136248035,653
-738.1237713233636,688
-735.4490654383407,648
-732.7750957960521,671
-730.1018622227365,660
-727.4293645445534,670
-724.7576025875837,695
-722.0865761778291,729
-719.4162851412126,682
-716.7467293035781,731
-714.0779084906909,761
-711.409822528237,704
-708.7424712418238,720
-706.0758544569796,688
-703.4099719991541,715
-700.7448236937178,759
-698.0804093659622,747
-695.4167288411002,720
-692.7537819442656,720
-690.0915685005134,692
-687.4300883348199,732
-684.7693412720819,747
-682.1093271371178,747
-679.4500457546669,726
-676.7914969493897,736
-674.1336805458676,709
-671.4765963686034,750
-668.8202442420206,767
-666.1646239904642,731
-663.5097354382001,778
-660.8555784094151,741
-658.2021527282176,714
-655.5494582186366,756
-652.8974947046223,758
-650.2462620100463,782
-647.5957599587009,725
-644.9459883742998,767
-642.2969470804776,765
-639.6486359007902,773
-637.0010546587141,832
-634.3542031776476,802
-631.7080812809096,785
-629.0626887917401,755
-626.4180255333008,718
-623.7740913286734,825
-621.1308860008619,861
-618.4884093727904,801
-615.8466612673046,779
-613.2056415071715,763
-610.5653499150785,788
-607.9257863136347,800
-605.28695052537,872
-602.6488423727357,824
-600.0114616781036,812
-597.3748082637674,806
-594.7388819519412,823
-592.1036825647604,800
-589.4692099242818,803
-586.8354638524829,844
-584.2024441712624,815
-581.5701507024403,834
-578.9385832677575,858
-576.3077416888759,834
-573.6776257873787,833
-571.0482353847704,794
-568.4195703024757,792
-565.7916303618415,829
-563.164415384135,798
-560.5379251905453,823
-557.9121596021815,802
-555.2871184400748,760
-552.6628015251767,824
-550.0392086783606,855
-547.4163397204204,908
-544.794194472071,960
-542.1727727539491,885
-539.5520743866118,888
-536.9320991905377,902
-534.3128469861261,1015
-531.6943175936979,970
-529.0765108334947,952
-526.4594265256793,1066
-523.8430644903358,1236
-521.2274245474689,1430
-518.612506517005,1448
-515.9983102187913,1433
-513.3848354725959,1472
-510.77208209810846,1499
-508.16004991493924,1534
-505.5487387426199,1574
-502.9381484006032,1853
-500.3282787082628,1990
-497.71912948489364,2114
-495.1107005497117,2029
-492.5029917218539,2036
-489.8960028203786,1828
-487.28973366426493,1633
-484.68418407241325,1422
-482.07935386364494,1349
-479.47524285670266,1231
-476.87185087025,1199
-474.2691777228715,1161
-471.66722323307334,1179
-469.0659872192821,1094
-466.4654694998459,1134
-463.86566989303384,1132
-461.26658821703614,1084
-458.66822428996414,1094
-456.07057792985,1077
-453.4736489546475,1108
-450.877437182231,1046
-448.28194243039627,1055
-445.68716451686,1040
-443.09310325926003,1013
-440.49975847515555,1008
-437.9071299820263,1051
-435.31521759727354,1084
-432.72402113821954,1058
-430.13354042210767,1035
-427.5437752661022,1026
-424.95472548728867,1022
-422.36639090267386,1114
-419.7787713291855,1118
-417.1918665836721,1147
-414.60567648290385,1127
-412.0202008435715,1176
-409.4354394822874,1217
-406.8513922155845,1159
-404.26805885991723,1135
-401.685439231661,1157
-399.103533147112,1164
-396.522340422488,1158
-393.9418608739278,1097
-391.3620943174908,1103
-388.7830405691583,1123
-386.2046994448317,1072
-383.6270707603344,1055
-381.05015433141045,979
-378.473949973725,988
-375.8984575028645,901
-373.32367673433623,874
-370.74960748356875,823
-368.1762495659117,796
-365.60360279663576,732
-363.03166699093265,686
-360.4604419639154,647
-357.8899275306178,590
-355.32012350599507,545
-352.7510297049233,590
-350.1826459421999,597
-347.61497203254316,585
-345.04800779059235,602
-342.4817530309082,604
-339.91620756797226,663
-337.35137121618743,609
-334.7872437898774,565
-332.22382510328725,560
-329.66111497058273,515
-327.09911320585127,549
-324.53781962310075,554
-321.9772340362607,509
-319.4173562591816,547
-316.8581861056348,583
-314.2997233893127,636
-311.7419679238294,591
-309.1849195227194,620
-306.62857799943856,647
-304.0729431673641,630
-301.51801483979375,660
-298.963792829947,654
-296.41027695096386,605
-293.85746701590574,613
-291.3053628377552,658
-288.7539642294155,707
-286.2032710037115,713
-283.65328297338897,679
-281.1039999511146,694
-278.5554217494762,681
-276.007548180983,718
-273.4603790580651,727
-270.9139141930734,720
-268.3681533982807,802
-265.8230964858798,798
-263.27874326798565,773
-260.7350935566336,785
-258.1921471637804,851
-255.6499039013039,954
-253.10836358100266,883
-250.56752601459698,824
-248.02739101372765,891
-245.48795838995704,883
-242.94922795476816,865
-240.41119951956557,827
-237.8738728956746,850
-235.33724789434166,939
-232.80132432673452,912
-230.2661020039418,848
-227.73158073697357,981
-225.19776033676033,1043
-222.66464061415422,1087
-220.1322213799284,1007
-217.60050244477725,998
-215.06948361931552,1071
-212.53916471408013,1126
-210.00954553952818,1045
-207.48062590603843,975
-204.9524056239104,1014
-202.4248845033651,1106
-199.8980623545441,1135
-197.37193898751036,1209
-194.84651421224817,1075
-192.32178783866232,1028
-189.79775967657952,1023
-187.27442953574644,1155
-184.7517972258321,1143
-182.2298625564256,1058
-179.7086253370378,1014
-177.18808537710026,1164
-174.66824248596583,1308
-172.14909647290835,1494
-169.6306471471229,1271
-167.11289431772548,1097
-164.59583779375328,1238
-162.07947738416453,1418
-159.5638128978386,1636
-157.04884414357605,1669
-154.53457093009854,1715
-152.02099306604828,1491
-149.50811035998936,1295
-146.99592262040665,1418
-144.48442965570587,1705
-141.97363127421409,1754
-139.46352728417958,1721
-136.95411749377126,1662
-134.44540171107985,1514
-131.93737974411636,1381
-129.43005140081357,1485
-126.92341648902493,1698
-124.41747481652521,2016
-121.91222619101006,2311
-119.40767042009657,2940
-116.90380731132257,3090
-114.40063667214702,3893
-111.8981583099503,5383
-109.3963720320337,7331
-106.89527764561933,8872
-104.39487495785067,10174
-101.89516377579241,12949
-99.39614390642998,18816
-96.89781515667039,23800
-94.40017733334128,26847
-91.90323024319173,26286
-89.40697369289148,19251
-86.91140748903172,11089
-84.41653143812482,9646
-81.92234534660395,11838
-79.42884902082358,15615
-76.93604226705907,17352
-74.4439248915071,16866
-71.95249670028534,14927
-69.46175749943245,10420
-66.97170709490854,8288
-64.48234529259423,8805
-61.99367189829195,11004
-59.50568671772464,11174
-57.01838955653636,14746
-54.53178022029283,18898
-52.045858514480074,20283
-49.560624244506016,20777
-47.07607721569923,21604
-44.59221723330904,20363
-42.10904410250669,20637
-39.62655762838392,17940
-37.14475761595372,18467
-34.66364387015028,17661
-32.18321619582866,16914
-29.70347439776515,17891
-27.224418280657005,20370
-24.74604764912317,26538
-22.26836230770266,46014
-19.7913620608565,65035
-17.315046712966478,65035
-14.83941606833514,65035
-12.36446993118659,65035
-9.89020810566592,65035
-7.416630395839093,65035
-4.94373660569363,65035
-2.471526539137585,65035
-6.821210263296962E-13,65035
2.47084320796705,65035
4.941003281093458,65035
7.410480415786196,65035
9.879274808531363,65035
12.347386655893956,65035
14.814816154518212,65035
17.28156350112681,65035
19.74762889252179,65035
22.21301252558385,29180
24.67771459727237,8210
27.141735304626195,6892
29.605074844762612,6529
32.06773341487792,6247
34.52971121224755,5388
36.99100843422559,4682
39.45162527824516,4911
41.91156194181792,5485
44.370818622535126,4458
46.82939551806646,3553
49.287292826160524,4830
51.74451074464503,4919
54.201049471426245,4453
56.65690920448981,3511
59.112090141899785,2540
61.56659248179983,3019
64.02041642241159,2869
66.4735621620365,3000
68.92602989905402,3257
71.37781983192338,3312
73.82893215918205,2686
76.27936707944684,2052
78.72912479141326,2358
81.17820549385567,2176
83.62660938562783,1717
86.07433666566146,1795
88.5213875329681,1972
90.96776218663751,2244
93.41346082583925,2132
95.85848364982041,2548
98.30283085790859,2208
100.7465026495089,1824
103.18949922410604,1673
105.63182078126385,1507
108.07346752062438,1660
110.51443964190923,1662
112.95473734491827,1837
115.39436082953114,1594
117.83331029570547,1425
120.27158594347827,1583
122.7091879729652,1491
125.1461165843615,1590
127.58237197794062,1487
130.01795435405518,1416
132.4528639131364,1444
134.88710085569494,1427
137.32066538231982,1505
139.75355769367923,1538
142.1857779905207,1294
144.61732647366978,1170
147.04820334403132,1325
149.47840880258934,1485
151.90794305040674,1548
154.33680628862487,1490
156.76499871846443,1552
159.19252054122433,1777
161.61937195828352,1924
164.04555317109896,2011
166.47106438120693,2255
168.89590579022217,2299
171.320077599839,2532
173.7435800118302,2733
176.16641322804742,2989
178.58857745042144,2995
181.01007288096173,3059
183.43089972175687,3080
185.85105817497413,2973
188.27054844285988,2953
190.6893707277394,3097
193.10752523201643,3195
195.5250121581745,3305
197.9418317087751,3231
200.3579840864594,3307
202.7734694939469,3418
205.18828813403627,3400
207.6024402096051,3401
210.01592592360964,3359
212.42874547908548,3397
214.84089907914665,3429
217.2523869269868,3339
219.66320922587727,3396
222.0733661791695,3270
224.48285799029293,3134
226.8916848627572,3190
229.29984700014882,3397
231.7073446061355,3260
234.11417788446204,3284
236.520347038953,3366
238.92585227351185,3440
241.33069379212054,3449
243.73487179884035,3587
246.1383864978112,3543
248.541238093252,3508
250.9434267894609,3559
253.34495279081432,3490
255.74581630176783,3365
258.1460175268563,3427
260.54555667069314,3367
262.9444339379703,3283
265.3426495334594,3314
267.7402036620107,3404
270.1370965285529,3420
272.53332833809407,3262
274.9288992957214,3167
277.32380960660055,3148
279.718059475976,3127
282.1116491091717,3206
284.5045787115897,3146
286.89684848871195,3134
289.2884586460981,3163
291.67940938938807,3162
294.0697009242996,3206
296.4593334566299,3078
298.84830719225477,3000
301.23662233712923,3142
303.6242790972866,3097
306.01127767884,2894
308.39761828798066,2979
310.78330113097934,2949
313.16832641418534,2910
315.5526943440269,2867
317.9364051270112,2810
320.3194589697242,2744
322.70185607883093,2806
325.0835966610754,2734
327.4646809232805,2716
329.8451090723478,2684
332.2248813152577,2731
334.6039978590701,2762
336.9824589109231,2786
339.36026467803447,2612
341.7374153677,2524
344.113911187295,2563
346.48975234427337,2601
348.8649390461686,2656
351.2394715005918,2698
353.61334991523415,2571
355.9865744978655,2620
358.35914545633375,2614
360.73106299856715,2573
363.10232733257146,2508
365.47293866643247,2496
367.84289720831396,2471
370.2122031664593,2456
372.5808567491905,2429
374.9488581649083,2481
377.31620762209275,2444
379.6829053293021,2382
382.0489514951745,2501
384.4143463284262,2379
386.7790900378528,2301
389.14318283232853,2295
391.50662492080653,2455
393.86941651231916,2451
396.23155781597745,2413
398.5930490409713,2423
400.9538903965696,2352
403.3140820921202,2346
405.6736243370498,2450
408.03251734086336,2284
410.3907613131465,2348
412.74835646356166,2327
415.10530300185144,2371
417.4616011378372,2366
419.81725108141893,2363
422.1722530425758,2359
424.5266072313656,2286
426.880313857925,2344
429.2333731324701,2258
431.58578526529516,2294
433.9375504667738,2377
436.2886689473588,2280
438.63914091758113,2344
440.9889665880513,2339
443.33814616945835,2229
445.68667987257015,2273
448.03456790823395,2330
450.3818104873759,2275
452.72840782100013,2323
455.07436012019105,2351
457.41966759611057,2264
459.7643304600007,2300
462.10834892318155,2248
464.4517231970525,2147
466.79445349309174,2269
469.1365400228566,2266
471.4779829979826,2337
473.81878263018564,2380
476.15893913125876,2388
478.4984527130747,2378
480.8373235875855,2535
483.17555196682144,2571
485.5131380628919,2673
487.8500820879857,2890
490.1863842543697,3146
492.52204477439034,3371
494.8570638604725,3768
497.1914417251204,4073
499.52517858091653,4290
501.85827464052306,4343
504.19073011668036,4339
506.5225452222086,4110
508.85372017000566,3932
511.18425517304956,3849
513.514150444396,4192
515.8434061971808,5773
518.1720226446176,6743
520.4999999999999,7179
522.8273384766991,6733
525.1540382881666,6280
527.480099647932,5790
529.8055227696037,4580
532.1303078668694,3454
534.454455153496,2936
536.777964843328,2628
539.1008371502907,2621
541.4230722883866,2595
543.744670471698,2521
546.0656319143858,2455
548.3859568306899,2368
550.7056454349294,2366
553.0246979415016,2423
555.3431145648834,2339
557.6608955196306,2322
559.978041020377,2236
562.2945512818363,2403
564.6104265188006,2428
566.9256669461412,2369
569.2402727788082,2389
571.5542442318302,2452
573.8675815203156,2330
576.1802848594508,2412
578.4923544645015,2475
580.8037905508126,2458
583.114593333807,2506
585.4247630289875,2461
587.7342998519354,2444
590.0432040183106,2480
592.3514757438526,2503
594.6591152443794,2450
596.9661227357875,2475
599.2724984340531,2502
601.578242555231,2366
603.8833553154542,2454
606.1878369309362,2442
608.4916876179676,2374
610.7949075929192,2372
613.0974970722403,2416
615.3994562724587,2390
617.7007854101818,2367
620.0014847020951,2555
622.3015543649641,2498
624.6009946156324,2384
626.8998056710224,2398
629.1979877481361,2357
631.4955410640538,2472
633.7924658359349,2374
636.0887622810175,2423
638.3844306166192,2311
640.6794710601358,2468
642.9738838290426,2452
645.2676691408932,2435
647.5608272133207,2418
649.853358264037,2457
652.1452625108324,2432
654.4365401715764,2510
656.7271914642178,2402
659.0172166067838,2463
661.3066158173809,2498
663.5953893141935,2448
665.8835373154867,2428
668.1710600396028,2539
670.4579577049639,2367
672.7442305300709,2480
675.0298787335033,2391
677.3149025339197,2363
679.599302150058,2482
681.8830778007342,2428
684.1662297048437,2373
686.4487580813608,2434
688.7306631493387,2335
691.0119451279091,2350
693.2926042362834,2305
695.5726406937516,2368
697.8520547196814,2263
700.1308465335215,2270
702.4090163547982,2298
704.6865644031171,2315
706.9634908981619,2398
709.2397960596965,2372
711.5154801075631,2333
713.7905432616823,2380
716.0649857420548,2353
718.3388077687592,2311
720.612009561953,2340
722.8845913418733,2339
725.1565533288352,2401
727.427895743234,2389
729.6986188055427,2291
731.9687227363137,2327
734.238207756178,2363
736.5070740858458,2214
738.7753219461066,2330
741.0429515578281,2394
743.3099631419569,2389
745.5763569195191,2322
747.8421331116193,2357
750.1072919394409,2373
752.3718336242467,2338
754.6357583873777,2351
756.8990664502545,2383
759.1617580343765,2288
761.423833361321,2261
763.6852926527457,2344
765.9461361303862,2386
768.206364016058,2429
770.4659765316536,2392
772.7249738991469,2474
774.9833563405886,2393
777.2411240781092,2451
779.4982773339183,2369
781.7548163303044,2368
784.010741289634,2323
786.2660524343538,2479
788.5207499869881,2421
790.7748341701416,2342
793.0283052064964,2366
795.2811633188143,2505
797.5334087299362,2393
799.7850416627813,2343
802.0360623403484,2460
804.2864709857143,2351
806.5362678220353,2334
808.7854530725468,2443
811.0340269605625,2399
813.2819897094754,2329
815.5293415427581,2387
817.77608268396,2420
820.0222133567116,2393
822.2677337847211,2319
824.5126441917765,2301
826.7569448017433,2407
829.0006358385675,2400
831.2437175262731,2408
833.4861900889629,2387
835.7280537508192,2286
837.9693087361026,2340
840.2099552691533,2446
842.4499935743896,2371
844.689423876309,2411
846.9282463994886,2340
849.1664613685833,2431
851.4040690083276,2312
853.6410695435349,2422
855.877463199097,2476
858.1132501999847,2389
860.3484307712487,2459
862.5830051380175,2425
864.8169735254988,2470
867.0503361589791,2466
869.2830932638243,2421
871.5152450654786,2481
873.7467917894654,2461
875.9777336613873,2463
878.2080709069252,2528
880.4378037518389,2519
882.666932421968,2477
884.8954571432301,2514
887.1233781416219,2552
889.3506956432192,2539
891.5774098741766,2539
893.803521060728,2572
896.0290294291852,2510
898.2539352059397,2438
900.4782386174619,2475
902.7019398903011,2400
904.925039251085,2461
907.147536926521,2568
909.3694331433943,2537
911.59072812857,2402
913.8114221089921,2472
916.0315153116827,2470
918.2510079637437,2437
920.4699002923547,2397
922.6881925247761,2365
924.905884888345,2415
927.1229776104793,2415
929.3394709186747,2370
931.555365040506,2340
933.7706602036275,2388
935.9853566357709,2364
938.1994545647489,2410
940.4129542184515,2443
942.6258558248488,2353
944.8381596119883,2471
947.0498658079974,2414
949.2609746410825,2368
951.4714863395287,2398
953.6814011316998,2384
955.8907192460387,2326
958.0994409110671,2400
960.3075663553858,2370
962.5150958076741,2362
964.7220294966913,2341
966.928367651274,2316
969.1341105003388,2312
971.3392582728806,2242
973.5438111979742,2193
975.747769504772,2239
977.9511334225061,2270
980.153903180487,2248
982.3560790081052,2250
984.5576611348289,2261
986.7586497902058,2184
988.9590452038618,2117
991.158847605503,2160
993.3580572249133,2234
995.5566742919558,2175
997.7546990365728,2121
999.952131688785,2036
1002.1489724786926,2004
1004.3452216364743,2021
1006.5408793923874,1975
1008.7359459767691,2024
1010.9304216200343,1930
1013.1243065526781,1966
1015.3176010052733,1940
1017.510305208472,2036
1019.7024193930064,1919
1021.8939437896848,1909
1024.0848786293977,1926
1026.2752241431122,1955
1028.4649805618747,1952
1030.6541481168115,1917
1032.842727039127,2003
1035.0307175601051,1905
1037.2181199111074,1869
1039.4049343235752,1914
1041.591161029029,1874
1043.7768002590683,1894
1045.9618522453698,1887
1048.1463172196918,1856
1050.3301954138697,1890
1052.513487059818,1849
1054.69619238953,1859
1056.8783116350783,1849
1059.0598450286152,1867
1061.2407928023704,1794
1063.4211551886528,1882
1065.6009324198508,1802
1067.780124728432,1848
1069.9587323469414,1847
1072.1367555080046,1841
1074.314194444325,1825
1076.4910493886855,1826
1078.667320573947,1813
1080.843008233051,1863
1083.0181125990161,1820
1085.1926339049414,1824
1087.3665723840027,1817
1089.5399282694575,1781
1091.7127017946405,1844
1093.8848931929647,1850
1096.0565026979243,1842
1098.2275305430899,1784
1100.3979769621128,1785
1102.567842188722,1729
1104.737126456726,1769
1106.9058300000124,1793
1109.0739530525475,1724
1111.2414958483764,1813
1113.4084586216231,1790
1115.5748416064907,1776
1117.7406450372605,1690
1119.9058691482942,1838
1122.0705141740304,1722
1124.2345803489884,1796
1126.3980679077658,1737
1128.5609770850388,1781
1130.7233081155623,1819
1132.8850612341707,1751
1135.0462366757774,1752
1137.2068346753745,1741
1139.3668554680326,1787
1141.526299288901,1631
1143.68516637321,1643
1145.8434569562655,1700
1148.001171273455,1715
1150.158309560244,1759
1152.3148720521767,1683
1154.470858984876,1739
1156.626270594044,1702
1158.7811071154629,1705
1160.9353687849912,1709
1163.089055838569,1788
1165.242168512213,1678
1167.3947070420209,1643
1169.5466716641677,1744
1171.6980626149075,1708
1173.8488801305748,1686
1175.9991244475814,1714
1178.1487958024186,1706
1180.2978944316555,1673
1182.4464205719428,1706
1184.5943744600072,1700
1186.7417563326567,1691
1188.8885664267755,1696
1191.0348049793297,1683
1193.1804722273619,1666
1195.325568407995,1723
1197.4700937584303,1687
1199.614048515948,1631
1201.7574329179074,1685
1203.900247201746,1656
1206.042491604982,1728
1208.1841663652099,1676
1210.3252717201053,1668
1212.465807907422,1742
1214.6057751649923,1709
1216.7451737307279,1736
1218.8840038426192,1710
1221.0222657387353,1680
1223.1599596572241,1721
1225.2970858363137,1733
1227.4336445143094,1803
1229.5696359295966,1693
1231.705060320639,1788
1233.8399179259786,1760
1235.9742089842384,1720
1238.107933734118,1775
1240.2410924143974,1709
1242.373685263935,1826
1244.5057125216676,1778
1246.6371744266116,1765
1248.7680712178621,1759
1250.898403134593,1779
1253.028170416058,1770
1255.1573733015875,1804
1257.2860120305932,1750
1259.4140868425648,1742
1261.54159797707,1739
1263.6685456737569,1780
1265.7949301723515,1733
1267.9207517126597,1755
1270.046010534565,1829
1272.1707068780306,1801
1274.2948409830983,1783
1276.4184130898889,1772
1278.541423438603,1836
1280.6638722695184,1798
1282.785759822993,1866
1284.9070863394636,1887
1287.0278520594447,1812
1289.1480572235314,1803
1291.2677020723963,1853
1293.3867868467923,1897
1295.5053117875495,1947
1297.623277135579,1940
1299.740683131868,1850
1301.8575300174857,1849
1303.973818033578,1855
1306.0895474213703,1899
1308.2047184221678,1853
1310.3193312773528,1887
1312.4333862283888,1954
1314.5468835168163,1957
1316.659823384255,1874
1318.7722060724045,1871
1320.8840318230418,1880
1322.9953008780249,1874
1325.1060134792888,1888
1327.2161698688478,1899
1329.3257702887959,1912
1331.4348149813054,1911
1333.5433041886276,2004
1335.6512381530933,1928
1337.7586171171101,1909
1339.8654413231675,1869
1341.9717110138317,1852
1344.0774264317488,1888
1346.1825878196432,1875
1348.2871954203192,1934
1350.3912494766587,1860
1352.4947502316231,1818
1354.5976979282532,1836
1356.7000928096686,1840
1358.8019351190665,1860
1360.9032250997243,1880
1363.0039629949988,1862
1365.1041490483235,1943
1367.2037835032133,1872
1369.3028666032606,1931
1371.401398592137,1935
1373.4993797135926,1872
1375.5968102114575,1906
1377.6936903296396,1952
1379.7900203121262,1871
1381.8858004029835,1961
1383.9810308463561,1865
1386.075711886469,1905
1388.1698437676241,1879
1390.2634267342032,1836
1392.356461030667,1900
1394.4489469015557,1918
1396.5408845914872,1954
1398.6322743451592,1985
1400.7231164073469,1938
1402.813411022907,1961
1404.903158436773,1931
1406.9923588939578,1972
1409.0810126395531,1935
1411.1691199187303,1957
1413.2566809767386,1924
1415.343696058907,2005
1417.4301654106425,1935
1419.5160892774315,1971
1421.6014679048399,1938
1423.6863015385125,2030
1425.7705904241707,1968
1427.8543348076178,1958
1429.9375349347342,2007
1432.0201910514802,2032
1434.102303403894,2122
1436.1838722380944,2047
1438.2648978002767,2115
1440.3453803367174,2095
1442.4253200937692,2086
1444.5047173178677,2110
1446.5835722555234,2155
1448.6618851533285,2159
1450.739656257952,2208
1452.8168858161434,2220
1454.8935740747306,2254
1456.96972128062,2259
1459.045327680797,2292
1461.120393522327,2345
1463.1949190523528,2435
1465.2689045180973,2379
1467.3423501668608,2372
1469.415256246024,2388
1471.4876230030463,2515
1473.559450685465,2497
1475.6307395408976,2507
1477.7014898170391,2610
1479.771701761665,2635
1481.8413756226287,2582
1483.9105116478618,2644
1485.9791100853772,2704
1488.0471711832643,2715
1490.1146951896926,2866
1492.1816823529098,2809
1494.2481329212433,2901
1496.3140471430984,2862
1498.3794252669609,2859
1500.4442675413939,2911
1502.5085742150404,3028
1504.572345536622,3002
1506.6355817549388,3147
1508.6982831188702,3135
1510.7604498773744,3181
1512.8220822794883,3190
1514.8831805743293,3184
1516.9437450110909,3309
1519.003775839048,3318
1521.0632733075522,3460
1523.1222376660367,3444
1525.1806691640113,3555
1527.2385680510652,3517
1529.2959345768668,3733
1531.3527689911643,3741
1533.4090715437833,3717
1535.4648424846291,3832
1537.5200820636855,3954
1539.5747905310159,3954
1541.6289681367616,4009
1543.6826151311434,4125
1545.7357317644614,4144
1547.7883182870937,4228
1549.8403749494987,4220
1551.8919020022113,4420
1553.9428996958477,4515
1555.9933682811015,4520
1558.0433080087469,4602
1560.0927191296346,4787
1562.1416018946961,4730
1564.1899565549415,4613
1566.2377833614592,4746
1568.2850825654164,4654
1570.3318544180606,4486
1572.3780991707158,4385
1574.423817074788,4100
1576.4690083817595,4075
1578.5136733431923,3760
1580.5578122107272,3528
1582.601425236085,3400
1584.6445126710646,3232
1586.6870747675434,3122
1588.7291117774776,3053
1590.7706239529034,2947
1592.8116115459347,2786
1594.8520748087658,2645
1596.8920139936686,2581
1598.9314293529933,2506
1600.9703211391711,2498
1603.008689604711,2356
1605.0465350022005,2360
1607.0838575843068,2331
1609.1206576037753,2298
1611.1569353134305,2287
1613.1926909661765,2184
1615.2279248149953,2135
1617.2626371129481,2067
1619.2968281131757,2072
1621.3304980688963,2015
1623.3636472334088,1975
1625.39627586009,2062
1627.428384202396,1997
1629.459972513861,2050
1631.4910410480993,1913
1633.5215900588028,1948
1635.551619799744,1934
1637.5811305247717,1902
1639.6101224878166,1943
1641.6385959428862,1893
1643.6665511440683,1871
1645.693988345528,1876
1647.7209078015112,1932
1649.7473097663405,1856
1651.7731944944203,1894
1653.7985622402307,1861
1655.823413258333,1874
1657.847747803366,1842
1659.8715661300494,1810
1661.8948684931793,1863
1663.9176551476316,1871
1665.9399263483624,1866
1667.9616823504057,1850
1669.982923408873,1909
1672.0036497789574,1831
1674.0238617159293,1775
1676.043559475138,1852
1678.0627433120121,1824
1680.081413482059,1824
1682.0995702408654,1828
1684.117213844096,1853
1686.134344547495,1817
1688.1509626068864,1859
1690.1670682781705,1757
1692.182661817329,1808
1694.1977434804217,1767
1696.2123135235875,1835
1698.226372203043,1805
1700.2399197750851,1836
1702.2529564960905,1901
1704.2654826225112,1826
1706.277498410882,1842
1708.2890041178139,1783
1710.2999999999988,1804
1712.3104863142066,1797
1714.3204633172854,1837
1716.329931266163,1784
1718.3388904178469,1819
1720.3473410294214,1812
1722.3552833580516,1746
1724.3627176609807,1835
1726.3696441955308,1798
1728.3760632191033,1769
1730.3819749891782,1810
1732.3873797633146,1816
1734.3922777991502,1793
1736.3966693544012,1771
1738.4005546868639,1774
1740.4039340544127,1778
1742.406807715001,1759
1744.4091759266616,1769
1746.4110389475054,1737
1748.4123970357223,1739
1750.413250449582,1778
1752.4135994474318,1834
1754.4134442876993,1750
1756.4127852288902,1751
1758.4116225295893,1739
1760.4099564484595,1755
1762.407787244244,1776
1764.405115175764,1686
1766.4019405019203,1724
1768.3982634816916,1737
1770.3940843741357,1733
1772.3894034383907,1723
1774.3842209336717,1734
1776.378537119274,1743
1778.372352254571,1709
1780.3656665990156,1697
1782.3584804121397,1682
1784.3507939535534,1650
1786.3426074829463,1772
1788.3339212600863,1749
1790.3247355448211,1692
1792.3150505970766,1772
1794.3048666768573,1678
1796.2941840442477,1731
1798.2830029594106,1675
1800.2713236825884,1703
1802.2591464741004,1699
1804.2464715943465,1687
1806.2332993038058,1710
1808.2196298630352,1676
1810.2054635326708,1783
1812.190800573428,1727
1814.175641246101,1770
1816.1599858115628,1800
1818.1438345307652,1673
1820.127187664738,1682
1822.1100454745924,1676
1824.092408221516,1757
1826.0742761667766,1698
1828.055649571721,1743
1830.0365286977735,1753
1832.0169138064398,1750
1833.9968051593014,1718
1835.9762030180214,1693
1837.9551076443408,1685
1839.9335193000788,1748
1841.9114382471344,1703
1843.888864747485,1699
1845.8657990631878,1713
1847.842241456378,1674
1849.8181921892697,1711
1851.7936515241558,1644
1853.7686197234098,1647
1855.7430970494815,1728
1857.7170837649014,1703
1859.6905801322787,1737
1861.6635864143004,1688
1863.6361028737338,1712
1865.608129773424,1731
1867.5796673762961,1696
1869.5507159453537,1648
1871.521275743678,1770
1873.4913470344313,1717
1875.4609300808534,1727
1877.4300251462632,1706
1879.3986324940588,1799
1881.366752387717,1736
1883.3343850907936,1747
1885.3015308669228,1733
1887.268189979819,1731
1889.2343626932739,1720
1891.2000492711595,1723
1893.1652499774254,1712
1895.1299650761011,1703
1897.0941948312952,1775
1899.0579395071945,1731
1901.0211993680641,1728
1902.98397467825,1715
1904.9462657021745,1696
1906.9080727043415,1700
1908.869395949332,1735
1910.8302357018065,1650
1912.790592226504,1637
1914.7504657882428,1684
1916.7098566519212,1699
1918.6687650825133,1685
1920.6271913450764,1741
1922.5851357047422,1718
1924.5425984267245,1674
1926.499579776314,1654
1928.4560800188833,1628
1930.4120994198802,1734
1932.367638244833,1650
1934.32269675935,1748
1936.2772752291175,1759
1938.231373919899,1745
1940.1849930975404,1743
1942.1381330279637,1723
1944.0907939771696,1637
1946.0429762112412,1667
1947.9946799963363,1707
1949.9459055986945,1713
1951.896653284633,1659
1953.8469233205478,1737
1955.7967159729142,1759
1957.7460315082863,1724
1959.6948701932974,1713
1961.6432322946594,1680
1963.5911180791632,1713
1965.5385278136787,1662
1967.4854617651545,1771
1969.4319202006182,1675
1971.377903387176,1666
1973.3234115920136,1675
1975.268445082395,1643
1977.2130041256642,1654
1979.1570889892423,1675
1981.1006999406304,1621
1983.04383724741,1681
1984.986501177238,1687
1986.928691997853,1713
1988.8704099770712,1663
1990.811655382789,1702
1992.7524284829801,1651
1994.692729545698,1690
1996.6325588390755,1675
1998.5719166313224,1706
2000.5108031907307,1629
2002.4492187856677,1650
2004.387163684583,1639
2006.3246381560011,1672
2008.2616424685298,1634
2010.1981768908527,1656
2012.1342416917332,1703
2014.069837140014,1616
2016.0049635046162,1716
2017.9396210545406,1727
2019.8738100588666,1703
2021.8075307867502,1671
2023.740783507431,1668
2025.6735684902228,1658
2027.6058860045214,1642
2029.5377363198004,1648
2031.4691197056118,1604
2033.4000364315875,1643
2035.3304867674374,1694
2037.260470982952,1663
2039.189989347998,1621
2041.1190421325232,1648
2043.047629606554,1654
2044.9757520401945,1642
2046.9034097036288,1705
2048.8306028671195,1654
2050.7573318010086,1623
2052.683596775716,1619
2054.609398061742,1638
2056.5347359296647,1672
2058.4596106501403,1600
2060.384022493906,1586
2062.3079717317764,1579
2064.231458634646,1665
2066.1544834734873,1667
2068.077046519352,1674
2069.99914804337,1605
2071.9207883167524,1654
2073.8419676107865,1614
2075.7626861968406,1685
2077.6829443463607,1632
2079.6027423308715,1675
2081.522080421977,1640
2083.440958891362,1751
2085.359378010786,1650
2087.2773380520907,1634
2089.194839287196,1634
2091.111881988101,1640
2093.0284664268825,1669
2094.9445928756973,1607
2096.86026160678,1620
2098.775472892446,1739
2100.690227005088,1700
2102.604524217178,1723
2104.5183648012676,1648
2106.431749029985,1698
2108.34467717604,1643
2110.2571495122206,1647
2112.169166311393,1630
2114.080727846503,1634
2115.9918343905747,1635
2117.902486216711,1648
2119.8126835980956,1632
2121.722426807987,1665
2123.6317161197285,1683
2125.5405518067364,1697
2127.448934142509,1677
2129.356863400624,1685
2131.264339854737,1681
2133.1713637785815,1736
2135.077935445972,1772
2136.9840551308002,1749
2138.889723107037,1717
2140.7949396487334,1678
2142.699705030018,1727
2144.6040195250994,1745
2146.507883408264,1772
2148.4112969538774,1725
2150.3142604363848,1790
2152.2167741303097,1738
2154.1188383102535,1763
2156.0204532508997,1767
2157.9216192270064,1750
2159.822336513414,1765
2161.7226053850413,1725
2163.622426116884,1699
2165.5217989840185,1816
2167.4207242616,1848
2169.319202224862,1771
2171.2172331491165,1799
2173.1148173097563,1795
2175.0119549822507,1782
2176.90864644215,1716
2178.8048919650823,1782
2180.7006918267534,1758
2182.596046302952,1846
2184.4909556695407,1828
2186.3854202024645,1748
2188.279440177746,1784
2190.173015871487,1804
2192.066147559868,1795
2193.958835519149,1814
2195.851080025667,1743
2197.7428813558417,1852
2199.6342397861667,1826
2201.5251555932186,1817
2203.415629053651,1850
2205.3056604441986,1794
2207.19525004167,1850
2209.084398122958,1824
2210.9731049650327,1890
2212.861370844941,1894
2214.749196039812,1891
2216.636580826851,1827
2218.523525483344,1884
2220.410030286655,1906
2222.296095514226,1875
2224.1817214435805,1894
2226.066908352319,1841
2227.951656518121,1876
2229.835966218746,1845
2231.71983773203,1849
2233.6032713358913,1892
2235.486267308324,1781
2237.3688259274036,1804
2239.2509474712824,1861
2241.132632218193,1835
2243.013880446447,1931
2244.8946924344323,1937
2246.7750684606203,1818
2248.6550088035574,1815
2250.534513741871,1860
2252.413583554265,1917
2254.292218519526,1897
2256.170418916517,1854
2258.0481850241786,1845
2259.925517121534,1885
2261.8024154876825,1879
2263.678880401803,1919
2265.5549121431536,1902
2267.430510991071,1939
2269.305677224971,1875
2271.180411124348,1810
2273.0547129687766,1776
2274.9285830379076,1833
2276.8020216114737,1780
2278.6750289692845,1788
2280.5476053912294,1809
2282.4197511572766,1910
2284.2914665474727,1871
2286.162751841943,1876
2288.0336073208937,1959
2289.904033264608,1840
2291.774029953448,1893
2293.6435976678554,1818
2295.5127366883517,1893
2297.381447295534,1830
2299.2497297700825,1731
2301.1175843927526,1660
2302.9850114443825,1670
2304.852011205885,1615
2306.7185839582553,1627
2308.5847299825664,1531
2310.4504495599676,1522
2312.3157429716925,1584
2314.1806104990483,1559
2316.0450524234247,1502
2317.9090690262888,1523
2319.772660589186,1510
2321.635827393742,1579
2323.498569721661,1489
2325.3608878547248,1557
2327.2227820747967,1484
2329.0842526638157,1507
2330.945299903803,1452
2332.805924076857,1560
2334.6661254651535,1553
2336.525904350951,1524
2338.3852610165827,1474
2340.244195744464,1523
2342.102708817088,1521
2343.9608005170253,1520
2345.8184711269287,1477
2347.675720929526,1460
2349.532550207628,1559
2351.38895924412,1520
2353.24494832197,1475
2355.100517724223,1492
2356.955667734004,1475
2358.810398634514,1597
2360.664710709037,1562
2362.5186042409337,1609
2364.3720795136437,1613
2366.225136810686,1475
2368.0777764156583,1456
2369.929998612237,1532
2371.7818036841777,1522
2373.633191915315,1548
2375.484163589562,1550
2377.3347189909114,1505
2379.184858403434,1540
2381.03458211128,1559
2382.8838903986775,1604
2384.732783549936,1521
2386.5812618494406,1586
2388.4293255816588,1569
2390.2769750311327,1563
2392.1242104824883,1531
2393.971032220427,1507
2395.8174405297295,1527
2397.6634356952563,1454
2399.509018001947,1547
2401.3541877348193,1560
2403.1989451789705,1505
2405.043290619576,1576
2406.8872243418905,1549
2408.730746631247,1522
2410.5738577730594,1505
2412.4165580528183,1526
2414.258847756095,1515
2416.100727168537,1544
2417.9421965758734,1518
2419.783256263912,1554
2421.623906518538,1557
2423.4641476257157,1576
2425.303979871491,1569
2427.143403541984,1569
2428.9824189233977,1574
2430.821026302012,1539
2432.6592259641866,1611
2434.497018196361,1562
2436.33440328505,1572
2438.171381516851,1669
2440.00795317844,1568
2441.844118556569,1555
2443.6798779380724,1587
2445.5152316098606,1565
2447.3501798589255,1558
2449.1847229723357,1546
2451.0188612372403,1536
2452.8525949408663,1618
2454.6859243705203,1540
2456.518849813587,1575
2458.3513715575314,1544
2460.183489889895,1563
2462.015205098301,1596
2463.8465174704493,1585
2465.67742729412,1568
2467.5079348571717,1600
2469.338040447542,1592
2471.1677443532476,1507
2472.9970468623833,1642
2474.825948263123,1577
2476.6544488437207,1641
2478.482548892508,1605
2480.310248697896,1558
2482.137548548374,1551
2483.9644487325118,1677
2485.790949538956,1579
2487.617051256433,1586
2489.44275417375,1568
2491.26805857979,1589
2493.0929647635157,1592
2494.917473013971,1669
2496.741583620276,1642
2498.5652968716304,1581
2500.3886130573137,1553
2502.2115324666834,1672
2504.0340553891765,1681
2505.856182114308,1612
2507.6779129316733,1657
2509.499248130945,1667
2511.3201880018764,1635
2513.140732834298,1613
2514.9608829181198,1601
2516.780638543331,1614
2518.6,1604
2520.418967578273,1673
2522.237541568376,1680
2524.0557222606144,1703
2525.8735099453706,1617
2527.6909049131086,1610
2529.507907454368,1666
2531.32451785977,1694
2533.140736420014,1710
2534.9565634258774,1656
2536.771999168218,1668
2538.5870439379714,1710
2540.4016980261526,1707
2542.2159617238544,1729
2544.02983532225,1717
2545.8433191125914,1708
2547.656413386209,1707
2549.4691184345115,1783
2551.2814345489874,1780
2553.093362021204,1765
2554.904901142808,1728
2556.716052205523,1822
2558.526815501153,1788
2560.3371913215824,1769
2562.147179958771,1766
2563.956781704761,1741
2565.7659968516705,1789
2567.5748256916986,1845
2569.3832685171224,1805
2571.1913256202984,1821
2572.9989972936614,1884
2574.806283829725,1812
2576.613185521084,1762
2578.4197026604074,1815
2580.2258355404483,1841
2582.031584454035,1870
2583.836949694077,1927
2585.6419315535613,1893
2587.4465303255533,1945
2589.2507463032002,1957
2591.0545797797245,1930
2592.8580310484303,1945
2594.6611004026995,1972
2596.463788135992,1948
2598.266094541849,1960
2600.0680199138874,1994
2601.869564545807,1990
2603.670728731383,1969
2605.4715127644704,2002
2607.2719169390048,2014
2609.071941548998,2014
2610.8715868885433,1976
2612.670853251811,2089
2614.469740933052,1968
2616.268250226594,2110
2618.0663814268455,1985
2619.864134828292,2003
2621.6615107255006,1907
2623.458509413115,1998
2625.2551311858597,1969
2627.0513763385347,1897
2628.8472451660223,1909
2630.6427379632833,2012
2632.4378550253564,1874
2634.232596647359,1945
2636.026963124488,1875
2637.8209547520187,1853
2639.6145718253065,1872
2641.407814639785,1810
2643.200683490966,1917
2644.9931786744414,1899
2646.7853004858807,1886
2648.577049221034,1851
2650.3684251757277,1853
2652.1594286458712,1749
2653.9500599274484,1816
2655.740319316525,1716
2657.5302071092437,1744
2659.3197236018286,1776
2661.10886909058,1818
2662.8976438718782,1756
2664.686048242183,1758
2666.4740824980327,1719
2668.2617469360443,1790
2670.0490418529134,1720
2671.8359675454153,1685
2673.622524310403,1768
2675.408712444811,1683
2677.1945322456495,1693
2678.979984010009,1628
2680.76506803506,1640
2682.5497846180497,1643
2684.334134056306,1614
2686.1181166472343,1679
2687.9017326883213,1694
2689.6849824771293,1669
2691.4678663113013,1617
2693.2503844885596,1598
2695.032537306705,1636
2696.8143250636167,1565
2698.5957480572542,1607
2700.3768065856534,1599
2702.1575009469316,1625
2703.937831439283,1651
2705.717798360982,1625
2707.4974020103837,1599
2709.276642685917,1560
2711.055520686095,1536
2712.834036309506,1612
2714.612189854819,1614
2716.389981620782,1497
2718.1674119062204,1537
2719.944481010041,1567
2721.721189231226,1555
2723.4975368688415,1558
2725.273524222027,1565
2727.0491515900053,1580
2728.824419272075,1603
2730.5993275676146,1578
2732.3738767760838,1585
2734.148067197016,1558
2735.921899130031,1551
2737.6953728748194,1499
2739.468488731156,1541
2741.2412469988926,1489
2743.0136479779617,1507
2744.785691968372,1494
2746.5573792702116,1525
2748.3287101836504,1555
2750.099685008934,1554
2751.870304046388,1542
2753.640567596418,1532
2755.4104759595057,1522
2757.1800294362156,1559
2758.949228327187,1619
2760.7180729331412,1573
2762.486563554877,1500
2764.254700493272,1556
2766.022484049284,1505
2767.789914523947,1524
2769.5569922183786,1569
2771.3237174337705,1573
2773.090090471394,1557
2774.8561116326036,1551
2776.6217812188274,1535
2778.3870995315756,1572
2780.1520668724356,1517
2781.9166835430747,1601
2783.6809498452394,1483
2785.444866080754,1559
2787.2084325515225,1511
2788.971649559527,1501
2790.73451740683,1541
2792.4970363955713,1549
2794.2592068279705,1513
2796.0210290063264,1577
2797.7825032330147,1501
2799.543629810493,1507
2801.304409041296,1518
2803.0648412280366,1477
2804.8249266734088,1504
2806.5846656801846,1517
2808.344058551212,1553
2810.1031055894246,1518
2811.8618070978273,1555
2813.6201633795085,1562
2815.378174737636,1540
2817.1358414754536,1450
2818.893163896285,1564
2820.6501423035334,1478
2822.4067770006814,1518
2824.1630682912883,1458
2825.9190164789957,1516
2827.6746218675207,1481
2829.429884760661,1535
2831.184805462294,1545
2832.9393842763743,1539
2834.693621506936,1563
2836.4475174580916,1598
2838.201072434034,1494
2839.954286739034,1567
2841.707160677441,1529
2843.459694553685,1526
2845.2118886722724,1473
2846.96374333779,1583
2848.7152588549034,1545
2850.4664355283567,1512
2852.217273662973,1526
2853.9677735636546,1515
2855.7179355353833,1541
2857.4677598832186,1592
2859.217246912299,1541
2860.9663969278427,1542
2862.715210235146,1532
2864.4636871395846,1484
2866.211827946614,1525
2867.9596329617652,1508
2869.7071024906536,1501
2871.4542368389684,1489
2873.20103631248,1567
2874.947501217038,1554
2876.6936318585695,1523
2878.4394285430812,1506
2880.1848915766604,1547
2881.9300212654707,1565
2883.6748179157553,1526
2885.4192818338374,1447
2887.1634133261173,1501
2888.907212699077,1551
2890.6506802592744,1561
2892.393816313348,1564
2894.1366211680142,1580
2895.8790951300693,1554
2897.621238506388,1522
2899.363051603925,1486
2901.1045347297118,1563
2902.8456881908596,1537
2904.58651229456,1539
2906.327007348081,1529
2908.067173658772,1492
2909.8070115340597,1493
2911.5465212814497,1515
2913.285703208527,1509
2915.0245576229563,1515
2916.7630848324807,1491
2918.5012851449196,1499
2920.2391588681758,1554
2921.976706310227,1474
2923.7139277791334,1540
2925.4508235830313,1549
2927.187394030137,1477
2928.923639428745,1538
2930.6595600872306,1525
2932.395156314046,1585
2934.1304284177218,1515
2935.8653767068713,1555
2937.6000014901815,1584
2939.3343030764227,1568
2941.068281774442,1479
2942.8019378931644,1547
2944.5352717415976,1480
2946.2682836288236,1548
2948.0009738640065,1564
2949.7333427563885,1524
2951.465390615289,1514
2953.1971177501086,1536
2954.9285244703265,1528
2956.6596110855,1522
2958.3903779052657,1597
2960.1208252393385,1552
2961.8509533975125,1470
2963.5807626896617,1447
2965.3102534257378,1456
2967.0394259157715,1493
2968.768280469873,1501
2970.496817398232,1569
2972.2250370111146,1574
2973.952939618869,1554
2975.6805255319196,1507
2977.4077950607707,1554
2979.134748516006,1568
2980.861386208289,1514
2982.587708448359,1522
2984.313715547037,1547
2986.039407815222,1563
2987.764785563891,1519
2989.489849104102,1527
2991.2145987469908,1551
2992.9390348037705,1496
2994.6631575857346,1575
2996.3869674042576,1532
2998.1104645707887,1565
2999.83364939686,1519
3001.5565221940783,1538
3003.2790832741334,1529
3005.0013329487924,1495
3006.7232715298996,1511
3008.4448993293804,1521
3010.166216659239,1555
3011.887223831558,1510
3013.607921158498,1541
3015.3283089522993,1525
3017.0483875252826,1500
3018.7681571898443,1512
3020.4876182584626,1477
3022.2067710436927,1519
3023.9256158581707,1485
3025.644153014609,1468
3027.362382825801,1522
3029.0803056046193,1478
3030.797921664012,1503
3032.5152313170106,1548
3034.2322348767225,1522
3035.9489326563353,1479
3037.665324969115,1472
3039.3814121284063,1505
3041.097194447633,1475
3042.812672240299,1509
3044.5278458199855,1517
3046.2427155003525,1466
3047.9572815951406,1516
3049.671544418167,1546
3051.38550428333,1533
3053.0991615046073,1514
3054.812516396051,1501
3056.5255692717974,1514
3058.2383204460575,1513
3059.9507702331257,1527
3061.662918947372,1481
3063.3747669032446,1488
3065.0863144152736,1520
3066.7975617980674,1543
3068.508509366309,1545
3070.219157434767,1479
3071.9295063182844,1503
3073.639556331785,1462
3075.3493077902704,1505
3077.058761008821,1573
3078.7679163025964,1507
3080.476773986837,1533
3082.1853343768594,1526
3083.89359778806,1498
3085.6015645359153,1526
3087.3092349359786,1512
3089.016609303884,1537
3090.7236879553434,1549
3092.4304712061476,1543
3094.136959372166,1538
3095.843152769349,1548
3097.5490517137237,1499
3099.2546565213966,1476
3100.959967508554,1522
3102.66498499146,1540
3104.3697092864577,1491
3106.0741407099695,1461
3107.778279578498,1513
3109.482126208622,1614
3111.1856809170004,1560
3112.8889440203716,1603
3114.5919158355528,1550
3116.294596679439,1553
3117.996986869006,1494
3119.6990867213062,1530
3121.4008965534726,1528
3123.102416682717,1548
3124.803647426329,1535
3126.5045891016784,1566
3128.205242026213,1543
3129.90560651746,1562
3131.605682893025,1471
3133.3054714705922,1535
3135.0049725679282,1610
3136.7041865028714,1545
3138.4031135933465,1561
3140.101754157353,1496
3141.800108512971,1512
3143.498176978357,1552
3145.1959598717494,1483
3146.8934575114636,1560
3148.5906702158954,1508
3150.2875983035183,1548
3151.9842420928853,1482
3153.680601902627,1572
3155.376678051456,1522
3157.07247085816,1525
3158.767980641609,1523
3160.463207720748,1576
3162.158152414606,1535
3163.8528150422862,1503
3165.5471959229726,1523
3167.2412953759303,1570
3168.9351137204976,1473
3170.628651276098,1486
3172.3219083622307,1558
3174.014885298474,1530
3175.707582404485,1489
3177.4000000000005,1503
3179.092138404835,1546
3180.7839979388846,1570
3182.47557892212,1523
3184.166881674594,1527
3185.8579065164386,1484
3187.5486537678626,1467
3189.2391237491547,1501
3190.9293167806827,1474
3192.6192331828934,1501
3194.3088732763117,1472
3195.998237381542,1494
3197.687325819268,1551
3199.376138910251,1512
3201.064676975334,1501
3202.7529403354347,1482
3204.4409293115523,1492
3206.1286442247647,1497
3207.816085396229,1466
3209.5032531471825,1471
3211.190147798936,1527
3212.8767696728846,1475
3214.5631190905015,1531
3216.2491963733373,1446
3217.9350018430214,1476
3219.6205358212637,1451
3221.305798629851,1493
3222.990790590651,1422
3224.6755120256103,1432
3226.359963256751,1470
3228.0441446061795,1471
3229.7280563960758,1560
3231.411698948703,1552
3233.0950725863995,1465
3234.778177631587,1492
3236.461014406761,1501
3238.1435832345005,1531
3239.8258844374595,1554
3241.507918338374,1506
3243.1896852600576,1505
3244.8711855254023,1475
3246.552419457381,1459
3248.233387379042,1552
3249.914089613516,1458
3251.59452648401,1536
3253.274698313813,1484
3254.95460542629,1489
3256.6342481448855,1495
3258.313626793125,1475
3259.9927416946084,1545
3261.6715931730196,1456
3263.3501815521176,1483
3265.0285071557437,1488
3266.706570307815,1493
3268.3843713323286,1516
3270.0619105533615,1473
3271.739188295068,1500
3273.4162048816834,1424
3275.0929606375184,1421
3276.769455886966,1469
3278.445690954498,1502
3280.1216661646613,1507
3281.797381842087,1531
3283.4728383114807,1455
3285.1480358976296,1469
3286.8229749253996,1498
3288.4976557197333,1475
3290.172078605655,1495
3291.846243908266,1440
3293.5201519527463,1493
3295.193803064357,1512
3296.8671975684374,1487
3298.5403357904024,1423
3300.21321805575,1517
3301.8858446900567,1503
3303.558216018975,1489
3305.23033236824,1458
3306.9021940636603,1486
3308.57380143113,1570
3310.2451547966184,1514
3311.916254486174,1500
3313.5871008259246,1490
3315.2576941420766,1502
3316.9280347609147,1459
3318.5981230088046,1448
3320.2679592121895,1440
3321.9375436975924,1431
3323.606876791612,1430
3325.27595882093,1434
3326.944790112305,1509
3328.6133709925753,1429
3330.2817017886573,1489
3331.949782827547,1532
3333.617614436319,1478
3335.2851969421245,1526
3336.952530672199,1561
3338.619615953853,1507
3340.286453114475,1439
3341.9530424815357,1568
3343.619384382583,1526
3345.2854791452437,1482
3346.951327097224,1491
3348.6169285663073,1435
3350.2822838803577,1503
3351.947393367319,1475
3353.61225735521,1477
3355.2768761721345,1466
3356.9412501462693,1472
3358.605379605873,1480
3360.2692648792827,1503
3361.9329062949146,1576
3363.596304181263,1489
