CollectionTime,9/20/2024 12:53:58 PM
ExposureUsed,3
CalibratedSpectrum
-962.7078968117929,1154
-959.9714848408522,1288
-957.2358232597828,1276
-954.5009119013725,1329
-951.7667505983302,1328
-949.0333391832855,1315
-946.3006774887896,1373
-943.5687653473143,1384
-940.837602591253,1401
-938.1071890529199,1425
-935.3775245645503,1351
-932.6486089583007,1278
-929.9204420662485,1267
-927.1930237203925,1338
-924.4663537526524,1354
-921.7404319948689,1389
-919.0152582788041,1361
-916.2908324361409,1418
-913.5671542984834,1401
-910.8442236973568,1385
-908.1220404642074,1302
-905.4006044304027,1350
-902.679915427231,1355
-899.959973285902,1315
-897.2407778375464,1359
-894.5223289132158,1374
-891.8046263438832,1367
-889.0876699604426,1305
-886.3714595937089,1299
-883.6559950744183,1357
-880.9412762332282,1379
-878.2273029007168,1265
-875.5140749073835,1316
-872.8015920836489,1322
-870.0898542598545,1318
-867.3788612662631,1331
-864.6686129330585,1379
-861.9591090903457,1368
-859.2503495681506,1329
-856.5423341964203,1254
-853.8350628050229,1321
-851.1285352237478,1355
-848.4227512823054,1365
-845.7177108103272,1442
-843.0134136373656,1333
-840.3098595928943,1415
-837.6070485063082,1346
-834.9049802069229,1291
-832.2036545239757,1342
-829.5030712866244,1416
-826.8032303239481,1353
-824.1041314649472,1379
-821.4057745385428,1336
-818.7081593735775,1406
-816.0112857988148,1342
-813.3151536429393,1393
-810.6197627345566,1352
-807.9251129021936,1345
-805.2312039742981,1424
-802.5380357792392,1422
-799.8456081453069,1388
-797.1539209007124,1358
-794.462973873588,1394
-791.772766891987,1384
-789.083299783884,1438
-786.3945723771743,1423
-783.7065844996748,1383
-781.0193359791231,1407
-778.3328266431781,1416
-775.6470563194197,1364
-772.9620248353489,1427
-770.2777320183878,1432
-767.5941776958798,1435
-764.9113616950891,1413
-762.2292838432011,1456
-759.5479439673222,1392
-756.8673418944801,1366
-754.1874774516235,1423
-751.5083504656222,1474
-748.8299607632671,1450
-746.15230817127,1427
-743.475392516264,1516
-740.7992136248035,1453
-738.1237713233636,1429
-735.4490654383407,1422
-732.7750957960521,1440
-730.1018622227365,1411
-727.4293645445534,1485
-724.7576025875837,1452
-722.0865761778291,1498
-719.4162851412126,1513
-716.7467293035781,1486
-714.0779084906909,1531
-711.409822528237,1495
-708.7424712418238,1473
-706.0758544569796,1440
-703.4099719991541,1501
-700.7448236937178,1467
-698.0804093659622,1545
-695.4167288411002,1548
-692.7537819442656,1469
-690.0915685005134,1495
-687.4300883348199,1550
-684.7693412720819,1514
-682.1093271371178,1526
-679.4500457546669,1453
-676.7914969493897,1554
-674.1336805458676,1534
-671.4765963686034,1566
-668.8202442420206,1578
-666.1646239904642,1561
-663.5097354382001,1549
-660.8555784094151,1575
-658.2021527282176,1534
-655.5494582186366,1559
-652.8974947046223,1604
-650.2462620100463,1531
-647.5957599587009,1571
-644.9459883742998,1579
-642.2969470804776,1594
-639.6486359007902,1609
-637.0010546587141,1639
-634.3542031776476,1647
-631.7080812809096,1680
-629.0626887917401,1617
-626.4180255333008,1635
-623.7740913286734,1595
-621.1308860008619,1652
-618.4884093727904,1631
-615.8466612673046,1688
-613.2056415071715,1639
-610.5653499150785,1672
-607.9257863136347,1734
-605.28695052537,1705
-602.6488423727357,1655
-600.0114616781036,1651
-597.3748082637674,1664
-594.7388819519412,1718
-592.1036825647604,1672
-589.4692099242818,1676
-586.8354638524829,1702
-584.2024441712624,1621
-581.5701507024403,1692
-578.9385832677575,1729
-576.3077416888759,1736
-573.6776257873787,1756
-571.0482353847704,1618
-568.4195703024757,1697
-565.7916303618415,1701
-563.164415384135,1702
-560.5379251905453,1722
-557.9121596021815,1729
-555.2871184400748,1773
-552.6628015251767,1738
-550.0392086783606,1699
-547.4163397204204,1780
-544.794194472071,1805
-542.1727727539491,1793
-539.5520743866118,1866
-536.9320991905377,1851
-534.3128469861261,1870
-531.6943175936979,1926
-529.0765108334947,1848
-526.4594265256793,1888
-523.8430644903358,2103
-521.2274245474689,2266
-518.612506517005,2291
-515.9983102187913,2300
-513.3848354725959,2355
-510.77208209810846,2317
-508.16004991493924,2375
-505.5487387426199,2490
-502.9381484006032,2672
-500.3282787082628,2716
-497.71912948489364,2819
-495.1107005497117,2825
-492.5029917218539,2687
-489.8960028203786,2604
-487.28973366426493,2495
-484.68418407241325,2317
-482.07935386364494,2183
-479.47524285670266,2137
-476.87185087025,2085
-474.2691777228715,2043
-471.66722323307334,2073
-469.0659872192821,1991
-466.4654694998459,2042
-463.86566989303384,2071
-461.26658821703614,2033
-458.66822428996414,2074
-456.07057792985,2051
-453.4736489546475,1998
-450.877437182231,1946
-448.28194243039627,2024
-445.68716451686,1991
-443.09310325926003,2051
-440.49975847515555,1958
-437.9071299820263,2022
-435.31521759727354,1939
-432.72402113821954,1974
-430.13354042210767,2067
-427.5437752661022,1943
-424.95472548728867,1932
-422.36639090267386,2045
-419.7787713291855,2066
-417.1918665836721,2090
-414.60567648290385,2018
-412.0202008435715,2051
-409.4354394822874,2071
-406.8513922155845,2088
-404.26805885991723,2148
-401.685439231661,2111
-399.103533147112,2177
-396.522340422488,2114
-393.9418608739278,2095
-391.3620943174908,2038
-388.7830405691583,1967
-386.2046994448317,1895
-383.6270707603344,1782
-381.05015433141045,1664
-378.473949973725,1609
-375.8984575028645,1448
-373.32367673433623,1367
-370.74960748356875,1239
-368.1762495659117,1164
-365.60360279663576,996
-363.03166699093265,841
-360.4604419639154,794
-357.8899275306178,654
-355.32012350599507,662
-352.7510297049233,638
-350.1826459421999,625
-347.61497203254316,631
-345.04800779059235,627
-342.4817530309082,608
-339.91620756797226,718
-337.35137121618743,686
-334.7872437898774,580
-332.22382510328725,603
-329.66111497058273,571
-327.09911320585127,524
-324.53781962310075,549
-321.9772340362607,554
-319.4173562591816,590
-316.8581861056348,588
-314.2997233893127,635
-311.7419679238294,608
-309.1849195227194,640
-306.62857799943856,693
-304.0729431673641,640
-301.51801483979375,599
-298.963792829947,572
-296.41027695096386,540
-293.85746701590574,623
-291.3053628377552,675
-288.7539642294155,733
-286.2032710037115,756
-283.65328297338897,670
-281.1039999511146,684
-278.5554217494762,709
-276.007548180983,678
-273.4603790580651,674
-270.9139141930734,621
-268.3681533982807,675
-265.8230964858798,657
-263.27874326798565,749
-260.7350935566336,796
-258.1921471637804,881
-255.6499039013039,882
-253.10836358100266,842
-250.56752601459698,814
-248.02739101372765,904
-245.48795838995704,869
-242.94922795476816,851
-240.41119951956557,833
-237.8738728956746,802
-235.33724789434166,774
-232.80132432673452,809
-230.2661020039418,827
-227.73158073697357,869
-225.19776033676033,999
-222.66464061415422,1032
-220.1322213799284,1005
-217.60050244477725,984
-215.06948361931552,996
-212.53916471408013,1069
-210.00954553952818,982
-207.48062590603843,905
-204.9524056239104,890
-202.4248845033651,985
-199.8980623545441,1047
-197.37193898751036,1050
-194.84651421224817,1044
-192.32178783866232,948
-189.79775967657952,1003
-187.27442953574644,986
-184.7517972258321,1011
-182.2298625564256,935
-179.7086253370378,909
-177.18808537710026,1032
-174.66824248596583,1159
-172.14909647290835,1201
-169.6306471471229,1199
-167.11289431772548,1029
-164.59583779375328,1074
-162.07947738416453,1290
-159.5638128978386,1499
-157.04884414357605,1457
-154.53457093009854,1554
-152.02099306604828,1306
-149.50811035998936,1356
-146.99592262040665,1421
-144.48442965570587,1606
-141.97363127421409,1704
-139.46352728417958,1662
-136.95411749377126,1686
-134.44540171107985,1506
-131.93737974411636,1303
-129.43005140081357,1507
-126.92341648902493,1724
-124.41747481652521,1922
-121.91222619101006,1984
-119.40767042009657,2343
-116.90380731132257,2831
-114.40063667214702,3996
-111.8981583099503,5562
-109.3963720320337,8823
-106.89527764561933,12383
-104.39487495785067,16035
-101.89516377579241,16856
-99.39614390642998,19289
-96.89781515667039,24740
-94.40017733334128,34711
-91.90323024319173,42972
-89.40697369289148,35247
-86.91140748903172,22017
-84.41653143812482,16031
-81.92234534660395,16855
-79.42884902082358,23657
-76.93604226705907,28331
-74.4439248915071,27296
-71.95249670028534,20664
-69.46175749943245,12465
-66.97170709490854,8193
-64.48234529259423,7757
-61.99367189829195,8876
-59.50568671772464,9657
-57.01838955653636,13135
-54.53178022029283,15719
-52.045858514480074,15444
-49.560624244506016,13774
-47.07607721569923,11719
-44.59221723330904,11142
-42.10904410250669,12680
-39.62655762838392,13283
-37.14475761595372,13798
-34.66364387015028,14763
-32.18321619582866,15176
-29.70347439776515,18118
-27.224418280657005,20276
-24.74604764912317,25738
-22.26836230770266,40893
-19.7913620608565,65035
-17.315046712966478,65035
-14.83941606833514,65035
-12.36446993118659,65035
-9.89020810566592,65035
-7.416630395839093,65035
-4.94373660569363,65035
-2.471526539137585,65035
-6.821210263296962E-13,65035
2.47084320796705,65035
4.941003281093458,65035
7.410480415786196,65035
9.879274808531363,65035
12.347386655893956,65035
14.814816154518212,65035
17.28156350112681,65035
19.74762889252179,65035
22.21301252558385,65035
24.67771459727237,24684
27.141735304626195,8697
29.605074844762612,8002
32.06773341487792,7246
34.52971121224755,5832
36.99100843422559,4843
39.45162527824516,4855
41.91156194181792,4360
44.370818622535126,3815
46.82939551806646,3984
49.287292826160524,5078
51.74451074464503,6154
54.201049471426245,5156
56.65690920448981,3550
59.112090141899785,2272
61.56659248179983,3017
64.02041642241159,2970
66.4735621620365,3324
68.92602989905402,4235
71.37781983192338,4328
73.82893215918205,3710
76.27936707944684,2494
78.72912479141326,2439
81.17820549385567,2325
83.62660938562783,2062
86.07433666566146,1948
88.5213875329681,1962
90.96776218663751,2115
93.41346082583925,2036
95.85848364982041,2723
98.30283085790859,2688
100.7465026495089,2033
103.18949922410604,1661
105.63182078126385,1663
108.07346752062438,1708
110.51443964190923,1617
112.95473734491827,1670
115.39436082953114,1693
117.83331029570547,1538
120.27158594347827,1497
122.7091879729652,1466
125.1461165843615,1389
127.58237197794062,1224
130.01795435405518,1244
132.4528639131364,1606
134.88710085569494,1517
137.32066538231982,1598
139.75355769367923,1650
142.1857779905207,1547
144.61732647366978,1485
147.04820334403132,1362
149.47840880258934,1447
151.90794305040674,1557
154.33680628862487,1660
156.76499871846443,1782
159.19252054122433,1930
161.61937195828352,2122
164.04555317109896,2350
166.47106438120693,2579
168.89590579022217,2943
171.320077599839,3144
173.7435800118302,3355
176.16641322804742,3563
178.58857745042144,3710
181.01007288096173,3918
183.43089972175687,4031
185.85105817497413,3943
188.27054844285988,4111
190.6893707277394,4257
193.10752523201643,4483
195.5250121581745,4420
197.9418317087751,4533
200.3579840864594,4355
202.7734694939469,4532
205.18828813403627,4841
207.6024402096051,4789
210.01592592360964,4601
212.42874547908548,4635
214.84089907914665,4612
217.2523869269868,4570
219.66320922587727,4622
222.0733661791695,4507
224.48285799029293,4513
226.8916848627572,4523
229.29984700014882,4614
231.7073446061355,4658
234.11417788446204,4510
236.520347038953,4684
238.92585227351185,4786
241.33069379212054,4754
243.73487179884035,4797
246.1383864978112,4733
248.541238093252,4820
250.9434267894609,4661
253.34495279081432,4670
255.74581630176783,4632
258.1460175268563,4596
260.54555667069314,4686
262.9444339379703,4551
265.3426495334594,4546
267.7402036620107,4680
270.1370965285529,4644
272.53332833809407,4497
274.9288992957214,4503
277.32380960660055,4420
279.718059475976,4435
282.1116491091717,4512
284.5045787115897,4404
286.89684848871195,4438
289.2884586460981,4397
291.67940938938807,4414
294.0697009242996,4575
296.4593334566299,4433
298.84830719225477,4477
301.23662233712923,4492
303.6242790972866,4464
306.01127767884,4270
308.39761828798066,4286
310.78330113097934,4394
313.16832641418534,4382
315.5526943440269,4270
317.9364051270112,4208
320.3194589697242,4226
322.70185607883093,4197
325.0835966610754,4164
327.4646809232805,4092
329.8451090723478,4075
332.2248813152577,4139
334.6039978590701,4094
336.9824589109231,4115
339.36026467803447,4163
341.7374153677,4021
344.113911187295,4015
346.48975234427337,3980
348.8649390461686,4187
351.2394715005918,4236
353.61334991523415,3977
355.9865744978655,4067
358.35914545633375,4052
360.73106299856715,4180
363.10232733257146,4063
365.47293866643247,4107
367.84289720831396,4012
370.2122031664593,3943
372.5808567491905,3979
374.9488581649083,3870
377.31620762209275,3932
379.6829053293021,3909
382.0489514951745,3908
384.4143463284262,3773
386.7790900378528,3865
389.14318283232853,3872
391.50662492080653,3915
393.86941651231916,3902
396.23155781597745,3899
398.5930490409713,3860
400.9538903965696,3861
403.3140820921202,3941
405.6736243370498,3800
408.03251734086336,3845
410.3907613131465,3915
412.74835646356166,3877
415.10530300185144,3941
417.4616011378372,3815
419.81725108141893,3855
422.1722530425758,3801
424.5266072313656,4004
426.880313857925,3854
429.2333731324701,3944
431.58578526529516,3956
433.9375504667738,3810
436.2886689473588,3850
438.63914091758113,3990
440.9889665880513,3975
443.33814616945835,3921
445.68667987257015,3793
448.03456790823395,3861
450.3818104873759,3812
452.72840782100013,3839
455.07436012019105,3913
457.41966759611057,3831
459.7643304600007,3741
462.10834892318155,3901
464.4517231970525,3887
466.79445349309174,3891
469.1365400228566,3935
471.4779829979826,3886
473.81878263018564,3983
476.15893913125876,4005
478.4984527130747,4100
480.8373235875855,4071
483.17555196682144,4144
485.5131380628919,4222
487.8500820879857,4403
490.1863842543697,4579
492.52204477439034,4745
494.8570638604725,5107
497.1914417251204,5488
499.52517858091653,5617
501.85827464052306,5860
504.19073011668036,5619
506.5225452222086,5466
508.85372017000566,5262
511.18425517304956,5383
513.514150444396,5813
515.8434061971808,7022
518.1720226446176,8177
520.4999999999999,8385
522.8273384766991,8078
525.1540382881666,7791
527.480099647932,7113
529.8055227696037,6180
532.1303078668694,5068
534.454455153496,4493
536.777964843328,4301
539.1008371502907,4186
541.4230722883866,4063
543.744670471698,4110
546.0656319143858,4128
548.3859568306899,4019
550.7056454349294,4103
553.0246979415016,4084
555.3431145648834,4014
557.6608955196306,3966
559.978041020377,3982
562.2945512818363,3992
564.6104265188006,4122
566.9256669461412,3951
569.2402727788082,4097
571.5542442318302,4136
573.8675815203156,4112
576.1802848594508,4206
578.4923544645015,4102
580.8037905508126,4100
583.114593333807,4223
585.4247630289875,4133
587.7342998519354,4223
590.0432040183106,4228
592.3514757438526,4148
594.6591152443794,4211
596.9661227357875,4212
599.2724984340531,4141
601.578242555231,4084
603.8833553154542,4044
606.1878369309362,4075
608.4916876179676,4026
610.7949075929192,4195
613.0974970722403,4076
615.3994562724587,4214
617.7007854101818,4088
620.0014847020951,3975
622.3015543649641,4034
624.6009946156324,4174
626.8998056710224,4067
629.1979877481361,4277
631.4955410640538,4275
633.7924658359349,4112
636.0887622810175,4197
638.3844306166192,4192
640.6794710601358,4148
642.9738838290426,4078
645.2676691408932,4220
647.5608272133207,4041
649.853358264037,4157
652.1452625108324,4160
654.4365401715764,4229
656.7271914642178,4174
659.0172166067838,4203
661.3066158173809,4213
663.5953893141935,4243
665.8835373154867,4172
668.1710600396028,4176
670.4579577049639,4181
672.7442305300709,4202
675.0298787335033,4187
677.3149025339197,4217
679.599302150058,4172
681.8830778007342,4129
684.1662297048437,4205
686.4487580813608,4073
688.7306631493387,4093
691.0119451279091,4163
693.2926042362834,4133
695.5726406937516,4177
697.8520547196814,4245
700.1308465335215,4210
702.4090163547982,4116
704.6865644031171,4144
706.9634908981619,4093
709.2397960596965,4214
711.5154801075631,4185
713.7905432616823,4202
716.0649857420548,4159
718.3388077687592,4255
720.612009561953,4146
722.8845913418733,4080
725.1565533288352,4134
727.427895743234,4163
729.6986188055427,4325
731.9687227363137,4229
734.238207756178,4038
736.5070740858458,4178
738.7753219461066,4207
741.0429515578281,4296
743.3099631419569,4211
745.5763569195191,4185
747.8421331116193,4132
750.1072919394409,4293
752.3718336242467,4232
754.6357583873777,4108
756.8990664502545,4234
759.1617580343765,4191
761.423833361321,4183
763.6852926527457,4220
765.9461361303862,4314
768.206364016058,4265
770.4659765316536,4271
772.7249738991469,4297
774.9833563405886,4341
777.2411240781092,4240
779.4982773339183,4175
781.7548163303044,4291
784.010741289634,4248
786.2660524343538,4436
788.5207499869881,4281
790.7748341701416,4259
793.0283052064964,4315
795.2811633188143,4326
797.5334087299362,4342
799.7850416627813,4287
802.0360623403484,4239
804.2864709857143,4171
806.5362678220353,4304
808.7854530725468,4402
811.0340269605625,4227
813.2819897094754,4253
815.5293415427581,4415
817.77608268396,4266
820.0222133567116,4253
822.2677337847211,4351
824.5126441917765,4256
826.7569448017433,4306
829.0006358385675,4405
831.2437175262731,4295
833.4861900889629,4322
835.7280537508192,4366
837.9693087361026,4453
840.2099552691533,4312
842.4499935743896,4278
844.689423876309,4360
846.9282463994886,4292
849.1664613685833,4299
851.4040690083276,4289
853.6410695435349,4429
855.877463199097,4287
858.1132501999847,4367
860.3484307712487,4312
862.5830051380175,4343
864.8169735254988,4451
867.0503361589791,4434
869.2830932638243,4392
871.5152450654786,4243
873.7467917894654,4530
875.9777336613873,4443
878.2080709069252,4520
880.4378037518389,4399
882.666932421968,4425
884.8954571432301,4488
887.1233781416219,4493
889.3506956432192,4566
891.5774098741766,4524
893.803521060728,4560
896.0290294291852,4458
898.2539352059397,4475
900.4782386174619,4423
902.7019398903011,4439
904.925039251085,4439
907.147536926521,4549
909.3694331433943,4511
911.59072812857,4451
913.8114221089921,4372
916.0315153116827,4357
918.2510079637437,4395
920.4699002923547,4503
922.6881925247761,4388
924.905884888345,4420
927.1229776104793,4467
929.3394709186747,4319
931.555365040506,4404
933.7706602036275,4420
935.9853566357709,4431
938.1994545647489,4501
940.4129542184515,4420
942.6258558248488,4459
944.8381596119883,4578
947.0498658079974,4209
949.2609746410825,4539
951.4714863395287,4447
953.6814011316998,4501
955.8907192460387,4433
958.0994409110671,4356
960.3075663553858,4453
962.5150958076741,4393
964.7220294966913,4372
966.928367651274,4382
969.1341105003388,4398
971.3392582728806,4385
973.5438111979742,4315
975.747769504772,4303
977.9511334225061,4399
980.153903180487,4326
982.3560790081052,4374
984.5576611348289,4431
986.7586497902058,4316
988.9590452038618,4334
991.158847605503,4241
993.3580572249133,4285
995.5566742919558,4198
997.7546990365728,4178
999.952131688785,4233
1002.1489724786926,4101
1004.3452216364743,4172
1006.5408793923874,4052
1008.7359459767691,4140
1010.9304216200343,4055
1013.1243065526781,4071
1015.3176010052733,4057
1017.510305208472,4027
1019.7024193930064,3989
1021.8939437896848,4141
1024.0848786293977,4114
1026.2752241431122,4048
1028.4649805618747,4113
1030.6541481168115,3964
1032.842727039127,4148
1035.0307175601051,3961
1037.2181199111074,4073
1039.4049343235752,4107
1041.591161029029,4023
1043.7768002590683,3974
1045.9618522453698,4042
1048.1463172196918,4073
1050.3301954138697,4081
1052.513487059818,3994
1054.69619238953,4056
1056.8783116350783,4038
1059.0598450286152,4008
1061.2407928023704,4066
1063.4211551886528,4062
1065.6009324198508,4134
1067.780124728432,3904
1069.9587323469414,4008
1072.1367555080046,4020
1074.314194444325,4047
1076.4910493886855,3984
1078.667320573947,4070
1080.843008233051,4002
1083.0181125990161,4041
1085.1926339049414,4034
1087.3665723840027,4069
1089.5399282694575,4026
1091.7127017946405,4040
1093.8848931929647,4018
1096.0565026979243,4062
1098.2275305430899,3994
1100.3979769621128,4005
1102.567842188722,3977
1104.737126456726,3922
1106.9058300000124,3932
1109.0739530525475,3979
1111.2414958483764,3822
1113.4084586216231,3970
1115.5748416064907,3991
1117.7406450372605,4054
1119.9058691482942,4025
1122.0705141740304,4010
1124.2345803489884,4031
1126.3980679077658,4054
1128.5609770850388,4097
1130.7233081155623,4002
1132.8850612341707,3999
1135.0462366757774,4046
1137.2068346753745,4147
1139.3668554680326,4152
1141.526299288901,3964
1143.68516637321,3965
1145.8434569562655,3980
1148.001171273455,4124
1150.158309560244,4086
1152.3148720521767,3996
1154.470858984876,3999
1156.626270594044,4021
1158.7811071154629,4064
1160.9353687849912,4009
1163.089055838569,3965
1165.242168512213,4055
1167.3947070420209,3967
1169.5466716641677,4051
1171.6980626149075,4012
1173.8488801305748,3984
1175.9991244475814,3906
1178.1487958024186,3942
1180.2978944316555,3977
1182.4464205719428,3932
1184.5943744600072,3948
1186.7417563326567,3938
1188.8885664267755,3926
1191.0348049793297,4030
1193.1804722273619,4020
1195.325568407995,3955
1197.4700937584303,3964
1199.614048515948,4016
1201.7574329179074,3984
1203.900247201746,4028
1206.042491604982,4014
1208.1841663652099,3964
1210.3252717201053,4036
1212.465807907422,4001
1214.6057751649923,4037
1216.7451737307279,4102
1218.8840038426192,4203
1221.0222657387353,4015
1223.1599596572241,4183
1225.2970858363137,4122
1227.4336445143094,4151
1229.5696359295966,4174
1231.705060320639,4120
1233.8399179259786,4026
1235.9742089842384,4112
1238.107933734118,4136
1240.2410924143974,4048
1242.373685263935,4105
1244.5057125216676,4099
1246.6371744266116,4078
1248.7680712178621,4159
1250.898403134593,4099
1253.028170416058,4126
1255.1573733015875,4092
1257.2860120305932,4173
1259.4140868425648,4209
1261.54159797707,4158
1263.6685456737569,4159
1265.7949301723515,4135
1267.9207517126597,4176
1270.046010534565,4148
1272.1707068780306,4150
1274.2948409830983,4231
1276.4184130898889,4102
1278.541423438603,4221
1280.6638722695184,4300
1282.785759822993,4288
1284.9070863394636,4307
1287.0278520594447,4164
1289.1480572235314,4375
1291.2677020723963,4331
1293.3867868467923,4246
1295.5053117875495,4278
1297.623277135579,4374
1299.740683131868,4265
1301.8575300174857,4415
1303.973818033578,4427
1306.0895474213703,4322
1308.2047184221678,4379
1310.3193312773528,4353
1312.4333862283888,4437
1314.5468835168163,4417
1316.659823384255,4484
1318.7722060724045,4480
1320.8840318230418,4328
1322.9953008780249,4383
1325.1060134792888,4396
1327.2161698688478,4403
1329.3257702887959,4430
1331.4348149813054,4347
1333.5433041886276,4400
1335.6512381530933,4414
1337.7586171171101,4474
1339.8654413231675,4418
1341.9717110138317,4421
1344.0774264317488,4378
1346.1825878196432,4401
1348.2871954203192,4274
1350.3912494766587,4415
1352.4947502316231,4369
1354.5976979282532,4248
1356.7000928096686,4341
1358.8019351190665,4294
1360.9032250997243,4311
1363.0039629949988,4345
1365.1041490483235,4294
1367.2037835032133,4267
1369.3028666032606,4275
1371.401398592137,4307
1373.4993797135926,4394
1375.5968102114575,4382
1377.6936903296396,4332
1379.7900203121262,4430
1381.8858004029835,4476
1383.9810308463561,4335
1386.075711886469,4469
1388.1698437676241,4403
1390.2634267342032,4352
1392.356461030667,4323
1394.4489469015557,4402
1396.5408845914872,4367
1398.6322743451592,4384
1400.7231164073469,4305
1402.813411022907,4549
1404.903158436773,4460
1406.9923588939578,4374
1409.0810126395531,4472
1411.1691199187303,4396
1413.2566809767386,4385
1415.343696058907,4397
1417.4301654106425,4481
1419.5160892774315,4474
1421.6014679048399,4396
1423.6863015385125,4612
1425.7705904241707,4514
1427.8543348076178,4443
1429.9375349347342,4479
1432.0201910514802,4565
1434.102303403894,4473
1436.1838722380944,4471
1438.2648978002767,4452
1440.3453803367174,4506
1442.4253200937692,4518
1444.5047173178677,4623
1446.5835722555234,4774
1448.6618851533285,4655
1450.739656257952,4666
1452.8168858161434,4811
1454.8935740747306,4553
1456.96972128062,4640
1459.045327680797,4746
1461.120393522327,4666
1463.1949190523528,4730
1465.2689045180973,4784
1467.3423501668608,4812
1469.415256246024,4915
1471.4876230030463,4952
1473.559450685465,4992
1475.6307395408976,5167
1477.7014898170391,5062
1479.771701761665,5071
1481.8413756226287,5066
1483.9105116478618,5158
1485.9791100853772,5125
1488.0471711832643,5216
1490.1146951896926,5095
1492.1816823529098,5318
1494.2481329212433,5131
1496.3140471430984,5340
1498.3794252669609,5354
1500.4442675413939,5420
1502.5085742150404,5442
1504.572345536622,5468
1506.6355817549388,5561
1508.6982831188702,5483
1510.7604498773744,5597
1512.8220822794883,5608
1514.8831805743293,5724
1516.9437450110909,5730
1519.003775839048,5677
1521.0632733075522,5734
1523.1222376660367,5811
1525.1806691640113,5975
1527.2385680510652,6071
1529.2959345768668,6086
1531.3527689911643,6284
1533.4090715437833,6343
1535.4648424846291,6392
1537.5200820636855,6399
1539.5747905310159,6379
1541.6289681367616,6428
1543.6826151311434,6534
1545.7357317644614,6566
1547.7883182870937,6779
1549.8403749494987,6865
1551.8919020022113,6838
1553.9428996958477,7014
1555.9933682811015,7173
1558.0433080087469,7031
1560.0927191296346,7232
1562.1416018946961,7471
1564.1899565549415,7299
1566.2377833614592,7366
1568.2850825654164,7176
1570.3318544180606,6854
1572.3780991707158,6985
1574.423817074788,6541
1576.4690083817595,6422
1578.5136733431923,6369
1580.5578122107272,6186
1582.601425236085,5920
1584.6445126710646,5831
1586.6870747675434,5715
1588.7291117774776,5595
1590.7706239529034,5393
1592.8116115459347,5282
1594.8520748087658,5320
1596.8920139936686,5304
1598.9314293529933,5140
1600.9703211391711,5070
1603.008689604711,5018
1605.0465350022005,4958
1607.0838575843068,4924
1609.1206576037753,4813
1611.1569353134305,4794
1613.1926909661765,4783
1615.2279248149953,4822
1617.2626371129481,4737
1619.2968281131757,4725
1621.3304980688963,4749
1623.3636472334088,4725
1625.39627586009,4624
1627.428384202396,4684
1629.459972513861,4589
1631.4910410480993,4596
1633.5215900588028,4567
1635.551619799744,4621
1637.5811305247717,4563
1639.6101224878166,4640
1641.6385959428862,4502
1643.6665511440683,4559
1645.693988345528,4579
1647.7209078015112,4534
1649.7473097663405,4513
1651.7731944944203,4584
1653.7985622402307,4503
1655.823413258333,4595
1657.847747803366,4559
1659.8715661300494,4657
1661.8948684931793,4399
1663.9176551476316,4406
1665.9399263483624,4477
1667.9616823504057,4482
1669.982923408873,4477
1672.0036497789574,4497
1674.0238617159293,4524
1676.043559475138,4502
1678.0627433120121,4404
1680.081413482059,4448
1682.0995702408654,4443
1684.117213844096,4602
1686.134344547495,4438
1688.1509626068864,4540
1690.1670682781705,4504
1692.182661817329,4415
1694.1977434804217,4354
1696.2123135235875,4523
1698.226372203043,4543
1700.2399197750851,4506
1702.2529564960905,4479
1704.2654826225112,4609
1706.277498410882,4415
1708.2890041178139,4620
1710.2999999999988,4488
1712.3104863142066,4502
1714.3204633172854,4524
1716.329931266163,4486
1718.3388904178469,4567
1720.3473410294214,4609
1722.3552833580516,4601
1724.3627176609807,4425
1726.3696441955308,4511
1728.3760632191033,4398
1730.3819749891782,4517
1732.3873797633146,4411
1734.3922777991502,4415
1736.3966693544012,4431
1738.4005546868639,4532
1740.4039340544127,4413
1742.406807715001,4522
1744.4091759266616,4514
1746.4110389475054,4587
1748.4123970357223,4480
1750.413250449582,4422
1752.4135994474318,4488
1754.4134442876993,4464
1756.4127852288902,4541
1758.4116225295893,4537
1760.4099564484595,4342
1762.407787244244,4375
1764.405115175764,4464
1766.4019405019203,4438
1768.3982634816916,4448
1770.3940843741357,4343
1772.3894034383907,4477
1774.3842209336717,4325
1776.378537119274,4381
1778.372352254571,4504
1780.3656665990156,4427
1782.3584804121397,4467
1784.3507939535534,4432
1786.3426074829463,4485
1788.3339212600863,4488
1790.3247355448211,4427
1792.3150505970766,4456
1794.3048666768573,4452
1796.2941840442477,4389
1798.2830029594106,4377
1800.2713236825884,4453
1802.2591464741004,4470
1804.2464715943465,4363
1806.2332993038058,4364
1808.2196298630352,4515
1810.2054635326708,4623
1812.190800573428,4506
1814.175641246101,4515
1816.1599858115628,4486
1818.1438345307652,4458
1820.127187664738,4534
1822.1100454745924,4568
1824.092408221516,4475
1826.0742761667766,4398
1828.055649571721,4407
1830.0365286977735,4446
1832.0169138064398,4425
1833.9968051593014,4437
1835.9762030180214,4403
1837.9551076443408,4521
1839.9335193000788,4310
1841.9114382471344,4468
1843.888864747485,4432
1845.8657990631878,4400
1847.842241456378,4481
1849.8181921892697,4381
1851.7936515241558,4475
1853.7686197234098,4323
1855.7430970494815,4445
1857.7170837649014,4522
1859.6905801322787,4428
1861.6635864143004,4357
1863.6361028737338,4507
1865.608129773424,4494
1867.5796673762961,4425
1869.5507159453537,4530
1871.521275743678,4463
1873.4913470344313,4515
1875.4609300808534,4550
1877.4300251462632,4480
1879.3986324940588,4507
1881.366752387717,4470
1883.3343850907936,4521
1885.3015308669228,4468
1887.268189979819,4435
1889.2343626932739,4597
1891.2000492711595,4487
1893.1652499774254,4476
1895.1299650761011,4514
1897.0941948312952,4476
1899.0579395071945,4508
1901.0211993680641,4491
1902.98397467825,4520
1904.9462657021745,4516
1906.9080727043415,4589
1908.869395949332,4484
1910.8302357018065,4513
1912.790592226504,4490
1914.7504657882428,4566
1916.7098566519212,4491
1918.6687650825133,4450
1920.6271913450764,4520
1922.5851357047422,4513
1924.5425984267245,4407
1926.499579776314,4512
1928.4560800188833,4524
1930.4120994198802,4500
1932.367638244833,4551
1934.32269675935,4445
1936.2772752291175,4389
1938.231373919899,4521
1940.1849930975404,4521
1942.1381330279637,4490
1944.0907939771696,4632
1946.0429762112412,4471
1947.9946799963363,4535
1949.9459055986945,4592
1951.896653284633,4576
1953.8469233205478,4559
1955.7967159729142,4521
1957.7460315082863,4498
1959.6948701932974,4512
1961.6432322946594,4585
1963.5911180791632,4333
1965.5385278136787,4510
1967.4854617651545,4460
1969.4319202006182,4553
1971.377903387176,4370
1973.3234115920136,4527
1975.268445082395,4469
1977.2130041256642,4477
1979.1570889892423,4500
1981.1006999406304,4575
1983.04383724741,4524
1984.986501177238,4479
1986.928691997853,4419
1988.8704099770712,4490
1990.811655382789,4578
1992.7524284829801,4411
1994.692729545698,4447
1996.6325588390755,4471
1998.5719166313224,4549
2000.5108031907307,4507
2002.4492187856677,4487
2004.387163684583,4516
2006.3246381560011,4456
2008.2616424685298,4471
2010.1981768908527,4466
2012.1342416917332,4485
2014.069837140014,4421
2016.0049635046162,4658
2017.9396210545406,4499
2019.8738100588666,4512
2021.8075307867502,4506
2023.740783507431,4447
2025.6735684902228,4424
2027.6058860045214,4485
2029.5377363198004,4430
2031.4691197056118,4471
2033.4000364315875,4421
2035.3304867674374,4515
2037.260470982952,4477
2039.189989347998,4576
2041.1190421325232,4480
2043.047629606554,4489
2044.9757520401945,4579
2046.9034097036288,4448
2048.8306028671195,4556
2050.7573318010086,4439
2052.683596775716,4439
2054.609398061742,4428
2056.5347359296647,4513
2058.4596106501403,4597
2060.384022493906,4468
2062.3079717317764,4563
2064.231458634646,4521
2066.1544834734873,4522
2068.077046519352,4577
2069.99914804337,4403
2071.9207883167524,4502
2073.8419676107865,4534
2075.7626861968406,4556
2077.6829443463607,4476
2079.6027423308715,4521
2081.522080421977,4656
2083.440958891362,4542
2085.359378010786,4567
2087.2773380520907,4587
2089.194839287196,4515
2091.111881988101,4521
2093.0284664268825,4616
2094.9445928756973,4612
2096.86026160678,4616
2098.775472892446,4638
2100.690227005088,4503
2102.604524217178,4498
2104.5183648012676,4616
2106.431749029985,4671
2108.34467717604,4601
2110.2571495122206,4490
2112.169166311393,4492
2114.080727846503,4551
2115.9918343905747,4581
2117.902486216711,4570
2119.8126835980956,4531
2121.722426807987,4516
2123.6317161197285,4486
2125.5405518067364,4582
2127.448934142509,4552
2129.356863400624,4558
2131.264339854737,4583
2133.1713637785815,4571
2135.077935445972,4543
2136.9840551308002,4603
2138.889723107037,4659
2140.7949396487334,4605
2142.699705030018,4703
2144.6040195250994,4632
2146.507883408264,4644
2148.4112969538774,4756
2150.3142604363848,4620
2152.2167741303097,4721
2154.1188383102535,4680
2156.0204532508997,4778
2157.9216192270064,4710
2159.822336513414,4626
2161.7226053850413,4602
2163.622426116884,4655
2165.5217989840185,4718
2167.4207242616,4743
2169.319202224862,4677
2171.2172331491165,4640
2173.1148173097563,4745
2175.0119549822507,4730
2176.90864644215,4745
2178.8048919650823,4701
2180.7006918267534,4638
2182.596046302952,4861
2184.4909556695407,4649
2186.3854202024645,4748
2188.279440177746,4707
2190.173015871487,4727
2192.066147559868,4640
2193.958835519149,4753
2195.851080025667,4749
2197.7428813558417,4746
2199.6342397861667,4768
2201.5251555932186,4772
2203.415629053651,4792
2205.3056604441986,4785
2207.19525004167,4678
2209.084398122958,4859
2210.9731049650327,4814
2212.861370844941,4868
2214.749196039812,4763
2216.636580826851,4887
2218.523525483344,4901
2220.410030286655,4798
2222.296095514226,4860
2224.1817214435805,4813
2226.066908352319,4894
2227.951656518121,4872
2229.835966218746,4765
2231.71983773203,4860
2233.6032713358913,4924
2235.486267308324,4791
2237.3688259274036,4781
2239.2509474712824,4872
2241.132632218193,4819
2243.013880446447,4794
2244.8946924344323,4758
2246.7750684606203,4832
2248.6550088035574,4891
2250.534513741871,4822
2252.413583554265,4927
2254.292218519526,4912
2256.170418916517,4755
2258.0481850241786,4810
2259.925517121534,4862
2261.8024154876825,4875
2263.678880401803,4890
2265.5549121431536,4776
2267.430510991071,4729
2269.305677224971,4872
2271.180411124348,4871
2273.0547129687766,4840
2274.9285830379076,4799
2276.8020216114737,4698
2278.6750289692845,4855
2280.5476053912294,4730
2282.4197511572766,4764
2284.2914665474727,4800
2286.162751841943,4771
2288.0336073208937,4784
2289.904033264608,4849
2291.774029953448,4771
2293.6435976678554,4831
2295.5127366883517,4876
2297.381447295534,4812
2299.2497297700825,4776
2301.1175843927526,4586
2302.9850114443825,4614
2304.852011205885,4707
2306.7185839582553,4588
2308.5847299825664,4714
2310.4504495599676,4580
2312.3157429716925,4597
2314.1806104990483,4543
2316.0450524234247,4617
2317.9090690262888,4461
2319.772660589186,4561
2321.635827393742,4560
2323.498569721661,4633
2325.3608878547248,4620
2327.2227820747967,4594
2329.0842526638157,4625
2330.945299903803,4558
2332.805924076857,4619
2334.6661254651535,4569
2336.525904350951,4557
2338.3852610165827,4668
2340.244195744464,4590
2342.102708817088,4615
2343.9608005170253,4533
2345.8184711269287,4624
2347.675720929526,4634
2349.532550207628,4610
2351.38895924412,4611
2353.24494832197,4457
2355.100517724223,4619
2356.955667734004,4670
2358.810398634514,4524
2360.664710709037,4741
2362.5186042409337,4578
2364.3720795136437,4628
2366.225136810686,4552
2368.0777764156583,4514
2369.929998612237,4660
2371.7818036841777,4516
2373.633191915315,4806
2375.484163589562,4606
2377.3347189909114,4535
2379.184858403434,4627
2381.03458211128,4650
2382.8838903986775,4652
2384.732783549936,4534
2386.5812618494406,4668
2388.4293255816588,4754
2390.2769750311327,4664
2392.1242104824883,4673
2393.971032220427,4519
2395.8174405297295,4815
2397.6634356952563,4580
2399.509018001947,4640
2401.3541877348193,4581
2403.1989451789705,4571
2405.043290619576,4648
2406.8872243418905,4621
2408.730746631247,4665
2410.5738577730594,4544
2412.4165580528183,4573
2414.258847756095,4544
2416.100727168537,4605
2417.9421965758734,4597
2419.783256263912,4569
2421.623906518538,4680
2423.4641476257157,4680
2425.303979871491,4609
2427.143403541984,4665
2428.9824189233977,4593
2430.821026302012,4576
2432.6592259641866,4602
2434.497018196361,4753
2436.33440328505,4643
2438.171381516851,4683
2440.00795317844,4673
2441.844118556569,4668
2443.6798779380724,4597
2445.5152316098606,4583
2447.3501798589255,4762
2449.1847229723357,4616
2451.0188612372403,4708
2452.8525949408663,4690
2454.6859243705203,4693
2456.518849813587,4534
2458.3513715575314,4707
2460.183489889895,4712
2462.015205098301,4666
2463.8465174704493,4659
2465.67742729412,4639
2467.5079348571717,4701
2469.338040447542,4755
2471.1677443532476,4655
2472.9970468623833,4667
2474.825948263123,4790
2476.6544488437207,4645
2478.482548892508,4635
2480.310248697896,4761
2482.137548548374,4776
2483.9644487325118,4684
2485.790949538956,4791
2487.617051256433,4739
2489.44275417375,4785
2491.26805857979,4634
2493.0929647635157,4734
2494.917473013971,4707
2496.741583620276,4786
2498.5652968716304,4738
2500.3886130573137,4769
2502.2115324666834,4732
2504.0340553891765,4696
2505.856182114308,4730
2507.6779129316733,4748
2509.499248130945,4784
2511.3201880018764,4754
2513.140732834298,4845
2514.9608829181198,4785
2516.780638543331,4601
2518.6,4727
2520.418967578273,4715
2522.237541568376,4721
2524.0557222606144,4849
2525.8735099453706,4840
2527.6909049131086,4775
2529.507907454368,4814
2531.32451785977,4775
2533.140736420014,4813
2534.9565634258774,4706
2536.771999168218,4769
2538.5870439379714,4821
2540.4016980261526,4918
2542.2159617238544,4844
2544.02983532225,4772
2545.8433191125914,4834
2547.656413386209,4819
2549.4691184345115,4808
2551.2814345489874,4867
2553.093362021204,4878
2554.904901142808,4887
2556.716052205523,4899
2558.526815501153,4895
2560.3371913215824,4838
2562.147179958771,4831
2563.956781704761,4976
2565.7659968516705,4934
2567.5748256916986,4862
2569.3832685171224,5026
2571.1913256202984,4827
2572.9989972936614,4970
2574.806283829725,4953
2576.613185521084,5039
2578.4197026604074,4957
2580.2258355404483,4966
2582.031584454035,4950
2583.836949694077,5038
2585.6419315535613,4919
2587.4465303255533,5055
2589.2507463032002,5020
2591.0545797797245,5012
2592.8580310484303,5040
2594.6611004026995,5045
2596.463788135992,5100
2598.266094541849,5021
2600.0680199138874,5087
2601.869564545807,5099
2603.670728731383,5126
2605.4715127644704,5019
2607.2719169390048,5053
2609.071941548998,5032
2610.8715868885433,5023
2612.670853251811,5007
2614.469740933052,5143
2616.268250226594,5128
2618.0663814268455,5172
2619.864134828292,5147
2621.6615107255006,5127
2623.458509413115,5079
2625.2551311858597,5132
2627.0513763385347,5051
2628.8472451660223,5034
2630.6427379632833,5042
2632.4378550253564,5094
2634.232596647359,5043
2636.026963124488,5051
2637.8209547520187,5058
2639.6145718253065,4976
2641.407814639785,5004
2643.200683490966,4984
2644.9931786744414,4959
2646.7853004858807,5037
2648.577049221034,4971
2650.3684251757277,5103
2652.1594286458712,4828
2653.9500599274484,4909
2655.740319316525,4955
2657.5302071092437,4880
2659.3197236018286,4989
2661.10886909058,4901
2662.8976438718782,4934
2664.686048242183,4818
2666.4740824980327,4836
2668.2617469360443,4904
2670.0490418529134,4908
2671.8359675454153,4894
2673.622524310403,4872
2675.408712444811,4907
2677.1945322456495,4928
2678.979984010009,4888
2680.76506803506,4806
2682.5497846180497,4943
2684.334134056306,4839
2686.1181166472343,4826
2687.9017326883213,4810
2689.6849824771293,4785
2691.4678663113013,4855
2693.2503844885596,4860
2695.032537306705,4794
2696.8143250636167,4721
2698.5957480572542,4755
2700.3768065856534,4802
2702.1575009469316,4806
2703.937831439283,4869
2705.717798360982,4859
2707.4974020103837,4796
2709.276642685917,4759
2711.055520686095,4780
2712.834036309506,4842
2714.612189854819,4733
2716.389981620782,4778
2718.1674119062204,4689
2719.944481010041,4835
2721.721189231226,4774
2723.4975368688415,4823
2725.273524222027,4843
2727.0491515900053,4815
2728.824419272075,4777
2730.5993275676146,4670
2732.3738767760838,4785
2734.148067197016,4587
2735.921899130031,4748
2737.6953728748194,4795
2739.468488731156,4790
2741.2412469988926,4757
2743.0136479779617,4671
2744.785691968372,4817
2746.5573792702116,4713
2748.3287101836504,4833
2750.099685008934,4703
2751.870304046388,4735
2753.640567596418,4719
2755.4104759595057,4735
2757.1800294362156,4761
2758.949228327187,4814
2760.7180729331412,4850
2762.486563554877,4780
2764.254700493272,4771
2766.022484049284,4821
2767.789914523947,4701
2769.5569922183786,4724
2771.3237174337705,4665
2773.090090471394,4778
2774.8561116326036,4706
2776.6217812188274,4697
2778.3870995315756,4719
2780.1520668724356,4646
2781.9166835430747,4808
2783.6809498452394,4725
2785.444866080754,4913
2787.2084325515225,4652
2788.971649559527,4787
2790.73451740683,4775
2792.4970363955713,4751
2794.2592068279705,4789
2796.0210290063264,4815
2797.7825032330147,4943
2799.543629810493,4843
2801.304409041296,4655
2803.0648412280366,4779
2804.8249266734088,4718
2806.5846656801846,4824
2808.344058551212,4843
2810.1031055894246,4729
2811.8618070978273,4899
2813.6201633795085,4748
2815.378174737636,4671
2817.1358414754536,4771
2818.893163896285,4831
2820.6501423035334,4700
2822.4067770006814,4830
2824.1630682912883,4779
2825.9190164789957,4806
2827.6746218675207,4798
2829.429884760661,4731
2831.184805462294,4911
2832.9393842763743,4936
2834.693621506936,4849
2836.4475174580916,4790
2838.201072434034,4847
2839.954286739034,4655
2841.707160677441,4789
2843.459694553685,4790
2845.2118886722724,4775
2846.96374333779,4747
2848.7152588549034,4761
2850.4664355283567,4907
2852.217273662973,4748
2853.9677735636546,4885
2855.7179355353833,4837
2857.4677598832186,4746
2859.217246912299,4771
2860.9663969278427,4820
2862.715210235146,4872
2864.4636871395846,4856
2866.211827946614,4738
2867.9596329617652,4778
2869.7071024906536,4857
2871.4542368389684,4717
2873.20103631248,4818
2874.947501217038,4897
2876.6936318585695,4845
2878.4394285430812,4802
2880.1848915766604,4805
2881.9300212654707,4778
2883.6748179157553,4788
2885.4192818338374,4840
2887.1634133261173,4776
2888.907212699077,4818
2890.6506802592744,4811
2892.393816313348,4800
2894.1366211680142,4833
2895.8790951300693,4786
2897.621238506388,4828
2899.363051603925,4860
2901.1045347297118,4863
2902.8456881908596,4689
2904.58651229456,4808
2906.327007348081,4802
2908.067173658772,4766
2909.8070115340597,4725
2911.5465212814497,4783
2913.285703208527,4760
2915.0245576229563,4763
2916.7630848324807,4751
2918.5012851449196,4752
2920.2391588681758,4774
2921.976706310227,4842
2923.7139277791334,4719
2925.4508235830313,4710
2927.187394030137,4733
2928.923639428745,4716
2930.6595600872306,4661
2932.395156314046,4747
2934.1304284177218,4849
2935.8653767068713,4845
2937.6000014901815,4817
2939.3343030764227,4878
2941.068281774442,4875
2942.8019378931644,4799
2944.5352717415976,4864
2946.2682836288236,4863
2948.0009738640065,4898
2949.7333427563885,4983
2951.465390615289,4938
2953.1971177501086,4811
2954.9285244703265,4859
2956.6596110855,4860
2958.3903779052657,4801
2960.1208252393385,4755
2961.8509533975125,4710
2963.5807626896617,4848
2965.3102534257378,4898
2967.0394259157715,4870
2968.768280469873,4845
2970.496817398232,4815
2972.2250370111146,4889
2973.952939618869,4793
2975.6805255319196,4953
2977.4077950607707,4878
2979.134748516006,4881
2980.861386208289,4909
2982.587708448359,4810
2984.313715547037,4854
2986.039407815222,5047
2987.764785563891,4973
2989.489849104102,4866
2991.2145987469908,4996
2992.9390348037705,4896
2994.6631575857346,4937
2996.3869674042576,4860
2998.1104645707887,4949
2999.83364939686,4849
3001.5565221940783,4840
3003.2790832741334,4855
3005.0013329487924,4901
3006.7232715298996,4958
3008.4448993293804,4699
3010.166216659239,4777
3011.887223831558,4720
3013.607921158498,4890
3015.3283089522993,4841
3017.0483875252826,4762
3018.7681571898443,4812
3020.4876182584626,4854
3022.2067710436927,4778
3023.9256158581707,4912
3025.644153014609,4993
3027.362382825801,4868
3029.0803056046193,4882
3030.797921664012,4959
3032.5152313170106,4964
3034.2322348767225,4861
3035.9489326563353,4851
3037.665324969115,4879
3039.3814121284063,4783
3041.097194447633,4831
3042.812672240299,4872
3044.5278458199855,4928
3046.2427155003525,4863
3047.9572815951406,4832
3049.671544418167,4828
3051.38550428333,4940
3053.0991615046073,4960
3054.812516396051,4953
3056.5255692717974,4747
3058.2383204460575,4834
3059.9507702331257,4763
3061.662918947372,4796
3063.3747669032446,4871
3065.0863144152736,4931
3066.7975617980674,4875
3068.508509366309,4781
3070.219157434767,4870
3071.9295063182844,4951
3073.639556331785,4907
3075.3493077902704,4895
3077.058761008821,4993
3078.7679163025964,5006
3080.476773986837,4836
3082.1853343768594,5007
3083.89359778806,4897
3085.6015645359153,4854
3087.3092349359786,4882
3089.016609303884,4856
3090.7236879553434,4916
3092.4304712061476,4863
3094.136959372166,4999
3095.843152769349,4966
3097.5490517137237,4820
3099.2546565213966,4850
3100.959967508554,4812
3102.66498499146,4729
3104.3697092864577,4888
3106.0741407099695,4873
3107.778279578498,4862
3109.482126208622,4854
3111.1856809170004,4934
3112.8889440203716,5026
3114.5919158355528,4959
3116.294596679439,4952
3117.996986869006,4946
3119.6990867213062,5029
3121.4008965534726,4931
3123.102416682717,5155
3124.803647426329,4919
3126.5045891016784,4941
3128.205242026213,5022
3129.90560651746,4980
3131.605682893025,4935
3133.3054714705922,4996
3135.0049725679282,4977
3136.7041865028714,4955
3138.4031135933465,4922
3140.101754157353,4932
3141.800108512971,5062
3143.498176978357,4898
3145.1959598717494,4964
3146.8934575114636,4998
3148.5906702158954,4976
3150.2875983035183,4848
3151.9842420928853,4874
3153.680601902627,4982
3155.376678051456,4975
3157.07247085816,4931
3158.767980641609,4839
3160.463207720748,4927
3162.158152414606,4904
3163.8528150422862,4880
3165.5471959229726,4821
3167.2412953759303,5032
3168.9351137204976,4976
3170.628651276098,4962
3172.3219083622307,4965
3174.014885298474,5066
3175.707582404485,5003
3177.4000000000005,5072
3179.092138404835,5037
3180.7839979388846,5036
3182.47557892212,5003
3184.166881674594,5000
3185.8579065164386,5019
3187.5486537678626,4920
3189.2391237491547,4962
3190.9293167806827,4983
3192.6192331828934,4972
3194.3088732763117,5019
3195.998237381542,5026
3197.687325819268,4847
3199.376138910251,4910
3201.064676975334,5029
3202.7529403354347,5084
3204.4409293115523,5023
3206.1286442247647,4842
3207.816085396229,4931
3209.5032531471825,4960
3211.190147798936,4905
3212.8767696728846,4889
3214.5631190905015,4875
3216.2491963733373,4815
3217.9350018430214,4803
3219.6205358212637,4928
3221.305798629851,4865
3222.990790590651,4801
3224.6755120256103,4914
3226.359963256751,4835
3228.0441446061795,4910
3229.7280563960758,4914
3231.411698948703,4876
3233.0950725863995,4904
3234.778177631587,4932
3236.461014406761,4972
3238.1435832345005,5145
3239.8258844374595,5056
3241.507918338374,4927
3243.1896852600576,4927
3244.8711855254023,5029
3246.552419457381,5091
3248.233387379042,5043
3249.914089613516,5003
3251.59452648401,5078
3253.274698313813,5007
3254.95460542629,4924
3256.6342481448855,4856
3258.313626793125,4869
3259.9927416946084,5103
3261.6715931730196,4863
3263.3501815521176,4883
3265.0285071557437,4950
3266.706570307815,4896
3268.3843713323286,4884
3270.0619105533615,4873
3271.739188295068,4854
3273.4162048816834,4909
3275.0929606375184,4985
3276.769455886966,5079
3278.445690954498,5003
3280.1216661646613,4941
3281.797381842087,4931
3283.4728383114807,5117
3285.1480358976296,4913
3286.8229749253996,4951
3288.4976557197333,4861
3290.172078605655,4972
3291.846243908266,4929
3293.5201519527463,4923
3295.193803064357,4969
3296.8671975684374,4919
3298.5403357904024,4813
3300.21321805575,4856
3301.8858446900567,4880
3303.558216018975,4960
3305.23033236824,4917
3306.9021940636603,5050
3308.57380143113,4973
3310.2451547966184,5024
3311.916254486174,5023
3313.5871008259246,4906
3315.2576941420766,4876
3316.9280347609147,5032
3318.5981230088046,4995
3320.2679592121895,5009
3321.9375436975924,4865
3323.606876791612,4880
3325.27595882093,4963
3326.944790112305,4928
3328.6133709925753,4834
3330.2817017886573,4890
3331.949782827547,5023
3333.617614436319,4986
3335.2851969421245,5075
3336.952530672199,5053
3338.619615953853,5016
3340.286453114475,5071
3341.9530424815357,5077
3343.619384382583,4963
3345.2854791452437,5098
3346.951327097224,5041
3348.6169285663073,5094
3350.2822838803577,4902
3351.947393367319,5024
3353.61225735521,5131
3355.2768761721345,5054
3356.9412501462693,4987
3358.605379605873,5093
3360.2692648792827,5077
3361.9329062949146,5056
3363.596304181263,4917
