CollectionTime,9/20/2024 12:51:53 PM
ExposureUsed,3
CalibratedSpectrum
-962.7078968117929,622
-959.9714848408522,663
-957.2358232597828,635
-954.5009119013725,650
-951.7667505983302,645
-949.0333391832855,711
-946.3006774887896,714
-943.5687653473143,718
-940.837602591253,754
-938.1071890529199,680
-935.3775245645503,697
-932.6486089583007,679
-929.9204420662485,697
-927.1930237203925,710
-924.4663537526524,724
-921.7404319948689,742
-919.0152582788041,727
-916.2908324361409,690
-913.5671542984834,720
-910.8442236973568,707
-908.1220404642074,664
-905.4006044304027,723
-902.679915427231,679
-899.959973285902,684
-897.2407778375464,720
-894.5223289132158,719
-891.8046263438832,733
-889.0876699604426,674
-886.3714595937089,704
-883.6559950744183,677
-880.9412762332282,741
-878.2273029007168,681
-875.5140749073835,661
-872.8015920836489,650
-870.0898542598545,665
-867.3788612662631,666
-864.6686129330585,681
-861.9591090903457,632
-859.2503495681506,680
-856.5423341964203,650
-853.8350628050229,658
-851.1285352237478,655
-848.4227512823054,658
-845.7177108103272,681
-843.0134136373656,680
-840.3098595928943,660
-837.6070485063082,639
-834.9049802069229,713
-832.2036545239757,681
-829.5030712866244,687
-826.8032303239481,725
-824.1041314649472,633
-821.4057745385428,672
-818.7081593735775,669
-816.0112857988148,655
-813.3151536429393,651
-810.6197627345566,684
-807.9251129021936,647
-805.2312039742981,677
-802.5380357792392,645
-799.8456081453069,676
-797.1539209007124,671
-794.462973873588,688
-791.772766891987,641
-789.083299783884,713
-786.3945723771743,691
-783.7065844996748,687
-781.0193359791231,675
-778.3328266431781,715
-775.6470563194197,679
-772.9620248353489,696
-770.2777320183878,677
-767.5941776958798,689
-764.9113616950891,715
-762.2292838432011,688
-759.5479439673222,725
-756.8673418944801,650
-754.1874774516235,701
-751.5083504656222,676
-748.8299607632671,692
-746.15230817127,707
-743.475392516264,700
-740.7992136248035,710
-738.1237713233636,687
-735.4490654383407,713
-732.7750957960521,710
-730.1018622227365,717
-727.4293645445534,701
-724.7576025875837,734
-722.0865761778291,719
-719.4162851412126,732
-716.7467293035781,750
-714.0779084906909,786
-711.409822528237,780
-708.7424712418238,738
-706.0758544569796,711
-703.4099719991541,745
-700.7448236937178,755
-698.0804093659622,766
-695.4167288411002,728
-692.7537819442656,708
-690.0915685005134,695
-687.4300883348199,746
-684.7693412720819,792
-682.1093271371178,770
-679.4500457546669,770
-676.7914969493897,780
-674.1336805458676,740
-671.4765963686034,735
-668.8202442420206,755
-666.1646239904642,786
-663.5097354382001,788
-660.8555784094151,775
-658.2021527282176,800
-655.5494582186366,779
-652.8974947046223,746
-650.2462620100463,797
-647.5957599587009,732
-644.9459883742998,829
-642.2969470804776,776
-639.6486359007902,837
-637.0010546587141,826
-634.3542031776476,804
-631.7080812809096,821
-629.0626887917401,799
-626.4180255333008,844
-623.7740913286734,833
-621.1308860008619,831
-618.4884093727904,829
-615.8466612673046,836
-613.2056415071715,781
-610.5653499150785,808
-607.9257863136347,865
-605.28695052537,881
-602.6488423727357,864
-600.0114616781036,829
-597.3748082637674,796
-594.7388819519412,889
-592.1036825647604,849
-589.4692099242818,835
-586.8354638524829,871
-584.2024441712624,843
-581.5701507024403,865
-578.9385832677575,927
-576.3077416888759,872
-573.6776257873787,854
-571.0482353847704,859
-568.4195703024757,817
-565.7916303618415,851
-563.164415384135,821
-560.5379251905453,849
-557.9121596021815,890
-555.2871184400748,868
-552.6628015251767,857
-550.0392086783606,872
-547.4163397204204,900
-544.794194472071,915
-542.1727727539491,920
-539.5520743866118,890
-536.9320991905377,960
-534.3128469861261,1003
-531.6943175936979,1018
-529.0765108334947,981
-526.4594265256793,1090
-523.8430644903358,1256
-521.2274245474689,1456
-518.612506517005,1522
-515.9983102187913,1495
-513.3848354725959,1538
-510.77208209810846,1522
-508.16004991493924,1565
-505.5487387426199,1651
-502.9381484006032,1740
-500.3282787082628,1924
-497.71912948489364,2093
-495.1107005497117,1992
-492.5029917218539,1960
-489.8960028203786,1840
-487.28973366426493,1634
-484.68418407241325,1396
-482.07935386364494,1333
-479.47524285670266,1233
-476.87185087025,1149
-474.2691777228715,1241
-471.66722323307334,1169
-469.0659872192821,1202
-466.4654694998459,1168
-463.86566989303384,1100
-461.26658821703614,1068
-458.66822428996414,1104
-456.07057792985,1189
-453.4736489546475,1155
-450.877437182231,1106
-448.28194243039627,1124
-445.68716451686,1019
-443.09310325926003,1083
-440.49975847515555,1131
-437.9071299820263,1033
-435.31521759727354,1054
-432.72402113821954,1099
-430.13354042210767,1066
-427.5437752661022,1084
-424.95472548728867,1047
-422.36639090267386,1081
-419.7787713291855,1114
-417.1918665836721,1124
-414.60567648290385,1165
-412.0202008435715,1136
-409.4354394822874,1134
-406.8513922155845,1169
-404.26805885991723,1184
-401.685439231661,1184
-399.103533147112,1210
-396.522340422488,1122
-393.9418608739278,1087
-391.3620943174908,1145
-388.7830405691583,1107
-386.2046994448317,1068
-383.6270707603344,991
-381.05015433141045,1023
-378.473949973725,1035
-375.8984575028645,940
-373.32367673433623,871
-370.74960748356875,839
-368.1762495659117,768
-365.60360279663576,707
-363.03166699093265,656
-360.4604419639154,646
-357.8899275306178,595
-355.32012350599507,566
-352.7510297049233,572
-350.1826459421999,598
-347.61497203254316,594
-345.04800779059235,586
-342.4817530309082,576
-339.91620756797226,625
-337.35137121618743,595
-334.7872437898774,542
-332.22382510328725,528
-329.66111497058273,542
-327.09911320585127,523
-324.53781962310075,560
-321.9772340362607,524
-319.4173562591816,532
-316.8581861056348,594
-314.2997233893127,606
-311.7419679238294,605
-309.1849195227194,584
-306.62857799943856,632
-304.0729431673641,593
-301.51801483979375,646
-298.963792829947,617
-296.41027695096386,564
-293.85746701590574,606
-291.3053628377552,650
-288.7539642294155,706
-286.2032710037115,693
-283.65328297338897,666
-281.1039999511146,658
-278.5554217494762,680
-276.007548180983,688
-273.4603790580651,690
-270.9139141930734,706
-268.3681533982807,774
-265.8230964858798,768
-263.27874326798565,734
-260.7350935566336,763
-258.1921471637804,842
-255.6499039013039,934
-253.10836358100266,875
-250.56752601459698,807
-248.02739101372765,864
-245.48795838995704,847
-242.94922795476816,817
-240.41119951956557,839
-237.8738728956746,812
-235.33724789434166,889
-232.80132432673452,845
-230.2661020039418,841
-227.73158073697357,949
-225.19776033676033,1004
-222.66464061415422,998
-220.1322213799284,985
-217.60050244477725,962
-215.06948361931552,990
-212.53916471408013,1066
-210.00954553952818,957
-207.48062590603843,904
-204.9524056239104,869
-202.4248845033651,996
-199.8980623545441,1095
-197.37193898751036,1086
-194.84651421224817,1083
-192.32178783866232,1023
-189.79775967657952,1037
-187.27442953574644,1083
-184.7517972258321,1089
-182.2298625564256,902
-179.7086253370378,913
-177.18808537710026,1066
-174.66824248596583,1192
-172.14909647290835,1274
-169.6306471471229,1151
-167.11289431772548,1054
-164.59583779375328,1110
-162.07947738416453,1407
-159.5638128978386,1656
-157.04884414357605,1604
-154.53457093009854,1705
-152.02099306604828,1309
-149.50811035998936,1254
-146.99592262040665,1307
-144.48442965570587,1575
-141.97363127421409,1694
-139.46352728417958,1616
-136.95411749377126,1706
-134.44540171107985,1540
-131.93737974411636,1272
-129.43005140081357,1408
-126.92341648902493,1740
-124.41747481652521,1942
-121.91222619101006,2210
-119.40767042009657,2854
-116.90380731132257,2979
-114.40063667214702,3868
-111.8981583099503,5035
-109.3963720320337,6820
-106.89527764561933,8296
-104.39487495785067,9528
-101.89516377579241,12298
-99.39614390642998,17586
-96.89781515667039,23406
-94.40017733334128,26518
-91.90323024319173,25622
-89.40697369289148,17888
-86.91140748903172,9613
-84.41653143812482,7969
-81.92234534660395,10794
-79.42884902082358,15552
-76.93604226705907,18563
-74.4439248915071,18410
-71.95249670028534,16105
-69.46175749943245,10726
-66.97170709490854,7199
-64.48234529259423,7107
-61.99367189829195,8985
-59.50568671772464,9636
-57.01838955653636,13424
-54.53178022029283,17403
-52.045858514480074,19041
-49.560624244506016,18711
-47.07607721569923,19208
-44.59221723330904,18446
-42.10904410250669,18482
-39.62655762838392,16369
-37.14475761595372,16982
-34.66364387015028,17159
-32.18321619582866,16262
-29.70347439776515,18437
-27.224418280657005,20718
-24.74604764912317,26357
-22.26836230770266,44283
-19.7913620608565,65034
-17.315046712966478,65034
-14.83941606833514,65034
-12.36446993118659,65034
-9.89020810566592,65034
-7.416630395839093,65034
-4.94373660569363,65034
-2.471526539137585,65034
-6.821210263296962E-13,65034
2.47084320796705,65034
4.941003281093458,65034
7.410480415786196,65034
9.879274808531363,65034
12.347386655893956,65034
14.814816154518212,65034
17.28156350112681,65034
19.74762889252179,65034
22.21301252558385,27726
24.67771459727237,7975
27.141735304626195,6627
29.605074844762612,6379
32.06773341487792,5553
34.52971121224755,5142
36.99100843422559,4620
39.45162527824516,4701
41.91156194181792,4870
44.370818622535126,4210
46.82939551806646,3325
49.287292826160524,4502
51.74451074464503,5072
54.201049471426245,4245
56.65690920448981,3393
59.112090141899785,2350
61.56659248179983,3034
64.02041642241159,2990
66.4735621620365,2898
68.92602989905402,3149
71.37781983192338,3222
73.82893215918205,2738
76.27936707944684,1969
78.72912479141326,2214
81.17820549385567,2027
83.62660938562783,1729
86.07433666566146,1727
88.5213875329681,1910
90.96776218663751,2267
93.41346082583925,2153
95.85848364982041,2427
98.30283085790859,2170
100.7465026495089,1750
103.18949922410604,1665
105.63182078126385,1502
108.07346752062438,1652
110.51443964190923,1611
112.95473734491827,1671
115.39436082953114,1490
117.83331029570547,1383
120.27158594347827,1515
122.7091879729652,1467
125.1461165843615,1553
127.58237197794062,1393
130.01795435405518,1320
132.4528639131364,1505
134.88710085569494,1519
137.32066538231982,1548
139.75355769367923,1488
142.1857779905207,1290
144.61732647366978,1203
147.04820334403132,1273
149.47840880258934,1450
151.90794305040674,1514
154.33680628862487,1538
156.76499871846443,1549
159.19252054122433,1746
161.61937195828352,1883
164.04555317109896,1909
166.47106438120693,2215
168.89590579022217,2385
171.320077599839,2651
173.7435800118302,2842
176.16641322804742,3040
178.58857745042144,3104
181.01007288096173,3123
183.43089972175687,3117
185.85105817497413,3063
188.27054844285988,3044
190.6893707277394,3087
193.10752523201643,3230
195.5250121581745,3369
197.9418317087751,3389
200.3579840864594,3213
202.7734694939469,3416
205.18828813403627,3595
207.6024402096051,3441
210.01592592360964,3379
212.42874547908548,3467
214.84089907914665,3391
217.2523869269868,3266
219.66320922587727,3362
222.0733661791695,3315
224.48285799029293,3249
226.8916848627572,3291
229.29984700014882,3471
231.7073446061355,3307
234.11417788446204,3313
236.520347038953,3418
238.92585227351185,3449
241.33069379212054,3370
243.73487179884035,3571
246.1383864978112,3555
248.541238093252,3583
250.9434267894609,3451
253.34495279081432,3439
255.74581630176783,3444
258.1460175268563,3442
260.54555667069314,3492
262.9444339379703,3455
265.3426495334594,3381
267.7402036620107,3505
270.1370965285529,3366
272.53332833809407,3305
274.9288992957214,3181
277.32380960660055,3106
279.718059475976,3128
282.1116491091717,3095
284.5045787115897,3233
286.89684848871195,3183
289.2884586460981,3168
291.67940938938807,3205
294.0697009242996,3128
296.4593334566299,3112
298.84830719225477,3164
301.23662233712923,3121
303.6242790972866,2937
306.01127767884,2971
308.39761828798066,2924
310.78330113097934,2938
313.16832641418534,2926
315.5526943440269,2893
317.9364051270112,2813
320.3194589697242,2811
322.70185607883093,2839
325.0835966610754,2864
327.4646809232805,2628
329.8451090723478,2753
332.2248813152577,2712
334.6039978590701,2815
336.9824589109231,2666
339.36026467803447,2623
341.7374153677,2639
344.113911187295,2560
346.48975234427337,2661
348.8649390461686,2657
351.2394715005918,2719
353.61334991523415,2660
355.9865744978655,2633
358.35914545633375,2646
360.73106299856715,2534
363.10232733257146,2610
365.47293866643247,2518
367.84289720831396,2446
370.2122031664593,2586
372.5808567491905,2513
374.9488581649083,2448
377.31620762209275,2537
379.6829053293021,2468
382.0489514951745,2420
384.4143463284262,2466
386.7790900378528,2378
389.14318283232853,2324
391.50662492080653,2385
393.86941651231916,2427
396.23155781597745,2404
398.5930490409713,2403
400.9538903965696,2336
403.3140820921202,2350
405.6736243370498,2419
408.03251734086336,2380
410.3907613131465,2398
412.74835646356166,2329
415.10530300185144,2393
417.4616011378372,2451
419.81725108141893,2319
422.1722530425758,2408
424.5266072313656,2428
426.880313857925,2409
429.2333731324701,2390
431.58578526529516,2389
433.9375504667738,2344
436.2886689473588,2257
438.63914091758113,2329
440.9889665880513,2303
443.33814616945835,2382
445.68667987257015,2314
448.03456790823395,2198
450.3818104873759,2351
452.72840782100013,2329
455.07436012019105,2260
457.41966759611057,2272
459.7643304600007,2320
462.10834892318155,2329
464.4517231970525,2286
466.79445349309174,2319
469.1365400228566,2344
471.4779829979826,2410
473.81878263018564,2345
476.15893913125876,2382
478.4984527130747,2540
480.8373235875855,2666
483.17555196682144,2600
485.5131380628919,2779
487.8500820879857,2939
490.1863842543697,3090
492.52204477439034,3478
494.8570638604725,3655
497.1914417251204,3942
499.52517858091653,4066
501.85827464052306,4219
504.19073011668036,4178
506.5225452222086,4049
508.85372017000566,3882
511.18425517304956,3917
513.514150444396,4199
515.8434061971808,5621
518.1720226446176,6828
520.4999999999999,7066
522.8273384766991,6752
525.1540382881666,6228
527.480099647932,5725
529.8055227696037,4600
532.1303078668694,3573
534.454455153496,2890
536.777964843328,2648
539.1008371502907,2628
541.4230722883866,2590
543.744670471698,2471
546.0656319143858,2456
548.3859568306899,2493
550.7056454349294,2470
553.0246979415016,2450
555.3431145648834,2372
557.6608955196306,2329
559.978041020377,2296
562.2945512818363,2390
564.6104265188006,2359
566.9256669461412,2404
569.2402727788082,2386
571.5542442318302,2388
573.8675815203156,2411
576.1802848594508,2384
578.4923544645015,2454
580.8037905508126,2515
583.114593333807,2509
585.4247630289875,2558
587.7342998519354,2530
590.0432040183106,2510
592.3514757438526,2474
594.6591152443794,2513
596.9661227357875,2523
599.2724984340531,2477
601.578242555231,2498
603.8833553154542,2401
606.1878369309362,2368
608.4916876179676,2434
610.7949075929192,2456
613.0974970722403,2431
615.3994562724587,2511
617.7007854101818,2456
620.0014847020951,2450
622.3015543649641,2415
624.6009946156324,2435
626.8998056710224,2495
629.1979877481361,2438
631.4955410640538,2516
633.7924658359349,2371
636.0887622810175,2397
638.3844306166192,2470
640.6794710601358,2526
642.9738838290426,2369
645.2676691408932,2395
647.5608272133207,2486
649.853358264037,2526
652.1452625108324,2448
654.4365401715764,2443
656.7271914642178,2449
659.0172166067838,2498
661.3066158173809,2509
663.5953893141935,2449
665.8835373154867,2449
668.1710600396028,2456
670.4579577049639,2389
672.7442305300709,2449
675.0298787335033,2486
677.3149025339197,2498
679.599302150058,2320
681.8830778007342,2345
684.1662297048437,2392
686.4487580813608,2402
688.7306631493387,2452
691.0119451279091,2351
693.2926042362834,2476
695.5726406937516,2488
697.8520547196814,2427
700.1308465335215,2410
702.4090163547982,2433
704.6865644031171,2292
706.9634908981619,2365
709.2397960596965,2386
711.5154801075631,2392
713.7905432616823,2402
716.0649857420548,2391
718.3388077687592,2416
720.612009561953,2368
722.8845913418733,2339
725.1565533288352,2463
727.427895743234,2412
729.6986188055427,2385
731.9687227363137,2413
734.238207756178,2469
736.5070740858458,2378
738.7753219461066,2358
741.0429515578281,2354
743.3099631419569,2412
745.5763569195191,2398
747.8421331116193,2401
750.1072919394409,2399
752.3718336242467,2374
754.6357583873777,2439
756.8990664502545,2414
759.1617580343765,2297
761.423833361321,2401
763.6852926527457,2498
765.9461361303862,2447
768.206364016058,2371
770.4659765316536,2421
772.7249738991469,2407
774.9833563405886,2442
777.2411240781092,2507
779.4982773339183,2441
781.7548163303044,2412
784.010741289634,2434
786.2660524343538,2417
788.5207499869881,2402
790.7748341701416,2479
793.0283052064964,2461
795.2811633188143,2503
797.5334087299362,2482
799.7850416627813,2456
802.0360623403484,2382
804.2864709857143,2412
806.5362678220353,2466
808.7854530725468,2436
811.0340269605625,2468
813.2819897094754,2464
815.5293415427581,2449
817.77608268396,2459
820.0222133567116,2438
822.2677337847211,2414
824.5126441917765,2466
826.7569448017433,2422
829.0006358385675,2421
831.2437175262731,2410
833.4861900889629,2419
835.7280537508192,2447
837.9693087361026,2444
840.2099552691533,2402
842.4499935743896,2488
844.689423876309,2435
846.9282463994886,2501
849.1664613685833,2405
851.4040690083276,2423
853.6410695435349,2523
855.877463199097,2471
858.1132501999847,2398
860.3484307712487,2500
862.5830051380175,2483
864.8169735254988,2591
867.0503361589791,2506
869.2830932638243,2482
871.5152450654786,2506
873.7467917894654,2489
875.9777336613873,2495
878.2080709069252,2582
880.4378037518389,2571
882.666932421968,2469
884.8954571432301,2601
887.1233781416219,2541
889.3506956432192,2595
891.5774098741766,2583
893.803521060728,2499
896.0290294291852,2619
898.2539352059397,2525
900.4782386174619,2495
902.7019398903011,2517
904.925039251085,2561
907.147536926521,2482
909.3694331433943,2438
911.59072812857,2467
913.8114221089921,2456
916.0315153116827,2480
918.2510079637437,2398
920.4699002923547,2457
922.6881925247761,2459
924.905884888345,2474
927.1229776104793,2489
929.3394709186747,2419
931.555365040506,2441
933.7706602036275,2476
935.9853566357709,2451
938.1994545647489,2510
940.4129542184515,2506
942.6258558248488,2391
944.8381596119883,2559
947.0498658079974,2486
949.2609746410825,2498
951.4714863395287,2422
953.6814011316998,2497
955.8907192460387,2480
958.0994409110671,2456
960.3075663553858,2464
962.5150958076741,2422
964.7220294966913,2422
966.928367651274,2465
969.1341105003388,2361
971.3392582728806,2370
973.5438111979742,2398
975.747769504772,2339
977.9511334225061,2248
980.153903180487,2325
982.3560790081052,2302
984.5576611348289,2371
986.7586497902058,2311
988.9590452038618,2338
991.158847605503,2263
993.3580572249133,2170
995.5566742919558,2162
997.7546990365728,2243
999.952131688785,2114
1002.1489724786926,2150
1004.3452216364743,2108
1006.5408793923874,2046
1008.7359459767691,2051
1010.9304216200343,2063
1013.1243065526781,1994
1015.3176010052733,1970
1017.510305208472,2033
1019.7024193930064,1964
1021.8939437896848,2053
1024.0848786293977,2030
1026.2752241431122,2072
1028.4649805618747,1993
1030.6541481168115,1990
1032.842727039127,1961
1035.0307175601051,2044
1037.2181199111074,1898
1039.4049343235752,1908
1041.591161029029,1970
1043.7768002590683,1887
1045.9618522453698,1940
1048.1463172196918,1926
1050.3301954138697,1969
1052.513487059818,1965
1054.69619238953,1887
1056.8783116350783,1955
1059.0598450286152,1970
1061.2407928023704,1919
1063.4211551886528,1892
1065.6009324198508,1959
1067.780124728432,1923
1069.9587323469414,1937
1072.1367555080046,1956
1074.314194444325,1915
1076.4910493886855,1975
1078.667320573947,1895
1080.843008233051,1861
1083.0181125990161,1916
1085.1926339049414,1867
1087.3665723840027,1904
1089.5399282694575,1900
1091.7127017946405,1899
1093.8848931929647,1877
1096.0565026979243,1879
1098.2275305430899,1893
1100.3979769621128,1806
1102.567842188722,1833
1104.737126456726,1787
1106.9058300000124,1854
1109.0739530525475,1761
1111.2414958483764,1814
1113.4084586216231,1794
1115.5748416064907,1835
1117.7406450372605,1736
1119.9058691482942,1806
1122.0705141740304,1845
1124.2345803489884,1809
1126.3980679077658,1881
1128.5609770850388,1849
1130.7233081155623,1867
1132.8850612341707,1869
1135.0462366757774,1768
1137.2068346753745,1827
1139.3668554680326,1810
1141.526299288901,1758
1143.68516637321,1755
1145.8434569562655,1817
1148.001171273455,1789
1150.158309560244,1764
1152.3148720521767,1823
1154.470858984876,1784
1156.626270594044,1809
1158.7811071154629,1827
1160.9353687849912,1807
1163.089055838569,1845
1165.242168512213,1742
1167.3947070420209,1795
1169.5466716641677,1785
1171.6980626149075,1758
1173.8488801305748,1773
1175.9991244475814,1813
1178.1487958024186,1732
1180.2978944316555,1801
1182.4464205719428,1801
1184.5943744600072,1749
1186.7417563326567,1788
1188.8885664267755,1791
1191.0348049793297,1737
1193.1804722273619,1698
1195.325568407995,1771
1197.4700937584303,1803
1199.614048515948,1831
1201.7574329179074,1737
1203.900247201746,1789
1206.042491604982,1740
1208.1841663652099,1660
1210.3252717201053,1759
1212.465807907422,1742
1214.6057751649923,1800
1216.7451737307279,1780
1218.8840038426192,1815
1221.0222657387353,1858
1223.1599596572241,1825
1225.2970858363137,1758
1227.4336445143094,1796
1229.5696359295966,1781
1231.705060320639,1856
1233.8399179259786,1826
1235.9742089842384,1858
1238.107933734118,1826
1240.2410924143974,1816
1242.373685263935,1808
1244.5057125216676,1893
1246.6371744266116,1877
1248.7680712178621,1771
1250.898403134593,1771
1253.028170416058,1884
1255.1573733015875,1848
1257.2860120305932,1792
1259.4140868425648,1836
1261.54159797707,1866
1263.6685456737569,1822
1265.7949301723515,1842
1267.9207517126597,1815
1270.046010534565,1886
1272.1707068780306,1883
1274.2948409830983,1939
1276.4184130898889,1846
1278.541423438603,1934
1280.6638722695184,1846
1282.785759822993,1958
1284.9070863394636,1912
1287.0278520594447,1881
1289.1480572235314,1945
1291.2677020723963,1929
1293.3867868467923,1918
1295.5053117875495,1983
1297.623277135579,1917
1299.740683131868,1899
1301.8575300174857,1922
1303.973818033578,2031
1306.0895474213703,2063
1308.2047184221678,1915
1310.3193312773528,2006
1312.4333862283888,1975
1314.5468835168163,2071
1316.659823384255,2049
1318.7722060724045,2009
1320.8840318230418,2065
1322.9953008780249,1992
1325.1060134792888,1976
1327.2161698688478,2004
1329.3257702887959,1959
1331.4348149813054,2032
1333.5433041886276,2006
1335.6512381530933,1944
1337.7586171171101,2034
1339.8654413231675,2017
1341.9717110138317,2070
1344.0774264317488,1999
1346.1825878196432,1935
1348.2871954203192,1994
1350.3912494766587,1968
1352.4947502316231,1936
1354.5976979282532,2004
1356.7000928096686,2011
1358.8019351190665,1956
1360.9032250997243,1931
1363.0039629949988,1834
1365.1041490483235,1988
1367.2037835032133,1936
1369.3028666032606,1917
1371.401398592137,1942
1373.4993797135926,1993
1375.5968102114575,2024
1377.6936903296396,1948
1379.7900203121262,2011
1381.8858004029835,2012
1383.9810308463561,2014
1386.075711886469,1941
1388.1698437676241,2026
1390.2634267342032,1961
1392.356461030667,1974
1394.4489469015557,2006
1396.5408845914872,1957
1398.6322743451592,2042
1400.7231164073469,2006
1402.813411022907,2044
1404.903158436773,2022
1406.9923588939578,2009
1409.0810126395531,2039
1411.1691199187303,2036
1413.2566809767386,2077
1415.343696058907,2108
1417.4301654106425,2069
1419.5160892774315,2078
1421.6014679048399,2023
1423.6863015385125,2036
1425.7705904241707,2157
1427.8543348076178,2071
1429.9375349347342,2134
1432.0201910514802,2131
1434.102303403894,2135
1436.1838722380944,2182
1438.2648978002767,2205
1440.3453803367174,2181
1442.4253200937692,2203
1444.5047173178677,2268
1446.5835722555234,2352
1448.6618851533285,2182
1450.739656257952,2283
1452.8168858161434,2301
1454.8935740747306,2337
1456.96972128062,2351
1459.045327680797,2398
1461.120393522327,2475
1463.1949190523528,2528
1465.2689045180973,2502
1467.3423501668608,2506
1469.415256246024,2524
1471.4876230030463,2637
1473.559450685465,2647
1475.6307395408976,2688
1477.7014898170391,2789
1479.771701761665,2782
1481.8413756226287,2798
1483.9105116478618,2736
1485.9791100853772,2841
1488.0471711832643,2861
1490.1146951896926,2866
1492.1816823529098,2974
1494.2481329212433,3029
1496.3140471430984,3063
1498.3794252669609,3100
1500.4442675413939,3045
1502.5085742150404,3113
1504.572345536622,3083
1506.6355817549388,3252
1508.6982831188702,3308
1510.7604498773744,3364
1512.8220822794883,3309
1514.8831805743293,3383
1516.9437450110909,3434
1519.003775839048,3607
1521.0632733075522,3614
1523.1222376660367,3537
1525.1806691640113,3679
1527.2385680510652,3724
1529.2959345768668,3894
1531.3527689911643,3869
1533.4090715437833,3964
1535.4648424846291,4046
1537.5200820636855,4043
1539.5747905310159,4208
1541.6289681367616,4260
1543.6826151311434,4253
1545.7357317644614,4402
1547.7883182870937,4328
1549.8403749494987,4395
1551.8919020022113,4507
1553.9428996958477,4680
1555.9933682811015,4785
1558.0433080087469,4847
1560.0927191296346,4950
1562.1416018946961,4907
1564.1899565549415,4956
1566.2377833614592,4778
1568.2850825654164,4796
1570.3318544180606,4588
1572.3780991707158,4424
1574.423817074788,4299
1576.4690083817595,4152
1578.5136733431923,3942
1580.5578122107272,3646
1582.601425236085,3626
1584.6445126710646,3348
1586.6870747675434,3246
1588.7291117774776,3130
1590.7706239529034,3055
1592.8116115459347,2916
1594.8520748087658,2861
1596.8920139936686,2802
1598.9314293529933,2665
1600.9703211391711,2603
1603.008689604711,2494
1605.0465350022005,2406
1607.0838575843068,2335
1609.1206576037753,2356
1611.1569353134305,2277
1613.1926909661765,2330
1615.2279248149953,2236
1617.2626371129481,2254
1619.2968281131757,2107
1621.3304980688963,2134
1623.3636472334088,2151
1625.39627586009,2033
1627.428384202396,2130
1629.459972513861,2038
1631.4910410480993,2107
1633.5215900588028,2005
1635.551619799744,1990
1637.5811305247717,1988
1639.6101224878166,2007
1641.6385959428862,1926
1643.6665511440683,1967
1645.693988345528,1953
1647.7209078015112,1964
1649.7473097663405,2033
1651.7731944944203,1990
1653.7985622402307,2024
1655.823413258333,1959
1657.847747803366,1979
1659.8715661300494,1944
1661.8948684931793,1970
1663.9176551476316,1955
1665.9399263483624,1922
1667.9616823504057,1923
1669.982923408873,1919
1672.0036497789574,1959
1674.0238617159293,1985
1676.043559475138,1962
1678.0627433120121,1957
1680.081413482059,1928
1682.0995702408654,2002
1684.117213844096,1857
1686.134344547495,1925
1688.1509626068864,1885
1690.1670682781705,1901
1692.182661817329,1943
1694.1977434804217,1936
1696.2123135235875,1910
1698.226372203043,1906
1700.2399197750851,1929
1702.2529564960905,1958
1704.2654826225112,1990
1706.277498410882,1992
1708.2890041178139,1926
1710.2999999999988,1913
1712.3104863142066,1912
1714.3204633172854,1882
1716.329931266163,1901
1718.3388904178469,1862
1720.3473410294214,1859
1722.3552833580516,1809
1724.3627176609807,1906
1726.3696441955308,1897
1728.3760632191033,1908
1730.3819749891782,1874
1732.3873797633146,1918
1734.3922777991502,1935
1736.3966693544012,1880
1738.4005546868639,1881
1740.4039340544127,1880
1742.406807715001,1871
1744.4091759266616,1902
1746.4110389475054,1873
1748.4123970357223,1816
1750.413250449582,1870
1752.4135994474318,1843
1754.4134442876993,1876
1756.4127852288902,1826
1758.4116225295893,1879
1760.4099564484595,1898
1762.407787244244,1833
1764.405115175764,1888
1766.4019405019203,1832
1768.3982634816916,1833
1770.3940843741357,1855
1772.3894034383907,1889
1774.3842209336717,1871
1776.378537119274,1824
1778.372352254571,1840
1780.3656665990156,1806
1782.3584804121397,1774
1784.3507939535534,1838
1786.3426074829463,1904
1788.3339212600863,1849
1790.3247355448211,1791
1792.3150505970766,1876
1794.3048666768573,1818
1796.2941840442477,1814
1798.2830029594106,1823
1800.2713236825884,1860
1802.2591464741004,1822
1804.2464715943465,1825
1806.2332993038058,1860
1808.2196298630352,1807
1810.2054635326708,1787
1812.190800573428,1817
1814.175641246101,1819
1816.1599858115628,1894
1818.1438345307652,1892
1820.127187664738,1800
1822.1100454745924,1822
1824.092408221516,1796
1826.0742761667766,1817
1828.055649571721,1791
1830.0365286977735,1834
1832.0169138064398,1822
1833.9968051593014,1868
1835.9762030180214,1826
1837.9551076443408,1816
1839.9335193000788,1848
1841.9114382471344,1829
1843.888864747485,1826
1845.8657990631878,1817
1847.842241456378,1821
1849.8181921892697,1693
1851.7936515241558,1765
1853.7686197234098,1827
1855.7430970494815,1799
1857.7170837649014,1777
1859.6905801322787,1771
1861.6635864143004,1771
1863.6361028737338,1728
1865.608129773424,1766
1867.5796673762961,1817
1869.5507159453537,1778
1871.521275743678,1835
1873.4913470344313,1761
1875.4609300808534,1823
1877.4300251462632,1746
1879.3986324940588,1776
1881.366752387717,1800
1883.3343850907936,1790
1885.3015308669228,1787
1887.268189979819,1786
1889.2343626932739,1804
1891.2000492711595,1848
1893.1652499774254,1861
1895.1299650761011,1766
1897.0941948312952,1789
1899.0579395071945,1741
1901.0211993680641,1785
1902.98397467825,1819
1904.9462657021745,1832
1906.9080727043415,1803
1908.869395949332,1822
1910.8302357018065,1750
1912.790592226504,1766
1914.7504657882428,1846
1916.7098566519212,1770
1918.6687650825133,1776
1920.6271913450764,1816
1922.5851357047422,1788
1924.5425984267245,1818
1926.499579776314,1772
1928.4560800188833,1781
1930.4120994198802,1807
1932.367638244833,1846
1934.32269675935,1853
1936.2772752291175,1807
1938.231373919899,1810
1940.1849930975404,1804
1942.1381330279637,1811
1944.0907939771696,1718
1946.0429762112412,1828
1947.9946799963363,1829
1949.9459055986945,1782
1951.896653284633,1749
1953.8469233205478,1802
1955.7967159729142,1738
1957.7460315082863,1773
1959.6948701932974,1827
1961.6432322946594,1756
1963.5911180791632,1762
1965.5385278136787,1766
1967.4854617651545,1790
1969.4319202006182,1811
1971.377903387176,1683
1973.3234115920136,1825
1975.268445082395,1769
1977.2130041256642,1824
1979.1570889892423,1843
1981.1006999406304,1727
1983.04383724741,1726
1984.986501177238,1759
1986.928691997853,1781
1988.8704099770712,1704
1990.811655382789,1793
1992.7524284829801,1843
1994.692729545698,1807
1996.6325588390755,1786
1998.5719166313224,1820
2000.5108031907307,1767
2002.4492187856677,1729
2004.387163684583,1782
2006.3246381560011,1766
2008.2616424685298,1670
2010.1981768908527,1775
2012.1342416917332,1726
2014.069837140014,1751
2016.0049635046162,1827
2017.9396210545406,1775
2019.8738100588666,1731
2021.8075307867502,1841
2023.740783507431,1711
2025.6735684902228,1817
2027.6058860045214,1717
2029.5377363198004,1798
2031.4691197056118,1824
2033.4000364315875,1770
2035.3304867674374,1744
2037.260470982952,1683
2039.189989347998,1708
2041.1190421325232,1744
2043.047629606554,1694
2044.9757520401945,1702
2046.9034097036288,1755
2048.8306028671195,1750
2050.7573318010086,1713
2052.683596775716,1740
2054.609398061742,1700
2056.5347359296647,1712
2058.4596106501403,1749
2060.384022493906,1749
2062.3079717317764,1760
2064.231458634646,1752
2066.1544834734873,1684
2068.077046519352,1721
2069.99914804337,1727
2071.9207883167524,1729
2073.8419676107865,1809
2075.7626861968406,1759
2077.6829443463607,1768
2079.6027423308715,1708
2081.522080421977,1717
2083.440958891362,1748
2085.359378010786,1815
2087.2773380520907,1778
2089.194839287196,1708
2091.111881988101,1799
2093.0284664268825,1766
2094.9445928756973,1772
2096.86026160678,1742
2098.775472892446,1748
2100.690227005088,1763
2102.604524217178,1749
2104.5183648012676,1736
2106.431749029985,1717
2108.34467717604,1821
2110.2571495122206,1747
2112.169166311393,1816
2114.080727846503,1721
2115.9918343905747,1765
2117.902486216711,1776
2119.8126835980956,1759
2121.722426807987,1776
2123.6317161197285,1743
2125.5405518067364,1799
2127.448934142509,1807
2129.356863400624,1809
2131.264339854737,1787
2133.1713637785815,1843
2135.077935445972,1834
2136.9840551308002,1814
2138.889723107037,1806
2140.7949396487334,1819
2142.699705030018,1775
2144.6040195250994,1782
2146.507883408264,1800
2148.4112969538774,1805
2150.3142604363848,1824
2152.2167741303097,1779
2154.1188383102535,1851
2156.0204532508997,1798
2157.9216192270064,1842
2159.822336513414,1783
2161.7226053850413,1823
2163.622426116884,1820
2165.5217989840185,1870
2167.4207242616,1844
2169.319202224862,1840
2171.2172331491165,1842
2173.1148173097563,1840
2175.0119549822507,1902
2176.90864644215,1932
2178.8048919650823,1890
2180.7006918267534,1875
2182.596046302952,1888
2184.4909556695407,1852
2186.3854202024645,1874
2188.279440177746,1930
2190.173015871487,1957
2192.066147559868,1883
2193.958835519149,1905
2195.851080025667,1858
2197.7428813558417,1973
2199.6342397861667,1880
2201.5251555932186,1910
2203.415629053651,2000
2205.3056604441986,1889
2207.19525004167,1975
2209.084398122958,1930
2210.9731049650327,1969
2212.861370844941,2001
2214.749196039812,1987
2216.636580826851,1967
2218.523525483344,1901
2220.410030286655,1966
2222.296095514226,1966
2224.1817214435805,1878
2226.066908352319,1987
2227.951656518121,1978
2229.835966218746,1943
2231.71983773203,1967
2233.6032713358913,1924
2235.486267308324,1892
2237.3688259274036,1927
2239.2509474712824,1996
2241.132632218193,2071
2243.013880446447,2066
2244.8946924344323,1957
2246.7750684606203,1976
2248.6550088035574,2015
2250.534513741871,2070
2252.413583554265,2035
2254.292218519526,1870
2256.170418916517,1937
2258.0481850241786,1878
2259.925517121534,1846
2261.8024154876825,1918
2263.678880401803,2006
2265.5549121431536,2043
2267.430510991071,1966
2269.305677224971,1901
2271.180411124348,1899
2273.0547129687766,1914
2274.9285830379076,1917
2276.8020216114737,1898
2278.6750289692845,1932
2280.5476053912294,1966
2282.4197511572766,1973
2284.2914665474727,2012
2286.162751841943,1982
2288.0336073208937,2003
2289.904033264608,2034
2291.774029953448,2012
2293.6435976678554,1959
2295.5127366883517,1861
2297.381447295534,1845
2299.2497297700825,1809
2301.1175843927526,1732
2302.9850114443825,1710
2304.852011205885,1702
2306.7185839582553,1634
2308.5847299825664,1633
2310.4504495599676,1643
2312.3157429716925,1615
2314.1806104990483,1729
2316.0450524234247,1552
2317.9090690262888,1616
2319.772660589186,1614
2321.635827393742,1611
2323.498569721661,1584
2325.3608878547248,1562
2327.2227820747967,1644
2329.0842526638157,1541
2330.945299903803,1612
2332.805924076857,1619
2334.6661254651535,1592
2336.525904350951,1603
2338.3852610165827,1589
2340.244195744464,1652
2342.102708817088,1559
2343.9608005170253,1570
2345.8184711269287,1526
2347.675720929526,1580
2349.532550207628,1578
2351.38895924412,1578
2353.24494832197,1533
2355.100517724223,1582
2356.955667734004,1535
2358.810398634514,1588
2360.664710709037,1607
2362.5186042409337,1653
2364.3720795136437,1597
2366.225136810686,1554
2368.0777764156583,1680
2369.929998612237,1645
2371.7818036841777,1654
2373.633191915315,1601
2375.484163589562,1648
2377.3347189909114,1610
2379.184858403434,1669
2381.03458211128,1608
2382.8838903986775,1581
2384.732783549936,1671
2386.5812618494406,1652
2388.4293255816588,1630
2390.2769750311327,1578
2392.1242104824883,1655
2393.971032220427,1603
2395.8174405297295,1652
2397.6634356952563,1669
2399.509018001947,1642
2401.3541877348193,1633
2403.1989451789705,1610
2405.043290619576,1607
2406.8872243418905,1672
2408.730746631247,1638
2410.5738577730594,1623
2412.4165580528183,1638
2414.258847756095,1566
2416.100727168537,1646
2417.9421965758734,1628
2419.783256263912,1635
2421.623906518538,1661
2423.4641476257157,1631
2425.303979871491,1661
2427.143403541984,1651
2428.9824189233977,1614
2430.821026302012,1689
2432.6592259641866,1604
2434.497018196361,1587
2436.33440328505,1641
2438.171381516851,1687
2440.00795317844,1675
2441.844118556569,1738
2443.6798779380724,1622
2445.5152316098606,1621
2447.3501798589255,1648
2449.1847229723357,1570
2451.0188612372403,1694
2452.8525949408663,1672
2454.6859243705203,1673
2456.518849813587,1622
2458.3513715575314,1668
2460.183489889895,1695
2462.015205098301,1622
2463.8465174704493,1703
2465.67742729412,1671
2467.5079348571717,1710
2469.338040447542,1679
2471.1677443532476,1687
2472.9970468623833,1665
2474.825948263123,1664
2476.6544488437207,1704
2478.482548892508,1636
2480.310248697896,1695
2482.137548548374,1634
2483.9644487325118,1650
2485.790949538956,1721
2487.617051256433,1688
2489.44275417375,1719
2491.26805857979,1653
2493.0929647635157,1653
2494.917473013971,1666
2496.741583620276,1713
2498.5652968716304,1630
2500.3886130573137,1712
2502.2115324666834,1724
2504.0340553891765,1755
2505.856182114308,1640
2507.6779129316733,1709
2509.499248130945,1680
2511.3201880018764,1736
2513.140732834298,1729
2514.9608829181198,1762
2516.780638543331,1740
2518.6,1727
2520.418967578273,1728
2522.237541568376,1692
2524.0557222606144,1724
2525.8735099453706,1703
2527.6909049131086,1709
2529.507907454368,1710
2531.32451785977,1787
2533.140736420014,1802
2534.9565634258774,1745
2536.771999168218,1777
2538.5870439379714,1692
2540.4016980261526,1780
2542.2159617238544,1868
2544.02983532225,1789
2545.8433191125914,1778
2547.656413386209,1782
2549.4691184345115,1812
2551.2814345489874,1859
2553.093362021204,1898
2554.904901142808,1869
2556.716052205523,1894
2558.526815501153,1846
2560.3371913215824,1875
2562.147179958771,1867
2563.956781704761,1945
2565.7659968516705,1932
2567.5748256916986,1964
2569.3832685171224,1955
2571.1913256202984,1940
2572.9989972936614,2017
2574.806283829725,1943
2576.613185521084,2015
2578.4197026604074,1960
2580.2258355404483,1926
2582.031584454035,2026
2583.836949694077,1999
2585.6419315535613,1965
2587.4465303255533,1974
2589.2507463032002,2013
2591.0545797797245,1948
2592.8580310484303,2104
2594.6611004026995,2022
2596.463788135992,2045
2598.266094541849,2078
2600.0680199138874,2075
2601.869564545807,2084
2603.670728731383,2048
2605.4715127644704,2138
2607.2719169390048,2053
2609.071941548998,2114
2610.8715868885433,2109
2612.670853251811,2061
2614.469740933052,2105
2616.268250226594,2118
2618.0663814268455,2077
2619.864134828292,2071
2621.6615107255006,2136
2623.458509413115,2143
2625.2551311858597,2059
2627.0513763385347,2085
2628.8472451660223,2088
2630.6427379632833,2019
2632.4378550253564,1970
2634.232596647359,2049
2636.026963124488,2008
2637.8209547520187,1964
2639.6145718253065,1955
2641.407814639785,1954
2643.200683490966,2021
2644.9931786744414,2020
2646.7853004858807,1929
2648.577049221034,2020
2650.3684251757277,1970
2652.1594286458712,1919
2653.9500599274484,1886
2655.740319316525,1879
2657.5302071092437,1843
2659.3197236018286,1830
2661.10886909058,1826
2662.8976438718782,1903
2664.686048242183,1828
2666.4740824980327,1867
2668.2617469360443,1811
2670.0490418529134,1782
2671.8359675454153,1753
2673.622524310403,1768
2675.408712444811,1727
2677.1945322456495,1709
2678.979984010009,1782
2680.76506803506,1711
2682.5497846180497,1768
2684.334134056306,1769
2686.1181166472343,1674
2687.9017326883213,1735
2689.6849824771293,1716
2691.4678663113013,1634
2693.2503844885596,1702
2695.032537306705,1770
2696.8143250636167,1730
2698.5957480572542,1670
2700.3768065856534,1738
2702.1575009469316,1670
2703.937831439283,1670
2705.717798360982,1676
2707.4974020103837,1709
2709.276642685917,1684
2711.055520686095,1658
2712.834036309506,1745
2714.612189854819,1664
2716.389981620782,1678
2718.1674119062204,1608
2719.944481010041,1624
2721.721189231226,1670
2723.4975368688415,1632
2725.273524222027,1667
2727.0491515900053,1598
2728.824419272075,1698
2730.5993275676146,1634
2732.3738767760838,1641
2734.148067197016,1592
2735.921899130031,1628
2737.6953728748194,1685
2739.468488731156,1606
2741.2412469988926,1582
2743.0136479779617,1637
2744.785691968372,1661
2746.5573792702116,1671
2748.3287101836504,1655
2750.099685008934,1682
2751.870304046388,1572
2753.640567596418,1659
2755.4104759595057,1690
2757.1800294362156,1636
2758.949228327187,1646
2760.7180729331412,1666
2762.486563554877,1652
2764.254700493272,1656
2766.022484049284,1618
2767.789914523947,1630
2769.5569922183786,1587
2771.3237174337705,1603
2773.090090471394,1638
2774.8561116326036,1648
2776.6217812188274,1655
2778.3870995315756,1590
2780.1520668724356,1653
2781.9166835430747,1606
2783.6809498452394,1553
2785.444866080754,1667
2787.2084325515225,1605
2788.971649559527,1608
2790.73451740683,1651
2792.4970363955713,1583
2794.2592068279705,1620
2796.0210290063264,1599
2797.7825032330147,1603
2799.543629810493,1600
2801.304409041296,1603
2803.0648412280366,1622
2804.8249266734088,1589
2806.5846656801846,1606
2808.344058551212,1604
2810.1031055894246,1652
2811.8618070978273,1634
2813.6201633795085,1627
2815.378174737636,1673
2817.1358414754536,1574
2818.893163896285,1554
2820.6501423035334,1572
2822.4067770006814,1563
2824.1630682912883,1605
2825.9190164789957,1635
2827.6746218675207,1619
2829.429884760661,1613
2831.184805462294,1611
2832.9393842763743,1589
2834.693621506936,1582
2836.4475174580916,1658
2838.201072434034,1616
2839.954286739034,1597
2841.707160677441,1569
2843.459694553685,1565
2845.2118886722724,1551
2846.96374333779,1631
2848.7152588549034,1657
2850.4664355283567,1617
2852.217273662973,1643
2853.9677735636546,1645
2855.7179355353833,1651
2857.4677598832186,1657
2859.217246912299,1583
2860.9663969278427,1639
2862.715210235146,1601
2864.4636871395846,1592
2866.211827946614,1614
2867.9596329617652,1651
2869.7071024906536,1556
2871.4542368389684,1609
2873.20103631248,1611
2874.947501217038,1608
2876.6936318585695,1643
2878.4394285430812,1634
2880.1848915766604,1659
2881.9300212654707,1660
2883.6748179157553,1633
2885.4192818338374,1581
2887.1634133261173,1678
2888.907212699077,1585
2890.6506802592744,1660
2892.393816313348,1598
2894.1366211680142,1630
2895.8790951300693,1658
2897.621238506388,1613
2899.363051603925,1662
2901.1045347297118,1568
2902.8456881908596,1645
2904.58651229456,1636
2906.327007348081,1605
2908.067173658772,1569
2909.8070115340597,1627
2911.5465212814497,1560
2913.285703208527,1669
2915.0245576229563,1674
2916.7630848324807,1642
2918.5012851449196,1556
2920.2391588681758,1639
2921.976706310227,1575
2923.7139277791334,1584
2925.4508235830313,1554
2927.187394030137,1600
2928.923639428745,1545
2930.6595600872306,1647
2932.395156314046,1639
2934.1304284177218,1630
2935.8653767068713,1687
2937.6000014901815,1641
2939.3343030764227,1617
2941.068281774442,1601
2942.8019378931644,1541
2944.5352717415976,1613
2946.2682836288236,1614
2948.0009738640065,1601
2949.7333427563885,1600
2951.465390615289,1609
2953.1971177501086,1579
2954.9285244703265,1611
2956.6596110855,1623
2958.3903779052657,1641
2960.1208252393385,1662
2961.8509533975125,1598
2963.5807626896617,1631
2965.3102534257378,1609
2967.0394259157715,1590
2968.768280469873,1662
2970.496817398232,1615
2972.2250370111146,1592
2973.952939618869,1681
2975.6805255319196,1536
2977.4077950607707,1676
2979.134748516006,1648
2980.861386208289,1607
2982.587708448359,1625
2984.313715547037,1666
2986.039407815222,1666
2987.764785563891,1630
2989.489849104102,1605
2991.2145987469908,1666
2992.9390348037705,1595
2994.6631575857346,1632
2996.3869674042576,1599
2998.1104645707887,1622
2999.83364939686,1623
3001.5565221940783,1591
3003.2790832741334,1580
3005.0013329487924,1565
3006.7232715298996,1622
3008.4448993293804,1618
3010.166216659239,1641
3011.887223831558,1583
3013.607921158498,1599
3015.3283089522993,1609
3017.0483875252826,1574
3018.7681571898443,1607
3020.4876182584626,1588
3022.2067710436927,1650
3023.9256158581707,1587
3025.644153014609,1600
3027.362382825801,1549
3029.0803056046193,1598
3030.797921664012,1575
3032.5152313170106,1616
3034.2322348767225,1619
3035.9489326563353,1649
3037.665324969115,1600
3039.3814121284063,1598
3041.097194447633,1657
3042.812672240299,1591
3044.5278458199855,1597
3046.2427155003525,1581
3047.9572815951406,1616
3049.671544418167,1575
3051.38550428333,1603
3053.0991615046073,1595
3054.812516396051,1656
3056.5255692717974,1591
3058.2383204460575,1530
3059.9507702331257,1543
3061.662918947372,1678
3063.3747669032446,1593
3065.0863144152736,1611
3066.7975617980674,1616
3068.508509366309,1614
3070.219157434767,1609
3071.9295063182844,1615
3073.639556331785,1609
3075.3493077902704,1656
3077.058761008821,1613
3078.7679163025964,1638
3080.476773986837,1639
3082.1853343768594,1585
3083.89359778806,1586
3085.6015645359153,1629
3087.3092349359786,1615
3089.016609303884,1601
3090.7236879553434,1629
3092.4304712061476,1610
3094.136959372166,1646
3095.843152769349,1569
3097.5490517137237,1613
3099.2546565213966,1571
3100.959967508554,1591
3102.66498499146,1598
3104.3697092864577,1546
3106.0741407099695,1576
3107.778279578498,1591
3109.482126208622,1601
3111.1856809170004,1559
3112.8889440203716,1603
3114.5919158355528,1581
3116.294596679439,1638
3117.996986869006,1625
3119.6990867213062,1654
3121.4008965534726,1675
3123.102416682717,1623
3124.803647426329,1652
3126.5045891016784,1646
3128.205242026213,1641
3129.90560651746,1648
3131.605682893025,1605
3133.3054714705922,1576
3135.0049725679282,1609
3136.7041865028714,1619
3138.4031135933465,1658
3140.101754157353,1603
3141.800108512971,1637
3143.498176978357,1640
3145.1959598717494,1626
3146.8934575114636,1599
3148.5906702158954,1556
3150.2875983035183,1547
3151.9842420928853,1567
3153.680601902627,1640
3155.376678051456,1580
3157.07247085816,1590
3158.767980641609,1587
3160.463207720748,1663
3162.158152414606,1605
3163.8528150422862,1538
3165.5471959229726,1601
3167.2412953759303,1574
3168.9351137204976,1634
3170.628651276098,1571
3172.3219083622307,1560
3174.014885298474,1610
3175.707582404485,1594
3177.4000000000005,1627
3179.092138404835,1640
3180.7839979388846,1638
3182.47557892212,1583
3184.166881674594,1631
3185.8579065164386,1579
3187.5486537678626,1603
3189.2391237491547,1620
3190.9293167806827,1641
3192.6192331828934,1593
3194.3088732763117,1602
3195.998237381542,1621
3197.687325819268,1577
3199.376138910251,1540
3201.064676975334,1580
3202.7529403354347,1627
3204.4409293115523,1572
3206.1286442247647,1560
3207.816085396229,1592
3209.5032531471825,1587
3211.190147798936,1561
3212.8767696728846,1585
3214.5631190905015,1574
3216.2491963733373,1512
3217.9350018430214,1540
3219.6205358212637,1560
3221.305798629851,1508
3222.990790590651,1563
3224.6755120256103,1533
3226.359963256751,1545
3228.0441446061795,1528
3229.7280563960758,1567
3231.411698948703,1620
3233.0950725863995,1506
3234.778177631587,1527
3236.461014406761,1596
3238.1435832345005,1599
3239.8258844374595,1654
3241.507918338374,1617
3243.1896852600576,1664
3244.8711855254023,1613
3246.552419457381,1609
3248.233387379042,1615
3249.914089613516,1574
3251.59452648401,1625
3253.274698313813,1550
3254.95460542629,1586
3256.6342481448855,1530
3258.313626793125,1504
3259.9927416946084,1513
3261.6715931730196,1544
3263.3501815521176,1549
3265.0285071557437,1516
3266.706570307815,1586
3268.3843713323286,1524
3270.0619105533615,1529
3271.739188295068,1547
3273.4162048816834,1557
3275.0929606375184,1562
3276.769455886966,1599
3278.445690954498,1564
3280.1216661646613,1544
3281.797381842087,1623
3283.4728383114807,1637
3285.1480358976296,1586
3286.8229749253996,1535
3288.4976557197333,1500
3290.172078605655,1556
3291.846243908266,1531
3293.5201519527463,1610
3295.193803064357,1506
3296.8671975684374,1554
3298.5403357904024,1552
3300.21321805575,1490
3301.8858446900567,1574
3303.558216018975,1565
3305.23033236824,1580
3306.9021940636603,1554
3308.57380143113,1511
3310.2451547966184,1583
3311.916254486174,1546
3313.5871008259246,1579
3315.2576941420766,1532
3316.9280347609147,1562
3318.5981230088046,1569
3320.2679592121895,1503
3321.9375436975924,1521
3323.606876791612,1538
3325.27595882093,1585
3326.944790112305,1585
3328.6133709925753,1590
3330.2817017886573,1598
3331.949782827547,1538
3333.617614436319,1565
3335.2851969421245,1606
3336.952530672199,1569
3338.619615953853,1528
3340.286453114475,1584
3341.9530424815357,1543
3343.619384382583,1579
3345.2854791452437,1535
3346.951327097224,1529
3348.6169285663073,1545
3350.2822838803577,1566
3351.947393367319,1558
3353.61225735521,1602
3355.2768761721345,1562
3356.9412501462693,1561
3358.605379605873,1602
3360.2692648792827,1564
3361.9329062949146,1597
3363.596304181263,1568
