CollectionTime,9/20/2024 12:53:32 PM
ExposureUsed,3
CalibratedSpectrum
-962.7078968117929,2507
-959.9714848408522,2628
-957.2358232597828,2711
-954.5009119013725,2769
-951.7667505983302,2727
-949.0333391832855,2745
-946.3006774887896,2818
-943.5687653473143,2793
-940.837602591253,2780
-938.1071890529199,2790
-935.3775245645503,2811
-932.6486089583007,2767
-929.9204420662485,2847
-927.1930237203925,2804
-924.4663537526524,2771
-921.7404319948689,2801
-919.0152582788041,2832
-916.2908324361409,2867
-913.5671542984834,2789
-910.8442236973568,2717
-908.1220404642074,2800
-905.4006044304027,2823
-902.679915427231,2704
-899.959973285902,2825
-897.2407778375464,2725
-894.5223289132158,2832
-891.8046263438832,2815
-889.0876699604426,2782
-886.3714595937089,2864
-883.6559950744183,2865
-880.9412762332282,2800
-878.2273029007168,2799
-875.5140749073835,2687
-872.8015920836489,2687
-870.0898542598545,2779
-867.3788612662631,2678
-864.6686129330585,2850
-861.9591090903457,2822
-859.2503495681506,2781
-856.5423341964203,2755
-853.8350628050229,2791
-851.1285352237478,2723
-848.4227512823054,2766
-845.7177108103272,2846
-843.0134136373656,2885
-840.3098595928943,2777
-837.6070485063082,2849
-834.9049802069229,2801
-832.2036545239757,2834
-829.5030712866244,2864
-826.8032303239481,2867
-824.1041314649472,2826
-821.4057745385428,2773
-818.7081593735775,2839
-816.0112857988148,2747
-813.3151536429393,2881
-810.6197627345566,2711
-807.9251129021936,2857
-805.2312039742981,2920
-802.5380357792392,2820
-799.8456081453069,2817
-797.1539209007124,2867
-794.462973873588,2869
-791.772766891987,2850
-789.083299783884,2922
-786.3945723771743,2817
-783.7065844996748,2846
-781.0193359791231,2809
-778.3328266431781,2862
-775.6470563194197,2885
-772.9620248353489,2904
-770.2777320183878,2864
-767.5941776958798,2878
-764.9113616950891,2891
-762.2292838432011,2830
-759.5479439673222,2859
-756.8673418944801,2905
-754.1874774516235,2905
-751.5083504656222,2917
-748.8299607632671,2940
-746.15230817127,2859
-743.475392516264,2921
-740.7992136248035,2878
-738.1237713233636,2920
-735.4490654383407,2938
-732.7750957960521,2951
-730.1018622227365,2863
-727.4293645445534,2896
-724.7576025875837,2985
-722.0865761778291,2972
-719.4162851412126,3030
-716.7467293035781,2961
-714.0779084906909,2993
-711.409822528237,3082
-708.7424712418238,3000
-706.0758544569796,2899
-703.4099719991541,3040
-700.7448236937178,2930
-698.0804093659622,3011
-695.4167288411002,3033
-692.7537819442656,3038
-690.0915685005134,3013
-687.4300883348199,3002
-684.7693412720819,3015
-682.1093271371178,3031
-679.4500457546669,3007
-676.7914969493897,3015
-674.1336805458676,2905
-671.4765963686034,3002
-668.8202442420206,3103
-666.1646239904642,2970
-663.5097354382001,3052
-660.8555784094151,3079
-658.2021527282176,3002
-655.5494582186366,2959
-652.8974947046223,3016
-650.2462620100463,3126
-647.5957599587009,2986
-644.9459883742998,3169
-642.2969470804776,3126
-639.6486359007902,3104
-637.0010546587141,3149
-634.3542031776476,3173
-631.7080812809096,3208
-629.0626887917401,3111
-626.4180255333008,3051
-623.7740913286734,3089
-621.1308860008619,3229
-618.4884093727904,3060
-615.8466612673046,3162
-613.2056415071715,3096
-610.5653499150785,3172
-607.9257863136347,3287
-605.28695052537,3132
-602.6488423727357,3175
-600.0114616781036,3215
-597.3748082637674,3236
-594.7388819519412,3235
-592.1036825647604,3238
-589.4692099242818,3203
-586.8354638524829,3175
-584.2024441712624,3210
-581.5701507024403,3142
-578.9385832677575,3353
-576.3077416888759,3164
-573.6776257873787,3184
-571.0482353847704,3196
-568.4195703024757,3226
-565.7916303618415,3182
-563.164415384135,3104
-560.5379251905453,3316
-557.9121596021815,3265
-555.2871184400748,3242
-552.6628015251767,3158
-550.0392086783606,3230
-547.4163397204204,3267
-544.794194472071,3421
-542.1727727539491,3199
-539.5520743866118,3340
-536.9320991905377,3347
-534.3128469861261,3362
-531.6943175936979,3423
-529.0765108334947,3379
-526.4594265256793,3451
-523.8430644903358,3684
-521.2274245474689,3814
-518.612506517005,3769
-515.9983102187913,3935
-513.3848354725959,3902
-510.77208209810846,3876
-508.16004991493924,3922
-505.5487387426199,3977
-502.9381484006032,4198
-500.3282787082628,4313
-497.71912948489364,4386
-495.1107005497117,4462
-492.5029917218539,4316
-489.8960028203786,4205
-487.28973366426493,4126
-484.68418407241325,3863
-482.07935386364494,3719
-479.47524285670266,3657
-476.87185087025,3732
-474.2691777228715,3583
-471.66722323307334,3536
-469.0659872192821,3637
-466.4654694998459,3600
-463.86566989303384,3559
-461.26658821703614,3524
-458.66822428996414,3632
-456.07057792985,3608
-453.4736489546475,3574
-450.877437182231,3594
-448.28194243039627,3524
-445.68716451686,3515
-443.09310325926003,3528
-440.49975847515555,3541
-437.9071299820263,3365
-435.31521759727354,3501
-432.72402113821954,3396
-430.13354042210767,3458
-427.5437752661022,3490
-424.95472548728867,3537
-422.36639090267386,3454
-419.7787713291855,3463
-417.1918665836721,3522
-414.60567648290385,3607
-412.0202008435715,3691
-409.4354394822874,3598
-406.8513922155845,3665
-404.26805885991723,3690
-401.685439231661,3643
-399.103533147112,3686
-396.522340422488,3555
-393.9418608739278,3435
-391.3620943174908,3447
-388.7830405691583,3429
-386.2046994448317,3228
-383.6270707603344,3073
-381.05015433141045,2942
-378.473949973725,2734
-375.8984575028645,2502
-373.32367673433623,2127
-370.74960748356875,1875
-368.1762495659117,1689
-365.60360279663576,1488
-363.03166699093265,1233
-360.4604419639154,1046
-357.8899275306178,878
-355.32012350599507,772
-352.7510297049233,659
-350.1826459421999,695
-347.61497203254316,651
-345.04800779059235,684
-342.4817530309082,643
-339.91620756797226,677
-337.35137121618743,662
-334.7872437898774,609
-332.22382510328725,574
-329.66111497058273,558
-327.09911320585127,551
-324.53781962310075,523
-321.9772340362607,547
-319.4173562591816,591
-316.8581861056348,612
-314.2997233893127,615
-311.7419679238294,645
-309.1849195227194,676
-306.62857799943856,736
-304.0729431673641,651
-301.51801483979375,637
-298.963792829947,555
-296.41027695096386,578
-293.85746701590574,646
-291.3053628377552,701
-288.7539642294155,776
-286.2032710037115,764
-283.65328297338897,695
-281.1039999511146,718
-278.5554217494762,768
-276.007548180983,752
-273.4603790580651,788
-270.9139141930734,733
-268.3681533982807,749
-265.8230964858798,715
-263.27874326798565,810
-260.7350935566336,818
-258.1921471637804,842
-255.6499039013039,874
-253.10836358100266,867
-250.56752601459698,845
-248.02739101372765,884
-245.48795838995704,839
-242.94922795476816,853
-240.41119951956557,883
-237.8738728956746,846
-235.33724789434166,873
-232.80132432673452,806
-230.2661020039418,814
-227.73158073697357,957
-225.19776033676033,1075
-222.66464061415422,1052
-220.1322213799284,1035
-217.60050244477725,991
-215.06948361931552,960
-212.53916471408013,1112
-210.00954553952818,1066
-207.48062590603843,987
-204.9524056239104,963
-202.4248845033651,995
-199.8980623545441,1001
-197.37193898751036,1041
-194.84651421224817,1114
-192.32178783866232,1074
-189.79775967657952,1036
-187.27442953574644,1095
-184.7517972258321,1056
-182.2298625564256,982
-179.7086253370378,960
-177.18808537710026,988
-174.66824248596583,1117
-172.14909647290835,1157
-169.6306471471229,1110
-167.11289431772548,1028
-164.59583779375328,1199
-162.07947738416453,1335
-159.5638128978386,1509
-157.04884414357605,1596
-154.53457093009854,1613
-152.02099306604828,1395
-149.50811035998936,1332
-146.99592262040665,1536
-144.48442965570587,1721
-141.97363127421409,1779
-139.46352728417958,1703
-136.95411749377126,1748
-134.44540171107985,1616
-131.93737974411636,1378
-129.43005140081357,1316
-126.92341648902493,1602
-124.41747481652521,1891
-121.91222619101006,2194
-119.40767042009657,2612
-116.90380731132257,3007
-114.40063667214702,4088
-111.8981583099503,5456
-109.3963720320337,8378
-106.89527764561933,11522
-104.39487495785067,14825
-101.89516377579241,15310
-99.39614390642998,17511
-96.89781515667039,22934
-94.40017733334128,32941
-91.90323024319173,40514
-89.40697369289148,33397
-86.91140748903172,20384
-84.41653143812482,14556
-81.92234534660395,14271
-79.42884902082358,20185
-76.93604226705907,26080
-74.4439248915071,25905
-71.95249670028534,20564
-69.46175749943245,12904
-66.97170709490854,8687
-64.48234529259423,8024
-61.99367189829195,10423
-59.50568671772464,12658
-57.01838955653636,17865
-54.53178022029283,21392
-52.045858514480074,21314
-49.560624244506016,21881
-47.07607721569923,23231
-44.59221723330904,20763
-42.10904410250669,19248
-39.62655762838392,18170
-37.14475761595372,19789
-34.66364387015028,18402
-32.18321619582866,18667
-29.70347439776515,20400
-27.224418280657005,22464
-24.74604764912317,28184
-22.26836230770266,44623
-19.7913620608565,65035
-17.315046712966478,65035
-14.83941606833514,65035
-12.36446993118659,65035
-9.89020810566592,65035
-7.416630395839093,65035
-4.94373660569363,65035
-2.471526539137585,65035
-6.821210263296962E-13,65035
2.47084320796705,65035
4.941003281093458,65035
7.410480415786196,65035
9.879274808531363,65035
12.347386655893956,65035
14.814816154518212,65035
17.28156350112681,65035
19.74762889252179,65035
22.21301252558385,65035
24.67771459727237,26440
27.141735304626195,8817
29.605074844762612,7421
32.06773341487792,7740
34.52971121224755,6703
36.99100843422559,6089
39.45162527824516,5919
41.91156194181792,5741
44.370818622535126,4640
46.82939551806646,3779
49.287292826160524,4863
51.74451074464503,5539
54.201049471426245,5136
56.65690920448981,3927
59.112090141899785,2355
61.56659248179983,2875
64.02041642241159,2999
66.4735621620365,3173
68.92602989905402,3806
71.37781983192338,4236
73.82893215918205,3713
76.27936707944684,2749
78.72912479141326,2317
81.17820549385567,2288
83.62660938562783,2188
86.07433666566146,1959
88.5213875329681,2143
90.96776218663751,2392
93.41346082583925,2245
95.85848364982041,2754
98.30283085790859,2893
100.7465026495089,2229
103.18949922410604,1862
105.63182078126385,1738
108.07346752062438,1764
110.51443964190923,1431
112.95473734491827,1605
115.39436082953114,1726
117.83331029570547,1659
120.27158594347827,1849
122.7091879729652,1807
125.1461165843615,1773
127.58237197794062,1382
130.01795435405518,1283
132.4528639131364,1594
134.88710085569494,1512
137.32066538231982,1677
139.75355769367923,1711
142.1857779905207,1575
144.61732647366978,1452
147.04820334403132,1486
149.47840880258934,1609
151.90794305040674,1745
154.33680628862487,1786
156.76499871846443,2059
159.19252054122433,2211
161.61937195828352,2440
164.04555317109896,2844
166.47106438120693,3173
168.89590579022217,3526
171.320077599839,3829
173.7435800118302,4198
176.16641322804742,4428
178.58857745042144,4653
181.01007288096173,4787
183.43089972175687,4818
185.85105817497413,4847
188.27054844285988,5189
190.6893707277394,5481
193.10752523201643,5664
195.5250121581745,5831
197.9418317087751,5908
200.3579840864594,6030
202.7734694939469,5838
205.18828813403627,6211
207.6024402096051,6171
210.01592592360964,6162
212.42874547908548,6090
214.84089907914665,6091
217.2523869269868,6058
219.66320922587727,6116
222.0733661791695,6132
224.48285799029293,6216
226.8916848627572,6027
229.29984700014882,6482
231.7073446061355,6362
234.11417788446204,6176
236.520347038953,6233
238.92585227351185,6155
241.33069379212054,6284
243.73487179884035,6422
246.1383864978112,6572
248.541238093252,6380
250.9434267894609,6453
253.34495279081432,6255
255.74581630176783,6279
258.1460175268563,6151
260.54555667069314,6260
262.9444339379703,6142
265.3426495334594,6199
267.7402036620107,6263
270.1370965285529,6260
272.53332833809407,6122
274.9288992957214,5952
277.32380960660055,6036
279.718059475976,6000
282.1116491091717,6133
284.5045787115897,6002
286.89684848871195,5988
289.2884586460981,5914
291.67940938938807,6077
294.0697009242996,6073
296.4593334566299,6020
298.84830719225477,6128
301.23662233712923,6091
303.6242790972866,6012
306.01127767884,5969
308.39761828798066,5872
310.78330113097934,5810
313.16832641418534,5795
315.5526943440269,5708
317.9364051270112,5897
320.3194589697242,5834
322.70185607883093,5929
325.0835966610754,5774
327.4646809232805,5674
329.8451090723478,5665
332.2248813152577,5657
334.6039978590701,5751
336.9824589109231,5599
339.36026467803447,5705
341.7374153677,5563
344.113911187295,5634
346.48975234427337,5641
348.8649390461686,5531
351.2394715005918,5685
353.61334991523415,5520
355.9865744978655,5609
358.35914545633375,5622
360.73106299856715,5666
363.10232733257146,5614
365.47293866643247,5619
367.84289720831396,5564
370.2122031664593,5524
372.5808567491905,5546
374.9488581649083,5588
377.31620762209275,5539
379.6829053293021,5532
382.0489514951745,5536
384.4143463284262,5547
386.7790900378528,5413
389.14318283232853,5503
391.50662492080653,5590
393.86941651231916,5401
396.23155781597745,5559
398.5930490409713,5691
400.9538903965696,5494
403.3140820921202,5353
405.6736243370498,5473
408.03251734086336,5376
410.3907613131465,5404
412.74835646356166,5389
415.10530300185144,5385
417.4616011378372,5416
419.81725108141893,5370
422.1722530425758,5536
424.5266072313656,5396
426.880313857925,5403
429.2333731324701,5411
431.58578526529516,5447
433.9375504667738,5436
436.2886689473588,5344
438.63914091758113,5500
440.9889665880513,5428
443.33814616945835,5457
445.68667987257015,5377
448.03456790823395,5410
450.3818104873759,5349
452.72840782100013,5415
455.07436012019105,5418
457.41966759611057,5367
459.7643304600007,5255
462.10834892318155,5281
464.4517231970525,5569
466.79445349309174,5555
469.1365400228566,5594
471.4779829979826,5469
473.81878263018564,5537
476.15893913125876,5607
478.4984527130747,5630
480.8373235875855,5690
483.17555196682144,5661
485.5131380628919,5878
487.8500820879857,5957
490.1863842543697,6190
492.52204477439034,6515
494.8570638604725,6702
497.1914417251204,6919
499.52517858091653,7148
501.85827464052306,7267
504.19073011668036,7160
506.5225452222086,6995
508.85372017000566,7018
511.18425517304956,6850
513.514150444396,7389
515.8434061971808,8718
518.1720226446176,9766
520.4999999999999,9886
522.8273384766991,9605
525.1540382881666,9273
527.480099647932,8707
529.8055227696037,7703
532.1303078668694,6836
534.454455153496,6084
536.777964843328,5856
539.1008371502907,5686
541.4230722883866,5745
543.744670471698,5545
546.0656319143858,5699
548.3859568306899,5667
550.7056454349294,5561
553.0246979415016,5714
555.3431145648834,5523
557.6608955196306,5438
559.978041020377,5499
562.2945512818363,5466
564.6104265188006,5526
566.9256669461412,5596
569.2402727788082,5658
571.5542442318302,5521
573.8675815203156,5604
576.1802848594508,5728
578.4923544645015,5726
580.8037905508126,5723
583.114593333807,5625
585.4247630289875,5728
587.7342998519354,5570
590.0432040183106,5660
592.3514757438526,5664
594.6591152443794,5699
596.9661227357875,5720
599.2724984340531,5673
601.578242555231,5522
603.8833553154542,5617
606.1878369309362,5713
608.4916876179676,5622
610.7949075929192,5651
613.0974970722403,5544
615.3994562724587,5583
617.7007854101818,5607
620.0014847020951,5677
622.3015543649641,5611
624.6009946156324,5638
626.8998056710224,5723
629.1979877481361,5790
631.4955410640538,5713
633.7924658359349,5643
636.0887622810175,5626
638.3844306166192,5785
640.6794710601358,5626
642.9738838290426,5696
645.2676691408932,5698
647.5608272133207,5586
649.853358264037,5698
652.1452625108324,5753
654.4365401715764,5843
656.7271914642178,5703
659.0172166067838,5718
661.3066158173809,5764
663.5953893141935,5825
665.8835373154867,5776
668.1710600396028,5761
670.4579577049639,5776
672.7442305300709,5675
675.0298787335033,5718
677.3149025339197,5697
679.599302150058,5751
681.8830778007342,5713
684.1662297048437,5608
686.4487580813608,5651
688.7306631493387,5729
691.0119451279091,5805
693.2926042362834,5607
695.5726406937516,5805
697.8520547196814,5755
700.1308465335215,5669
702.4090163547982,5633
704.6865644031171,5668
706.9634908981619,5637
709.2397960596965,5536
711.5154801075631,5708
713.7905432616823,5788
716.0649857420548,5642
718.3388077687592,5770
720.612009561953,5677
722.8845913418733,5638
725.1565533288352,5764
727.427895743234,5652
729.6986188055427,5718
731.9687227363137,5742
734.238207756178,5764
736.5070740858458,5867
738.7753219461066,5785
741.0429515578281,5770
743.3099631419569,5731
745.5763569195191,5956
747.8421331116193,5817
750.1072919394409,5704
752.3718336242467,5821
754.6357583873777,5774
756.8990664502545,5727
759.1617580343765,5819
761.423833361321,5784
763.6852926527457,5752
765.9461361303862,5899
768.206364016058,5846
770.4659765316536,5835
772.7249738991469,5828
774.9833563405886,5792
777.2411240781092,5768
779.4982773339183,5766
781.7548163303044,5834
784.010741289634,5719
786.2660524343538,5984
788.5207499869881,5797
790.7748341701416,5878
793.0283052064964,5916
795.2811633188143,5852
797.5334087299362,5862
799.7850416627813,5824
802.0360623403484,5926
804.2864709857143,5873
806.5362678220353,5821
808.7854530725468,5902
811.0340269605625,5891
813.2819897094754,5891
815.5293415427581,5841
817.77608268396,5977
820.0222133567116,5794
822.2677337847211,5911
824.5126441917765,5907
826.7569448017433,5920
829.0006358385675,5812
831.2437175262731,5879
833.4861900889629,5946
835.7280537508192,5927
837.9693087361026,5918
840.2099552691533,5940
842.4499935743896,5846
844.689423876309,5959
846.9282463994886,5928
849.1664613685833,5855
851.4040690083276,5992
853.6410695435349,5974
855.877463199097,5741
858.1132501999847,5938
860.3484307712487,5936
862.5830051380175,6026
864.8169735254988,5931
867.0503361589791,5972
869.2830932638243,5940
871.5152450654786,5996
873.7467917894654,5874
875.9777336613873,5999
878.2080709069252,5969
880.4378037518389,5988
882.666932421968,6055
884.8954571432301,6105
887.1233781416219,6107
889.3506956432192,6119
891.5774098741766,6080
893.803521060728,5996
896.0290294291852,6132
898.2539352059397,6150
900.4782386174619,6019
902.7019398903011,6025
904.925039251085,6125
907.147536926521,5958
909.3694331433943,6087
911.59072812857,6034
913.8114221089921,6026
916.0315153116827,6029
918.2510079637437,5930
920.4699002923547,6001
922.6881925247761,5927
924.905884888345,5969
927.1229776104793,5871
929.3394709186747,5819
931.555365040506,5913
933.7706602036275,5932
935.9853566357709,6053
938.1994545647489,5925
940.4129542184515,5974
942.6258558248488,5913
944.8381596119883,5957
947.0498658079974,5961
949.2609746410825,5985
951.4714863395287,6039
953.6814011316998,6007
955.8907192460387,5980
958.0994409110671,6029
960.3075663553858,5963
962.5150958076741,6012
964.7220294966913,6044
966.928367651274,6002
969.1341105003388,5950
971.3392582728806,5774
973.5438111979742,6014
975.747769504772,5885
977.9511334225061,5950
980.153903180487,5968
982.3560790081052,5895
984.5576611348289,5971
986.7586497902058,5931
988.9590452038618,5955
991.158847605503,5942
993.3580572249133,5806
995.5566742919558,5607
997.7546990365728,5836
999.952131688785,5671
1002.1489724786926,5668
1004.3452216364743,5546
1006.5408793923874,5708
1008.7359459767691,5679
1010.9304216200343,5730
1013.1243065526781,5614
1015.3176010052733,5549
1017.510305208472,5543
1019.7024193930064,5521
1021.8939437896848,5683
1024.0848786293977,5791
1026.2752241431122,5620
1028.4649805618747,5519
1030.6541481168115,5627
1032.842727039127,5654
1035.0307175601051,5580
1037.2181199111074,5622
1039.4049343235752,5783
1041.591161029029,5703
1043.7768002590683,5640
1045.9618522453698,5722
1048.1463172196918,5580
1050.3301954138697,5623
1052.513487059818,5698
1054.69619238953,5549
1056.8783116350783,5503
1059.0598450286152,5639
1061.2407928023704,5641
1063.4211551886528,5643
1065.6009324198508,5745
1067.780124728432,5715
1069.9587323469414,5625
1072.1367555080046,5679
1074.314194444325,5731
1076.4910493886855,5636
1078.667320573947,5616
1080.843008233051,5595
1083.0181125990161,5615
1085.1926339049414,5741
1087.3665723840027,5574
1089.5399282694575,5685
1091.7127017946405,5554
1093.8848931929647,5567
1096.0565026979243,5460
1098.2275305430899,5665
1100.3979769621128,5544
1102.567842188722,5461
1104.737126456726,5517
1106.9058300000124,5516
1109.0739530525475,5552
1111.2414958483764,5602
1113.4084586216231,5601
1115.5748416064907,5563
1117.7406450372605,5617
1119.9058691482942,5715
1122.0705141740304,5605
1124.2345803489884,5582
1126.3980679077658,5573
1128.5609770850388,5619
1130.7233081155623,5650
1132.8850612341707,5651
1135.0462366757774,5618
1137.2068346753745,5614
1139.3668554680326,5631
1141.526299288901,5598
1143.68516637321,5587
1145.8434569562655,5689
1148.001171273455,5694
1150.158309560244,5586
1152.3148720521767,5567
1154.470858984876,5653
1156.626270594044,5716
1158.7811071154629,5514
1160.9353687849912,5574
1163.089055838569,5511
1165.242168512213,5569
1167.3947070420209,5662
1169.5466716641677,5596
1171.6980626149075,5482
1173.8488801305748,5540
1175.9991244475814,5541
1178.1487958024186,5523
1180.2978944316555,5603
1182.4464205719428,5574
1184.5943744600072,5493
1186.7417563326567,5567
1188.8885664267755,5464
1191.0348049793297,5515
1193.1804722273619,5525
1195.325568407995,5515
1197.4700937584303,5641
1199.614048515948,5624
1201.7574329179074,5610
1203.900247201746,5614
1206.042491604982,5519
1208.1841663652099,5663
1210.3252717201053,5558
1212.465807907422,5661
1214.6057751649923,5728
1216.7451737307279,5564
1218.8840038426192,5647
1221.0222657387353,5662
1223.1599596572241,5702
1225.2970858363137,5686
1227.4336445143094,5602
1229.5696359295966,5683
1231.705060320639,5753
1233.8399179259786,5810
1235.9742089842384,5785
1238.107933734118,5818
1240.2410924143974,5816
1242.373685263935,5663
1244.5057125216676,5666
1246.6371744266116,5713
1248.7680712178621,5730
1250.898403134593,5812
1253.028170416058,5784
1255.1573733015875,5621
1257.2860120305932,5704
1259.4140868425648,5770
1261.54159797707,5748
1263.6685456737569,5709
1265.7949301723515,5721
1267.9207517126597,5733
1270.046010534565,5647
1272.1707068780306,5698
1274.2948409830983,5711
1276.4184130898889,5889
1278.541423438603,5860
1280.6638722695184,5769
1282.785759822993,5865
1284.9070863394636,5810
1287.0278520594447,5777
1289.1480572235314,5930
1291.2677020723963,5900
1293.3867868467923,5831
1295.5053117875495,5928
1297.623277135579,5956
1299.740683131868,5978
1301.8575300174857,5992
1303.973818033578,6026
1306.0895474213703,5958
1308.2047184221678,5982
1310.3193312773528,5997
1312.4333862283888,6075
1314.5468835168163,5926
1316.659823384255,5893
1318.7722060724045,6101
1320.8840318230418,5887
1322.9953008780249,6061
1325.1060134792888,5954
1327.2161698688478,5871
1329.3257702887959,5994
1331.4348149813054,6078
1333.5433041886276,5994
1335.6512381530933,5966
1337.7586171171101,5895
1339.8654413231675,5949
1341.9717110138317,5915
1344.0774264317488,5904
1346.1825878196432,5818
1348.2871954203192,5831
1350.3912494766587,5934
1352.4947502316231,5966
1354.5976979282532,5906
1356.7000928096686,5872
1358.8019351190665,5840
1360.9032250997243,5901
1363.0039629949988,6019
1365.1041490483235,6114
1367.2037835032133,5904
1369.3028666032606,5927
1371.401398592137,5913
1373.4993797135926,6017
1375.5968102114575,5976
1377.6936903296396,5956
1379.7900203121262,5835
1381.8858004029835,5872
1383.9810308463561,5972
1386.075711886469,5892
1388.1698437676241,6047
1390.2634267342032,6125
1392.356461030667,5998
1394.4489469015557,6037
1396.5408845914872,6017
1398.6322743451592,6023
1400.7231164073469,6087
1402.813411022907,6139
1404.903158436773,6222
1406.9923588939578,6033
1409.0810126395531,6168
1411.1691199187303,5975
1413.2566809767386,6109
1415.343696058907,6017
1417.4301654106425,5976
1419.5160892774315,6019
1421.6014679048399,6119
1423.6863015385125,6035
1425.7705904241707,6067
1427.8543348076178,6051
1429.9375349347342,6163
1432.0201910514802,5967
1434.102303403894,6122
1436.1838722380944,6170
1438.2648978002767,6177
1440.3453803367174,6076
1442.4253200937692,6116
1444.5047173178677,6119
1446.5835722555234,6241
1448.6618851533285,6241
1450.739656257952,6193
1452.8168858161434,6309
1454.8935740747306,6292
1456.96972128062,6310
1459.045327680797,6233
1461.120393522327,6346
1463.1949190523528,6339
1465.2689045180973,6575
1467.3423501668608,6439
1469.415256246024,6592
1471.4876230030463,6529
1473.559450685465,6549
1475.6307395408976,6646
1477.7014898170391,6572
1479.771701761665,6734
1481.8413756226287,6596
1483.9105116478618,6773
1485.9791100853772,6750
1488.0471711832643,6868
1490.1146951896926,6840
1492.1816823529098,6855
1494.2481329212433,6954
1496.3140471430984,6931
1498.3794252669609,6864
1500.4442675413939,6963
1502.5085742150404,7064
1504.572345536622,6954
1506.6355817549388,7165
1508.6982831188702,7161
1510.7604498773744,7212
1512.8220822794883,7443
1514.8831805743293,7143
1516.9437450110909,7337
1519.003775839048,7279
1521.0632733075522,7457
1523.1222376660367,7519
1525.1806691640113,7480
1527.2385680510652,7630
1529.2959345768668,7783
1531.3527689911643,7865
1533.4090715437833,7852
1535.4648424846291,7763
1537.5200820636855,8035
1539.5747905310159,8236
1541.6289681367616,8071
1543.6826151311434,8156
1545.7357317644614,8179
1547.7883182870937,8372
1549.8403749494987,8461
1551.8919020022113,8648
1553.9428996958477,8590
1555.9933682811015,8681
1558.0433080087469,8867
1560.0927191296346,8915
1562.1416018946961,8965
1564.1899565549415,9003
1566.2377833614592,8815
1568.2850825654164,8647
1570.3318544180606,8634
1572.3780991707158,8483
1574.423817074788,8115
1576.4690083817595,7969
1578.5136733431923,8004
1580.5578122107272,7706
1582.601425236085,7618
1584.6445126710646,7363
1586.6870747675434,7271
1588.7291117774776,7126
1590.7706239529034,6955
1592.8116115459347,6985
1594.8520748087658,6811
1596.8920139936686,6635
1598.9314293529933,6666
1600.9703211391711,6604
1603.008689604711,6606
1605.0465350022005,6531
1607.0838575843068,6438
1609.1206576037753,6508
1611.1569353134305,6311
1613.1926909661765,6345
1615.2279248149953,6353
1617.2626371129481,6273
1619.2968281131757,6332
1621.3304980688963,6185
1623.3636472334088,6327
1625.39627586009,6263
1627.428384202396,6260
1629.459972513861,6288
1631.4910410480993,6157
1633.5215900588028,6165
1635.551619799744,6136
1637.5811305247717,6066
1639.6101224878166,6178
1641.6385959428862,6069
1643.6665511440683,6157
1645.693988345528,6071
1647.7209078015112,6086
1649.7473097663405,6153
1651.7731944944203,6158
1653.7985622402307,6098
1655.823413258333,6094
1657.847747803366,6097
1659.8715661300494,5977
1661.8948684931793,5980
1663.9176551476316,6076
1665.9399263483624,5986
1667.9616823504057,6004
1669.982923408873,6060
1672.0036497789574,6125
1674.0238617159293,6105
1676.043559475138,5980
1678.0627433120121,5987
1680.081413482059,6014
1682.0995702408654,5831
1684.117213844096,6013
1686.134344547495,5955
1688.1509626068864,5928
1690.1670682781705,5979
1692.182661817329,5992
1694.1977434804217,5986
1696.2123135235875,5964
1698.226372203043,6127
1700.2399197750851,6135
1702.2529564960905,6003
1704.2654826225112,5996
1706.277498410882,6115
1708.2890041178139,5996
1710.2999999999988,5966
1712.3104863142066,5873
1714.3204633172854,6038
1716.329931266163,6014
1718.3388904178469,6016
1720.3473410294214,5920
1722.3552833580516,6001
1724.3627176609807,6045
1726.3696441955308,6044
1728.3760632191033,5971
1730.3819749891782,5977
1732.3873797633146,5997
1734.3922777991502,5818
1736.3966693544012,5933
1738.4005546868639,6005
1740.4039340544127,5947
1742.406807715001,5895
1744.4091759266616,6003
1746.4110389475054,5834
1748.4123970357223,5893
1750.413250449582,6121
1752.4135994474318,5952
1754.4134442876993,5976
1756.4127852288902,5778
1758.4116225295893,5977
1760.4099564484595,5901
1762.407787244244,6104
1764.405115175764,5922
1766.4019405019203,5859
1768.3982634816916,5881
1770.3940843741357,5892
1772.3894034383907,5913
1774.3842209336717,5925
1776.378537119274,5887
1778.372352254571,5846
1780.3656665990156,5791
1782.3584804121397,5738
1784.3507939535534,5754
1786.3426074829463,6029
1788.3339212600863,5933
1790.3247355448211,5993
1792.3150505970766,5908
1794.3048666768573,5874
1796.2941840442477,6049
1798.2830029594106,6145
1800.2713236825884,5982
1802.2591464741004,5891
1804.2464715943465,5847
1806.2332993038058,6018
1808.2196298630352,5753
1810.2054635326708,5849
1812.190800573428,5821
1814.175641246101,5977
1816.1599858115628,5912
1818.1438345307652,5909
1820.127187664738,5925
1822.1100454745924,6006
1824.092408221516,5878
1826.0742761667766,5963
1828.055649571721,5947
1830.0365286977735,5828
1832.0169138064398,5965
1833.9968051593014,5858
1835.9762030180214,6025
1837.9551076443408,5998
1839.9335193000788,5941
1841.9114382471344,5979
1843.888864747485,5834
1845.8657990631878,5935
1847.842241456378,5898
1849.8181921892697,5871
1851.7936515241558,5871
1853.7686197234098,5846
1855.7430970494815,5916
1857.7170837649014,5881
1859.6905801322787,5877
1861.6635864143004,5787
1863.6361028737338,5878
1865.608129773424,5942
1867.5796673762961,5923
1869.5507159453537,6022
1871.521275743678,5933
1873.4913470344313,5890
1875.4609300808534,5917
1877.4300251462632,5857
1879.3986324940588,5891
1881.366752387717,5941
1883.3343850907936,5908
1885.3015308669228,5877
1887.268189979819,6087
1889.2343626932739,5932
1891.2000492711595,6072
1893.1652499774254,5943
1895.1299650761011,5912
1897.0941948312952,5950
1899.0579395071945,5963
1901.0211993680641,6025
1902.98397467825,5918
1904.9462657021745,5984
1906.9080727043415,5950
1908.869395949332,5920
1910.8302357018065,6022
1912.790592226504,6007
1914.7504657882428,5880
1916.7098566519212,5953
1918.6687650825133,5872
1920.6271913450764,5857
1922.5851357047422,5967
1924.5425984267245,5749
1926.499579776314,5877
1928.4560800188833,5912
1930.4120994198802,5852
1932.367638244833,6070
1934.32269675935,5851
1936.2772752291175,5834
1938.231373919899,5848
1940.1849930975404,5900
1942.1381330279637,5928
1944.0907939771696,5935
1946.0429762112412,5959
1947.9946799963363,5955
1949.9459055986945,5894
1951.896653284633,5989
1953.8469233205478,5895
1955.7967159729142,5951
1957.7460315082863,5911
1959.6948701932974,5853
1961.6432322946594,5994
1963.5911180791632,5884
1965.5385278136787,5926
1967.4854617651545,5837
1969.4319202006182,5963
1971.377903387176,5838
1973.3234115920136,5958
1975.268445082395,5882
1977.2130041256642,5951
1979.1570889892423,5772
1981.1006999406304,5984
1983.04383724741,5923
1984.986501177238,5949
1986.928691997853,5941
1988.8704099770712,5881
1990.811655382789,5984
1992.7524284829801,5838
1994.692729545698,5996
1996.6325588390755,6005
1998.5719166313224,5827
2000.5108031907307,5812
2002.4492187856677,5882
2004.387163684583,5853
2006.3246381560011,5923
2008.2616424685298,5788
2010.1981768908527,5918
2012.1342416917332,5830
2014.069837140014,5937
2016.0049635046162,5995
2017.9396210545406,5927
2019.8738100588666,5819
2021.8075307867502,5976
2023.740783507431,5978
2025.6735684902228,5891
2027.6058860045214,5788
2029.5377363198004,5982
2031.4691197056118,5893
2033.4000364315875,5900
2035.3304867674374,5947
2037.260470982952,5947
2039.189989347998,5859
2041.1190421325232,6037
2043.047629606554,5874
2044.9757520401945,5749
2046.9034097036288,5891
2048.8306028671195,5822
2050.7573318010086,5789
2052.683596775716,5946
2054.609398061742,5873
2056.5347359296647,5903
2058.4596106501403,5999
2060.384022493906,5939
2062.3079717317764,5926
2064.231458634646,5838
2066.1544834734873,6037
2068.077046519352,5912
2069.99914804337,5926
2071.9207883167524,6001
2073.8419676107865,6087
2075.7626861968406,5919
2077.6829443463607,5977
2079.6027423308715,5950
2081.522080421977,5852
2083.440958891362,5853
2085.359378010786,5995
2087.2773380520907,6067
2089.194839287196,5968
2091.111881988101,6018
2093.0284664268825,5972
2094.9445928756973,6005
2096.86026160678,6033
2098.775472892446,6022
2100.690227005088,5976
2102.604524217178,5877
2104.5183648012676,6033
2106.431749029985,5820
2108.34467717604,5883
2110.2571495122206,5997
2112.169166311393,5862
2114.080727846503,5979
2115.9918343905747,5905
2117.902486216711,5910
2119.8126835980956,5925
2121.722426807987,5933
2123.6317161197285,5956
2125.5405518067364,6001
2127.448934142509,5891
2129.356863400624,5872
2131.264339854737,6002
2133.1713637785815,6134
2135.077935445972,5979
2136.9840551308002,5955
2138.889723107037,5885
2140.7949396487334,6117
2142.699705030018,6038
2144.6040195250994,6142
2146.507883408264,6143
2148.4112969538774,5988
2150.3142604363848,6053
2152.2167741303097,6005
2154.1188383102535,6018
2156.0204532508997,5991
2157.9216192270064,6048
2159.822336513414,6040
2161.7226053850413,6055
2163.622426116884,5998
2165.5217989840185,6103
2167.4207242616,6042
2169.319202224862,5982
2171.2172331491165,6108
2173.1148173097563,5944
2175.0119549822507,6071
2176.90864644215,6013
2178.8048919650823,6011
2180.7006918267534,6019
2182.596046302952,6003
2184.4909556695407,6112
2186.3854202024645,6089
2188.279440177746,6051
2190.173015871487,6062
2192.066147559868,6038
2193.958835519149,6089
2195.851080025667,5940
2197.7428813558417,5973
2199.6342397861667,6117
2201.5251555932186,5953
2203.415629053651,6047
2205.3056604441986,6174
2207.19525004167,6154
2209.084398122958,6066
2210.9731049650327,6215
2212.861370844941,6129
2214.749196039812,6195
2216.636580826851,6095
2218.523525483344,6258
2220.410030286655,6233
2222.296095514226,6162
2224.1817214435805,6214
2226.066908352319,6089
2227.951656518121,6139
2229.835966218746,6130
2231.71983773203,6107
2233.6032713358913,6150
2235.486267308324,6055
2237.3688259274036,6171
2239.2509474712824,6138
2241.132632218193,6193
2243.013880446447,6110
2244.8946924344323,6119
2246.7750684606203,6171
2248.6550088035574,6228
2250.534513741871,6107
2252.413583554265,6196
2254.292218519526,6280
2256.170418916517,6147
2258.0481850241786,6195
2259.925517121534,6084
2261.8024154876825,6211
2263.678880401803,6199
2265.5549121431536,6204
2267.430510991071,6080
2269.305677224971,6041
2271.180411124348,6027
2273.0547129687766,6109
2274.9285830379076,6137
2276.8020216114737,6032
2278.6750289692845,6137
2280.5476053912294,6006
2282.4197511572766,6128
2284.2914665474727,6176
2286.162751841943,6285
2288.0336073208937,6201
2289.904033264608,6219
2291.774029953448,6129
2293.6435976678554,6105
2295.5127366883517,6127
2297.381447295534,6134
2299.2497297700825,6160
2301.1175843927526,6094
2302.9850114443825,6006
2304.852011205885,5998
2306.7185839582553,5833
2308.5847299825664,5883
2310.4504495599676,5850
2312.3157429716925,5806
2314.1806104990483,5820
2316.0450524234247,5777
2317.9090690262888,5690
2319.772660589186,5857
2321.635827393742,5752
2323.498569721661,5833
2325.3608878547248,5871
2327.2227820747967,5852
2329.0842526638157,5907
2330.945299903803,5772
2332.805924076857,5771
2334.6661254651535,5793
2336.525904350951,5847
2338.3852610165827,5705
2340.244195744464,5891
2342.102708817088,5813
2343.9608005170253,5896
2345.8184711269287,5878
2347.675720929526,5768
2349.532550207628,5802
2351.38895924412,5786
2353.24494832197,5811
2355.100517724223,5749
2356.955667734004,5876
2358.810398634514,5794
2360.664710709037,5750
2362.5186042409337,5734
2364.3720795136437,5979
2366.225136810686,5712
2368.0777764156583,5813
2369.929998612237,5740
2371.7818036841777,5817
2373.633191915315,5829
2375.484163589562,5940
2377.3347189909114,5885
2379.184858403434,5690
2381.03458211128,5796
2382.8838903986775,5698
2384.732783549936,5761
2386.5812618494406,5794
2388.4293255816588,5821
2390.2769750311327,5733
2392.1242104824883,5879
2393.971032220427,5822
2395.8174405297295,5832
2397.6634356952563,5848
2399.509018001947,5841
2401.3541877348193,5825
2403.1989451789705,5736
2405.043290619576,5809
2406.8872243418905,5751
2408.730746631247,5728
2410.5738577730594,5825
2412.4165580528183,5797
2414.258847756095,5664
2416.100727168537,5747
2417.9421965758734,5729
2419.783256263912,5740
2421.623906518538,5770
2423.4641476257157,5855
2425.303979871491,5898
2427.143403541984,5895
2428.9824189233977,5977
2430.821026302012,5847
2432.6592259641866,5714
2434.497018196361,5729
2436.33440328505,5900
2438.171381516851,5765
2440.00795317844,5718
2441.844118556569,5717
2443.6798779380724,5790
2445.5152316098606,5780
2447.3501798589255,5761
2449.1847229723357,5885
2451.0188612372403,5846
2452.8525949408663,5881
2454.6859243705203,5849
2456.518849813587,5807
2458.3513715575314,5783
2460.183489889895,5850
2462.015205098301,5849
2463.8465174704493,5925
2465.67742729412,5932
2467.5079348571717,5898
2469.338040447542,5773
2471.1677443532476,5827
2472.9970468623833,5799
2474.825948263123,5807
2476.6544488437207,5814
2478.482548892508,5855
2480.310248697896,5747
2482.137548548374,5791
2483.9644487325118,5858
2485.790949538956,5860
2487.617051256433,5859
2489.44275417375,5815
2491.26805857979,5940
2493.0929647635157,5711
2494.917473013971,5827
2496.741583620276,5961
2498.5652968716304,6022
2500.3886130573137,5996
2502.2115324666834,6050
2504.0340553891765,5889
2505.856182114308,5785
2507.6779129316733,5988
2509.499248130945,5981
2511.3201880018764,5691
2513.140732834298,5916
2514.9608829181198,5951
2516.780638543331,5816
2518.6,5898
2520.418967578273,5845
2522.237541568376,5912
2524.0557222606144,5917
2525.8735099453706,5915
2527.6909049131086,5842
2529.507907454368,5880
2531.32451785977,5884
2533.140736420014,5950
2534.9565634258774,6029
2536.771999168218,5846
2538.5870439379714,6054
2540.4016980261526,5917
2542.2159617238544,6103
2544.02983532225,5959
2545.8433191125914,6029
2547.656413386209,6021
2549.4691184345115,5949
2551.2814345489874,6010
2553.093362021204,5943
2554.904901142808,6068
2556.716052205523,5995
2558.526815501153,6066
2560.3371913215824,6035
2562.147179958771,6027
2563.956781704761,5857
2565.7659968516705,6117
2567.5748256916986,6030
2569.3832685171224,6030
2571.1913256202984,5971
2572.9989972936614,6035
2574.806283829725,6029
2576.613185521084,6008
2578.4197026604074,6085
2580.2258355404483,5946
2582.031584454035,6115
2583.836949694077,6104
2585.6419315535613,6075
2587.4465303255533,5995
2589.2507463032002,6082
2591.0545797797245,5967
2592.8580310484303,6035
2594.6611004026995,6169
2596.463788135992,6109
2598.266094541849,6155
2600.0680199138874,6134
2601.869564545807,6099
2603.670728731383,6148
2605.4715127644704,6039
2607.2719169390048,6141
2609.071941548998,6195
2610.8715868885433,6235
2612.670853251811,6177
2614.469740933052,6110
2616.268250226594,6097
2618.0663814268455,6121
2619.864134828292,6165
2621.6615107255006,6027
2623.458509413115,6169
2625.2551311858597,6168
2627.0513763385347,6158
2628.8472451660223,6086
2630.6427379632833,6172
2632.4378550253564,6073
2634.232596647359,6063
2636.026963124488,5989
2637.8209547520187,5978
2639.6145718253065,5947
2641.407814639785,6029
2643.200683490966,6094
2644.9931786744414,6045
2646.7853004858807,6106
2648.577049221034,6070
2650.3684251757277,6057
2652.1594286458712,6023
2653.9500599274484,6015
2655.740319316525,5852
2657.5302071092437,5908
2659.3197236018286,5942
2661.10886909058,6029
2662.8976438718782,6052
2664.686048242183,5814
2666.4740824980327,5942
2668.2617469360443,5957
2670.0490418529134,5881
2671.8359675454153,5883
2673.622524310403,5953
2675.408712444811,5955
2677.1945322456495,5940
2678.979984010009,5786
2680.76506803506,5908
2682.5497846180497,5766
2684.334134056306,5784
2686.1181166472343,5831
2687.9017326883213,5780
2689.6849824771293,5731
2691.4678663113013,5759
2693.2503844885596,5933
2695.032537306705,5800
2696.8143250636167,5783
2698.5957480572542,5714
2700.3768065856534,5794
2702.1575009469316,5709
2703.937831439283,5769
2705.717798360982,5745
2707.4974020103837,5736
2709.276642685917,5694
2711.055520686095,5762
2712.834036309506,5726
2714.612189854819,5661
2716.389981620782,5621
2718.1674119062204,5739
2719.944481010041,5819
2721.721189231226,5688
2723.4975368688415,5597
2725.273524222027,5745
2727.0491515900053,5710
2728.824419272075,5727
2730.5993275676146,5763
2732.3738767760838,5639
2734.148067197016,5662
2735.921899130031,5628
2737.6953728748194,5720
2739.468488731156,5639
2741.2412469988926,5610
2743.0136479779617,5754
2744.785691968372,5893
2746.5573792702116,5592
2748.3287101836504,5620
2750.099685008934,5708
2751.870304046388,5758
2753.640567596418,5721
2755.4104759595057,5771
2757.1800294362156,5542
2758.949228327187,5662
2760.7180729331412,5696
2762.486563554877,5775
2764.254700493272,5620
2766.022484049284,5774
2767.789914523947,5665
2769.5569922183786,5581
2771.3237174337705,5636
2773.090090471394,5703
2774.8561116326036,5665
2776.6217812188274,5629
2778.3870995315756,5755
2780.1520668724356,5697
2781.9166835430747,5699
2783.6809498452394,5580
2785.444866080754,5750
2787.2084325515225,5623
2788.971649559527,5712
2790.73451740683,5695
2792.4970363955713,5669
2794.2592068279705,5687
2796.0210290063264,5641
2797.7825032330147,5694
2799.543629810493,5612
2801.304409041296,5598
2803.0648412280366,5675
2804.8249266734088,5781
2806.5846656801846,5628
2808.344058551212,5702
2810.1031055894246,5610
2811.8618070978273,5727
2813.6201633795085,5653
2815.378174737636,5840
2817.1358414754536,5703
2818.893163896285,5741
2820.6501423035334,5713
2822.4067770006814,5753
2824.1630682912883,5678
2825.9190164789957,5724
2827.6746218675207,5775
2829.429884760661,5729
2831.184805462294,5792
2832.9393842763743,5570
2834.693621506936,5700
2836.4475174580916,5667
2838.201072434034,5653
2839.954286739034,5730
2841.707160677441,5676
2843.459694553685,5722
2845.2118886722724,5797
2846.96374333779,5696
2848.7152588549034,5736
2850.4664355283567,5676
2852.217273662973,5726
2853.9677735636546,5855
2855.7179355353833,5569
2857.4677598832186,5679
2859.217246912299,5679
2860.9663969278427,5725
2862.715210235146,5576
2864.4636871395846,5623
2866.211827946614,5687
2867.9596329617652,5734
2869.7071024906536,5675
2871.4542368389684,5620
2873.20103631248,5641
2874.947501217038,5657
2876.6936318585695,5615
2878.4394285430812,5697
2880.1848915766604,5600
2881.9300212654707,5621
2883.6748179157553,5594
2885.4192818338374,5651
2887.1634133261173,5633
2888.907212699077,5664
2890.6506802592744,5672
2892.393816313348,5741
2894.1366211680142,5475
2895.8790951300693,5762
2897.621238506388,5635
2899.363051603925,5710
2901.1045347297118,5822
2902.8456881908596,5600
2904.58651229456,5768
2906.327007348081,5679
2908.067173658772,5539
2909.8070115340597,5692
2911.5465212814497,5691
2913.285703208527,5727
2915.0245576229563,5494
2916.7630848324807,5568
2918.5012851449196,5475
2920.2391588681758,5541
2921.976706310227,5478
2923.7139277791334,5612
2925.4508235830313,5544
2927.187394030137,5547
2928.923639428745,5573
2930.6595600872306,5604
2932.395156314046,5652
2934.1304284177218,5500
2935.8653767068713,5738
2937.6000014901815,5742
2939.3343030764227,5733
2941.068281774442,5691
2942.8019378931644,5593
2944.5352717415976,5775
2946.2682836288236,5753
2948.0009738640065,5723
2949.7333427563885,5560
2951.465390615289,5759
2953.1971177501086,5769
2954.9285244703265,5671
2956.6596110855,5663
2958.3903779052657,5656
2960.1208252393385,5574
2961.8509533975125,5719
2963.5807626896617,5552
2965.3102534257378,5538
2967.0394259157715,5552
2968.768280469873,5675
2970.496817398232,5608
2972.2250370111146,5663
2973.952939618869,5775
2975.6805255319196,5717
2977.4077950607707,5625
2979.134748516006,5686
2980.861386208289,5752
2982.587708448359,5745
2984.313715547037,5598
2986.039407815222,5694
2987.764785563891,5744
2989.489849104102,5718
2991.2145987469908,5631
2992.9390348037705,5738
2994.6631575857346,5694
2996.3869674042576,5607
2998.1104645707887,5694
2999.83364939686,5525
3001.5565221940783,5627
3003.2790832741334,5558
3005.0013329487924,5506
3006.7232715298996,5543
3008.4448993293804,5606
3010.166216659239,5574
3011.887223831558,5681
3013.607921158498,5704
3015.3283089522993,5702
3017.0483875252826,5755
3018.7681571898443,5532
3020.4876182584626,5534
3022.2067710436927,5536
3023.9256158581707,5534
3025.644153014609,5614
3027.362382825801,5701
3029.0803056046193,5621
3030.797921664012,5605
3032.5152313170106,5638
3034.2322348767225,5517
3035.9489326563353,5616
3037.665324969115,5648
3039.3814121284063,5645
3041.097194447633,5679
3042.812672240299,5593
3044.5278458199855,5522
3046.2427155003525,5577
3047.9572815951406,5687
3049.671544418167,5721
3051.38550428333,5699
3053.0991615046073,5640
3054.812516396051,5559
3056.5255692717974,5656
3058.2383204460575,5579
3059.9507702331257,5626
3061.662918947372,5710
3063.3747669032446,5397
3065.0863144152736,5547
3066.7975617980674,5544
3068.508509366309,5646
3070.219157434767,5726
3071.9295063182844,5631
3073.639556331785,5596
3075.3493077902704,5701
3077.058761008821,5575
3078.7679163025964,5723
3080.476773986837,5658
3082.1853343768594,5661
3083.89359778806,5690
3085.6015645359153,5646
3087.3092349359786,5569
3089.016609303884,5550
3090.7236879553434,5709
3092.4304712061476,5527
3094.136959372166,5564
3095.843152769349,5642
3097.5490517137237,5668
3099.2546565213966,5601
3100.959967508554,5618
3102.66498499146,5675
3104.3697092864577,5693
3106.0741407099695,5658
3107.778279578498,5729
3109.482126208622,5642
3111.1856809170004,5574
3112.8889440203716,5687
3114.5919158355528,5669
3116.294596679439,5650
3117.996986869006,5792
3119.6990867213062,5706
3121.4008965534726,5769
3123.102416682717,5728
3124.803647426329,5717
3126.5045891016784,5721
3128.205242026213,5648
3129.90560651746,5771
3131.605682893025,5694
3133.3054714705922,5698
3135.0049725679282,5651
3136.7041865028714,5743
3138.4031135933465,5708
3140.101754157353,5667
3141.800108512971,5651
3143.498176978357,5618
3145.1959598717494,5679
3146.8934575114636,5651
3148.5906702158954,5658
3150.2875983035183,5673
3151.9842420928853,5630
3153.680601902627,5474
3155.376678051456,5570
3157.07247085816,5598
3158.767980641609,5525
3160.463207720748,5577
3162.158152414606,5639
3163.8528150422862,5658
3165.5471959229726,5673
3167.2412953759303,5728
3168.9351137204976,5631
3170.628651276098,5748
3172.3219083622307,5640
3174.014885298474,5809
3175.707582404485,5919
3177.4000000000005,5711
3179.092138404835,5728
3180.7839979388846,5652
3182.47557892212,5708
3184.166881674594,5745
3185.8579065164386,5841
3187.5486537678626,5752
3189.2391237491547,5785
3190.9293167806827,5708
3192.6192331828934,5728
3194.3088732763117,5774
3195.998237381542,5741
3197.687325819268,5721
3199.376138910251,5711
3201.064676975334,5685
3202.7529403354347,5650
3204.4409293115523,5556
3206.1286442247647,5635
3207.816085396229,5528
3209.5032531471825,5473
3211.190147798936,5576
3212.8767696728846,5650
3214.5631190905015,5542
3216.2491963733373,5569
3217.9350018430214,5444
3219.6205358212637,5458
3221.305798629851,5511
3222.990790590651,5571
3224.6755120256103,5528
3226.359963256751,5625
3228.0441446061795,5515
3229.7280563960758,5454
3231.411698948703,5613
3233.0950725863995,5562
3234.778177631587,5511
3236.461014406761,5594
3238.1435832345005,5763
3239.8258844374595,5574
3241.507918338374,5729
3243.1896852600576,5582
3244.8711855254023,5578
3246.552419457381,5642
3248.233387379042,5751
3249.914089613516,5613
3251.59452648401,5530
3253.274698313813,5533
3254.95460542629,5650
3256.6342481448855,5636
3258.313626793125,5505
3259.9927416946084,5624
3261.6715931730196,5603
3263.3501815521176,5602
3265.0285071557437,5566
3266.706570307815,5538
3268.3843713323286,5607
3270.0619105533615,5492
3271.739188295068,5526
3273.4162048816834,5672
3275.0929606375184,5663
3276.769455886966,5460
3278.445690954498,5740
3280.1216661646613,5624
3281.797381842087,5582
3283.4728383114807,5736
3285.1480358976296,5598
3286.8229749253996,5635
3288.4976557197333,5690
3290.172078605655,5561
3291.846243908266,5570
3293.5201519527463,5501
3295.193803064357,5516
3296.8671975684374,5606
3298.5403357904024,5467
3300.21321805575,5587
3301.8858446900567,5612
3303.558216018975,5649
3305.23033236824,5601
3306.9021940636603,5598
3308.57380143113,5613
3310.2451547966184,5678
3311.916254486174,5668
3313.5871008259246,5719
3315.2576941420766,5545
3316.9280347609147,5647
3318.5981230088046,5561
3320.2679592121895,5582
3321.9375436975924,5537
3323.606876791612,5445
3325.27595882093,5580
3326.944790112305,5603
3328.6133709925753,5464
3330.2817017886573,5492
3331.949782827547,5448
3333.617614436319,5509
3335.2851969421245,5487
3336.952530672199,5673
3338.619615953853,5583
3340.286453114475,5689
3341.9530424815357,5567
3343.619384382583,5684
3345.2854791452437,5712
3346.951327097224,5725
3348.6169285663073,5755
3350.2822838803577,5718
3351.947393367319,5703
3353.61225735521,5788
3355.2768761721345,5601
3356.9412501462693,5728
3358.605379605873,5634
3360.2692648792827,5625
3361.9329062949146,5622
3363.596304181263,5639
