CollectionTime,7/11/2024 1:28:42 PM
ExposureUsed,3
CalibratedSpectrum
-962.7078968117929,521
-959.9714848408522,515
-957.2358232597828,552
-954.5009119013725,530
-951.7667505983302,526
-949.0333391832855,573
-946.3006774887896,525
-943.5687653473143,536
-940.837602591253,566
-938.1071890529199,530
-935.3775245645503,553
-932.6486089583007,574
-929.9204420662485,583
-927.1930237203925,549
-924.4663537526524,535
-921.7404319948689,537
-919.0152582788041,566
-916.2908324361409,632
-913.5671542984834,574
-910.8442236973568,542
-908.1220404642074,542
-905.4006044304027,567
-902.679915427231,540
-899.959973285902,568
-897.2407778375464,527
-894.5223289132158,510
-891.8046263438832,560
-889.0876699604426,537
-886.3714595937089,542
-883.6559950744183,561
-880.9412762332282,529
-878.2273029007168,537
-875.5140749073835,523
-872.8015920836489,513
-870.0898542598545,528
-867.3788612662631,542
-864.6686129330585,531
-861.9591090903457,552
-859.2503495681506,543
-856.5423341964203,549
-853.8350628050229,513
-851.1285352237478,506
-848.4227512823054,506
-845.7177108103272,536
-843.0134136373656,563
-840.3098595928943,526
-837.6070485063082,554
-834.9049802069229,557
-832.2036545239757,527
-829.5030712866244,541
-826.8032303239481,556
-824.1041314649472,567
-821.4057745385428,551
-818.7081593735775,573
-816.0112857988148,548
-813.3151536429393,567
-810.6197627345566,547
-807.9251129021936,532
-805.2312039742981,546
-802.5380357792392,542
-799.8456081453069,533
-797.1539209007124,515
-794.462973873588,517
-791.772766891987,582
-789.083299783884,572
-786.3945723771743,521
-783.7065844996748,542
-781.0193359791231,539
-778.3328266431781,547
-775.6470563194197,546
-772.9620248353489,547
-770.2777320183878,527
-767.5941776958798,562
-764.9113616950891,575
-762.2292838432011,560
-759.5479439673222,559
-756.8673418944801,546
-754.1874774516235,544
-751.5083504656222,577
-748.8299607632671,614
-746.15230817127,566
-743.475392516264,592
-740.7992136248035,594
-738.1237713233636,574
-735.4490654383407,591
-732.7750957960521,598
-730.1018622227365,586
-727.4293645445534,597
-724.7576025875837,592
-722.0865761778291,560
-719.4162851412126,619
-716.7467293035781,580
-714.0779084906909,583
-711.409822528237,584
-708.7424712418238,551
-706.0758544569796,557
-703.4099719991541,611
-700.7448236937178,637
-698.0804093659622,636
-695.4167288411002,589
-692.7537819442656,621
-690.0915685005134,583
-687.4300883348199,563
-684.7693412720819,618
-682.1093271371178,597
-679.4500457546669,598
-676.7914969493897,625
-674.1336805458676,625
-671.4765963686034,595
-668.8202442420206,594
-666.1646239904642,631
-663.5097354382001,634
-660.8555784094151,636
-658.2021527282176,649
-655.5494582186366,618
-652.8974947046223,665
-650.2462620100463,665
-647.5957599587009,654
-644.9459883742998,673
-642.2969470804776,639
-639.6486359007902,630
-637.0010546587141,644
-634.3542031776476,646
-631.7080812809096,619
-629.0626887917401,653
-626.4180255333008,653
-623.7740913286734,639
-621.1308860008619,664
-618.4884093727904,630
-615.8466612673046,645
-613.2056415071715,589
-610.5653499150785,646
-607.9257863136347,672
-605.28695052537,658
-602.6488423727357,633
-600.0114616781036,653
-597.3748082637674,659
-594.7388819519412,676
-592.1036825647604,698
-589.4692099242818,699
-586.8354638524829,706
-584.2024441712624,664
-581.5701507024403,645
-578.9385832677575,664
-576.3077416888759,682
-573.6776257873787,681
-571.0482353847704,659
-568.4195703024757,637
-565.7916303618415,665
-563.164415384135,690
-560.5379251905453,660
-557.9121596021815,656
-555.2871184400748,670
-552.6628015251767,656
-550.0392086783606,682
-547.4163397204204,677
-544.794194472071,664
-542.1727727539491,690
-539.5520743866118,746
-536.9320991905377,721
-534.3128469861261,789
-531.6943175936979,767
-529.0765108334947,767
-526.4594265256793,755
-523.8430644903358,849
-521.2274245474689,934
-518.612506517005,1028
-515.9983102187913,1046
-513.3848354725959,1119
-510.77208209810846,1151
-508.16004991493924,1206
-505.5487387426199,1385
-502.9381484006032,1551
-500.3282787082628,1457
-497.71912948489364,1508
-495.1107005497117,1356
-492.5029917218539,1224
-489.8960028203786,1085
-487.28973366426493,981
-484.68418407241325,919
-482.07935386364494,879
-479.47524285670266,905
-476.87185087025,857
-474.2691777228715,856
-471.66722323307334,831
-469.0659872192821,891
-466.4654694998459,869
-463.86566989303384,823
-461.26658821703614,845
-458.66822428996414,813
-456.07057792985,861
-453.4736489546475,837
-450.877437182231,799
-448.28194243039627,818
-445.68716451686,812
-443.09310325926003,863
-440.49975847515555,822
-437.9071299820263,784
-435.31521759727354,832
-432.72402113821954,847
-430.13354042210767,819
-427.5437752661022,863
-424.95472548728867,870
-422.36639090267386,865
-419.7787713291855,948
-417.1918665836721,887
-414.60567648290385,965
-412.0202008435715,867
-409.4354394822874,886
-406.8513922155845,962
-404.26805885991723,953
-401.685439231661,930
-399.103533147112,914
-396.522340422488,914
-393.9418608739278,857
-391.3620943174908,873
-388.7830405691583,887
-386.2046994448317,827
-383.6270707603344,825
-381.05015433141045,772
-378.473949973725,693
-375.8984575028645,696
-373.32367673433623,644
-370.74960748356875,617
-368.1762495659117,602
-365.60360279663576,569
-363.03166699093265,519
-360.4604419639154,485
-357.8899275306178,504
-355.32012350599507,446
-352.7510297049233,464
-350.1826459421999,450
-347.61497203254316,451
-345.04800779059235,472
-342.4817530309082,454
-339.91620756797226,497
-337.35137121618743,466
-334.7872437898774,505
-332.22382510328725,510
-329.66111497058273,481
-327.09911320585127,432
-324.53781962310075,475
-321.9772340362607,481
-319.4173562591816,435
-316.8581861056348,440
-314.2997233893127,454
-311.7419679238294,453
-309.1849195227194,491
-306.62857799943856,488
-304.0729431673641,505
-301.51801483979375,496
-298.963792829947,514
-296.41027695096386,517
-293.85746701590574,542
-291.3053628377552,532
-288.7539642294155,526
-286.2032710037115,543
-283.65328297338897,532
-281.1039999511146,523
-278.5554217494762,551
-276.007548180983,574
-273.4603790580651,514
-270.9139141930734,480
-268.3681533982807,491
-265.8230964858798,526
-263.27874326798565,553
-260.7350935566336,533
-258.1921471637804,516
-255.6499039013039,500
-253.10836358100266,560
-250.56752601459698,555
-248.02739101372765,560
-245.48795838995704,573
-242.94922795476816,604
-240.41119951956557,569
-237.8738728956746,609
-235.33724789434166,580
-232.80132432673452,574
-230.2661020039418,569
-227.73158073697357,590
-225.19776033676033,601
-222.66464061415422,566
-220.1322213799284,579
-217.60050244477725,576
-215.06948361931552,550
-212.53916471408013,603
-210.00954553952818,634
-207.48062590603843,659
-204.9524056239104,625
-202.4248845033651,651
-199.8980623545441,632
-197.37193898751036,663
-194.84651421224817,678
-192.32178783866232,674
-189.79775967657952,678
-187.27442953574644,728
-184.7517972258321,789
-182.2298625564256,749
-179.7086253370378,803
-177.18808537710026,733
-174.66824248596583,703
-172.14909647290835,654
-169.6306471471229,715
-167.11289431772548,757
-164.59583779375328,819
-162.07947738416453,851
-159.5638128978386,826
-157.04884414357605,913
-154.53457093009854,855
-152.02099306604828,773
-149.50811035998936,770
-146.99592262040665,769
-144.48442965570587,800
-141.97363127421409,855
-139.46352728417958,906
-136.95411749377126,844
-134.44540171107985,741
-131.93737974411636,757
-129.43005140081357,756
-126.92341648902493,948
-124.41747481652521,1268
-121.91222619101006,1555
-119.40767042009657,1609
-116.90380731132257,1870
-114.40063667214702,1983
-111.8981583099503,2277
-109.3963720320337,1878
-106.89527764561933,1605
-104.39487495785067,1481
-101.89516377579241,1998
-99.39614390642998,2825
-96.89781515667039,2870
-94.40017733334128,2351
-91.90323024319173,2336
-89.40697369289148,3823
-86.91140748903172,5498
-84.41653143812482,6431
-81.92234534660395,5877
-79.42884902082358,4284
-76.93604226705907,5109
-74.4439248915071,10307
-71.95249670028534,17352
-69.46175749943245,22318
-66.97170709490854,23832
-64.48234529259423,21937
-61.99367189829195,17784
-59.50568671772464,11588
-57.01838955653636,9046
-54.53178022029283,7992
-52.045858514480074,6862
-49.560624244506016,6930
-47.07607721569923,8099
-44.59221723330904,8089
-42.10904410250669,7362
-39.62655762838392,5992
-37.14475761595372,6042
-34.66364387015028,6002
-32.18321619582866,5514
-29.70347439776515,5590
-27.224418280657005,5906
-24.74604764912317,6890
-22.26836230770266,9899
-19.7913620608565,18193
-17.315046712966478,30271
-14.83941606833514,40948
-12.36446993118659,65037
-9.89020810566592,65037
-7.416630395839093,65037
-4.94373660569363,65037
-2.471526539137585,65037
-6.821210263296962E-13,65037
2.47084320796705,65037
4.941003281093458,65037
7.410480415786196,65037
9.879274808531363,65037
12.347386655893956,65037
14.814816154518212,65037
17.28156350112681,65037
19.74762889252179,65037
22.21301252558385,65037
24.67771459727237,19996
27.141735304626195,3681
29.605074844762612,2493
32.06773341487792,2717
34.52971121224755,2297
36.99100843422559,2439
39.45162527824516,2063
41.91156194181792,1832
44.370818622535126,1652
46.82939551806646,1404
49.287292826160524,1420
51.74451074464503,1648
54.201049471426245,2049
56.65690920448981,1963
59.112090141899785,1375
61.56659248179983,1258
64.02041642241159,1044
66.4735621620365,1087
68.92602989905402,1041
71.37781983192338,1170
73.82893215918205,1344
76.27936707944684,1328
78.72912479141326,1147
81.17820549385567,1170
83.62660938562783,1357
86.07433666566146,1333
88.5213875329681,1054
90.96776218663751,888
93.41346082583925,880
95.85848364982041,1005
98.30283085790859,1180
100.7465026495089,1312
103.18949922410604,1153
105.63182078126385,961
108.07346752062438,919
110.51443964190923,846
112.95473734491827,806
115.39436082953114,839
117.83331029570547,989
120.27158594347827,953
122.7091879729652,1048
125.1461165843615,1048
127.58237197794062,867
130.01795435405518,754
132.4528639131364,807
134.88710085569494,875
137.32066538231982,856
139.75355769367923,838
142.1857779905207,769
144.61732647366978,755
147.04820334403132,795
149.47840880258934,811
151.90794305040674,892
154.33680628862487,1042
156.76499871846443,1188
159.19252054122433,1287
161.61937195828352,1297
164.04555317109896,1505
166.47106438120693,1683
168.89590579022217,1785
171.320077599839,1893
173.7435800118302,2012
176.16641322804742,2060
178.58857745042144,2101
181.01007288096173,2240
183.43089972175687,2161
185.85105817497413,2162
188.27054844285988,2202
190.6893707277394,2121
193.10752523201643,2188
195.5250121581745,2328
197.9418317087751,2398
200.3579840864594,2367
202.7734694939469,2419
205.18828813403627,2395
207.6024402096051,2560
210.01592592360964,2463
212.42874547908548,2498
214.84089907914665,2373
217.2523869269868,2359
219.66320922587727,2454
222.0733661791695,2441
224.48285799029293,2428
226.8916848627572,2472
229.29984700014882,2491
231.7073446061355,2508
234.11417788446204,2441
236.520347038953,2515
238.92585227351185,2579
241.33069379212054,2658
243.73487179884035,2647
246.1383864978112,2771
248.541238093252,2668
250.9434267894609,2683
253.34495279081432,2799
255.74581630176783,2705
258.1460175268563,2693
260.54555667069314,2788
262.9444339379703,2800
265.3426495334594,2658
267.7402036620107,2667
270.1370965285529,2755
272.53332833809407,2614
274.9288992957214,2465
277.32380960660055,2441
279.718059475976,2364
282.1116491091717,2361
284.5045787115897,2363
286.89684848871195,2316
289.2884586460981,2202
291.67940938938807,2243
294.0697009242996,2404
296.4593334566299,2364
298.84830719225477,2313
301.23662233712923,2432
303.6242790972866,2300
306.01127767884,2227
308.39761828798066,2241
310.78330113097934,2229
313.16832641418534,2187
315.5526943440269,2201
317.9364051270112,2083
320.3194589697242,2130
322.70185607883093,2085
325.0835966610754,2162
327.4646809232805,2084
329.8451090723478,2094
332.2248813152577,2124
334.6039978590701,1992
336.9824589109231,2072
339.36026467803447,1944
341.7374153677,1909
344.113911187295,1945
346.48975234427337,1911
348.8649390461686,1925
351.2394715005918,1948
353.61334991523415,1939
355.9865744978655,1895
358.35914545633375,1962
360.73106299856715,1957
363.10232733257146,1962
365.47293866643247,1922
367.84289720831396,1880
370.2122031664593,1841
372.5808567491905,1937
374.9488581649083,1900
377.31620762209275,1899
379.6829053293021,1878
382.0489514951745,1892
384.4143463284262,1827
386.7790900378528,1817
389.14318283232853,1843
391.50662492080653,1837
393.86941651231916,1956
396.23155781597745,1861
398.5930490409713,1841
400.9538903965696,1818
403.3140820921202,1844
405.6736243370498,1806
408.03251734086336,1750
410.3907613131465,1850
412.74835646356166,1846
415.10530300185144,1846
417.4616011378372,1818
419.81725108141893,1841
422.1722530425758,1756
424.5266072313656,1772
426.880313857925,1791
429.2333731324701,1805
431.58578526529516,1814
433.9375504667738,1727
436.2886689473588,1772
438.63914091758113,1778
440.9889665880513,1754
443.33814616945835,1743
445.68667987257015,1726
448.03456790823395,1767
450.3818104873759,1760
452.72840782100013,1734
455.07436012019105,1714
457.41966759611057,1731
459.7643304600007,1790
462.10834892318155,1749
464.4517231970525,1750
466.79445349309174,1686
469.1365400228566,1683
471.4779829979826,1780
473.81878263018564,1757
476.15893913125876,1698
478.4984527130747,1811
480.8373235875855,1804
483.17555196682144,1777
485.5131380628919,1964
487.8500820879857,1885
490.1863842543697,2080
492.52204477439034,2165
494.8570638604725,2418
497.1914417251204,2555
499.52517858091653,2842
501.85827464052306,3166
504.19073011668036,3188
506.5225452222086,3186
508.85372017000566,3130
511.18425517304956,2954
513.514150444396,3059
515.8434061971808,3366
518.1720226446176,4041
520.4999999999999,4167
522.8273384766991,3835
525.1540382881666,3636
527.480099647932,3293
529.8055227696037,2729
532.1303078668694,2322
534.454455153496,2070
536.777964843328,1907
539.1008371502907,1846
541.4230722883866,1784
543.744670471698,1794
546.0656319143858,1840
548.3859568306899,1804
550.7056454349294,1796
553.0246979415016,1749
555.3431145648834,1746
557.6608955196306,1757
559.978041020377,1745
562.2945512818363,1742
564.6104265188006,1766
566.9256669461412,1786
569.2402727788082,1734
571.5542442318302,1807
573.8675815203156,1737
576.1802848594508,1726
578.4923544645015,1860
580.8037905508126,1776
583.114593333807,1826
585.4247630289875,1846
587.7342998519354,1775
590.0432040183106,1749
592.3514757438526,1846
594.6591152443794,1818
596.9661227357875,1744
599.2724984340531,1834
601.578242555231,1862
603.8833553154542,1870
606.1878369309362,1840
608.4916876179676,1828
610.7949075929192,1846
613.0974970722403,1831
615.3994562724587,1825
617.7007854101818,1814
620.0014847020951,1833
622.3015543649641,1784
624.6009946156324,1845
626.8998056710224,1824
629.1979877481361,1797
631.4955410640538,1749
633.7924658359349,1795
636.0887622810175,1861
638.3844306166192,1845
640.6794710601358,1866
642.9738838290426,1833
645.2676691408932,1830
647.5608272133207,1898
649.853358264037,1841
652.1452625108324,1867
654.4365401715764,1879
656.7271914642178,1837
659.0172166067838,1910
661.3066158173809,1860
663.5953893141935,1800
665.8835373154867,1838
668.1710600396028,1873
670.4579577049639,1865
672.7442305300709,1805
675.0298787335033,1798
677.3149025339197,1889
679.599302150058,1884
681.8830778007342,1847
684.1662297048437,1784
686.4487580813608,1861
688.7306631493387,1854
691.0119451279091,1841
693.2926042362834,1827
695.5726406937516,1891
697.8520547196814,1868
700.1308465335215,1831
702.4090163547982,1845
704.6865644031171,1882
706.9634908981619,1817
709.2397960596965,1863
711.5154801075631,1847
713.7905432616823,1918
716.0649857420548,1787
718.3388077687592,1876
720.612009561953,1739
722.8845913418733,1843
725.1565533288352,1889
727.427895743234,1826
729.6986188055427,1796
731.9687227363137,1846
734.238207756178,1767
736.5070740858458,1809
738.7753219461066,1844
741.0429515578281,1845
743.3099631419569,1838
745.5763569195191,1876
747.8421331116193,1847
750.1072919394409,1872
752.3718336242467,1778
754.6357583873777,1842
756.8990664502545,1844
759.1617580343765,1833
761.423833361321,1868
763.6852926527457,1931
765.9461361303862,1803
768.206364016058,1886
770.4659765316536,1814
772.7249738991469,1836
774.9833563405886,1884
777.2411240781092,1810
779.4982773339183,1866
781.7548163303044,1935
784.010741289634,1880
786.2660524343538,1932
788.5207499869881,1877
790.7748341701416,1882
793.0283052064964,1953
795.2811633188143,1901
797.5334087299362,1860
799.7850416627813,1973
802.0360623403484,1830
804.2864709857143,1840
806.5362678220353,1934
808.7854530725468,1867
811.0340269605625,1841
813.2819897094754,1833
815.5293415427581,1859
817.77608268396,1858
820.0222133567116,1873
822.2677337847211,1865
824.5126441917765,1894
826.7569448017433,1841
829.0006358385675,1842
831.2437175262731,1858
833.4861900889629,1902
835.7280537508192,1898
837.9693087361026,1829
840.2099552691533,1887
842.4499935743896,1867
844.689423876309,1844
846.9282463994886,1927
849.1664613685833,1926
851.4040690083276,1841
853.6410695435349,1895
855.877463199097,1860
858.1132501999847,1873
860.3484307712487,1867
862.5830051380175,1933
864.8169735254988,1870
867.0503361589791,1812
869.2830932638243,1891
871.5152450654786,1903
873.7467917894654,1893
875.9777336613873,1883
878.2080709069252,1863
880.4378037518389,1905
882.666932421968,1904
884.8954571432301,1942
887.1233781416219,1973
889.3506956432192,1929
891.5774098741766,1977
893.803521060728,1894
896.0290294291852,1962
898.2539352059397,1873
900.4782386174619,1956
902.7019398903011,1886
904.925039251085,1864
907.147536926521,1854
909.3694331433943,1838
911.59072812857,1858
913.8114221089921,1853
916.0315153116827,1898
918.2510079637437,1884
920.4699002923547,1889
922.6881925247761,1871
924.905884888345,1864
927.1229776104793,1791
929.3394709186747,1832
931.555365040506,1852
933.7706602036275,1832
935.9853566357709,1873
938.1994545647489,1828
940.4129542184515,1909
942.6258558248488,1882
944.8381596119883,1838
947.0498658079974,1809
949.2609746410825,1833
951.4714863395287,1834
953.6814011316998,1774
955.8907192460387,1730
958.0994409110671,1750
960.3075663553858,1775
962.5150958076741,1795
964.7220294966913,1798
966.928367651274,1753
969.1341105003388,1845
971.3392582728806,1744
973.5438111979742,1761
975.747769504772,1806
977.9511334225061,1769
980.153903180487,1740
982.3560790081052,1697
984.5576611348289,1735
986.7586497902058,1725
988.9590452038618,1764
991.158847605503,1706
993.3580572249133,1668
995.5566742919558,1693
997.7546990365728,1660
999.952131688785,1645
1002.1489724786926,1643
1004.3452216364743,1617
1006.5408793923874,1611
1008.7359459767691,1558
1010.9304216200343,1559
1013.1243065526781,1613
1015.3176010052733,1612
1017.510305208472,1600
1019.7024193930064,1535
1021.8939437896848,1560
1024.0848786293977,1540
1026.2752241431122,1547
1028.4649805618747,1498
1030.6541481168115,1516
1032.842727039127,1518
1035.0307175601051,1503
1037.2181199111074,1517
1039.4049343235752,1494
1041.591161029029,1533
1043.7768002590683,1492
1045.9618522453698,1528
1048.1463172196918,1471
1050.3301954138697,1532
1052.513487059818,1544
1054.69619238953,1481
1056.8783116350783,1519
1059.0598450286152,1483
1061.2407928023704,1498
1063.4211551886528,1494
1065.6009324198508,1482
1067.780124728432,1493
1069.9587323469414,1437
1072.1367555080046,1491
1074.314194444325,1437
1076.4910493886855,1509
1078.667320573947,1484
1080.843008233051,1457
1083.0181125990161,1410
1085.1926339049414,1425
1087.3665723840027,1482
1089.5399282694575,1401
1091.7127017946405,1447
1093.8848931929647,1407
1096.0565026979243,1390
1098.2275305430899,1468
1100.3979769621128,1401
1102.567842188722,1373
1104.737126456726,1363
1106.9058300000124,1401
1109.0739530525475,1389
1111.2414958483764,1473
1113.4084586216231,1415
1115.5748416064907,1396
1117.7406450372605,1387
1119.9058691482942,1430
1122.0705141740304,1437
1124.2345803489884,1401
1126.3980679077658,1391
1128.5609770850388,1375
1130.7233081155623,1393
1132.8850612341707,1387
1135.0462366757774,1440
1137.2068346753745,1419
1139.3668554680326,1391
1141.526299288901,1363
1143.68516637321,1371
1145.8434569562655,1394
1148.001171273455,1398
1150.158309560244,1387
1152.3148720521767,1376
1154.470858984876,1369
1156.626270594044,1423
1158.7811071154629,1322
1160.9353687849912,1392
1163.089055838569,1340
1165.242168512213,1357
1167.3947070420209,1321
1169.5466716641677,1333
1171.6980626149075,1325
1173.8488801305748,1383
1175.9991244475814,1360
1178.1487958024186,1364
1180.2978944316555,1306
1182.4464205719428,1365
1184.5943744600072,1345
1186.7417563326567,1340
1188.8885664267755,1293
1191.0348049793297,1264
1193.1804722273619,1353
1195.325568407995,1368
1197.4700937584303,1380
1199.614048515948,1336
1201.7574329179074,1376
1203.900247201746,1382
1206.042491604982,1351
1208.1841663652099,1336
1210.3252717201053,1398
1212.465807907422,1363
1214.6057751649923,1386
1216.7451737307279,1355
1218.8840038426192,1281
1221.0222657387353,1352
1223.1599596572241,1394
1225.2970858363137,1381
1227.4336445143094,1437
1229.5696359295966,1372
1231.705060320639,1354
1233.8399179259786,1374
1235.9742089842384,1378
1238.107933734118,1380
1240.2410924143974,1405
1242.373685263935,1406
1244.5057125216676,1382
1246.6371744266116,1399
1248.7680712178621,1399
1250.898403134593,1371
1253.028170416058,1390
1255.1573733015875,1429
1257.2860120305932,1326
1259.4140868425648,1400
1261.54159797707,1394
1263.6685456737569,1447
1265.7949301723515,1407
1267.9207517126597,1361
1270.046010534565,1469
1272.1707068780306,1342
1274.2948409830983,1442
1276.4184130898889,1372
1278.541423438603,1418
1280.6638722695184,1427
1282.785759822993,1438
1284.9070863394636,1420
1287.0278520594447,1343
1289.1480572235314,1433
1291.2677020723963,1484
1293.3867868467923,1464
1295.5053117875495,1492
1297.623277135579,1452
1299.740683131868,1499
1301.8575300174857,1512
1303.973818033578,1484
1306.0895474213703,1509
1308.2047184221678,1476
1310.3193312773528,1532
1312.4333862283888,1487
1314.5468835168163,1449
1316.659823384255,1539
1318.7722060724045,1501
1320.8840318230418,1479
1322.9953008780249,1488
1325.1060134792888,1493
1327.2161698688478,1470
1329.3257702887959,1476
1331.4348149813054,1442
1333.5433041886276,1455
1335.6512381530933,1400
1337.7586171171101,1464
1339.8654413231675,1582
1341.9717110138317,1447
1344.0774264317488,1483
1346.1825878196432,1484
1348.2871954203192,1441
1350.3912494766587,1402
1352.4947502316231,1487
1354.5976979282532,1411
1356.7000928096686,1419
1358.8019351190665,1505
1360.9032250997243,1472
1363.0039629949988,1430
1365.1041490483235,1449
1367.2037835032133,1491
1369.3028666032606,1451
1371.401398592137,1487
1373.4993797135926,1459
1375.5968102114575,1520
1377.6936903296396,1511
1379.7900203121262,1501
1381.8858004029835,1476
1383.9810308463561,1463
1386.075711886469,1507
1388.1698437676241,1488
1390.2634267342032,1509
1392.356461030667,1543
1394.4489469015557,1496
1396.5408845914872,1503
1398.6322743451592,1483
1400.7231164073469,1497
1402.813411022907,1552
1404.903158436773,1568
1406.9923588939578,1614
1409.0810126395531,1560
1411.1691199187303,1570
1413.2566809767386,1557
1415.343696058907,1484
1417.4301654106425,1592
1419.5160892774315,1564
1421.6014679048399,1533
1423.6863015385125,1534
1425.7705904241707,1582
1427.8543348076178,1582
1429.9375349347342,1618
1432.0201910514802,1656
1434.102303403894,1620
1436.1838722380944,1589
1438.2648978002767,1603
1440.3453803367174,1662
1442.4253200937692,1646
1444.5047173178677,1646
1446.5835722555234,1730
1448.6618851533285,1707
1450.739656257952,1797
1452.8168858161434,1765
1454.8935740747306,1731
1456.96972128062,1836
1459.045327680797,1818
1461.120393522327,1801
1463.1949190523528,1794
1465.2689045180973,1902
1467.3423501668608,1873
1469.415256246024,1938
1471.4876230030463,1972
1473.559450685465,1982
1475.6307395408976,1950
1477.7014898170391,2080
1479.771701761665,2114
1481.8413756226287,2087
1483.9105116478618,2081
1485.9791100853772,2123
1488.0471711832643,2121
1490.1146951896926,2136
1492.1816823529098,2152
1494.2481329212433,2226
1496.3140471430984,2196
1498.3794252669609,2267
1500.4442675413939,2234
1502.5085742150404,2219
1504.572345536622,2219
1506.6355817549388,2221
1508.6982831188702,2280
1510.7604498773744,2274
1512.8220822794883,2246
1514.8831805743293,2297
1516.9437450110909,2364
1519.003775839048,2344
1521.0632733075522,2353
1523.1222376660367,2361
1525.1806691640113,2373
1527.2385680510652,2414
1529.2959345768668,2383
1531.3527689911643,2441
1533.4090715437833,2439
1535.4648424846291,2485
1537.5200820636855,2544
1539.5747905310159,2496
1541.6289681367616,2510
1543.6826151311434,2560
1545.7357317644614,2579
1547.7883182870937,2643
1549.8403749494987,2572
1551.8919020022113,2740
1553.9428996958477,2773
1555.9933682811015,2792
1558.0433080087469,2772
1560.0927191296346,2820
1562.1416018946961,2849
1564.1899565549415,2923
1566.2377833614592,2792
1568.2850825654164,2739
1570.3318544180606,2766
1572.3780991707158,2728
1574.423817074788,2690
1576.4690083817595,2538
1578.5136733431923,2539
1580.5578122107272,2345
1582.601425236085,2342
1584.6445126710646,2251
1586.6870747675434,2131
1588.7291117774776,2090
1590.7706239529034,2115
1592.8116115459347,2049
1594.8520748087658,1989
1596.8920139936686,1814
1598.9314293529933,1834
1600.9703211391711,1775
1603.008689604711,1834
1605.0465350022005,1694
1607.0838575843068,1694
1609.1206576037753,1663
1611.1569353134305,1632
1613.1926909661765,1629
1615.2279248149953,1608
1617.2626371129481,1601
1619.2968281131757,1572
1621.3304980688963,1532
1623.3636472334088,1562
1625.39627586009,1534
1627.428384202396,1516
1629.459972513861,1561
1631.4910410480993,1504
1633.5215900588028,1513
1635.551619799744,1496
1637.5811305247717,1465
1639.6101224878166,1504
1641.6385959428862,1485
1643.6665511440683,1460
1645.693988345528,1443
1647.7209078015112,1489
1649.7473097663405,1488
1651.7731944944203,1489
1653.7985622402307,1477
1655.823413258333,1453
1657.847747803366,1453
1659.8715661300494,1452
1661.8948684931793,1482
1663.9176551476316,1477
1665.9399263483624,1463
1667.9616823504057,1454
1669.982923408873,1457
1672.0036497789574,1441
1674.0238617159293,1406
1676.043559475138,1336
1678.0627433120121,1461
1680.081413482059,1477
1682.0995702408654,1420
1684.117213844096,1464
1686.134344547495,1444
1688.1509626068864,1423
1690.1670682781705,1488
1692.182661817329,1394
1694.1977434804217,1447
1696.2123135235875,1418
1698.226372203043,1439
1700.2399197750851,1494
1702.2529564960905,1456
1704.2654826225112,1422
1706.277498410882,1458
1708.2890041178139,1370
1710.2999999999988,1329
1712.3104863142066,1407
1714.3204633172854,1452
1716.329931266163,1390
1718.3388904178469,1413
1720.3473410294214,1415
1722.3552833580516,1433
1724.3627176609807,1365
1726.3696441955308,1417
1728.3760632191033,1423
1730.3819749891782,1419
1732.3873797633146,1403
1734.3922777991502,1340
1736.3966693544012,1348
1738.4005546868639,1415
1740.4039340544127,1369
1742.406807715001,1323
1744.4091759266616,1374
1746.4110389475054,1342
1748.4123970357223,1364
1750.413250449582,1317
1752.4135994474318,1384
1754.4134442876993,1359
1756.4127852288902,1363
1758.4116225295893,1357
1760.4099564484595,1373
1762.407787244244,1382
1764.405115175764,1421
1766.4019405019203,1350
1768.3982634816916,1351
1770.3940843741357,1320
1772.3894034383907,1329
1774.3842209336717,1318
1776.378537119274,1363
1778.372352254571,1304
1780.3656665990156,1401
1782.3584804121397,1335
1784.3507939535534,1334
1786.3426074829463,1295
1788.3339212600863,1352
1790.3247355448211,1316
1792.3150505970766,1389
1794.3048666768573,1333
1796.2941840442477,1378
1798.2830029594106,1380
1800.2713236825884,1360
1802.2591464741004,1333
1804.2464715943465,1344
1806.2332993038058,1370
1808.2196298630352,1276
1810.2054635326708,1314
1812.190800573428,1347
1814.175641246101,1310
1816.1599858115628,1311
1818.1438345307652,1323
1820.127187664738,1273
1822.1100454745924,1308
1824.092408221516,1288
1826.0742761667766,1279
1828.055649571721,1327
1830.0365286977735,1313
1832.0169138064398,1311
1833.9968051593014,1317
1835.9762030180214,1358
1837.9551076443408,1401
1839.9335193000788,1339
1841.9114382471344,1360
1843.888864747485,1283
1845.8657990631878,1313
1847.842241456378,1327
1849.8181921892697,1330
1851.7936515241558,1295
1853.7686197234098,1307
1855.7430970494815,1322
1857.7170837649014,1250
1859.6905801322787,1284
1861.6635864143004,1268
1863.6361028737338,1286
1865.608129773424,1273
1867.5796673762961,1274
1869.5507159453537,1288
1871.521275743678,1225
1873.4913470344313,1339
1875.4609300808534,1305
1877.4300251462632,1256
1879.3986324940588,1363
1881.366752387717,1310
1883.3343850907936,1247
1885.3015308669228,1313
1887.268189979819,1293
1889.2343626932739,1309
1891.2000492711595,1344
1893.1652499774254,1328
1895.1299650761011,1408
1897.0941948312952,1331
1899.0579395071945,1268
1901.0211993680641,1324
1902.98397467825,1309
1904.9462657021745,1350
1906.9080727043415,1329
1908.869395949332,1326
1910.8302357018065,1327
1912.790592226504,1396
1914.7504657882428,1362
1916.7098566519212,1354
1918.6687650825133,1367
1920.6271913450764,1333
1922.5851357047422,1352
1924.5425984267245,1359
1926.499579776314,1358
1928.4560800188833,1384
1930.4120994198802,1308
1932.367638244833,1375
1934.32269675935,1353
1936.2772752291175,1354
1938.231373919899,1349
1940.1849930975404,1352
1942.1381330279637,1354
1944.0907939771696,1331
1946.0429762112412,1313
1947.9946799963363,1289
1949.9459055986945,1310
1951.896653284633,1316
1953.8469233205478,1286
1955.7967159729142,1343
1957.7460315082863,1372
1959.6948701932974,1366
1961.6432322946594,1253
1963.5911180791632,1330
1965.5385278136787,1318
1967.4854617651545,1309
1969.4319202006182,1271
1971.377903387176,1331
1973.3234115920136,1376
1975.268445082395,1328
1977.2130041256642,1289
1979.1570889892423,1276
1981.1006999406304,1354
1983.04383724741,1374
1984.986501177238,1279
1986.928691997853,1330
1988.8704099770712,1309
1990.811655382789,1298
1992.7524284829801,1268
1994.692729545698,1343
1996.6325588390755,1252
1998.5719166313224,1231
2000.5108031907307,1267
2002.4492187856677,1321
2004.387163684583,1282
2006.3246381560011,1243
2008.2616424685298,1274
2010.1981768908527,1280
2012.1342416917332,1309
2014.069837140014,1328
2016.0049635046162,1339
2017.9396210545406,1291
2019.8738100588666,1293
2021.8075307867502,1301
2023.740783507431,1249
2025.6735684902228,1345
2027.6058860045214,1292
2029.5377363198004,1293
2031.4691197056118,1297
2033.4000364315875,1269
2035.3304867674374,1240
2037.260470982952,1306
2039.189989347998,1304
2041.1190421325232,1259
2043.047629606554,1282
2044.9757520401945,1261
2046.9034097036288,1259
2048.8306028671195,1283
2050.7573318010086,1327
2052.683596775716,1276
2054.609398061742,1244
2056.5347359296647,1289
2058.4596106501403,1226
2060.384022493906,1298
2062.3079717317764,1297
2064.231458634646,1220
2066.1544834734873,1289
2068.077046519352,1300
2069.99914804337,1257
2071.9207883167524,1321
2073.8419676107865,1337
2075.7626861968406,1302
2077.6829443463607,1312
2079.6027423308715,1281
2081.522080421977,1267
2083.440958891362,1344
2085.359378010786,1253
2087.2773380520907,1327
2089.194839287196,1252
2091.111881988101,1248
2093.0284664268825,1291
2094.9445928756973,1266
2096.86026160678,1245
2098.775472892446,1298
2100.690227005088,1326
2102.604524217178,1304
2104.5183648012676,1290
2106.431749029985,1344
2108.34467717604,1255
2110.2571495122206,1289
2112.169166311393,1260
2114.080727846503,1304
2115.9918343905747,1276
2117.902486216711,1293
2119.8126835980956,1257
2121.722426807987,1316
2123.6317161197285,1278
2125.5405518067364,1268
2127.448934142509,1294
2129.356863400624,1291
2131.264339854737,1299
2133.1713637785815,1322
2135.077935445972,1305
2136.9840551308002,1310
2138.889723107037,1329
2140.7949396487334,1358
2142.699705030018,1265
2144.6040195250994,1290
2146.507883408264,1361
2148.4112969538774,1379
2150.3142604363848,1310
2152.2167741303097,1344
2154.1188383102535,1332
2156.0204532508997,1346
2157.9216192270064,1323
2159.822336513414,1327
2161.7226053850413,1345
2163.622426116884,1323
2165.5217989840185,1302
2167.4207242616,1372
2169.319202224862,1307
2171.2172331491165,1343
2173.1148173097563,1410
2175.0119549822507,1349
2176.90864644215,1325
2178.8048919650823,1364
2180.7006918267534,1332
2182.596046302952,1374
2184.4909556695407,1354
2186.3854202024645,1342
2188.279440177746,1365
2190.173015871487,1357
2192.066147559868,1419
2193.958835519149,1386
2195.851080025667,1382
2197.7428813558417,1409
2199.6342397861667,1371
2201.5251555932186,1350
2203.415629053651,1381
2205.3056604441986,1358
2207.19525004167,1345
2209.084398122958,1420
2210.9731049650327,1377
2212.861370844941,1371
2214.749196039812,1397
2216.636580826851,1372
2218.523525483344,1405
2220.410030286655,1395
2222.296095514226,1350
2224.1817214435805,1377
2226.066908352319,1363
2227.951656518121,1416
2229.835966218746,1427
2231.71983773203,1437
2233.6032713358913,1416
2235.486267308324,1387
2237.3688259274036,1369
2239.2509474712824,1359
2241.132632218193,1413
2243.013880446447,1420
2244.8946924344323,1445
2246.7750684606203,1429
2248.6550088035574,1408
2250.534513741871,1428
2252.413583554265,1378
2254.292218519526,1352
2256.170418916517,1331
2258.0481850241786,1401
2259.925517121534,1388
2261.8024154876825,1358
2263.678880401803,1407
2265.5549121431536,1400
2267.430510991071,1379
2269.305677224971,1385
2271.180411124348,1371
2273.0547129687766,1422
2274.9285830379076,1393
2276.8020216114737,1374
2278.6750289692845,1400
2280.5476053912294,1422
2282.4197511572766,1357
2284.2914665474727,1383
2286.162751841943,1445
2288.0336073208937,1499
2289.904033264608,1377
2291.774029953448,1419
2293.6435976678554,1403
2295.5127366883517,1360
2297.381447295534,1332
2299.2497297700825,1305
2301.1175843927526,1261
2302.9850114443825,1295
2304.852011205885,1282
2306.7185839582553,1218
2308.5847299825664,1242
2310.4504495599676,1158
2312.3157429716925,1204
2314.1806104990483,1198
2316.0450524234247,1146
2317.9090690262888,1191
2319.772660589186,1194
2321.635827393742,1229
2323.498569721661,1181
2325.3608878547248,1194
2327.2227820747967,1193
2329.0842526638157,1199
2330.945299903803,1237
2332.805924076857,1180
2334.6661254651535,1171
2336.525904350951,1149
2338.3852610165827,1167
2340.244195744464,1154
2342.102708817088,1212
2343.9608005170253,1187
2345.8184711269287,1215
2347.675720929526,1223
2349.532550207628,1210
2351.38895924412,1232
2353.24494832197,1193
2355.100517724223,1235
2356.955667734004,1233
2358.810398634514,1215
2360.664710709037,1204
2362.5186042409337,1220
2364.3720795136437,1164
2366.225136810686,1173
2368.0777764156583,1183
2369.929998612237,1169
2371.7818036841777,1182
2373.633191915315,1223
2375.484163589562,1253
2377.3347189909114,1199
2379.184858403434,1200
2381.03458211128,1197
2382.8838903986775,1209
2384.732783549936,1220
2386.5812618494406,1201
2388.4293255816588,1250
2390.2769750311327,1214
2392.1242104824883,1172
2393.971032220427,1269
2395.8174405297295,1179
2397.6634356952563,1222
2399.509018001947,1217
2401.3541877348193,1215
2403.1989451789705,1173
2405.043290619576,1225
2406.8872243418905,1228
2408.730746631247,1214
2410.5738577730594,1186
2412.4165580528183,1222
2414.258847756095,1231
2416.100727168537,1175
2417.9421965758734,1170
2419.783256263912,1202
2421.623906518538,1217
2423.4641476257157,1150
2425.303979871491,1207
2427.143403541984,1208
2428.9824189233977,1139
2430.821026302012,1183
2432.6592259641866,1253
2434.497018196361,1213
2436.33440328505,1185
2438.171381516851,1203
2440.00795317844,1241
2441.844118556569,1216
2443.6798779380724,1227
2445.5152316098606,1170
2447.3501798589255,1202
2449.1847229723357,1191
2451.0188612372403,1174
2452.8525949408663,1205
2454.6859243705203,1169
2456.518849813587,1230
2458.3513715575314,1175
2460.183489889895,1290
2462.015205098301,1231
2463.8465174704493,1199
2465.67742729412,1214
2467.5079348571717,1239
2469.338040447542,1175
2471.1677443532476,1214
2472.9970468623833,1200
2474.825948263123,1233
2476.6544488437207,1252
2478.482548892508,1174
2480.310248697896,1218
2482.137548548374,1275
2483.9644487325118,1163
2485.790949538956,1161
2487.617051256433,1298
2489.44275417375,1222
2491.26805857979,1211
2493.0929647635157,1255
2494.917473013971,1229
2496.741583620276,1270
2498.5652968716304,1258
2500.3886130573137,1235
2502.2115324666834,1219
2504.0340553891765,1276
2505.856182114308,1268
2507.6779129316733,1299
2509.499248130945,1264
2511.3201880018764,1265
2513.140732834298,1230
2514.9608829181198,1241
2516.780638543331,1269
2518.6,1261
2520.418967578273,1251
2522.237541568376,1266
2524.0557222606144,1305
2525.8735099453706,1320
2527.6909049131086,1227
2529.507907454368,1322
2531.32451785977,1300
2533.140736420014,1308
2534.9565634258774,1272
2536.771999168218,1318
2538.5870439379714,1375
2540.4016980261526,1372
2542.2159617238544,1370
2544.02983532225,1314
2545.8433191125914,1328
2547.656413386209,1335
2549.4691184345115,1296
2551.2814345489874,1364
2553.093362021204,1310
2554.904901142808,1352
2556.716052205523,1330
2558.526815501153,1423
2560.3371913215824,1369
2562.147179958771,1396
2563.956781704761,1382
2565.7659968516705,1405
2567.5748256916986,1388
2569.3832685171224,1430
2571.1913256202984,1381
2572.9989972936614,1411
2574.806283829725,1396
2576.613185521084,1432
2578.4197026604074,1423
2580.2258355404483,1487
2582.031584454035,1447
2583.836949694077,1475
2585.6419315535613,1474
2587.4465303255533,1563
2589.2507463032002,1504
2591.0545797797245,1498
2592.8580310484303,1468
2594.6611004026995,1552
2596.463788135992,1475
2598.266094541849,1499
2600.0680199138874,1484
2601.869564545807,1454
2603.670728731383,1520
2605.4715127644704,1521
2607.2719169390048,1463
2609.071941548998,1520
2610.8715868885433,1384
2612.670853251811,1535
2614.469740933052,1487
2616.268250226594,1469
2618.0663814268455,1517
2619.864134828292,1436
2621.6615107255006,1470
2623.458509413115,1484
2625.2551311858597,1403
2627.0513763385347,1454
2628.8472451660223,1426
2630.6427379632833,1381
2632.4378550253564,1493
2634.232596647359,1440
2636.026963124488,1428
2637.8209547520187,1376
2639.6145718253065,1350
2641.407814639785,1394
2643.200683490966,1416
2644.9931786744414,1371
2646.7853004858807,1391
2648.577049221034,1378
2650.3684251757277,1317
2652.1594286458712,1350
2653.9500599274484,1359
2655.740319316525,1365
2657.5302071092437,1321
2659.3197236018286,1258
2661.10886909058,1302
2662.8976438718782,1299
2664.686048242183,1276
2666.4740824980327,1312
2668.2617469360443,1324
2670.0490418529134,1301
2671.8359675454153,1337
2673.622524310403,1261
2675.408712444811,1259
2677.1945322456495,1229
2678.979984010009,1281
2680.76506803506,1224
2682.5497846180497,1217
2684.334134056306,1301
2686.1181166472343,1278
2687.9017326883213,1235
2689.6849824771293,1212
2691.4678663113013,1277
2693.2503844885596,1250
2695.032537306705,1258
2696.8143250636167,1253
2698.5957480572542,1195
2700.3768065856534,1244
2702.1575009469316,1225
2703.937831439283,1222
2705.717798360982,1245
2707.4974020103837,1279
2709.276642685917,1209
2711.055520686095,1187
2712.834036309506,1217
2714.612189854819,1208
2716.389981620782,1196
2718.1674119062204,1176
2719.944481010041,1192
2721.721189231226,1125
2723.4975368688415,1238
2725.273524222027,1250
2727.0491515900053,1191
2728.824419272075,1216
2730.5993275676146,1158
2732.3738767760838,1189
2734.148067197016,1153
2735.921899130031,1203
2737.6953728748194,1214
2739.468488731156,1171
2741.2412469988926,1203
2743.0136479779617,1145
2744.785691968372,1199
2746.5573792702116,1162
2748.3287101836504,1131
2750.099685008934,1143
2751.870304046388,1129
2753.640567596418,1174
2755.4104759595057,1154
2757.1800294362156,1171
2758.949228327187,1177
2760.7180729331412,1157
2762.486563554877,1178
2764.254700493272,1176
2766.022484049284,1191
2767.789914523947,1151
2769.5569922183786,1179
2771.3237174337705,1113
2773.090090471394,1173
2774.8561116326036,1176
2776.6217812188274,1141
2778.3870995315756,1178
2780.1520668724356,1126
2781.9166835430747,1163
2783.6809498452394,1223
2785.444866080754,1190
2787.2084325515225,1136
2788.971649559527,1184
2790.73451740683,1178
2792.4970363955713,1193
2794.2592068279705,1187
2796.0210290063264,1174
2797.7825032330147,1193
2799.543629810493,1196
2801.304409041296,1137
2803.0648412280366,1191
2804.8249266734088,1208
2806.5846656801846,1180
2808.344058551212,1217
2810.1031055894246,1134
2811.8618070978273,1188
2813.6201633795085,1166
2815.378174737636,1148
2817.1358414754536,1159
2818.893163896285,1205
2820.6501423035334,1124
2822.4067770006814,1171
2824.1630682912883,1221
2825.9190164789957,1186
2827.6746218675207,1129
2829.429884760661,1174
2831.184805462294,1191
2832.9393842763743,1199
2834.693621506936,1108
2836.4475174580916,1229
2838.201072434034,1193
2839.954286739034,1165
2841.707160677441,1188
2843.459694553685,1158
2845.2118886722724,1178
2846.96374333779,1193
2848.7152588549034,1181
2850.4664355283567,1177
2852.217273662973,1209
2853.9677735636546,1147
2855.7179355353833,1249
2857.4677598832186,1210
2859.217246912299,1184
2860.9663969278427,1205
2862.715210235146,1215
2864.4636871395846,1154
2866.211827946614,1200
2867.9596329617652,1212
2869.7071024906536,1187
2871.4542368389684,1164
2873.20103631248,1134
2874.947501217038,1177
2876.6936318585695,1172
2878.4394285430812,1185
2880.1848915766604,1201
2881.9300212654707,1195
2883.6748179157553,1182
2885.4192818338374,1183
2887.1634133261173,1192
2888.907212699077,1149
2890.6506802592744,1194
2892.393816313348,1125
2894.1366211680142,1168
2895.8790951300693,1212
2897.621238506388,1195
2899.363051603925,1196
2901.1045347297118,1166
2902.8456881908596,1178
2904.58651229456,1128
2906.327007348081,1161
2908.067173658772,1195
2909.8070115340597,1153
2911.5465212814497,1169
2913.285703208527,1169
2915.0245576229563,1161
2916.7630848324807,1189
2918.5012851449196,1177
2920.2391588681758,1177
2921.976706310227,1173
2923.7139277791334,1205
2925.4508235830313,1186
2927.187394030137,1176
2928.923639428745,1205
2930.6595600872306,1231
2932.395156314046,1173
2934.1304284177218,1205
2935.8653767068713,1183
2937.6000014901815,1152
2939.3343030764227,1214
2941.068281774442,1200
2942.8019378931644,1155
2944.5352717415976,1141
2946.2682836288236,1210
2948.0009738640065,1221
2949.7333427563885,1137
2951.465390615289,1173
2953.1971177501086,1172
2954.9285244703265,1188
2956.6596110855,1196
2958.3903779052657,1171
2960.1208252393385,1159
2961.8509533975125,1162
2963.5807626896617,1177
2965.3102534257378,1131
2967.0394259157715,1157
2968.768280469873,1209
2970.496817398232,1129
2972.2250370111146,1165
2973.952939618869,1183
2975.6805255319196,1228
2977.4077950607707,1195
2979.134748516006,1249
2980.861386208289,1215
2982.587708448359,1157
2984.313715547037,1170
2986.039407815222,1188
2987.764785563891,1187
2989.489849104102,1180
2991.2145987469908,1209
2992.9390348037705,1143
2994.6631575857346,1206
2996.3869674042576,1209
2998.1104645707887,1171
2999.83364939686,1176
3001.5565221940783,1171
3003.2790832741334,1146
3005.0013329487924,1154
3006.7232715298996,1131
3008.4448993293804,1117
3010.166216659239,1146
3011.887223831558,1187
3013.607921158498,1182
3015.3283089522993,1229
3017.0483875252826,1151
3018.7681571898443,1172
3020.4876182584626,1127
3022.2067710436927,1137
3023.9256158581707,1201
3025.644153014609,1137
3027.362382825801,1160
3029.0803056046193,1178
3030.797921664012,1173
3032.5152313170106,1169
3034.2322348767225,1129
3035.9489326563353,1088
3037.665324969115,1143
3039.3814121284063,1154
3041.097194447633,1174
3042.812672240299,1143
3044.5278458199855,1161
3046.2427155003525,1154
3047.9572815951406,1153
3049.671544418167,1152
3051.38550428333,1152
3053.0991615046073,1130
3054.812516396051,1158
3056.5255692717974,1161
3058.2383204460575,1167
3059.9507702331257,1180
3061.662918947372,1153
3063.3747669032446,1196
3065.0863144152736,1143
3066.7975617980674,1157
3068.508509366309,1133
3070.219157434767,1141
3071.9295063182844,1144
3073.639556331785,1182
3075.3493077902704,1170
3077.058761008821,1120
3078.7679163025964,1224
3080.476773986837,1178
3082.1853343768594,1179
3083.89359778806,1169
3085.6015645359153,1157
3087.3092349359786,1132
3089.016609303884,1149
3090.7236879553434,1196
3092.4304712061476,1164
3094.136959372166,1177
3095.843152769349,1179
3097.5490517137237,1168
3099.2546565213966,1172
3100.959967508554,1165
3102.66498499146,1194
3104.3697092864577,1177
3106.0741407099695,1185
3107.778279578498,1186
3109.482126208622,1178
3111.1856809170004,1201
3112.8889440203716,1194
3114.5919158355528,1200
3116.294596679439,1182
3117.996986869006,1173
3119.6990867213062,1181
3121.4008965534726,1214
3123.102416682717,1206
3124.803647426329,1218
3126.5045891016784,1161
3128.205242026213,1211
3129.90560651746,1176
3131.605682893025,1215
3133.3054714705922,1249
3135.0049725679282,1199
3136.7041865028714,1140
3138.4031135933465,1188
3140.101754157353,1177
3141.800108512971,1194
3143.498176978357,1194
3145.1959598717494,1188
3146.8934575114636,1171
3148.5906702158954,1172
3150.2875983035183,1131
3151.9842420928853,1146
3153.680601902627,1129
3155.376678051456,1096
3157.07247085816,1136
3158.767980641609,1149
3160.463207720748,1131
3162.158152414606,1132
3163.8528150422862,1155
3165.5471959229726,1205
3167.2412953759303,1175
3168.9351137204976,1139
3170.628651276098,1149
3172.3219083622307,1196
3174.014885298474,1147
3175.707582404485,1145
3177.4000000000005,1172
3179.092138404835,1202
3180.7839979388846,1146
3182.47557892212,1192
3184.166881674594,1188
3185.8579065164386,1171
3187.5486537678626,1171
3189.2391237491547,1161
3190.9293167806827,1129
3192.6192331828934,1164
3194.3088732763117,1187
3195.998237381542,1131
3197.687325819268,1160
3199.376138910251,1154
3201.064676975334,1132
3202.7529403354347,1161
3204.4409293115523,1100
3206.1286442247647,1158
3207.816085396229,1134
3209.5032531471825,1123
3211.190147798936,1142
3212.8767696728846,1132
3214.5631190905015,1172
3216.2491963733373,1146
3217.9350018430214,1135
3219.6205358212637,1191
3221.305798629851,1132
3222.990790590651,1145
3224.6755120256103,1088
3226.359963256751,1140
3228.0441446061795,1102
3229.7280563960758,1127
3231.411698948703,1143
3233.0950725863995,1145
3234.778177631587,1174
3236.461014406761,1158
3238.1435832345005,1171
3239.8258844374595,1137
3241.507918338374,1163
3243.1896852600576,1115
3244.8711855254023,1151
3246.552419457381,1103
3248.233387379042,1138
3249.914089613516,1135
3251.59452648401,1170
3253.274698313813,1135
3254.95460542629,1153
3256.6342481448855,1145
3258.313626793125,1162
3259.9927416946084,1133
3261.6715931730196,1145
3263.3501815521176,1066
3265.0285071557437,1066
3266.706570307815,1126
3268.3843713323286,1130
3270.0619105533615,1135
3271.739188295068,1183
3273.4162048816834,1138
3275.0929606375184,1126
3276.769455886966,1145
3278.445690954498,1176
3280.1216661646613,1131
3281.797381842087,1151
3283.4728383114807,1133
3285.1480358976296,1163
3286.8229749253996,1156
3288.4976557197333,1139
3290.172078605655,1175
3291.846243908266,1149
3293.5201519527463,1130
3295.193803064357,1146
3296.8671975684374,1103
3298.5403357904024,1105
3300.21321805575,1152
3301.8858446900567,1123
3303.558216018975,1102
3305.23033236824,1147
3306.9021940636603,1106
3308.57380143113,1116
3310.2451547966184,1110
3311.916254486174,1124
3313.5871008259246,1141
3315.2576941420766,1157
3316.9280347609147,1147
3318.5981230088046,1083
3320.2679592121895,1118
3321.9375436975924,1092
3323.606876791612,1097
3325.27595882093,1144
3326.944790112305,1153
3328.6133709925753,1114
3330.2817017886573,1118
3331.949782827547,1143
3333.617614436319,1092
3335.2851969421245,1153
3336.952530672199,1167
3338.619615953853,1170
3340.286453114475,1157
3341.9530424815357,1220
3343.619384382583,1169
3345.2854791452437,1157
3346.951327097224,1131
3348.6169285663073,1119
3350.2822838803577,1157
3351.947393367319,1100
3353.61225735521,1175
3355.2768761721345,1142
3356.9412501462693,1148
3358.605379605873,1154
3360.2692648792827,1107
3361.9329062949146,1071
3363.596304181263,1147
