CollectionTime,7/11/2024 1:31:33 PM
ExposureUsed,3
CalibratedSpectrum
-962.7078968117929,509
-959.9714848408522,539
-957.2358232597828,555
-954.5009119013725,564
-951.7667505983302,554
-949.0333391832855,548
-946.3006774887896,515
-943.5687653473143,558
-940.837602591253,552
-938.1071890529199,544
-935.3775245645503,541
-932.6486089583007,548
-929.9204420662485,586
-927.1930237203925,558
-924.4663537526524,575
-921.7404319948689,567
-919.0152582788041,557
-916.2908324361409,604
-913.5671542984834,557
-910.8442236973568,559
-908.1220404642074,547
-905.4006044304027,539
-902.679915427231,547
-899.959973285902,554
-897.2407778375464,540
-894.5223289132158,524
-891.8046263438832,533
-889.0876699604426,550
-886.3714595937089,551
-883.6559950744183,567
-880.9412762332282,540
-878.2273029007168,527
-875.5140749073835,540
-872.8015920836489,513
-870.0898542598545,537
-867.3788612662631,521
-864.6686129330585,534
-861.9591090903457,583
-859.2503495681506,559
-856.5423341964203,530
-853.8350628050229,519
-851.1285352237478,518
-848.4227512823054,534
-845.7177108103272,531
-843.0134136373656,540
-840.3098595928943,547
-837.6070485063082,561
-834.9049802069229,547
-832.2036545239757,551
-829.5030712866244,571
-826.8032303239481,553
-824.1041314649472,546
-821.4057745385428,541
-818.7081593735775,559
-816.0112857988148,550
-813.3151536429393,554
-810.6197627345566,565
-807.9251129021936,534
-805.2312039742981,551
-802.5380357792392,559
-799.8456081453069,551
-797.1539209007124,549
-794.462973873588,558
-791.772766891987,586
-789.083299783884,558
-786.3945723771743,565
-783.7065844996748,553
-781.0193359791231,558
-778.3328266431781,535
-775.6470563194197,528
-772.9620248353489,538
-770.2777320183878,548
-767.5941776958798,567
-764.9113616950891,557
-762.2292838432011,561
-759.5479439673222,527
-756.8673418944801,559
-754.1874774516235,593
-751.5083504656222,595
-748.8299607632671,599
-746.15230817127,567
-743.475392516264,564
-740.7992136248035,598
-738.1237713233636,595
-735.4490654383407,595
-732.7750957960521,574
-730.1018622227365,595
-727.4293645445534,593
-724.7576025875837,564
-722.0865761778291,591
-719.4162851412126,586
-716.7467293035781,597
-714.0779084906909,602
-711.409822528237,618
-708.7424712418238,571
-706.0758544569796,597
-703.4099719991541,649
-700.7448236937178,608
-698.0804093659622,620
-695.4167288411002,625
-692.7537819442656,617
-690.0915685005134,585
-687.4300883348199,607
-684.7693412720819,635
-682.1093271371178,610
-679.4500457546669,614
-676.7914969493897,629
-674.1336805458676,632
-671.4765963686034,641
-668.8202442420206,647
-666.1646239904642,624
-663.5097354382001,643
-660.8555784094151,644
-658.2021527282176,620
-655.5494582186366,641
-652.8974947046223,639
-650.2462620100463,664
-647.5957599587009,666
-644.9459883742998,676
-642.2969470804776,640
-639.6486359007902,650
-637.0010546587141,650
-634.3542031776476,648
-631.7080812809096,673
-629.0626887917401,653
-626.4180255333008,666
-623.7740913286734,637
-621.1308860008619,645
-618.4884093727904,632
-615.8466612673046,639
-613.2056415071715,642
-610.5653499150785,662
-607.9257863136347,666
-605.28695052537,637
-602.6488423727357,666
-600.0114616781036,643
-597.3748082637674,667
-594.7388819519412,662
-592.1036825647604,668
-589.4692099242818,676
-586.8354638524829,687
-584.2024441712624,719
-581.5701507024403,687
-578.9385832677575,702
-576.3077416888759,696
-573.6776257873787,692
-571.0482353847704,663
-568.4195703024757,681
-565.7916303618415,639
-563.164415384135,693
-560.5379251905453,701
-557.9121596021815,704
-555.2871184400748,668
-552.6628015251767,703
-550.0392086783606,667
-547.4163397204204,671
-544.794194472071,676
-542.1727727539491,692
-539.5520743866118,726
-536.9320991905377,696
-534.3128469861261,771
-531.6943175936979,736
-529.0765108334947,775
-526.4594265256793,747
-523.8430644903358,852
-521.2274245474689,913
-518.612506517005,929
-515.9983102187913,969
-513.3848354725959,999
-510.77208209810846,1046
-508.16004991493924,1154
-505.5487387426199,1257
-502.9381484006032,1305
-500.3282787082628,1386
-497.71912948489364,1294
-495.1107005497117,1259
-492.5029917218539,1065
-489.8960028203786,1035
-487.28973366426493,973
-484.68418407241325,871
-482.07935386364494,793
-479.47524285670266,831
-476.87185087025,795
-474.2691777228715,801
-471.66722323307334,861
-469.0659872192821,859
-466.4654694998459,860
-463.86566989303384,828
-461.26658821703614,846
-458.66822428996414,812
-456.07057792985,805
-453.4736489546475,848
-450.877437182231,830
-448.28194243039627,797
-445.68716451686,840
-443.09310325926003,790
-440.49975847515555,818
-437.9071299820263,775
-435.31521759727354,810
-432.72402113821954,861
-430.13354042210767,802
-427.5437752661022,836
-424.95472548728867,827
-422.36639090267386,868
-419.7787713291855,897
-417.1918665836721,871
-414.60567648290385,900
-412.0202008435715,894
-409.4354394822874,873
-406.8513922155845,883
-404.26805885991723,901
-401.685439231661,909
-399.103533147112,914
-396.522340422488,892
-393.9418608739278,854
-391.3620943174908,872
-388.7830405691583,882
-386.2046994448317,803
-383.6270707603344,797
-381.05015433141045,731
-378.473949973725,713
-375.8984575028645,629
-373.32367673433623,605
-370.74960748356875,619
-368.1762495659117,613
-365.60360279663576,543
-363.03166699093265,498
-360.4604419639154,498
-357.8899275306178,485
-355.32012350599507,463
-352.7510297049233,437
-350.1826459421999,414
-347.61497203254316,437
-345.04800779059235,423
-342.4817530309082,423
-339.91620756797226,435
-337.35137121618743,431
-334.7872437898774,478
-332.22382510328725,476
-329.66111497058273,426
-327.09911320585127,407
-324.53781962310075,432
-321.9772340362607,447
-319.4173562591816,437
-316.8581861056348,426
-314.2997233893127,405
-311.7419679238294,431
-309.1849195227194,427
-306.62857799943856,460
-304.0729431673641,465
-301.51801483979375,463
-298.963792829947,496
-296.41027695096386,462
-293.85746701590574,503
-291.3053628377552,492
-288.7539642294155,484
-286.2032710037115,519
-283.65328297338897,503
-281.1039999511146,477
-278.5554217494762,504
-276.007548180983,539
-273.4603790580651,492
-270.9139141930734,497
-268.3681533982807,499
-265.8230964858798,502
-263.27874326798565,525
-260.7350935566336,520
-258.1921471637804,527
-255.6499039013039,479
-253.10836358100266,533
-250.56752601459698,518
-248.02739101372765,525
-245.48795838995704,556
-242.94922795476816,579
-240.41119951956557,556
-237.8738728956746,565
-235.33724789434166,579
-232.80132432673452,577
-230.2661020039418,530
-227.73158073697357,551
-225.19776033676033,526
-222.66464061415422,560
-220.1322213799284,568
-217.60050244477725,549
-215.06948361931552,558
-212.53916471408013,562
-210.00954553952818,597
-207.48062590603843,637
-204.9524056239104,612
-202.4248845033651,588
-199.8980623545441,603
-197.37193898751036,647
-194.84651421224817,635
-192.32178783866232,635
-189.79775967657952,598
-187.27442953574644,656
-184.7517972258321,650
-182.2298625564256,696
-179.7086253370378,676
-177.18808537710026,653
-174.66824248596583,652
-172.14909647290835,668
-169.6306471471229,771
-167.11289431772548,702
-164.59583779375328,727
-162.07947738416453,732
-159.5638128978386,740
-157.04884414357605,782
-154.53457093009854,764
-152.02099306604828,751
-149.50811035998936,771
-146.99592262040665,731
-144.48442965570587,745
-141.97363127421409,831
-139.46352728417958,905
-136.95411749377126,834
-134.44540171107985,758
-131.93737974411636,704
-129.43005140081357,710
-126.92341648902493,832
-124.41747481652521,1211
-121.91222619101006,1343
-119.40767042009657,1411
-116.90380731132257,1476
-114.40063667214702,1334
-111.8981583099503,1364
-109.3963720320337,1171
-106.89527764561933,1103
-104.39487495785067,1431
-101.89516377579241,1839
-99.39614390642998,2358
-96.89781515667039,2229
-94.40017733334128,2056
-91.90323024319173,2361
-89.40697369289148,3213
-86.91140748903172,3799
-84.41653143812482,4224
-81.92234534660395,3772
-79.42884902082358,2755
-76.93604226705907,3322
-74.4439248915071,6205
-71.95249670028534,10385
-69.46175749943245,13199
-66.97170709490854,15150
-64.48234529259423,14345
-61.99367189829195,12555
-59.50568671772464,9108
-57.01838955653636,7706
-54.53178022029283,6903
-52.045858514480074,5752
-49.560624244506016,6102
-47.07607721569923,7003
-44.59221723330904,7352
-42.10904410250669,7059
-39.62655762838392,6134
-37.14475761595372,6445
-34.66364387015028,6142
-32.18321619582866,5462
-29.70347439776515,5520
-27.224418280657005,5690
-24.74604764912317,6629
-22.26836230770266,10145
-19.7913620608565,19837
-17.315046712966478,34966
-14.83941606833514,45262
-12.36446993118659,60603
-9.89020810566592,65039
-7.416630395839093,65039
-4.94373660569363,65039
-2.471526539137585,65039
-6.821210263296962E-13,65039
2.47084320796705,65039
4.941003281093458,65039
7.410480415786196,65039
9.879274808531363,65039
12.347386655893956,65039
14.814816154518212,65039
17.28156350112681,65039
19.74762889252179,65039
22.21301252558385,65039
24.67771459727237,18829
27.141735304626195,3297
29.605074844762612,1945
32.06773341487792,2246
34.52971121224755,1937
36.99100843422559,1884
39.45162527824516,1740
41.91156194181792,1479
44.370818622535126,1373
46.82939551806646,1257
49.287292826160524,1131
51.74451074464503,1351
54.201049471426245,1615
56.65690920448981,1552
59.112090141899785,1186
61.56659248179983,1107
64.02041642241159,954
66.4735621620365,984
68.92602989905402,990
71.37781983192338,1081
73.82893215918205,1210
76.27936707944684,1145
78.72912479141326,959
81.17820549385567,893
83.62660938562783,1029
86.07433666566146,1104
88.5213875329681,927
90.96776218663751,795
93.41346082583925,852
95.85848364982041,867
98.30283085790859,1050
100.7465026495089,1046
103.18949922410604,934
105.63182078126385,824
108.07346752062438,825
110.51443964190923,826
112.95473734491827,783
115.39436082953114,744
117.83331029570547,869
120.27158594347827,945
122.7091879729652,999
125.1461165843615,932
127.58237197794062,803
130.01795435405518,721
132.4528639131364,776
134.88710085569494,814
137.32066538231982,818
139.75355769367923,780
142.1857779905207,721
144.61732647366978,713
147.04820334403132,741
149.47840880258934,766
151.90794305040674,855
154.33680628862487,989
156.76499871846443,1089
159.19252054122433,1142
161.61937195828352,1257
164.04555317109896,1428
166.47106438120693,1590
168.89590579022217,1674
171.320077599839,1823
173.7435800118302,1893
176.16641322804742,2001
178.58857745042144,2050
181.01007288096173,2157
183.43089972175687,2177
185.85105817497413,2152
188.27054844285988,2136
190.6893707277394,2111
193.10752523201643,2190
195.5250121581745,2326
197.9418317087751,2347
200.3579840864594,2350
202.7734694939469,2234
205.18828813403627,2335
207.6024402096051,2455
210.01592592360964,2505
212.42874547908548,2458
214.84089907914665,2428
217.2523869269868,2356
219.66320922587727,2444
222.0733661791695,2384
224.48285799029293,2426
226.8916848627572,2413
229.29984700014882,2521
231.7073446061355,2481
234.11417788446204,2448
236.520347038953,2585
238.92585227351185,2653
241.33069379212054,2779
243.73487179884035,2768
246.1383864978112,2735
248.541238093252,2640
250.9434267894609,2737
253.34495279081432,2834
255.74581630176783,2823
258.1460175268563,2831
260.54555667069314,2821
262.9444339379703,2851
265.3426495334594,2754
267.7402036620107,2722
270.1370965285529,2600
272.53332833809407,2558
274.9288992957214,2430
277.32380960660055,2393
279.718059475976,2280
282.1116491091717,2264
284.5045787115897,2231
286.89684848871195,2260
289.2884586460981,2240
291.67940938938807,2236
294.0697009242996,2262
296.4593334566299,2264
298.84830719225477,2206
301.23662233712923,2186
303.6242790972866,2178
306.01127767884,2189
308.39761828798066,2100
310.78330113097934,2151
313.16832641418534,2048
315.5526943440269,2048
317.9364051270112,2036
320.3194589697242,1972
322.70185607883093,2026
325.0835966610754,2017
327.4646809232805,2062
329.8451090723478,2026
332.2248813152577,1956
334.6039978590701,1892
336.9824589109231,1971
339.36026467803447,1922
341.7374153677,1917
344.113911187295,1922
346.48975234427337,1852
348.8649390461686,1850
351.2394715005918,1931
353.61334991523415,1865
355.9865744978655,1869
358.35914545633375,1856
360.73106299856715,1832
363.10232733257146,1848
365.47293866643247,1872
367.84289720831396,1824
370.2122031664593,1820
372.5808567491905,1824
374.9488581649083,1810
377.31620762209275,1777
379.6829053293021,1773
382.0489514951745,1740
384.4143463284262,1730
386.7790900378528,1773
389.14318283232853,1802
391.50662492080653,1746
393.86941651231916,1785
396.23155781597745,1747
398.5930490409713,1734
400.9538903965696,1651
403.3140820921202,1677
405.6736243370498,1698
408.03251734086336,1720
410.3907613131465,1689
412.74835646356166,1729
415.10530300185144,1714
417.4616011378372,1770
419.81725108141893,1720
422.1722530425758,1711
424.5266072313656,1663
426.880313857925,1671
429.2333731324701,1666
431.58578526529516,1675
433.9375504667738,1695
436.2886689473588,1728
438.63914091758113,1652
440.9889665880513,1706
443.33814616945835,1605
445.68667987257015,1625
448.03456790823395,1676
450.3818104873759,1674
452.72840782100013,1637
455.07436012019105,1638
457.41966759611057,1692
459.7643304600007,1646
462.10834892318155,1663
464.4517231970525,1602
466.79445349309174,1636
469.1365400228566,1596
471.4779829979826,1651
473.81878263018564,1658
476.15893913125876,1645
478.4984527130747,1674
480.8373235875855,1792
483.17555196682144,1751
485.5131380628919,1761
487.8500820879857,1819
490.1863842543697,1808
492.52204477439034,1976
494.8570638604725,2064
497.1914417251204,2363
499.52517858091653,2483
501.85827464052306,2770
504.19073011668036,2872
506.5225452222086,2890
508.85372017000566,2777
511.18425517304956,2693
513.514150444396,2710
515.8434061971808,3123
518.1720226446176,3549
520.4999999999999,3657
522.8273384766991,3528
525.1540382881666,3375
527.480099647932,3078
529.8055227696037,2663
532.1303078668694,2078
534.454455153496,1967
536.777964843328,1859
539.1008371502907,1744
541.4230722883866,1841
543.744670471698,1733
546.0656319143858,1755
548.3859568306899,1704
550.7056454349294,1686
553.0246979415016,1664
555.3431145648834,1720
557.6608955196306,1700
559.978041020377,1643
562.2945512818363,1627
564.6104265188006,1699
566.9256669461412,1617
569.2402727788082,1687
571.5542442318302,1745
573.8675815203156,1727
576.1802848594508,1731
578.4923544645015,1737
580.8037905508126,1704
583.114593333807,1739
585.4247630289875,1680
587.7342998519354,1711
590.0432040183106,1683
592.3514757438526,1732
594.6591152443794,1704
596.9661227357875,1756
599.2724984340531,1695
601.578242555231,1697
603.8833553154542,1761
606.1878369309362,1706
608.4916876179676,1742
610.7949075929192,1717
613.0974970722403,1671
615.3994562724587,1720
617.7007854101818,1721
620.0014847020951,1679
622.3015543649641,1749
624.6009946156324,1683
626.8998056710224,1781
629.1979877481361,1713
631.4955410640538,1695
633.7924658359349,1690
636.0887622810175,1754
638.3844306166192,1767
640.6794710601358,1723
642.9738838290426,1727
645.2676691408932,1798
647.5608272133207,1726
649.853358264037,1778
652.1452625108324,1756
654.4365401715764,1766
656.7271914642178,1771
659.0172166067838,1745
661.3066158173809,1805
663.5953893141935,1801
665.8835373154867,1812
668.1710600396028,1779
670.4579577049639,1762
672.7442305300709,1765
675.0298787335033,1755
677.3149025339197,1772
679.599302150058,1780
681.8830778007342,1801
684.1662297048437,1731
686.4487580813608,1763
688.7306631493387,1758
691.0119451279091,1766
693.2926042362834,1874
695.5726406937516,1889
697.8520547196814,1831
700.1308465335215,1759
702.4090163547982,1734
704.6865644031171,1794
706.9634908981619,1766
709.2397960596965,1746
711.5154801075631,1764
713.7905432616823,1771
716.0649857420548,1765
718.3388077687592,1725
720.612009561953,1758
722.8845913418733,1830
725.1565533288352,1800
727.427895743234,1777
729.6986188055427,1787
731.9687227363137,1722
734.238207756178,1762
736.5070740858458,1715
738.7753219461066,1755
741.0429515578281,1736
743.3099631419569,1820
745.5763569195191,1733
747.8421331116193,1780
750.1072919394409,1755
752.3718336242467,1718
754.6357583873777,1716
756.8990664502545,1720
759.1617580343765,1779
761.423833361321,1710
763.6852926527457,1742
765.9461361303862,1744
768.206364016058,1815
770.4659765316536,1813
772.7249738991469,1770
774.9833563405886,1710
777.2411240781092,1704
779.4982773339183,1705
781.7548163303044,1811
784.010741289634,1748
786.2660524343538,1833
788.5207499869881,1787
790.7748341701416,1798
793.0283052064964,1755
795.2811633188143,1775
797.5334087299362,1784
799.7850416627813,1778
802.0360623403484,1809
804.2864709857143,1779
806.5362678220353,1786
808.7854530725468,1747
811.0340269605625,1811
813.2819897094754,1789
815.5293415427581,1796
817.77608268396,1874
820.0222133567116,1826
822.2677337847211,1807
824.5126441917765,1817
826.7569448017433,1830
829.0006358385675,1769
831.2437175262731,1726
833.4861900889629,1745
835.7280537508192,1701
837.9693087361026,1819
840.2099552691533,1760
842.4499935743896,1769
844.689423876309,1854
846.9282463994886,1739
849.1664613685833,1768
851.4040690083276,1793
853.6410695435349,1777
855.877463199097,1803
858.1132501999847,1697
860.3484307712487,1831
862.5830051380175,1809
864.8169735254988,1774
867.0503361589791,1778
869.2830932638243,1861
871.5152450654786,1824
873.7467917894654,1772
875.9777336613873,1794
878.2080709069252,1829
880.4378037518389,1822
882.666932421968,1799
884.8954571432301,1868
887.1233781416219,1868
889.3506956432192,1840
891.5774098741766,1821
893.803521060728,1895
896.0290294291852,1856
898.2539352059397,1890
900.4782386174619,1837
902.7019398903011,1822
904.925039251085,1850
907.147536926521,1828
909.3694331433943,1861
911.59072812857,1816
913.8114221089921,1814
916.0315153116827,1835
918.2510079637437,1820
920.4699002923547,1768
922.6881925247761,1759
924.905884888345,1751
927.1229776104793,1756
929.3394709186747,1778
931.555365040506,1804
933.7706602036275,1785
935.9853566357709,1768
938.1994545647489,1711
940.4129542184515,1814
942.6258558248488,1749
944.8381596119883,1754
947.0498658079974,1696
949.2609746410825,1783
951.4714863395287,1785
953.6814011316998,1725
955.8907192460387,1810
958.0994409110671,1747
960.3075663553858,1693
962.5150958076741,1801
964.7220294966913,1725
966.928367651274,1775
969.1341105003388,1674
971.3392582728806,1709
973.5438111979742,1649
975.747769504772,1650
977.9511334225061,1701
980.153903180487,1720
982.3560790081052,1685
984.5576611348289,1652
986.7586497902058,1632
988.9590452038618,1631
991.158847605503,1664
993.3580572249133,1652
995.5566742919558,1585
997.7546990365728,1599
999.952131688785,1607
1002.1489724786926,1596
1004.3452216364743,1565
1006.5408793923874,1559
1008.7359459767691,1538
1010.9304216200343,1564
1013.1243065526781,1486
1015.3176010052733,1547
1017.510305208472,1480
1019.7024193930064,1587
1021.8939437896848,1504
1024.0848786293977,1481
1026.2752241431122,1495
1028.4649805618747,1468
1030.6541481168115,1483
1032.842727039127,1435
1035.0307175601051,1470
1037.2181199111074,1463
1039.4049343235752,1470
1041.591161029029,1501
1043.7768002590683,1500
1045.9618522453698,1466
1048.1463172196918,1465
1050.3301954138697,1441
1052.513487059818,1451
1054.69619238953,1547
1056.8783116350783,1500
1059.0598450286152,1441
1061.2407928023704,1439
1063.4211551886528,1442
1065.6009324198508,1444
1067.780124728432,1441
1069.9587323469414,1460
1072.1367555080046,1485
1074.314194444325,1404
1076.4910493886855,1437
1078.667320573947,1407
1080.843008233051,1437
1083.0181125990161,1435
1085.1926339049414,1360
1087.3665723840027,1351
1089.5399282694575,1390
1091.7127017946405,1410
1093.8848931929647,1407
1096.0565026979243,1384
1098.2275305430899,1382
1100.3979769621128,1358
1102.567842188722,1321
1104.737126456726,1367
1106.9058300000124,1314
1109.0739530525475,1362
1111.2414958483764,1333
1113.4084586216231,1351
1115.5748416064907,1351
1117.7406450372605,1387
1119.9058691482942,1333
1122.0705141740304,1354
1124.2345803489884,1347
1126.3980679077658,1435
1128.5609770850388,1351
1130.7233081155623,1357
1132.8850612341707,1357
1135.0462366757774,1384
1137.2068346753745,1385
1139.3668554680326,1350
1141.526299288901,1337
1143.68516637321,1340
1145.8434569562655,1411
1148.001171273455,1368
1150.158309560244,1368
1152.3148720521767,1334
1154.470858984876,1360
1156.626270594044,1344
1158.7811071154629,1305
1160.9353687849912,1364
1163.089055838569,1349
1165.242168512213,1299
1167.3947070420209,1323
1169.5466716641677,1301
1171.6980626149075,1317
1173.8488801305748,1310
1175.9991244475814,1300
1178.1487958024186,1344
1180.2978944316555,1303
1182.4464205719428,1290
1184.5943744600072,1340
1186.7417563326567,1302
1188.8885664267755,1376
1191.0348049793297,1295
1193.1804722273619,1265
1195.325568407995,1327
1197.4700937584303,1266
1199.614048515948,1350
1201.7574329179074,1280
1203.900247201746,1369
1206.042491604982,1337
1208.1841663652099,1327
1210.3252717201053,1328
1212.465807907422,1337
1214.6057751649923,1335
1216.7451737307279,1307
1218.8840038426192,1305
1221.0222657387353,1330
1223.1599596572241,1288
1225.2970858363137,1259
1227.4336445143094,1366
1229.5696359295966,1303
1231.705060320639,1324
1233.8399179259786,1344
1235.9742089842384,1382
1238.107933734118,1386
1240.2410924143974,1375
1242.373685263935,1330
1244.5057125216676,1331
1246.6371744266116,1339
1248.7680712178621,1395
1250.898403134593,1391
1253.028170416058,1378
1255.1573733015875,1319
1257.2860120305932,1363
1259.4140868425648,1366
1261.54159797707,1363
1263.6685456737569,1398
1265.7949301723515,1402
1267.9207517126597,1375
1270.046010534565,1364
1272.1707068780306,1399
1274.2948409830983,1399
1276.4184130898889,1355
1278.541423438603,1435
1280.6638722695184,1403
1282.785759822993,1416
1284.9070863394636,1417
1287.0278520594447,1433
1289.1480572235314,1439
1291.2677020723963,1510
1293.3867868467923,1437
1295.5053117875495,1450
1297.623277135579,1405
1299.740683131868,1459
1301.8575300174857,1468
1303.973818033578,1492
1306.0895474213703,1477
1308.2047184221678,1524
1310.3193312773528,1497
1312.4333862283888,1480
1314.5468835168163,1476
1316.659823384255,1423
1318.7722060724045,1488
1320.8840318230418,1577
1322.9953008780249,1507
1325.1060134792888,1484
1327.2161698688478,1499
1329.3257702887959,1492
1331.4348149813054,1473
1333.5433041886276,1522
1335.6512381530933,1526
1337.7586171171101,1521
1339.8654413231675,1527
1341.9717110138317,1475
1344.0774264317488,1484
1346.1825878196432,1477
1348.2871954203192,1533
1350.3912494766587,1420
1352.4947502316231,1488
1354.5976979282532,1490
1356.7000928096686,1490
1358.8019351190665,1467
1360.9032250997243,1492
1363.0039629949988,1510
1365.1041490483235,1445
1367.2037835032133,1512
1369.3028666032606,1445
1371.401398592137,1478
1373.4993797135926,1481
1375.5968102114575,1467
1377.6936903296396,1462
1379.7900203121262,1502
1381.8858004029835,1472
1383.9810308463561,1510
1386.075711886469,1536
1388.1698437676241,1465
1390.2634267342032,1496
1392.356461030667,1449
1394.4489469015557,1529
1396.5408845914872,1538
1398.6322743451592,1576
1400.7231164073469,1624
1402.813411022907,1552
1404.903158436773,1532
1406.9923588939578,1500
1409.0810126395531,1556
1411.1691199187303,1624
1413.2566809767386,1640
1415.343696058907,1547
1417.4301654106425,1629
1419.5160892774315,1593
1421.6014679048399,1613
1423.6863015385125,1622
1425.7705904241707,1622
1427.8543348076178,1647
1429.9375349347342,1634
1432.0201910514802,1718
1434.102303403894,1698
1436.1838722380944,1741
1438.2648978002767,1662
1440.3453803367174,1719
1442.4253200937692,1782
1444.5047173178677,1758
1446.5835722555234,1804
1448.6618851533285,1869
1450.739656257952,1817
1452.8168858161434,1872
1454.8935740747306,1936
1456.96972128062,1919
1459.045327680797,1934
1461.120393522327,1952
1463.1949190523528,2006
1465.2689045180973,2030
1467.3423501668608,2130
1469.415256246024,2134
1471.4876230030463,2199
1473.559450685465,2184
1475.6307395408976,2195
1477.7014898170391,2212
1479.771701761665,2274
1481.8413756226287,2286
1483.9105116478618,2343
1485.9791100853772,2408
1488.0471711832643,2460
1490.1146951896926,2409
1492.1816823529098,2428
1494.2481329212433,2455
1496.3140471430984,2496
1498.3794252669609,2511
1500.4442675413939,2532
1502.5085742150404,2510
1504.572345536622,2590
1506.6355817549388,2598
1508.6982831188702,2702
1510.7604498773744,2577
1512.8220822794883,2596
1514.8831805743293,2622
1516.9437450110909,2605
1519.003775839048,2705
1521.0632733075522,2652
1523.1222376660367,2790
1525.1806691640113,2737
1527.2385680510652,2777
1529.2959345768668,2776
1531.3527689911643,2818
1533.4090715437833,2719
1535.4648424846291,2821
1537.5200820636855,2868
1539.5747905310159,2960
1541.6289681367616,2944
1543.6826151311434,2986
1545.7357317644614,3033
1547.7883182870937,3065
1549.8403749494987,3135
1551.8919020022113,3172
1553.9428996958477,3223
1555.9933682811015,3227
1558.0433080087469,3232
1560.0927191296346,3307
1562.1416018946961,3445
1564.1899565549415,3409
1566.2377833614592,3332
1568.2850825654164,3295
1570.3318544180606,3296
1572.3780991707158,3195
1574.423817074788,3070
1576.4690083817595,2966
1578.5136733431923,2688
1580.5578122107272,2736
1582.601425236085,2621
1584.6445126710646,2450
1586.6870747675434,2421
1588.7291117774776,2309
1590.7706239529034,2296
1592.8116115459347,2236
1594.8520748087658,2115
1596.8920139936686,2001
1598.9314293529933,1962
1600.9703211391711,1952
1603.008689604711,1872
1605.0465350022005,1786
1607.0838575843068,1831
1609.1206576037753,1709
1611.1569353134305,1729
1613.1926909661765,1719
1615.2279248149953,1691
1617.2626371129481,1658
1619.2968281131757,1630
1621.3304980688963,1571
1623.3636472334088,1594
1625.39627586009,1588
1627.428384202396,1608
1629.459972513861,1557
1631.4910410480993,1489
1633.5215900588028,1476
1635.551619799744,1545
1637.5811305247717,1532
1639.6101224878166,1526
1641.6385959428862,1471
1643.6665511440683,1474
1645.693988345528,1477
1647.7209078015112,1409
1649.7473097663405,1488
1651.7731944944203,1465
1653.7985622402307,1486
1655.823413258333,1453
1657.847747803366,1444
1659.8715661300494,1447
1661.8948684931793,1428
1663.9176551476316,1431
1665.9399263483624,1492
1667.9616823504057,1466
1669.982923408873,1402
1672.0036497789574,1450
1674.0238617159293,1407
1676.043559475138,1458
1678.0627433120121,1426
1680.081413482059,1483
1682.0995702408654,1418
1684.117213844096,1411
1686.134344547495,1417
1688.1509626068864,1386
1690.1670682781705,1439
1692.182661817329,1389
1694.1977434804217,1412
1696.2123135235875,1404
1698.226372203043,1423
1700.2399197750851,1368
1702.2529564960905,1407
1704.2654826225112,1442
1706.277498410882,1391
1708.2890041178139,1390
1710.2999999999988,1423
1712.3104863142066,1356
1714.3204633172854,1406
1716.329931266163,1409
1718.3388904178469,1412
1720.3473410294214,1403
1722.3552833580516,1386
1724.3627176609807,1389
1726.3696441955308,1336
1728.3760632191033,1359
1730.3819749891782,1390
1732.3873797633146,1376
1734.3922777991502,1357
1736.3966693544012,1363
1738.4005546868639,1305
1740.4039340544127,1397
1742.406807715001,1341
1744.4091759266616,1342
1746.4110389475054,1365
1748.4123970357223,1348
1750.413250449582,1368
1752.4135994474318,1354
1754.4134442876993,1367
1756.4127852288902,1321
1758.4116225295893,1314
1760.4099564484595,1314
1762.407787244244,1301
1764.405115175764,1317
1766.4019405019203,1312
1768.3982634816916,1307
1770.3940843741357,1318
1772.3894034383907,1313
1774.3842209336717,1282
1776.378537119274,1294
1778.372352254571,1276
1780.3656665990156,1303
1782.3584804121397,1314
1784.3507939535534,1328
1786.3426074829463,1295
1788.3339212600863,1254
1790.3247355448211,1290
1792.3150505970766,1241
1794.3048666768573,1295
1796.2941840442477,1292
1798.2830029594106,1285
1800.2713236825884,1319
1802.2591464741004,1282
1804.2464715943465,1276
1806.2332993038058,1285
1808.2196298630352,1297
1810.2054635326708,1282
1812.190800573428,1224
1814.175641246101,1268
1816.1599858115628,1278
1818.1438345307652,1258
1820.127187664738,1288
1822.1100454745924,1257
1824.092408221516,1267
1826.0742761667766,1270
1828.055649571721,1294
1830.0365286977735,1284
1832.0169138064398,1248
1833.9968051593014,1260
1835.9762030180214,1282
1837.9551076443408,1277
1839.9335193000788,1230
1841.9114382471344,1256
1843.888864747485,1271
1845.8657990631878,1296
1847.842241456378,1218
1849.8181921892697,1227
1851.7936515241558,1253
1853.7686197234098,1285
1855.7430970494815,1210
1857.7170837649014,1228
1859.6905801322787,1269
1861.6635864143004,1257
1863.6361028737338,1304
1865.608129773424,1295
1867.5796673762961,1285
1869.5507159453537,1234
1871.521275743678,1233
1873.4913470344313,1256
1875.4609300808534,1284
1877.4300251462632,1226
1879.3986324940588,1248
1881.366752387717,1258
1883.3343850907936,1267
1885.3015308669228,1306
1887.268189979819,1267
1889.2343626932739,1290
1891.2000492711595,1272
1893.1652499774254,1254
1895.1299650761011,1316
1897.0941948312952,1279
1899.0579395071945,1292
1901.0211993680641,1288
1902.98397467825,1260
1904.9462657021745,1260
1906.9080727043415,1311
1908.869395949332,1323
1910.8302357018065,1312
1912.790592226504,1285
1914.7504657882428,1278
1916.7098566519212,1267
1918.6687650825133,1228
1920.6271913450764,1288
1922.5851357047422,1313
1924.5425984267245,1285
1926.499579776314,1262
1928.4560800188833,1279
1930.4120994198802,1348
1932.367638244833,1257
1934.32269675935,1327
1936.2772752291175,1251
1938.231373919899,1253
1940.1849930975404,1258
1942.1381330279637,1345
1944.0907939771696,1253
1946.0429762112412,1287
1947.9946799963363,1264
1949.9459055986945,1304
1951.896653284633,1277
1953.8469233205478,1251
1955.7967159729142,1206
1957.7460315082863,1271
1959.6948701932974,1264
1961.6432322946594,1269
1963.5911180791632,1252
1965.5385278136787,1283
1967.4854617651545,1249
1969.4319202006182,1304
1971.377903387176,1247
1973.3234115920136,1285
1975.268445082395,1266
1977.2130041256642,1303
1979.1570889892423,1224
1981.1006999406304,1280
1983.04383724741,1265
1984.986501177238,1277
1986.928691997853,1223
1988.8704099770712,1242
1990.811655382789,1251
1992.7524284829801,1235
1994.692729545698,1263
1996.6325588390755,1216
1998.5719166313224,1262
2000.5108031907307,1222
2002.4492187856677,1205
2004.387163684583,1253
2006.3246381560011,1232
2008.2616424685298,1224
2010.1981768908527,1278
2012.1342416917332,1265
2014.069837140014,1201
2016.0049635046162,1241
2017.9396210545406,1234
2019.8738100588666,1182
2021.8075307867502,1271
2023.740783507431,1222
2025.6735684902228,1217
2027.6058860045214,1217
2029.5377363198004,1221
2031.4691197056118,1241
2033.4000364315875,1245
2035.3304867674374,1220
2037.260470982952,1220
2039.189989347998,1248
2041.1190421325232,1186
2043.047629606554,1226
2044.9757520401945,1204
2046.9034097036288,1233
2048.8306028671195,1195
2050.7573318010086,1204
2052.683596775716,1250
2054.609398061742,1220
2056.5347359296647,1231
2058.4596106501403,1206
2060.384022493906,1212
2062.3079717317764,1208
2064.231458634646,1211
2066.1544834734873,1250
2068.077046519352,1252
2069.99914804337,1276
2071.9207883167524,1249
2073.8419676107865,1209
2075.7626861968406,1291
2077.6829443463607,1188
2079.6027423308715,1225
2081.522080421977,1225
2083.440958891362,1175
2085.359378010786,1195
2087.2773380520907,1199
2089.194839287196,1272
2091.111881988101,1261
2093.0284664268825,1241
2094.9445928756973,1271
2096.86026160678,1202
2098.775472892446,1200
2100.690227005088,1236
2102.604524217178,1253
2104.5183648012676,1206
2106.431749029985,1204
2108.34467717604,1205
2110.2571495122206,1199
2112.169166311393,1235
2114.080727846503,1215
2115.9918343905747,1241
2117.902486216711,1221
2119.8126835980956,1244
2121.722426807987,1217
2123.6317161197285,1269
2125.5405518067364,1219
2127.448934142509,1205
2129.356863400624,1238
2131.264339854737,1278
2133.1713637785815,1253
2135.077935445972,1212
2136.9840551308002,1253
2138.889723107037,1268
2140.7949396487334,1197
2142.699705030018,1298
2144.6040195250994,1212
2146.507883408264,1227
2148.4112969538774,1218
2150.3142604363848,1199
2152.2167741303097,1229
2154.1188383102535,1228
2156.0204532508997,1243
2157.9216192270064,1263
2159.822336513414,1250
2161.7226053850413,1211
2163.622426116884,1223
2165.5217989840185,1234
2167.4207242616,1238
2169.319202224862,1265
2171.2172331491165,1253
2173.1148173097563,1262
2175.0119549822507,1226
2176.90864644215,1252
2178.8048919650823,1230
2180.7006918267534,1235
2182.596046302952,1255
2184.4909556695407,1222
2186.3854202024645,1227
2188.279440177746,1229
2190.173015871487,1254
2192.066147559868,1255
2193.958835519149,1304
2195.851080025667,1276
2197.7428813558417,1291
2199.6342397861667,1273
2201.5251555932186,1235
2203.415629053651,1282
2205.3056604441986,1267
2207.19525004167,1265
2209.084398122958,1316
2210.9731049650327,1271
2212.861370844941,1294
2214.749196039812,1291
2216.636580826851,1302
2218.523525483344,1299
2220.410030286655,1271
2222.296095514226,1259
2224.1817214435805,1320
2226.066908352319,1315
2227.951656518121,1292
2229.835966218746,1325
2231.71983773203,1274
2233.6032713358913,1287
2235.486267308324,1285
2237.3688259274036,1331
2239.2509474712824,1275
2241.132632218193,1358
2243.013880446447,1293
2244.8946924344323,1321
2246.7750684606203,1335
2248.6550088035574,1269
2250.534513741871,1243
2252.413583554265,1308
2254.292218519526,1288
2256.170418916517,1300
2258.0481850241786,1303
2259.925517121534,1277
2261.8024154876825,1280
2263.678880401803,1288
2265.5549121431536,1320
2267.430510991071,1269
2269.305677224971,1335
2271.180411124348,1271
2273.0547129687766,1304
2274.9285830379076,1337
2276.8020216114737,1273
2278.6750289692845,1289
2280.5476053912294,1331
2282.4197511572766,1300
2284.2914665474727,1382
2286.162751841943,1323
2288.0336073208937,1329
2289.904033264608,1337
2291.774029953448,1368
2293.6435976678554,1312
2295.5127366883517,1308
2297.381447295534,1272
2299.2497297700825,1168
2301.1175843927526,1211
2302.9850114443825,1245
2304.852011205885,1195
2306.7185839582553,1199
2308.5847299825664,1191
2310.4504495599676,1127
2312.3157429716925,1173
2314.1806104990483,1134
2316.0450524234247,1160
2317.9090690262888,1125
2319.772660589186,1141
2321.635827393742,1165
2323.498569721661,1144
2325.3608878547248,1115
2327.2227820747967,1133
2329.0842526638157,1115
2330.945299903803,1176
2332.805924076857,1107
2334.6661254651535,1097
2336.525904350951,1110
2338.3852610165827,1095
2340.244195744464,1131
2342.102708817088,1183
2343.9608005170253,1137
2345.8184711269287,1186
2347.675720929526,1155
2349.532550207628,1173
2351.38895924412,1106
2353.24494832197,1152
2355.100517724223,1134
2356.955667734004,1162
2358.810398634514,1088
2360.664710709037,1132
2362.5186042409337,1132
2364.3720795136437,1131
2366.225136810686,1157
2368.0777764156583,1129
2369.929998612237,1164
2371.7818036841777,1150
2373.633191915315,1214
2375.484163589562,1093
2377.3347189909114,1127
2379.184858403434,1123
2381.03458211128,1131
2382.8838903986775,1175
2384.732783549936,1197
2386.5812618494406,1161
2388.4293255816588,1162
2390.2769750311327,1166
2392.1242104824883,1142
2393.971032220427,1201
2395.8174405297295,1176
2397.6634356952563,1169
2399.509018001947,1162
2401.3541877348193,1112
2403.1989451789705,1188
2405.043290619576,1137
2406.8872243418905,1178
2408.730746631247,1177
2410.5738577730594,1131
2412.4165580528183,1163
2414.258847756095,1216
2416.100727168537,1127
2417.9421965758734,1182
2419.783256263912,1159
2421.623906518538,1171
2423.4641476257157,1145
2425.303979871491,1128
2427.143403541984,1179
2428.9824189233977,1199
2430.821026302012,1124
2432.6592259641866,1154
2434.497018196361,1144
2436.33440328505,1217
2438.171381516851,1158
2440.00795317844,1143
2441.844118556569,1169
2443.6798779380724,1225
2445.5152316098606,1173
2447.3501798589255,1127
2449.1847229723357,1199
2451.0188612372403,1168
2452.8525949408663,1168
2454.6859243705203,1184
2456.518849813587,1147
2458.3513715575314,1196
2460.183489889895,1207
2462.015205098301,1157
2463.8465174704493,1171
2465.67742729412,1165
2467.5079348571717,1256
2469.338040447542,1139
2471.1677443532476,1152
2472.9970468623833,1226
2474.825948263123,1175
2476.6544488437207,1214
2478.482548892508,1200
2480.310248697896,1171
2482.137548548374,1168
2483.9644487325118,1202
2485.790949538956,1146
2487.617051256433,1172
2489.44275417375,1200
2491.26805857979,1211
2493.0929647635157,1278
2494.917473013971,1245
2496.741583620276,1228
2498.5652968716304,1230
2500.3886130573137,1255
2502.2115324666834,1221
2504.0340553891765,1258
2505.856182114308,1243
2507.6779129316733,1251
2509.499248130945,1235
2511.3201880018764,1241
2513.140732834298,1228
2514.9608829181198,1177
2516.780638543331,1286
2518.6,1271
2520.418967578273,1239
2522.237541568376,1234
2524.0557222606144,1261
2525.8735099453706,1202
2527.6909049131086,1192
2529.507907454368,1236
2531.32451785977,1280
2533.140736420014,1307
2534.9565634258774,1304
2536.771999168218,1301
2538.5870439379714,1340
2540.4016980261526,1309
2542.2159617238544,1331
2544.02983532225,1362
2545.8433191125914,1351
2547.656413386209,1348
2549.4691184345115,1378
2551.2814345489874,1375
2553.093362021204,1370
2554.904901142808,1330
2556.716052205523,1378
2558.526815501153,1457
2560.3371913215824,1427
2562.147179958771,1394
2563.956781704761,1487
2565.7659968516705,1535
2567.5748256916986,1454
2569.3832685171224,1446
2571.1913256202984,1431
2572.9989972936614,1455
2574.806283829725,1523
2576.613185521084,1476
2578.4197026604074,1490
2580.2258355404483,1519
2582.031584454035,1499
2583.836949694077,1509
2585.6419315535613,1528
2587.4465303255533,1522
2589.2507463032002,1510
2591.0545797797245,1514
2592.8580310484303,1522
2594.6611004026995,1509
2596.463788135992,1514
2598.266094541849,1515
2600.0680199138874,1486
2601.869564545807,1449
2603.670728731383,1551
2605.4715127644704,1592
2607.2719169390048,1532
2609.071941548998,1530
2610.8715868885433,1510
2612.670853251811,1573
2614.469740933052,1491
2616.268250226594,1493
2618.0663814268455,1486
2619.864134828292,1536
2621.6615107255006,1506
2623.458509413115,1459
2625.2551311858597,1488
2627.0513763385347,1473
2628.8472451660223,1524
2630.6427379632833,1481
2632.4378550253564,1468
2634.232596647359,1433
2636.026963124488,1427
2637.8209547520187,1455
2639.6145718253065,1422
2641.407814639785,1447
2643.200683490966,1391
2644.9931786744414,1442
2646.7853004858807,1361
2648.577049221034,1404
2650.3684251757277,1410
2652.1594286458712,1380
2653.9500599274484,1329
2655.740319316525,1365
2657.5302071092437,1328
2659.3197236018286,1313
2661.10886909058,1335
2662.8976438718782,1283
2664.686048242183,1261
2666.4740824980327,1320
2668.2617469360443,1269
2670.0490418529134,1257
2671.8359675454153,1279
2673.622524310403,1311
2675.408712444811,1280
2677.1945322456495,1281
2678.979984010009,1289
2680.76506803506,1250
2682.5497846180497,1229
2684.334134056306,1207
2686.1181166472343,1206
2687.9017326883213,1202
2689.6849824771293,1269
2691.4678663113013,1229
2693.2503844885596,1270
2695.032537306705,1217
2696.8143250636167,1259
2698.5957480572542,1215
2700.3768065856534,1196
2702.1575009469316,1203
2703.937831439283,1203
2705.717798360982,1228
2707.4974020103837,1182
2709.276642685917,1171
2711.055520686095,1182
2712.834036309506,1197
2714.612189854819,1214
2716.389981620782,1139
2718.1674119062204,1165
2719.944481010041,1171
2721.721189231226,1154
2723.4975368688415,1168
2725.273524222027,1168
2727.0491515900053,1163
2728.824419272075,1191
2730.5993275676146,1109
2732.3738767760838,1147
2734.148067197016,1124
2735.921899130031,1144
2737.6953728748194,1182
2739.468488731156,1140
2741.2412469988926,1160
2743.0136479779617,1130
2744.785691968372,1117
2746.5573792702116,1131
2748.3287101836504,1114
2750.099685008934,1132
2751.870304046388,1109
2753.640567596418,1119
2755.4104759595057,1128
2757.1800294362156,1135
2758.949228327187,1107
2760.7180729331412,1137
2762.486563554877,1161
2764.254700493272,1125
2766.022484049284,1138
2767.789914523947,1157
2769.5569922183786,1103
2771.3237174337705,1166
2773.090090471394,1127
2774.8561116326036,1109
2776.6217812188274,1063
2778.3870995315756,1115
2780.1520668724356,1098
2781.9166835430747,1104
2783.6809498452394,1085
2785.444866080754,1154
2787.2084325515225,1102
2788.971649559527,1085
2790.73451740683,1126
2792.4970363955713,1158
2794.2592068279705,1142
2796.0210290063264,1124
2797.7825032330147,1121
2799.543629810493,1127
2801.304409041296,1090
2803.0648412280366,1116
2804.8249266734088,1077
2806.5846656801846,1184
2808.344058551212,1151
2810.1031055894246,1094
2811.8618070978273,1135
2813.6201633795085,1102
2815.378174737636,1110
2817.1358414754536,1129
2818.893163896285,1108
2820.6501423035334,1138
2822.4067770006814,1110
2824.1630682912883,1136
2825.9190164789957,1121
2827.6746218675207,1089
2829.429884760661,1144
2831.184805462294,1128
2832.9393842763743,1102
2834.693621506936,1104
2836.4475174580916,1115
2838.201072434034,1085
2839.954286739034,1103
2841.707160677441,1122
2843.459694553685,1162
2845.2118886722724,1157
2846.96374333779,1135
2848.7152588549034,1126
2850.4664355283567,1105
2852.217273662973,1101
2853.9677735636546,1125
2855.7179355353833,1115
2857.4677598832186,1092
2859.217246912299,1134
2860.9663969278427,1143
2862.715210235146,1135
2864.4636871395846,1144
2866.211827946614,1097
2867.9596329617652,1119
2869.7071024906536,1119
2871.4542368389684,1102
2873.20103631248,1082
2874.947501217038,1176
2876.6936318585695,1159
2878.4394285430812,1084
2880.1848915766604,1116
2881.9300212654707,1114
2883.6748179157553,1141
2885.4192818338374,1150
2887.1634133261173,1112
2888.907212699077,1124
2890.6506802592744,1122
2892.393816313348,1164
2894.1366211680142,1146
2895.8790951300693,1096
2897.621238506388,1163
2899.363051603925,1086
2901.1045347297118,1078
2902.8456881908596,1071
2904.58651229456,1112
2906.327007348081,1115
2908.067173658772,1051
2909.8070115340597,1095
2911.5465212814497,1125
2913.285703208527,1118
2915.0245576229563,1129
2916.7630848324807,1103
2918.5012851449196,1127
2920.2391588681758,1116
2921.976706310227,1127
2923.7139277791334,1085
2925.4508235830313,1112
2927.187394030137,1052
2928.923639428745,1088
2930.6595600872306,1090
2932.395156314046,1060
2934.1304284177218,1119
2935.8653767068713,1149
2937.6000014901815,1117
2939.3343030764227,1167
2941.068281774442,1091
2942.8019378931644,1078
2944.5352717415976,1072
2946.2682836288236,1129
2948.0009738640065,1133
2949.7333427563885,1120
2951.465390615289,1079
2953.1971177501086,1130
2954.9285244703265,1115
2956.6596110855,1100
2958.3903779052657,1091
2960.1208252393385,1128
2961.8509533975125,1170
2963.5807626896617,1095
2965.3102534257378,1066
2967.0394259157715,1153
2968.768280469873,1103
2970.496817398232,1104
2972.2250370111146,1114
2973.952939618869,1136
2975.6805255319196,1111
2977.4077950607707,1145
2979.134748516006,1115
2980.861386208289,1109
2982.587708448359,1175
2984.313715547037,1103
2986.039407815222,1141
2987.764785563891,1141
2989.489849104102,1106
2991.2145987469908,1126
2992.9390348037705,1151
2994.6631575857346,1085
2996.3869674042576,1088
2998.1104645707887,1038
2999.83364939686,1054
3001.5565221940783,1072
3003.2790832741334,1120
3005.0013329487924,1104
3006.7232715298996,1088
3008.4448993293804,1118
3010.166216659239,1100
3011.887223831558,1109
3013.607921158498,1123
3015.3283089522993,1104
3017.0483875252826,1098
3018.7681571898443,1097
3020.4876182584626,1131
3022.2067710436927,1119
3023.9256158581707,1100
3025.644153014609,1115
3027.362382825801,1084
3029.0803056046193,1107
3030.797921664012,1072
3032.5152313170106,1088
3034.2322348767225,1077
3035.9489326563353,1106
3037.665324969115,1107
3039.3814121284063,1091
3041.097194447633,1092
3042.812672240299,1121
3044.5278458199855,1154
3046.2427155003525,1108
3047.9572815951406,1100
3049.671544418167,1100
3051.38550428333,1097
3053.0991615046073,1057
3054.812516396051,1113
3056.5255692717974,1140
3058.2383204460575,1130
3059.9507702331257,1059
3061.662918947372,1118
3063.3747669032446,1163
3065.0863144152736,1072
3066.7975617980674,1136
3068.508509366309,1067
3070.219157434767,1136
3071.9295063182844,1079
3073.639556331785,1070
3075.3493077902704,1102
3077.058761008821,1117
3078.7679163025964,1119
3080.476773986837,1125
3082.1853343768594,1127
3083.89359778806,1172
3085.6015645359153,1142
3087.3092349359786,1110
3089.016609303884,1122
3090.7236879553434,1145
3092.4304712061476,1104
3094.136959372166,1154
3095.843152769349,1097
3097.5490517137237,1138
3099.2546565213966,1083
3100.959967508554,1116
3102.66498499146,1083
3104.3697092864577,1104
3106.0741407099695,1118
3107.778279578498,1120
3109.482126208622,1075
3111.1856809170004,1140
3112.8889440203716,1150
3114.5919158355528,1133
3116.294596679439,1118
3117.996986869006,1079
3119.6990867213062,1152
3121.4008965534726,1146
3123.102416682717,1133
3124.803647426329,1122
3126.5045891016784,1072
3128.205242026213,1078
3129.90560651746,1111
3131.605682893025,1112
3133.3054714705922,1122
3135.0049725679282,1161
3136.7041865028714,1136
3138.4031135933465,1165
3140.101754157353,1085
3141.800108512971,1084
3143.498176978357,1114
3145.1959598717494,1131
3146.8934575114636,1065
3148.5906702158954,1104
3150.2875983035183,1099
3151.9842420928853,1102
3153.680601902627,1116
3155.376678051456,1087
3157.07247085816,1097
3158.767980641609,1111
3160.463207720748,1115
3162.158152414606,1112
3163.8528150422862,1118
3165.5471959229726,1105
3167.2412953759303,1140
3168.9351137204976,1110
3170.628651276098,1087
3172.3219083622307,1098
3174.014885298474,1078
3175.707582404485,1120
3177.4000000000005,1085
3179.092138404835,1095
3180.7839979388846,1156
3182.47557892212,1091
3184.166881674594,1095
3185.8579065164386,1089
3187.5486537678626,1059
3189.2391237491547,1079
3190.9293167806827,1081
3192.6192331828934,1095
3194.3088732763117,1112
3195.998237381542,1102
3197.687325819268,1115
3199.376138910251,1065
3201.064676975334,1116
3202.7529403354347,1136
3204.4409293115523,1043
3206.1286442247647,1078
3207.816085396229,1051
3209.5032531471825,1073
3211.190147798936,1067
3212.8767696728846,1099
3214.5631190905015,1097
3216.2491963733373,1059
3217.9350018430214,1021
3219.6205358212637,1093
3221.305798629851,1083
3222.990790590651,1102
3224.6755120256103,1064
3226.359963256751,1056
3228.0441446061795,1086
3229.7280563960758,1092
3231.411698948703,1055
3233.0950725863995,1073
3234.778177631587,1074
3236.461014406761,1063
3238.1435832345005,1031
3239.8258844374595,1073
3241.507918338374,1105
3243.1896852600576,1075
3244.8711855254023,1063
3246.552419457381,1097
3248.233387379042,1095
3249.914089613516,1147
3251.59452648401,1119
3253.274698313813,1135
3254.95460542629,1130
3256.6342481448855,1084
3258.313626793125,1039
3259.9927416946084,1036
3261.6715931730196,1096
3263.3501815521176,1059
3265.0285071557437,1105
3266.706570307815,1075
3268.3843713323286,1036
3270.0619105533615,1096
3271.739188295068,1044
3273.4162048816834,1103
3275.0929606375184,1099
3276.769455886966,1083
3278.445690954498,1082
3280.1216661646613,1102
3281.797381842087,1077
3283.4728383114807,1075
3285.1480358976296,1028
3286.8229749253996,1109
3288.4976557197333,1075
3290.172078605655,1093
3291.846243908266,1058
3293.5201519527463,1088
3295.193803064357,1084
3296.8671975684374,1035
3298.5403357904024,1127
3300.21321805575,1088
3301.8858446900567,1073
3303.558216018975,1086
3305.23033236824,1100
3306.9021940636603,1081
3308.57380143113,1094
3310.2451547966184,1081
3311.916254486174,1080
3313.5871008259246,1075
3315.2576941420766,1081
3316.9280347609147,1066
3318.5981230088046,1074
3320.2679592121895,1105
3321.9375436975924,1098
3323.606876791612,1091
3325.27595882093,1109
3326.944790112305,1079
3328.6133709925753,1086
3330.2817017886573,1073
3331.949782827547,1139
3333.617614436319,1037
3335.2851969421245,1067
3336.952530672199,1068
3338.619615953853,1060
3340.286453114475,1081
3341.9530424815357,1091
3343.619384382583,1050
3345.2854791452437,1040
3346.951327097224,1035
3348.6169285663073,1101
3350.2822838803577,1055
3351.947393367319,1108
3353.61225735521,1106
3355.2768761721345,1099
3356.9412501462693,1096
3358.605379605873,1059
3360.2692648792827,1063
3361.9329062949146,1044
3363.596304181263,1095
