CollectionTime,7/11/2024 1:32:49 PM
ExposureUsed,3
CalibratedSpectrum
-962.7078968117929,679
-959.9714848408522,688
-957.2358232597828,722
-954.5009119013725,717
-951.7667505983302,720
-949.0333391832855,729
-946.3006774887896,730
-943.5687653473143,725
-940.837602591253,730
-938.1071890529199,772
-935.3775245645503,723
-932.6486089583007,730
-929.9204420662485,757
-927.1930237203925,704
-924.4663537526524,739
-921.7404319948689,761
-919.0152582788041,762
-916.2908324361409,756
-913.5671542984834,759
-910.8442236973568,746
-908.1220404642074,727
-905.4006044304027,762
-902.679915427231,724
-899.959973285902,748
-897.2407778375464,703
-894.5223289132158,718
-891.8046263438832,725
-889.0876699604426,704
-886.3714595937089,713
-883.6559950744183,727
-880.9412762332282,710
-878.2273029007168,733
-875.5140749073835,679
-872.8015920836489,711
-870.0898542598545,728
-867.3788612662631,726
-864.6686129330585,699
-861.9591090903457,723
-859.2503495681506,728
-856.5423341964203,677
-853.8350628050229,699
-851.1285352237478,705
-848.4227512823054,701
-845.7177108103272,688
-843.0134136373656,738
-840.3098595928943,711
-837.6070485063082,708
-834.9049802069229,736
-832.2036545239757,743
-829.5030712866244,731
-826.8032303239481,744
-824.1041314649472,725
-821.4057745385428,749
-818.7081593735775,734
-816.0112857988148,752
-813.3151536429393,698
-810.6197627345566,742
-807.9251129021936,719
-805.2312039742981,777
-802.5380357792392,757
-799.8456081453069,745
-797.1539209007124,706
-794.462973873588,698
-791.772766891987,755
-789.083299783884,773
-786.3945723771743,755
-783.7065844996748,706
-781.0193359791231,755
-778.3328266431781,768
-775.6470563194197,752
-772.9620248353489,746
-770.2777320183878,753
-767.5941776958798,732
-764.9113616950891,742
-762.2292838432011,769
-759.5479439673222,716
-756.8673418944801,739
-754.1874774516235,775
-751.5083504656222,774
-748.8299607632671,793
-746.15230817127,741
-743.475392516264,761
-740.7992136248035,786
-738.1237713233636,733
-735.4490654383407,699
-732.7750957960521,762
-730.1018622227365,802
-727.4293645445534,749
-724.7576025875837,769
-722.0865761778291,746
-719.4162851412126,801
-716.7467293035781,781
-714.0779084906909,782
-711.409822528237,833
-708.7424712418238,810
-706.0758544569796,791
-703.4099719991541,800
-700.7448236937178,801
-698.0804093659622,793
-695.4167288411002,811
-692.7537819442656,801
-690.0915685005134,799
-687.4300883348199,831
-684.7693412720819,831
-682.1093271371178,828
-679.4500457546669,778
-676.7914969493897,776
-674.1336805458676,846
-671.4765963686034,818
-668.8202442420206,773
-666.1646239904642,825
-663.5097354382001,831
-660.8555784094151,834
-658.2021527282176,837
-655.5494582186366,827
-652.8974947046223,841
-650.2462620100463,856
-647.5957599587009,846
-644.9459883742998,843
-642.2969470804776,823
-639.6486359007902,838
-637.0010546587141,853
-634.3542031776476,873
-631.7080812809096,807
-629.0626887917401,790
-626.4180255333008,888
-623.7740913286734,883
-621.1308860008619,865
-618.4884093727904,838
-615.8466612673046,843
-613.2056415071715,864
-610.5653499150785,846
-607.9257863136347,826
-605.28695052537,897
-602.6488423727357,858
-600.0114616781036,870
-597.3748082637674,822
-594.7388819519412,838
-592.1036825647604,822
-589.4692099242818,894
-586.8354638524829,902
-584.2024441712624,866
-581.5701507024403,822
-578.9385832677575,847
-576.3077416888759,861
-573.6776257873787,916
-571.0482353847704,847
-568.4195703024757,851
-565.7916303618415,866
-563.164415384135,888
-560.5379251905453,868
-557.9121596021815,871
-555.2871184400748,893
-552.6628015251767,889
-550.0392086783606,869
-547.4163397204204,906
-544.794194472071,856
-542.1727727539491,928
-539.5520743866118,910
-536.9320991905377,915
-534.3128469861261,968
-531.6943175936979,922
-529.0765108334947,961
-526.4594265256793,1008
-523.8430644903358,1051
-521.2274245474689,1147
-518.612506517005,1183
-515.9983102187913,1178
-513.3848354725959,1196
-510.77208209810846,1233
-508.16004991493924,1323
-505.5487387426199,1432
-502.9381484006032,1523
-500.3282787082628,1459
-497.71912948489364,1477
-495.1107005497117,1428
-492.5029917218539,1317
-489.8960028203786,1216
-487.28973366426493,1139
-484.68418407241325,1077
-482.07935386364494,1036
-479.47524285670266,1012
-476.87185087025,1013
-474.2691777228715,1055
-471.66722323307334,1029
-469.0659872192821,1030
-466.4654694998459,990
-463.86566989303384,1003
-461.26658821703614,1020
-458.66822428996414,1046
-456.07057792985,1051
-453.4736489546475,1026
-450.877437182231,1045
-448.28194243039627,1031
-445.68716451686,1030
-443.09310325926003,1051
-440.49975847515555,1030
-437.9071299820263,973
-435.31521759727354,1007
-432.72402113821954,1090
-430.13354042210767,1002
-427.5437752661022,1001
-424.95472548728867,1048
-422.36639090267386,1057
-419.7787713291855,1094
-417.1918665836721,1104
-414.60567648290385,1113
-412.0202008435715,1074
-409.4354394822874,1051
-406.8513922155845,1105
-404.26805885991723,1082
-401.685439231661,1053
-399.103533147112,1099
-396.522340422488,1112
-393.9418608739278,1066
-391.3620943174908,1035
-388.7830405691583,1014
-386.2046994448317,1007
-383.6270707603344,967
-381.05015433141045,875
-378.473949973725,809
-375.8984575028645,775
-373.32367673433623,737
-370.74960748356875,622
-368.1762495659117,612
-365.60360279663576,579
-363.03166699093265,528
-360.4604419639154,475
-357.8899275306178,478
-355.32012350599507,445
-352.7510297049233,434
-350.1826459421999,432
-347.61497203254316,416
-345.04800779059235,427
-342.4817530309082,422
-339.91620756797226,424
-337.35137121618743,406
-334.7872437898774,422
-332.22382510328725,458
-329.66111497058273,426
-327.09911320585127,410
-324.53781962310075,408
-321.9772340362607,427
-319.4173562591816,398
-316.8581861056348,422
-314.2997233893127,407
-311.7419679238294,404
-309.1849195227194,416
-306.62857799943856,428
-304.0729431673641,440
-301.51801483979375,455
-298.963792829947,445
-296.41027695096386,456
-293.85746701590574,443
-291.3053628377552,466
-288.7539642294155,453
-286.2032710037115,461
-283.65328297338897,426
-281.1039999511146,485
-278.5554217494762,523
-276.007548180983,522
-273.4603790580651,472
-270.9139141930734,479
-268.3681533982807,478
-265.8230964858798,455
-263.27874326798565,449
-260.7350935566336,456
-258.1921471637804,475
-255.6499039013039,474
-253.10836358100266,501
-250.56752601459698,486
-248.02739101372765,492
-245.48795838995704,491
-242.94922795476816,493
-240.41119951956557,501
-237.8738728956746,538
-235.33724789434166,554
-232.80132432673452,529
-230.2661020039418,509
-227.73158073697357,512
-225.19776033676033,531
-222.66464061415422,572
-220.1322213799284,544
-217.60050244477725,534
-215.06948361931552,516
-212.53916471408013,547
-210.00954553952818,568
-207.48062590603843,524
-204.9524056239104,526
-202.4248845033651,558
-199.8980623545441,613
-197.37193898751036,623
-194.84651421224817,626
-192.32178783866232,615
-189.79775967657952,582
-187.27442953574644,674
-184.7517972258321,652
-182.2298625564256,666
-179.7086253370378,706
-177.18808537710026,583
-174.66824248596583,656
-172.14909647290835,676
-169.6306471471229,697
-167.11289431772548,704
-164.59583779375328,675
-162.07947738416453,630
-159.5638128978386,691
-157.04884414357605,734
-154.53457093009854,726
-152.02099306604828,701
-149.50811035998936,663
-146.99592262040665,624
-144.48442965570587,650
-141.97363127421409,748
-139.46352728417958,774
-136.95411749377126,704
-134.44540171107985,731
-131.93737974411636,662
-129.43005140081357,724
-126.92341648902493,866
-124.41747481652521,1061
-121.91222619101006,1226
-119.40767042009657,1277
-116.90380731132257,1277
-114.40063667214702,1250
-111.8981583099503,1153
-109.3963720320337,1002
-106.89527764561933,999
-104.39487495785067,1427
-101.89516377579241,1824
-99.39614390642998,2380
-96.89781515667039,2335
-94.40017733334128,2215
-91.90323024319173,2474
-89.40697369289148,3139
-86.91140748903172,3608
-84.41653143812482,3982
-81.92234534660395,3396
-79.42884902082358,2338
-76.93604226705907,2953
-74.4439248915071,5779
-71.95249670028534,9334
-69.46175749943245,12110
-66.97170709490854,13963
-64.48234529259423,13587
-61.99367189829195,11637
-59.50568671772464,8787
-57.01838955653636,7544
-54.53178022029283,7522
-52.045858514480074,6798
-49.560624244506016,6891
-47.07607721569923,8126
-44.59221723330904,9022
-42.10904410250669,9041
-39.62655762838392,7956
-37.14475761595372,6723
-34.66364387015028,6164
-32.18321619582866,5657
-29.70347439776515,5902
-27.224418280657005,6023
-24.74604764912317,6745
-22.26836230770266,9793
-19.7913620608565,19226
-17.315046712966478,33798
-14.83941606833514,44053
-12.36446993118659,61258
-9.89020810566592,65038
-7.416630395839093,65038
-4.94373660569363,65038
-2.471526539137585,65038
-6.821210263296962E-13,65038
2.47084320796705,65038
4.941003281093458,65038
7.410480415786196,65038
9.879274808531363,65038
12.347386655893956,65038
14.814816154518212,65038
17.28156350112681,65038
19.74762889252179,65038
22.21301252558385,20798
24.67771459727237,3438
27.141735304626195,2053
29.605074844762612,1744
32.06773341487792,1631
34.52971121224755,1586
36.99100843422559,1741
39.45162527824516,1527
41.91156194181792,1216
44.370818622535126,1080
46.82939551806646,1098
49.287292826160524,1092
51.74451074464503,1175
54.201049471426245,1196
56.65690920448981,1174
59.112090141899785,1013
61.56659248179983,1030
64.02041642241159,932
66.4735621620365,904
68.92602989905402,892
71.37781983192338,928
73.82893215918205,1000
76.27936707944684,937
78.72912479141326,848
81.17820549385567,808
83.62660938562783,941
86.07433666566146,966
88.5213875329681,801
90.96776218663751,758
93.41346082583925,752
95.85848364982041,769
98.30283085790859,884
100.7465026495089,879
103.18949922410604,774
105.63182078126385,744
108.07346752062438,740
110.51443964190923,681
112.95473734491827,663
115.39436082953114,687
117.83331029570547,664
120.27158594347827,701
122.7091879729652,768
125.1461165843615,725
127.58237197794062,684
130.01795435405518,662
132.4528639131364,704
134.88710085569494,738
137.32066538231982,740
139.75355769367923,649
142.1857779905207,657
144.61732647366978,664
147.04820334403132,699
149.47840880258934,709
151.90794305040674,777
154.33680628862487,870
156.76499871846443,1059
159.19252054122433,1139
161.61937195828352,1292
164.04555317109896,1427
166.47106438120693,1546
168.89590579022217,1714
171.320077599839,1887
173.7435800118302,1922
176.16641322804742,2054
178.58857745042144,2054
181.01007288096173,2235
183.43089972175687,2362
185.85105817497413,2317
188.27054844285988,2183
190.6893707277394,2309
193.10752523201643,2336
195.5250121581745,2495
197.9418317087751,2506
200.3579840864594,2467
202.7734694939469,2593
205.18828813403627,2643
207.6024402096051,2616
210.01592592360964,2704
212.42874547908548,2658
214.84089907914665,2605
217.2523869269868,2629
219.66320922587727,2565
222.0733661791695,2624
224.48285799029293,2624
226.8916848627572,2628
229.29984700014882,2635
231.7073446061355,2710
234.11417788446204,2768
236.520347038953,2803
238.92585227351185,2913
241.33069379212054,2950
243.73487179884035,2972
246.1383864978112,2951
248.541238093252,2973
250.9434267894609,2987
253.34495279081432,2981
255.74581630176783,3048
258.1460175268563,3189
260.54555667069314,3166
262.9444339379703,3044
265.3426495334594,2997
267.7402036620107,2859
270.1370965285529,2820
272.53332833809407,2778
274.9288992957214,2631
277.32380960660055,2596
279.718059475976,2535
282.1116491091717,2507
284.5045787115897,2454
286.89684848871195,2443
289.2884586460981,2452
291.67940938938807,2420
294.0697009242996,2485
296.4593334566299,2561
298.84830719225477,2430
301.23662233712923,2444
303.6242790972866,2437
306.01127767884,2375
308.39761828798066,2399
310.78330113097934,2407
313.16832641418534,2271
315.5526943440269,2276
317.9364051270112,2341
320.3194589697242,2187
322.70185607883093,2235
325.0835966610754,2210
327.4646809232805,2303
329.8451090723478,2280
332.2248813152577,2208
334.6039978590701,2182
336.9824589109231,2111
339.36026467803447,2184
341.7374153677,2199
344.113911187295,2205
346.48975234427337,2075
348.8649390461686,2130
351.2394715005918,2086
353.61334991523415,2085
355.9865744978655,2095
358.35914545633375,2162
360.73106299856715,2137
363.10232733257146,2126
365.47293866643247,2104
367.84289720831396,2052
370.2122031664593,2056
372.5808567491905,1966
374.9488581649083,1991
377.31620762209275,2062
379.6829053293021,2118
382.0489514951745,2028
384.4143463284262,2009
386.7790900378528,1985
389.14318283232853,2070
391.50662492080653,2016
393.86941651231916,1994
396.23155781597745,2063
398.5930490409713,1988
400.9538903965696,2049
403.3140820921202,1978
405.6736243370498,2071
408.03251734086336,2002
410.3907613131465,2052
412.74835646356166,1974
415.10530300185144,1991
417.4616011378372,2008
419.81725108141893,2000
422.1722530425758,1991
424.5266072313656,1967
426.880313857925,1978
429.2333731324701,1994
431.58578526529516,1949
433.9375504667738,1921
436.2886689473588,2011
438.63914091758113,1960
440.9889665880513,1945
443.33814616945835,1882
445.68667987257015,1868
448.03456790823395,1915
450.3818104873759,1884
452.72840782100013,1973
455.07436012019105,1966
457.41966759611057,1897
459.7643304600007,1865
462.10834892318155,1912
464.4517231970525,1926
466.79445349309174,1899
469.1365400228566,1958
471.4779829979826,1944
473.81878263018564,1925
476.15893913125876,1993
478.4984527130747,1956
480.8373235875855,1960
483.17555196682144,1874
485.5131380628919,2066
487.8500820879857,2019
490.1863842543697,2074
492.52204477439034,2231
494.8570638604725,2356
497.1914417251204,2500
499.52517858091653,2833
501.85827464052306,2925
504.19073011668036,2981
506.5225452222086,3131
508.85372017000566,2974
511.18425517304956,3015
513.514150444396,2895
515.8434061971808,3368
518.1720226446176,3782
520.4999999999999,3863
522.8273384766991,3732
525.1540382881666,3599
527.480099647932,3272
529.8055227696037,2865
532.1303078668694,2467
534.454455153496,2135
536.777964843328,2012
539.1008371502907,1966
541.4230722883866,1846
543.744670471698,1949
546.0656319143858,1970
548.3859568306899,1936
550.7056454349294,1991
553.0246979415016,1908
555.3431145648834,1944
557.6608955196306,1939
559.978041020377,1912
562.2945512818363,1911
564.6104265188006,1908
566.9256669461412,1938
569.2402727788082,1951
571.5542442318302,1993
573.8675815203156,1900
576.1802848594508,1981
578.4923544645015,1963
580.8037905508126,1960
583.114593333807,2025
585.4247630289875,2005
587.7342998519354,1917
590.0432040183106,2025
592.3514757438526,1989
594.6591152443794,1888
596.9661227357875,1987
599.2724984340531,2039
601.578242555231,2015
603.8833553154542,1961
606.1878369309362,2048
608.4916876179676,1865
610.7949075929192,1947
613.0974970722403,2020
615.3994562724587,2018
617.7007854101818,1981
620.0014847020951,1939
622.3015543649641,1952
624.6009946156324,1988
626.8998056710224,2012
629.1979877481361,1955
631.4955410640538,1937
633.7924658359349,1976
636.0887622810175,2005
638.3844306166192,2066
640.6794710601358,2071
642.9738838290426,2112
645.2676691408932,2051
647.5608272133207,2046
649.853358264037,2028
652.1452625108324,2064
654.4365401715764,2045
656.7271914642178,2060
659.0172166067838,2010
661.3066158173809,2101
663.5953893141935,2166
665.8835373154867,2047
668.1710600396028,2076
670.4579577049639,2093
672.7442305300709,2025
675.0298787335033,2062
677.3149025339197,2095
679.599302150058,2085
681.8830778007342,2117
684.1662297048437,2141
686.4487580813608,2126
688.7306631493387,2142
691.0119451279091,2139
693.2926042362834,2112
695.5726406937516,2048
697.8520547196814,2014
700.1308465335215,2062
702.4090163547982,2045
704.6865644031171,2031
706.9634908981619,2014
709.2397960596965,2035
711.5154801075631,2082
713.7905432616823,2082
716.0649857420548,2041
718.3388077687592,2107
720.612009561953,2043
722.8845913418733,2092
725.1565533288352,2047
727.427895743234,2092
729.6986188055427,1985
731.9687227363137,2011
734.238207756178,2092
736.5070740858458,2046
738.7753219461066,2030
741.0429515578281,1987
743.3099631419569,2055
745.5763569195191,1955
747.8421331116193,2057
750.1072919394409,2016
752.3718336242467,2006
754.6357583873777,2040
756.8990664502545,2007
759.1617580343765,2072
761.423833361321,2045
763.6852926527457,2087
765.9461361303862,1992
768.206364016058,2000
770.4659765316536,1934
772.7249738991469,2019
774.9833563405886,2122
777.2411240781092,2100
779.4982773339183,2036
781.7548163303044,2050
784.010741289634,2100
786.2660524343538,2164
788.5207499869881,2135
790.7748341701416,2078
793.0283052064964,2120
795.2811633188143,2067
797.5334087299362,2083
799.7850416627813,2099
802.0360623403484,2118
804.2864709857143,2148
806.5362678220353,2098
808.7854530725468,2056
811.0340269605625,2086
813.2819897094754,2079
815.5293415427581,2138
817.77608268396,2088
820.0222133567116,2109
822.2677337847211,2048
824.5126441917765,2131
826.7569448017433,2082
829.0006358385675,2097
831.2437175262731,2150
833.4861900889629,2095
835.7280537508192,2105
837.9693087361026,2148
840.2099552691533,2144
842.4499935743896,2008
844.689423876309,2098
846.9282463994886,2125
849.1664613685833,2067
851.4040690083276,2142
853.6410695435349,2113
855.877463199097,2069
858.1132501999847,2110
860.3484307712487,2067
862.5830051380175,2080
864.8169735254988,2138
867.0503361589791,2079
869.2830932638243,2118
871.5152450654786,2122
873.7467917894654,2134
875.9777336613873,2118
878.2080709069252,2121
880.4378037518389,2068
882.666932421968,2103
884.8954571432301,2108
887.1233781416219,2111
889.3506956432192,2150
891.5774098741766,2129
893.803521060728,2166
896.0290294291852,2056
898.2539352059397,2164
900.4782386174619,2134
902.7019398903011,2157
904.925039251085,2120
907.147536926521,2092
909.3694331433943,2131
911.59072812857,2172
913.8114221089921,2128
916.0315153116827,2051
918.2510079637437,2072
920.4699002923547,2075
922.6881925247761,2108
924.905884888345,2070
927.1229776104793,2006
929.3394709186747,2048
931.555365040506,2064
933.7706602036275,2080
935.9853566357709,2066
938.1994545647489,2046
940.4129542184515,2042
942.6258558248488,1986
944.8381596119883,2003
947.0498658079974,1985
949.2609746410825,2001
951.4714863395287,2045
953.6814011316998,2092
955.8907192460387,2008
958.0994409110671,2048
960.3075663553858,2059
962.5150958076741,2126
964.7220294966913,2071
966.928367651274,2072
969.1341105003388,2021
971.3392582728806,2027
973.5438111979742,2086
975.747769504772,1974
977.9511334225061,2054
980.153903180487,2047
982.3560790081052,2019
984.5576611348289,1945
986.7586497902058,1972
988.9590452038618,1984
991.158847605503,1975
993.3580572249133,1941
995.5566742919558,1878
997.7546990365728,1942
999.952131688785,1960
1002.1489724786926,1852
1004.3452216364743,1877
1006.5408793923874,1806
1008.7359459767691,1826
1010.9304216200343,1806
1013.1243065526781,1756
1015.3176010052733,1799
1017.510305208472,1799
1019.7024193930064,1751
1021.8939437896848,1844
1024.0848786293977,1807
1026.2752241431122,1782
1028.4649805618747,1774
1030.6541481168115,1762
1032.842727039127,1782
1035.0307175601051,1750
1037.2181199111074,1822
1039.4049343235752,1761
1041.591161029029,1770
1043.7768002590683,1743
1045.9618522453698,1740
1048.1463172196918,1769
1050.3301954138697,1776
1052.513487059818,1758
1054.69619238953,1717
1056.8783116350783,1670
1059.0598450286152,1721
1061.2407928023704,1739
1063.4211551886528,1722
1065.6009324198508,1730
1067.780124728432,1748
1069.9587323469414,1806
1072.1367555080046,1719
1074.314194444325,1746
1076.4910493886855,1748
1078.667320573947,1678
1080.843008233051,1721
1083.0181125990161,1718
1085.1926339049414,1682
1087.3665723840027,1721
1089.5399282694575,1683
1091.7127017946405,1695
1093.8848931929647,1663
1096.0565026979243,1655
1098.2275305430899,1679
1100.3979769621128,1614
1102.567842188722,1667
1104.737126456726,1626
1106.9058300000124,1658
1109.0739530525475,1673
1111.2414958483764,1631
1113.4084586216231,1684
1115.5748416064907,1685
1117.7406450372605,1642
1119.9058691482942,1659
1122.0705141740304,1681
1124.2345803489884,1611
1126.3980679077658,1600
1128.5609770850388,1630
1130.7233081155623,1647
1132.8850612341707,1644
1135.0462366757774,1620
1137.2068346753745,1606
1139.3668554680326,1646
1141.526299288901,1671
1143.68516637321,1641
1145.8434569562655,1590
1148.001171273455,1620
1150.158309560244,1626
1152.3148720521767,1602
1154.470858984876,1649
1156.626270594044,1623
1158.7811071154629,1667
1160.9353687849912,1588
1163.089055838569,1616
1165.242168512213,1598
1167.3947070420209,1631
1169.5466716641677,1665
1171.6980626149075,1646
1173.8488801305748,1597
1175.9991244475814,1623
1178.1487958024186,1582
1180.2978944316555,1548
1182.4464205719428,1581
1184.5943744600072,1586
1186.7417563326567,1623
1188.8885664267755,1612
1191.0348049793297,1603
1193.1804722273619,1644
1195.325568407995,1635
1197.4700937584303,1563
1199.614048515948,1597
1201.7574329179074,1632
1203.900247201746,1551
1206.042491604982,1553
1208.1841663652099,1619
1210.3252717201053,1616
1212.465807907422,1601
1214.6057751649923,1600
1216.7451737307279,1646
1218.8840038426192,1623
1221.0222657387353,1651
1223.1599596572241,1618
1225.2970858363137,1683
1227.4336445143094,1637
1229.5696359295966,1652
1231.705060320639,1651
1233.8399179259786,1666
1235.9742089842384,1672
1238.107933734118,1640
1240.2410924143974,1643
1242.373685263935,1733
1244.5057125216676,1614
1246.6371744266116,1583
1248.7680712178621,1617
1250.898403134593,1627
1253.028170416058,1715
1255.1573733015875,1603
1257.2860120305932,1622
1259.4140868425648,1699
1261.54159797707,1613
1263.6685456737569,1675
1265.7949301723515,1688
1267.9207517126597,1719
1270.046010534565,1680
1272.1707068780306,1716
1274.2948409830983,1672
1276.4184130898889,1689
1278.541423438603,1685
1280.6638722695184,1695
1282.785759822993,1651
1284.9070863394636,1665
1287.0278520594447,1749
1289.1480572235314,1653
1291.2677020723963,1773
1293.3867868467923,1764
1295.5053117875495,1726
1297.623277135579,1687
1299.740683131868,1716
1301.8575300174857,1730
1303.973818033578,1807
1306.0895474213703,1796
1308.2047184221678,1790
1310.3193312773528,1771
1312.4333862283888,1796
1314.5468835168163,1748
1316.659823384255,1767
1318.7722060724045,1762
1320.8840318230418,1806
1322.9953008780249,1732
1325.1060134792888,1783
1327.2161698688478,1756
1329.3257702887959,1753
1331.4348149813054,1796
1333.5433041886276,1821
1335.6512381530933,1763
1337.7586171171101,1826
1339.8654413231675,1778
1341.9717110138317,1792
1344.0774264317488,1792
1346.1825878196432,1771
1348.2871954203192,1784
1350.3912494766587,1748
1352.4947502316231,1733
1354.5976979282532,1690
1356.7000928096686,1761
1358.8019351190665,1765
1360.9032250997243,1766
1363.0039629949988,1737
1365.1041490483235,1717
1367.2037835032133,1705
1369.3028666032606,1749
1371.401398592137,1711
1373.4993797135926,1806
1375.5968102114575,1763
1377.6936903296396,1729
1379.7900203121262,1764
1381.8858004029835,1797
1383.9810308463561,1761
1386.075711886469,1747
1388.1698437676241,1822
1390.2634267342032,1745
1392.356461030667,1854
1394.4489469015557,1766
1396.5408845914872,1821
1398.6322743451592,1816
1400.7231164073469,1801
1402.813411022907,1774
1404.903158436773,1809
1406.9923588939578,1809
1409.0810126395531,1813
1411.1691199187303,1788
1413.2566809767386,1831
1415.343696058907,1900
1417.4301654106425,1834
1419.5160892774315,1843
1421.6014679048399,1896
1423.6863015385125,1895
1425.7705904241707,1943
1427.8543348076178,1987
1429.9375349347342,1977
1432.0201910514802,1903
1434.102303403894,1974
1436.1838722380944,1897
1438.2648978002767,1982
1440.3453803367174,1984
1442.4253200937692,2079
1444.5047173178677,2066
1446.5835722555234,2031
1448.6618851533285,2134
1450.739656257952,2168
1452.8168858161434,2172
1454.8935740747306,2147
1456.96972128062,2226
1459.045327680797,2253
1461.120393522327,2303
1463.1949190523528,2236
1465.2689045180973,2305
1467.3423501668608,2286
1469.415256246024,2388
1471.4876230030463,2420
1473.559450685465,2445
1475.6307395408976,2448
1477.7014898170391,2485
1479.771701761665,2522
1481.8413756226287,2608
1483.9105116478618,2596
1485.9791100853772,2584
1488.0471711832643,2693
1490.1146951896926,2648
1492.1816823529098,2716
1494.2481329212433,2784
1496.3140471430984,2852
1498.3794252669609,2883
1500.4442675413939,2871
1502.5085742150404,2895
1504.572345536622,2911
1506.6355817549388,2920
1508.6982831188702,2854
1510.7604498773744,2884
1512.8220822794883,2943
1514.8831805743293,2951
1516.9437450110909,3019
1519.003775839048,2953
1521.0632733075522,3039
1523.1222376660367,2965
1525.1806691640113,3072
1527.2385680510652,3016
1529.2959345768668,3187
1531.3527689911643,3137
1533.4090715437833,3195
1535.4648424846291,3158
1537.5200820636855,3175
1539.5747905310159,3225
1541.6289681367616,3243
1543.6826151311434,3247
1545.7357317644614,3344
1547.7883182870937,3307
1549.8403749494987,3387
1551.8919020022113,3473
1553.9428996958477,3454
1555.9933682811015,3613
1558.0433080087469,3620
1560.0927191296346,3708
1562.1416018946961,3752
1564.1899565549415,3619
1566.2377833614592,3695
1568.2850825654164,3707
1570.3318544180606,3455
1572.3780991707158,3433
1574.423817074788,3381
1576.4690083817595,3260
1578.5136733431923,3119
1580.5578122107272,3004
1582.601425236085,3004
1584.6445126710646,2810
1586.6870747675434,2693
1588.7291117774776,2616
1590.7706239529034,2574
1592.8116115459347,2389
1594.8520748087658,2349
1596.8920139936686,2349
1598.9314293529933,2236
1600.9703211391711,2169
1603.008689604711,2188
1605.0465350022005,2161
1607.0838575843068,2048
1609.1206576037753,2015
1611.1569353134305,1977
1613.1926909661765,1927
1615.2279248149953,1952
1617.2626371129481,1892
1619.2968281131757,1899
1621.3304980688963,1933
1623.3636472334088,1802
1625.39627586009,1832
1627.428384202396,1788
1629.459972513861,1811
1631.4910410480993,1793
1633.5215900588028,1753
1635.551619799744,1728
1637.5811305247717,1777
1639.6101224878166,1785
1641.6385959428862,1731
1643.6665511440683,1651
1645.693988345528,1742
1647.7209078015112,1766
1649.7473097663405,1700
1651.7731944944203,1756
1653.7985622402307,1781
1655.823413258333,1720
1657.847747803366,1748
1659.8715661300494,1640
1661.8948684931793,1685
1663.9176551476316,1663
1665.9399263483624,1674
1667.9616823504057,1642
1669.982923408873,1667
1672.0036497789574,1664
1674.0238617159293,1697
1676.043559475138,1637
1678.0627433120121,1676
1680.081413482059,1660
1682.0995702408654,1704
1684.117213844096,1688
1686.134344547495,1642
1688.1509626068864,1630
1690.1670682781705,1648
1692.182661817329,1619
1694.1977434804217,1693
1696.2123135235875,1632
1698.226372203043,1643
1700.2399197750851,1643
1702.2529564960905,1638
1704.2654826225112,1611
1706.277498410882,1684
1708.2890041178139,1657
1710.2999999999988,1640
1712.3104863142066,1619
1714.3204633172854,1708
1716.329931266163,1618
1718.3388904178469,1597
1720.3473410294214,1652
1722.3552833580516,1633
1724.3627176609807,1610
1726.3696441955308,1584
1728.3760632191033,1640
1730.3819749891782,1600
1732.3873797633146,1579
1734.3922777991502,1538
1736.3966693544012,1612
1738.4005546868639,1623
1740.4039340544127,1572
1742.406807715001,1540
1744.4091759266616,1550
1746.4110389475054,1574
1748.4123970357223,1510
1750.413250449582,1559
1752.4135994474318,1564
1754.4134442876993,1561
1756.4127852288902,1555
1758.4116225295893,1547
1760.4099564484595,1574
1762.407787244244,1509
1764.405115175764,1540
1766.4019405019203,1502
1768.3982634816916,1483
1770.3940843741357,1502
1772.3894034383907,1470
1774.3842209336717,1525
1776.378537119274,1488
1778.372352254571,1600
1780.3656665990156,1517
1782.3584804121397,1491
1784.3507939535534,1488
1786.3426074829463,1492
1788.3339212600863,1503
1790.3247355448211,1549
1792.3150505970766,1492
1794.3048666768573,1520
1796.2941840442477,1496
1798.2830029594106,1459
1800.2713236825884,1493
1802.2591464741004,1524
1804.2464715943465,1577
1806.2332993038058,1480
1808.2196298630352,1493
1810.2054635326708,1436
1812.190800573428,1510
1814.175641246101,1528
1816.1599858115628,1524
1818.1438345307652,1526
1820.127187664738,1471
1822.1100454745924,1519
1824.092408221516,1531
1826.0742761667766,1480
1828.055649571721,1535
1830.0365286977735,1458
1832.0169138064398,1455
1833.9968051593014,1489
1835.9762030180214,1510
1837.9551076443408,1513
1839.9335193000788,1459
1841.9114382471344,1500
1843.888864747485,1485
1845.8657990631878,1504
1847.842241456378,1460
1849.8181921892697,1474
1851.7936515241558,1513
1853.7686197234098,1420
1855.7430970494815,1487
1857.7170837649014,1468
1859.6905801322787,1506
1861.6635864143004,1489
1863.6361028737338,1505
1865.608129773424,1529
1867.5796673762961,1468
1869.5507159453537,1469
1871.521275743678,1523
1873.4913470344313,1512
1875.4609300808534,1540
1877.4300251462632,1531
1879.3986324940588,1502
1881.366752387717,1543
1883.3343850907936,1479
1885.3015308669228,1481
1887.268189979819,1506
1889.2343626932739,1502
1891.2000492711595,1483
1893.1652499774254,1513
1895.1299650761011,1543
1897.0941948312952,1528
1899.0579395071945,1556
1901.0211993680641,1508
1902.98397467825,1552
1904.9462657021745,1521
1906.9080727043415,1507
1908.869395949332,1566
1910.8302357018065,1442
1912.790592226504,1551
1914.7504657882428,1488
1916.7098566519212,1489
1918.6687650825133,1515
1920.6271913450764,1531
1922.5851357047422,1505
1924.5425984267245,1521
1926.499579776314,1537
1928.4560800188833,1520
1930.4120994198802,1486
1932.367638244833,1471
1934.32269675935,1484
1936.2772752291175,1476
1938.231373919899,1507
1940.1849930975404,1498
1942.1381330279637,1543
1944.0907939771696,1507
1946.0429762112412,1502
1947.9946799963363,1505
1949.9459055986945,1522
1951.896653284633,1507
1953.8469233205478,1502
1955.7967159729142,1558
1957.7460315082863,1520
1959.6948701932974,1508
1961.6432322946594,1464
1963.5911180791632,1523
1965.5385278136787,1501
1967.4854617651545,1496
1969.4319202006182,1498
1971.377903387176,1514
1973.3234115920136,1487
1975.268445082395,1530
1977.2130041256642,1507
1979.1570889892423,1500
1981.1006999406304,1468
1983.04383724741,1501
1984.986501177238,1479
1986.928691997853,1458
1988.8704099770712,1536
1990.811655382789,1486
1992.7524284829801,1491
1994.692729545698,1566
1996.6325588390755,1402
1998.5719166313224,1476
2000.5108031907307,1483
2002.4492187856677,1462
2004.387163684583,1489
2006.3246381560011,1436
2008.2616424685298,1469
2010.1981768908527,1414
2012.1342416917332,1424
2014.069837140014,1467
2016.0049635046162,1400
2017.9396210545406,1451
2019.8738100588666,1392
2021.8075307867502,1411
2023.740783507431,1440
2025.6735684902228,1416
2027.6058860045214,1509
2029.5377363198004,1468
2031.4691197056118,1475
2033.4000364315875,1453
2035.3304867674374,1465
2037.260470982952,1456
2039.189989347998,1472
2041.1190421325232,1438
2043.047629606554,1424
2044.9757520401945,1465
2046.9034097036288,1467
2048.8306028671195,1472
2050.7573318010086,1489
2052.683596775716,1468
2054.609398061742,1473
2056.5347359296647,1429
2058.4596106501403,1466
2060.384022493906,1456
2062.3079717317764,1486
2064.231458634646,1444
2066.1544834734873,1484
2068.077046519352,1435
2069.99914804337,1486
2071.9207883167524,1505
2073.8419676107865,1456
2075.7626861968406,1501
2077.6829443463607,1454
2079.6027423308715,1451
2081.522080421977,1439
2083.440958891362,1467
2085.359378010786,1484
2087.2773380520907,1441
2089.194839287196,1463
2091.111881988101,1423
2093.0284664268825,1424
2094.9445928756973,1446
2096.86026160678,1421
2098.775472892446,1452
2100.690227005088,1509
2102.604524217178,1475
2104.5183648012676,1462
2106.431749029985,1499
2108.34467717604,1448
2110.2571495122206,1526
2112.169166311393,1496
2114.080727846503,1399
2115.9918343905747,1485
2117.902486216711,1434
2119.8126835980956,1505
2121.722426807987,1435
2123.6317161197285,1480
2125.5405518067364,1456
2127.448934142509,1464
2129.356863400624,1499
2131.264339854737,1529
2133.1713637785815,1506
2135.077935445972,1492
2136.9840551308002,1476
2138.889723107037,1432
2140.7949396487334,1466
2142.699705030018,1490
2144.6040195250994,1457
2146.507883408264,1495
2148.4112969538774,1469
2150.3142604363848,1471
2152.2167741303097,1475
2154.1188383102535,1484
2156.0204532508997,1428
2157.9216192270064,1524
2159.822336513414,1497
2161.7226053850413,1486
2163.622426116884,1507
2165.5217989840185,1524
2167.4207242616,1526
2169.319202224862,1533
2171.2172331491165,1509
2173.1148173097563,1475
2175.0119549822507,1461
2176.90864644215,1488
2178.8048919650823,1526
2180.7006918267534,1509
2182.596046302952,1533
2184.4909556695407,1518
2186.3854202024645,1490
2188.279440177746,1423
2190.173015871487,1555
2192.066147559868,1474
2193.958835519149,1470
2195.851080025667,1492
2197.7428813558417,1449
2199.6342397861667,1481
2201.5251555932186,1493
2203.415629053651,1440
2205.3056604441986,1493
2207.19525004167,1529
2209.084398122958,1530
2210.9731049650327,1530
2212.861370844941,1519
2214.749196039812,1526
2216.636580826851,1582
2218.523525483344,1496
2220.410030286655,1519
2222.296095514226,1495
2224.1817214435805,1512
2226.066908352319,1570
2227.951656518121,1536
2229.835966218746,1523
2231.71983773203,1539
2233.6032713358913,1613
2235.486267308324,1541
2237.3688259274036,1569
2239.2509474712824,1482
2241.132632218193,1546
2243.013880446447,1576
2244.8946924344323,1544
2246.7750684606203,1505
2248.6550088035574,1523
2250.534513741871,1557
2252.413583554265,1572
2254.292218519526,1500
2256.170418916517,1523
2258.0481850241786,1562
2259.925517121534,1487
2261.8024154876825,1583
2263.678880401803,1493
2265.5549121431536,1537
2267.430510991071,1557
2269.305677224971,1572
2271.180411124348,1508
2273.0547129687766,1547
2274.9285830379076,1556
2276.8020216114737,1539
2278.6750289692845,1540
2280.5476053912294,1571
2282.4197511572766,1563
2284.2914665474727,1557
2286.162751841943,1650
2288.0336073208937,1649
2289.904033264608,1644
2291.774029953448,1579
2293.6435976678554,1547
2295.5127366883517,1508
2297.381447295534,1492
2299.2497297700825,1486
2301.1175843927526,1462
2302.9850114443825,1516
2304.852011205885,1416
2306.7185839582553,1389
2308.5847299825664,1438
2310.4504495599676,1430
2312.3157429716925,1409
2314.1806104990483,1376
2316.0450524234247,1423
2317.9090690262888,1406
2319.772660589186,1386
2321.635827393742,1458
2323.498569721661,1419
2325.3608878547248,1441
2327.2227820747967,1394
2329.0842526638157,1379
2330.945299903803,1365
2332.805924076857,1351
2334.6661254651535,1426
2336.525904350951,1425
2338.3852610165827,1347
2340.244195744464,1392
2342.102708817088,1386
2343.9608005170253,1419
2345.8184711269287,1414
2347.675720929526,1415
2349.532550207628,1397
2351.38895924412,1377
2353.24494832197,1416
2355.100517724223,1426
2356.955667734004,1403
2358.810398634514,1423
2360.664710709037,1474
2362.5186042409337,1452
2364.3720795136437,1362
2366.225136810686,1430
2368.0777764156583,1452
2369.929998612237,1414
2371.7818036841777,1364
2373.633191915315,1399
2375.484163589562,1365
2377.3347189909114,1412
2379.184858403434,1412
2381.03458211128,1397
2382.8838903986775,1457
2384.732783549936,1482
2386.5812618494406,1459
2388.4293255816588,1440
2390.2769750311327,1456
2392.1242104824883,1401
2393.971032220427,1443
2395.8174405297295,1470
2397.6634356952563,1408
2399.509018001947,1445
2401.3541877348193,1485
2403.1989451789705,1424
2405.043290619576,1497
2406.8872243418905,1440
2408.730746631247,1423
2410.5738577730594,1434
2412.4165580528183,1407
2414.258847756095,1411
2416.100727168537,1479
2417.9421965758734,1399
2419.783256263912,1447
2421.623906518538,1397
2423.4641476257157,1434
2425.303979871491,1465
2427.143403541984,1459
2428.9824189233977,1485
2430.821026302012,1372
2432.6592259641866,1456
2434.497018196361,1411
2436.33440328505,1400
2438.171381516851,1413
2440.00795317844,1435
2441.844118556569,1484
2443.6798779380724,1409
2445.5152316098606,1430
2447.3501798589255,1414
2449.1847229723357,1464
2451.0188612372403,1526
2452.8525949408663,1493
2454.6859243705203,1447
2456.518849813587,1463
2458.3513715575314,1421
2460.183489889895,1439
2462.015205098301,1416
2463.8465174704493,1450
2465.67742729412,1435
2467.5079348571717,1503
2469.338040447542,1454
2471.1677443532476,1414
2472.9970468623833,1471
2474.825948263123,1441
2476.6544488437207,1444
2478.482548892508,1381
2480.310248697896,1475
2482.137548548374,1422
2483.9644487325118,1433
2485.790949538956,1504
2487.617051256433,1463
2489.44275417375,1472
2491.26805857979,1494
2493.0929647635157,1426
2494.917473013971,1448
2496.741583620276,1506
2498.5652968716304,1537
2500.3886130573137,1554
2502.2115324666834,1526
2504.0340553891765,1536
2505.856182114308,1487
2507.6779129316733,1472
2509.499248130945,1537
2511.3201880018764,1546
2513.140732834298,1453
2514.9608829181198,1534
2516.780638543331,1547
2518.6,1535
2520.418967578273,1564
2522.237541568376,1498
2524.0557222606144,1472
2525.8735099453706,1520
2527.6909049131086,1520
2529.507907454368,1512
2531.32451785977,1579
2533.140736420014,1565
2534.9565634258774,1562
2536.771999168218,1569
2538.5870439379714,1575
2540.4016980261526,1622
2542.2159617238544,1631
2544.02983532225,1647
2545.8433191125914,1670
2547.656413386209,1570
2549.4691184345115,1590
2551.2814345489874,1597
2553.093362021204,1625
2554.904901142808,1668
2556.716052205523,1668
2558.526815501153,1667
2560.3371913215824,1697
2562.147179958771,1757
2563.956781704761,1735
2565.7659968516705,1711
2567.5748256916986,1703
2569.3832685171224,1748
2571.1913256202984,1736
2572.9989972936614,1695
2574.806283829725,1768
2576.613185521084,1797
2578.4197026604074,1769
2580.2258355404483,1823
2582.031584454035,1751
2583.836949694077,1793
2585.6419315535613,1794
2587.4465303255533,1765
2589.2507463032002,1760
2591.0545797797245,1813
2592.8580310484303,1772
2594.6611004026995,1820
2596.463788135992,1820
2598.266094541849,1839
2600.0680199138874,1815
2601.869564545807,1827
2603.670728731383,1774
2605.4715127644704,1771
2607.2719169390048,1871
2609.071941548998,1856
2610.8715868885433,1771
2612.670853251811,1773
2614.469740933052,1791
2616.268250226594,1832
2618.0663814268455,1833
2619.864134828292,1735
2621.6615107255006,1775
2623.458509413115,1791
2625.2551311858597,1833
2627.0513763385347,1722
2628.8472451660223,1792
2630.6427379632833,1758
2632.4378550253564,1770
2634.232596647359,1761
2636.026963124488,1697
2637.8209547520187,1759
2639.6145718253065,1685
2641.407814639785,1689
2643.200683490966,1667
2644.9931786744414,1726
2646.7853004858807,1675
2648.577049221034,1686
2650.3684251757277,1654
2652.1594286458712,1594
2653.9500599274484,1668
2655.740319316525,1587
2657.5302071092437,1594
2659.3197236018286,1674
2661.10886909058,1636
2662.8976438718782,1596
2664.686048242183,1589
2666.4740824980327,1542
2668.2617469360443,1578
2670.0490418529134,1526
2671.8359675454153,1610
2673.622524310403,1612
2675.408712444811,1519
2677.1945322456495,1597
2678.979984010009,1535
2680.76506803506,1479
2682.5497846180497,1501
2684.334134056306,1498
2686.1181166472343,1446
2687.9017326883213,1489
2689.6849824771293,1501
2691.4678663113013,1528
2693.2503844885596,1502
2695.032537306705,1465
2696.8143250636167,1462
2698.5957480572542,1459
2700.3768065856534,1489
2702.1575009469316,1511
2703.937831439283,1511
2705.717798360982,1507
2707.4974020103837,1560
2709.276642685917,1502
2711.055520686095,1463
2712.834036309506,1388
2714.612189854819,1411
2716.389981620782,1414
2718.1674119062204,1441
2719.944481010041,1442
2721.721189231226,1414
2723.4975368688415,1428
2725.273524222027,1445
2727.0491515900053,1466
2728.824419272075,1389
2730.5993275676146,1409
2732.3738767760838,1384
2734.148067197016,1433
2735.921899130031,1415
2737.6953728748194,1406
2739.468488731156,1410
2741.2412469988926,1431
2743.0136479779617,1448
2744.785691968372,1388
2746.5573792702116,1432
2748.3287101836504,1350
2750.099685008934,1412
2751.870304046388,1407
2753.640567596418,1369
2755.4104759595057,1366
2757.1800294362156,1387
2758.949228327187,1409
2760.7180729331412,1358
2762.486563554877,1419
2764.254700493272,1365
2766.022484049284,1428
2767.789914523947,1430
2769.5569922183786,1370
2771.3237174337705,1334
2773.090090471394,1383
2774.8561116326036,1415
2776.6217812188274,1380
2778.3870995315756,1349
2780.1520668724356,1358
2781.9166835430747,1434
2783.6809498452394,1359
2785.444866080754,1422
2787.2084325515225,1367
2788.971649559527,1332
2790.73451740683,1406
2792.4970363955713,1351
2794.2592068279705,1370
2796.0210290063264,1414
2797.7825032330147,1418
2799.543629810493,1350
2801.304409041296,1374
2803.0648412280366,1421
2804.8249266734088,1389
2806.5846656801846,1341
2808.344058551212,1385
2810.1031055894246,1400
2811.8618070978273,1372
2813.6201633795085,1395
2815.378174737636,1387
2817.1358414754536,1411
2818.893163896285,1422
2820.6501423035334,1413
2822.4067770006814,1413
2824.1630682912883,1387
2825.9190164789957,1441
2827.6746218675207,1336
2829.429884760661,1418
2831.184805462294,1380
2832.9393842763743,1382
2834.693621506936,1384
2836.4475174580916,1393
2838.201072434034,1372
2839.954286739034,1320
2841.707160677441,1391
2843.459694553685,1378
2845.2118886722724,1399
2846.96374333779,1345
2848.7152588549034,1428
2850.4664355283567,1340
2852.217273662973,1402
2853.9677735636546,1391
2855.7179355353833,1398
2857.4677598832186,1318
2859.217246912299,1368
2860.9663969278427,1412
2862.715210235146,1353
2864.4636871395846,1356
2866.211827946614,1412
2867.9596329617652,1319
2869.7071024906536,1395
2871.4542368389684,1353
2873.20103631248,1392
2874.947501217038,1368
2876.6936318585695,1438
2878.4394285430812,1401
2880.1848915766604,1362
2881.9300212654707,1419
2883.6748179157553,1392
2885.4192818338374,1447
2887.1634133261173,1407
2888.907212699077,1398
2890.6506802592744,1386
2892.393816313348,1460
2894.1366211680142,1441
2895.8790951300693,1395
2897.621238506388,1337
2899.363051603925,1391
2901.1045347297118,1338
2902.8456881908596,1372
2904.58651229456,1358
2906.327007348081,1419
2908.067173658772,1388
2909.8070115340597,1455
2911.5465212814497,1398
2913.285703208527,1372
2915.0245576229563,1287
2916.7630848324807,1336
2918.5012851449196,1295
2920.2391588681758,1357
2921.976706310227,1380
2923.7139277791334,1408
2925.4508235830313,1391
2927.187394030137,1382
2928.923639428745,1353
2930.6595600872306,1318
2932.395156314046,1340
2934.1304284177218,1434
2935.8653767068713,1350
2937.6000014901815,1405
2939.3343030764227,1344
2941.068281774442,1432
2942.8019378931644,1405
2944.5352717415976,1453
2946.2682836288236,1364
2948.0009738640065,1339
2949.7333427563885,1392
2951.465390615289,1455
2953.1971177501086,1398
2954.9285244703265,1383
2956.6596110855,1330
2958.3903779052657,1313
2960.1208252393385,1405
2961.8509533975125,1300
2963.5807626896617,1347
2965.3102534257378,1366
2967.0394259157715,1321
2968.768280469873,1374
2970.496817398232,1369
2972.2250370111146,1415
2973.952939618869,1377
2975.6805255319196,1347
2977.4077950607707,1390
2979.134748516006,1398
2980.861386208289,1348
2982.587708448359,1399
2984.313715547037,1423
2986.039407815222,1380
2987.764785563891,1391
2989.489849104102,1369
2991.2145987469908,1354
2992.9390348037705,1379
2994.6631575857346,1356
2996.3869674042576,1371
2998.1104645707887,1353
2999.83364939686,1326
3001.5565221940783,1401
3003.2790832741334,1336
3005.0013329487924,1391
3006.7232715298996,1402
3008.4448993293804,1404
3010.166216659239,1321
3011.887223831558,1322
3013.607921158498,1380
3015.3283089522993,1378
3017.0483875252826,1352
3018.7681571898443,1335
3020.4876182584626,1348
3022.2067710436927,1352
3023.9256158581707,1421
3025.644153014609,1363
3027.362382825801,1393
3029.0803056046193,1333
3030.797921664012,1320
3032.5152313170106,1366
3034.2322348767225,1374
3035.9489326563353,1317
3037.665324969115,1328
3039.3814121284063,1366
3041.097194447633,1392
3042.812672240299,1370
3044.5278458199855,1379
3046.2427155003525,1379
3047.9572815951406,1412
3049.671544418167,1368
3051.38550428333,1331
3053.0991615046073,1386
3054.812516396051,1381
3056.5255692717974,1361
3058.2383204460575,1310
3059.9507702331257,1298
3061.662918947372,1320
3063.3747669032446,1361
3065.0863144152736,1341
3066.7975617980674,1386
3068.508509366309,1378
3070.219157434767,1336
3071.9295063182844,1312
3073.639556331785,1376
3075.3493077902704,1392
3077.058761008821,1344
3078.7679163025964,1369
3080.476773986837,1408
3082.1853343768594,1334
3083.89359778806,1363
3085.6015645359153,1347
3087.3092349359786,1316
3089.016609303884,1385
3090.7236879553434,1414
3092.4304712061476,1327
3094.136959372166,1336
3095.843152769349,1411
3097.5490517137237,1349
3099.2546565213966,1370
3100.959967508554,1353
3102.66498499146,1330
3104.3697092864577,1339
3106.0741407099695,1364
3107.778279578498,1376
3109.482126208622,1338
3111.1856809170004,1353
3112.8889440203716,1365
3114.5919158355528,1363
3116.294596679439,1391
3117.996986869006,1393
3119.6990867213062,1343
3121.4008965534726,1404
3123.102416682717,1397
3124.803647426329,1344
3126.5045891016784,1385
3128.205242026213,1370
3129.90560651746,1351
3131.605682893025,1322
3133.3054714705922,1375
3135.0049725679282,1373
3136.7041865028714,1394
3138.4031135933465,1451
3140.101754157353,1342
3141.800108512971,1397
3143.498176978357,1401
3145.1959598717494,1367
3146.8934575114636,1364
3148.5906702158954,1293
3150.2875983035183,1361
3151.9842420928853,1358
3153.680601902627,1340
3155.376678051456,1297
3157.07247085816,1333
3158.767980641609,1330
3160.463207720748,1285
3162.158152414606,1381
3163.8528150422862,1329
3165.5471959229726,1411
3167.2412953759303,1391
3168.9351137204976,1380
3170.628651276098,1371
3172.3219083622307,1340
3174.014885298474,1364
3175.707582404485,1338
3177.4000000000005,1347
3179.092138404835,1366
3180.7839979388846,1373
3182.47557892212,1356
3184.166881674594,1306
3185.8579065164386,1357
3187.5486537678626,1353
3189.2391237491547,1354
3190.9293167806827,1361
3192.6192331828934,1348
3194.3088732763117,1307
3195.998237381542,1309
3197.687325819268,1329
3199.376138910251,1365
3201.064676975334,1344
3202.7529403354347,1359
3204.4409293115523,1358
3206.1286442247647,1327
3207.816085396229,1368
3209.5032531471825,1299
3211.190147798936,1350
3212.8767696728846,1270
3214.5631190905015,1321
3216.2491963733373,1330
3217.9350018430214,1328
3219.6205358212637,1318
3221.305798629851,1303
3222.990790590651,1337
3224.6755120256103,1278
3226.359963256751,1315
3228.0441446061795,1276
3229.7280563960758,1321
3231.411698948703,1302
3233.0950725863995,1369
3234.778177631587,1328
3236.461014406761,1330
3238.1435832345005,1324
3239.8258844374595,1352
3241.507918338374,1362
3243.1896852600576,1301
3244.8711855254023,1362
3246.552419457381,1332
3248.233387379042,1328
3249.914089613516,1347
3251.59452648401,1348
3253.274698313813,1317
3254.95460542629,1325
3256.6342481448855,1306
3258.313626793125,1276
3259.9927416946084,1305
3261.6715931730196,1293
3263.3501815521176,1325
3265.0285071557437,1279
3266.706570307815,1311
3268.3843713323286,1312
3270.0619105533615,1301
3271.739188295068,1289
3273.4162048816834,1346
3275.0929606375184,1309
3276.769455886966,1266
3278.445690954498,1285
3280.1216661646613,1376
3281.797381842087,1340
3283.4728383114807,1294
3285.1480358976296,1328
3286.8229749253996,1320
3288.4976557197333,1318
3290.172078605655,1321
3291.846243908266,1301
3293.5201519527463,1279
3295.193803064357,1290
3296.8671975684374,1274
3298.5403357904024,1314
3300.21321805575,1344
3301.8858446900567,1322
3303.558216018975,1323
3305.23033236824,1308
3306.9021940636603,1316
3308.57380143113,1357
3310.2451547966184,1362
3311.916254486174,1360
3313.5871008259246,1284
3315.2576941420766,1334
3316.9280347609147,1324
3318.5981230088046,1256
3320.2679592121895,1297
3321.9375436975924,1271
3323.606876791612,1286
3325.27595882093,1244
3326.944790112305,1310
3328.6133709925753,1325
3330.2817017886573,1298
3331.949782827547,1284
3333.617614436319,1257
3335.2851969421245,1272
3336.952530672199,1317
3338.619615953853,1294
3340.286453114475,1357
3341.9530424815357,1289
3343.619384382583,1316
3345.2854791452437,1337
3346.951327097224,1305
3348.6169285663073,1326
3350.2822838803577,1274
3351.947393367319,1362
3353.61225735521,1302
3355.2768761721345,1317
3356.9412501462693,1278
3358.605379605873,1291
3360.2692648792827,1284
3361.9329062949146,1283
3363.596304181263,1281
