CollectionTime,7/11/2024 1:30:34 PM
ExposureUsed,3
CalibratedSpectrum
-962.7078968117929,499
-959.9714848408522,517
-957.2358232597828,533
-954.5009119013725,524
-951.7667505983302,533
-949.0333391832855,552
-946.3006774887896,555
-943.5687653473143,550
-940.837602591253,559
-938.1071890529199,544
-935.3775245645503,534
-932.6486089583007,531
-929.9204420662485,568
-927.1930237203925,538
-924.4663537526524,510
-921.7404319948689,515
-919.0152582788041,542
-916.2908324361409,581
-913.5671542984834,570
-910.8442236973568,543
-908.1220404642074,543
-905.4006044304027,534
-902.679915427231,545
-899.959973285902,509
-897.2407778375464,517
-894.5223289132158,512
-891.8046263438832,528
-889.0876699604426,502
-886.3714595937089,533
-883.6559950744183,531
-880.9412762332282,519
-878.2273029007168,527
-875.5140749073835,524
-872.8015920836489,501
-870.0898542598545,542
-867.3788612662631,533
-864.6686129330585,540
-861.9591090903457,518
-859.2503495681506,523
-856.5423341964203,518
-853.8350628050229,522
-851.1285352237478,550
-848.4227512823054,526
-845.7177108103272,510
-843.0134136373656,515
-840.3098595928943,554
-837.6070485063082,531
-834.9049802069229,558
-832.2036545239757,547
-829.5030712866244,536
-826.8032303239481,539
-824.1041314649472,537
-821.4057745385428,509
-818.7081593735775,547
-816.0112857988148,535
-813.3151536429393,554
-810.6197627345566,548
-807.9251129021936,536
-805.2312039742981,521
-802.5380357792392,545
-799.8456081453069,528
-797.1539209007124,542
-794.462973873588,545
-791.772766891987,530
-789.083299783884,536
-786.3945723771743,515
-783.7065844996748,547
-781.0193359791231,540
-778.3328266431781,553
-775.6470563194197,542
-772.9620248353489,535
-770.2777320183878,529
-767.5941776958798,554
-764.9113616950891,558
-762.2292838432011,558
-759.5479439673222,547
-756.8673418944801,515
-754.1874774516235,577
-751.5083504656222,564
-748.8299607632671,572
-746.15230817127,612
-743.475392516264,568
-740.7992136248035,572
-738.1237713233636,590
-735.4490654383407,574
-732.7750957960521,564
-730.1018622227365,580
-727.4293645445534,559
-724.7576025875837,575
-722.0865761778291,559
-719.4162851412126,581
-716.7467293035781,603
-714.0779084906909,590
-711.409822528237,608
-708.7424712418238,589
-706.0758544569796,553
-703.4099719991541,622
-700.7448236937178,601
-698.0804093659622,629
-695.4167288411002,592
-692.7537819442656,602
-690.0915685005134,607
-687.4300883348199,607
-684.7693412720819,588
-682.1093271371178,584
-679.4500457546669,618
-676.7914969493897,626
-674.1336805458676,603
-671.4765963686034,597
-668.8202442420206,599
-666.1646239904642,596
-663.5097354382001,606
-660.8555784094151,647
-658.2021527282176,619
-655.5494582186366,611
-652.8974947046223,618
-650.2462620100463,609
-647.5957599587009,665
-644.9459883742998,637
-642.2969470804776,642
-639.6486359007902,660
-637.0010546587141,660
-634.3542031776476,632
-631.7080812809096,621
-629.0626887917401,621
-626.4180255333008,615
-623.7740913286734,622
-621.1308860008619,627
-618.4884093727904,638
-615.8466612673046,630
-613.2056415071715,623
-610.5653499150785,624
-607.9257863136347,635
-605.28695052537,621
-602.6488423727357,632
-600.0114616781036,626
-597.3748082637674,621
-594.7388819519412,646
-592.1036825647604,668
-589.4692099242818,670
-586.8354638524829,651
-584.2024441712624,659
-581.5701507024403,655
-578.9385832677575,640
-576.3077416888759,665
-573.6776257873787,715
-571.0482353847704,635
-568.4195703024757,687
-565.7916303618415,642
-563.164415384135,639
-560.5379251905453,653
-557.9121596021815,654
-555.2871184400748,646
-552.6628015251767,667
-550.0392086783606,667
-547.4163397204204,641
-544.794194472071,660
-542.1727727539491,677
-539.5520743866118,689
-536.9320991905377,691
-534.3128469861261,724
-531.6943175936979,737
-529.0765108334947,741
-526.4594265256793,785
-523.8430644903358,818
-521.2274245474689,896
-518.612506517005,961
-515.9983102187913,1007
-513.3848354725959,1012
-510.77208209810846,1026
-508.16004991493924,1140
-505.5487387426199,1299
-502.9381484006032,1308
-500.3282787082628,1344
-497.71912948489364,1268
-495.1107005497117,1154
-492.5029917218539,1073
-489.8960028203786,926
-487.28973366426493,880
-484.68418407241325,821
-482.07935386364494,805
-479.47524285670266,794
-476.87185087025,769
-474.2691777228715,787
-471.66722323307334,817
-469.0659872192821,809
-466.4654694998459,831
-463.86566989303384,799
-461.26658821703614,827
-458.66822428996414,775
-456.07057792985,788
-453.4736489546475,785
-450.877437182231,813
-448.28194243039627,797
-445.68716451686,806
-443.09310325926003,779
-440.49975847515555,802
-437.9071299820263,793
-435.31521759727354,815
-432.72402113821954,834
-430.13354042210767,781
-427.5437752661022,818
-424.95472548728867,807
-422.36639090267386,825
-419.7787713291855,829
-417.1918665836721,899
-414.60567648290385,867
-412.0202008435715,869
-409.4354394822874,863
-406.8513922155845,881
-404.26805885991723,827
-401.685439231661,832
-399.103533147112,892
-396.522340422488,812
-393.9418608739278,827
-391.3620943174908,865
-388.7830405691583,835
-386.2046994448317,803
-383.6270707603344,725
-381.05015433141045,734
-378.473949973725,688
-375.8984575028645,656
-373.32367673433623,598
-370.74960748356875,579
-368.1762495659117,536
-365.60360279663576,509
-363.03166699093265,481
-360.4604419639154,497
-357.8899275306178,467
-355.32012350599507,433
-352.7510297049233,440
-350.1826459421999,422
-347.61497203254316,420
-345.04800779059235,426
-342.4817530309082,434
-339.91620756797226,424
-337.35137121618743,419
-334.7872437898774,442
-332.22382510328725,473
-329.66111497058273,434
-327.09911320585127,419
-324.53781962310075,433
-321.9772340362607,430
-319.4173562591816,417
-316.8581861056348,412
-314.2997233893127,406
-311.7419679238294,403
-309.1849195227194,430
-306.62857799943856,450
-304.0729431673641,442
-301.51801483979375,468
-298.963792829947,465
-296.41027695096386,469
-293.85746701590574,499
-291.3053628377552,484
-288.7539642294155,465
-286.2032710037115,498
-283.65328297338897,468
-281.1039999511146,488
-278.5554217494762,555
-276.007548180983,537
-273.4603790580651,457
-270.9139141930734,482
-268.3681533982807,474
-265.8230964858798,495
-263.27874326798565,507
-260.7350935566336,480
-258.1921471637804,490
-255.6499039013039,492
-253.10836358100266,515
-250.56752601459698,500
-248.02739101372765,524
-245.48795838995704,544
-242.94922795476816,561
-240.41119951956557,529
-237.8738728956746,568
-235.33724789434166,558
-232.80132432673452,526
-230.2661020039418,532
-227.73158073697357,580
-225.19776033676033,581
-222.66464061415422,598
-220.1322213799284,569
-217.60050244477725,508
-215.06948361931552,527
-212.53916471408013,519
-210.00954553952818,541
-207.48062590603843,536
-204.9524056239104,537
-202.4248845033651,603
-199.8980623545441,618
-197.37193898751036,637
-194.84651421224817,601
-192.32178783866232,596
-189.79775967657952,580
-187.27442953574644,631
-184.7517972258321,654
-182.2298625564256,649
-179.7086253370378,690
-177.18808537710026,635
-174.66824248596583,653
-172.14909647290835,660
-169.6306471471229,696
-167.11289431772548,710
-164.59583779375328,694
-162.07947738416453,646
-159.5638128978386,668
-157.04884414357605,781
-154.53457093009854,748
-152.02099306604828,777
-149.50811035998936,716
-146.99592262040665,662
-144.48442965570587,672
-141.97363127421409,784
-139.46352728417958,741
-136.95411749377126,731
-134.44540171107985,753
-131.93737974411636,678
-129.43005140081357,689
-126.92341648902493,829
-124.41747481652521,1155
-121.91222619101006,1274
-119.40767042009657,1331
-116.90380731132257,1408
-114.40063667214702,1426
-111.8981583099503,1387
-109.3963720320337,1164
-106.89527764561933,1105
-104.39487495785067,1426
-101.89516377579241,1711
-99.39614390642998,2279
-96.89781515667039,2213
-94.40017733334128,1922
-91.90323024319173,2188
-89.40697369289148,3433
-86.91140748903172,4203
-84.41653143812482,4714
-81.92234534660395,3870
-79.42884902082358,2689
-76.93604226705907,3291
-74.4439248915071,6969
-71.95249670028534,11452
-69.46175749943245,14293
-66.97170709490854,15933
-64.48234529259423,15230
-61.99367189829195,12666
-59.50568671772464,9135
-57.01838955653636,7509
-54.53178022029283,7512
-52.045858514480074,6681
-49.560624244506016,6626
-47.07607721569923,8524
-44.59221723330904,9421
-42.10904410250669,9594
-39.62655762838392,8529
-37.14475761595372,7748
-34.66364387015028,7180
-32.18321619582866,6359
-29.70347439776515,6285
-27.224418280657005,6073
-24.74604764912317,6524
-22.26836230770266,10022
-19.7913620608565,19520
-17.315046712966478,33719
-14.83941606833514,44860
-12.36446993118659,59156
-9.89020810566592,65039
-7.416630395839093,65039
-4.94373660569363,65039
-2.471526539137585,65039
-6.821210263296962E-13,65039
2.47084320796705,65039
4.941003281093458,65039
7.410480415786196,65039
9.879274808531363,65039
12.347386655893956,65039
14.814816154518212,65039
17.28156350112681,65039
19.74762889252179,65039
22.21301252558385,65039
24.67771459727237,18847
27.141735304626195,3244
29.605074844762612,2060
32.06773341487792,1859
34.52971121224755,1774
36.99100843422559,1941
39.45162527824516,1863
41.91156194181792,1387
44.370818622535126,1313
46.82939551806646,1250
49.287292826160524,1219
51.74451074464503,1291
54.201049471426245,1444
56.65690920448981,1232
59.112090141899785,1048
61.56659248179983,1064
64.02041642241159,970
66.4735621620365,967
68.92602989905402,894
71.37781983192338,971
73.82893215918205,991
76.27936707944684,1053
78.72912479141326,880
81.17820549385567,828
83.62660938562783,1001
86.07433666566146,1111
88.5213875329681,881
90.96776218663751,842
93.41346082583925,797
95.85848364982041,842
98.30283085790859,1017
100.7465026495089,1027
103.18949922410604,829
105.63182078126385,750
108.07346752062438,783
110.51443964190923,712
112.95473734491827,745
115.39436082953114,737
117.83331029570547,753
120.27158594347827,841
122.7091879729652,918
125.1461165843615,856
127.58237197794062,704
130.01795435405518,687
132.4528639131364,756
134.88710085569494,798
137.32066538231982,826
139.75355769367923,715
142.1857779905207,660
144.61732647366978,707
147.04820334403132,725
149.47840880258934,723
151.90794305040674,783
154.33680628862487,957
156.76499871846443,1065
159.19252054122433,1137
161.61937195828352,1196
164.04555317109896,1391
166.47106438120693,1453
168.89590579022217,1604
171.320077599839,1745
173.7435800118302,1785
176.16641322804742,1893
178.58857745042144,1948
181.01007288096173,2064
183.43089972175687,2131
185.85105817497413,2030
188.27054844285988,2042
190.6893707277394,2013
193.10752523201643,2090
195.5250121581745,2163
197.9418317087751,2313
200.3579840864594,2238
202.7734694939469,2232
205.18828813403627,2252
207.6024402096051,2358
210.01592592360964,2355
212.42874547908548,2336
214.84089907914665,2351
217.2523869269868,2291
219.66320922587727,2344
222.0733661791695,2295
224.48285799029293,2327
226.8916848627572,2369
229.29984700014882,2411
231.7073446061355,2392
234.11417788446204,2459
236.520347038953,2437
238.92585227351185,2475
241.33069379212054,2671
243.73487179884035,2709
246.1383864978112,2764
248.541238093252,2682
250.9434267894609,2753
253.34495279081432,2760
255.74581630176783,2841
258.1460175268563,2826
260.54555667069314,2817
262.9444339379703,2830
265.3426495334594,2712
267.7402036620107,2587
270.1370965285529,2608
272.53332833809407,2456
274.9288992957214,2320
277.32380960660055,2257
279.718059475976,2263
282.1116491091717,2189
284.5045787115897,2226
286.89684848871195,2145
289.2884586460981,2236
291.67940938938807,2216
294.0697009242996,2228
296.4593334566299,2147
298.84830719225477,2092
301.23662233712923,2102
303.6242790972866,2084
306.01127767884,2096
308.39761828798066,2058
310.78330113097934,2039
313.16832641418534,1980
315.5526943440269,1987
317.9364051270112,1992
320.3194589697242,1959
322.70185607883093,1974
325.0835966610754,1960
327.4646809232805,1930
329.8451090723478,1894
332.2248813152577,1889
334.6039978590701,1921
336.9824589109231,1833
339.36026467803447,1878
341.7374153677,1841
344.113911187295,1795
346.48975234427337,1770
348.8649390461686,1823
351.2394715005918,1776
353.61334991523415,1885
355.9865744978655,1807
358.35914545633375,1814
360.73106299856715,1797
363.10232733257146,1832
365.47293866643247,1853
367.84289720831396,1848
370.2122031664593,1751
372.5808567491905,1793
374.9488581649083,1773
377.31620762209275,1681
379.6829053293021,1743
382.0489514951745,1766
384.4143463284262,1748
386.7790900378528,1688
389.14318283232853,1720
391.50662492080653,1677
393.86941651231916,1701
396.23155781597745,1792
398.5930490409713,1656
400.9538903965696,1639
403.3140820921202,1639
405.6736243370498,1631
408.03251734086336,1692
410.3907613131465,1680
412.74835646356166,1663
415.10530300185144,1628
417.4616011378372,1635
419.81725108141893,1627
422.1722530425758,1706
424.5266072313656,1709
426.880313857925,1657
429.2333731324701,1615
431.58578526529516,1728
433.9375504667738,1645
436.2886689473588,1629
438.63914091758113,1637
440.9889665880513,1619
443.33814616945835,1621
445.68667987257015,1601
448.03456790823395,1654
450.3818104873759,1704
452.72840782100013,1639
455.07436012019105,1565
457.41966759611057,1564
459.7643304600007,1616
462.10834892318155,1607
464.4517231970525,1534
466.79445349309174,1657
469.1365400228566,1628
471.4779829979826,1598
473.81878263018564,1672
476.15893913125876,1623
478.4984527130747,1639
480.8373235875855,1614
483.17555196682144,1779
485.5131380628919,1733
487.8500820879857,1768
490.1863842543697,1776
492.52204477439034,1866
494.8570638604725,2099
497.1914417251204,2163
499.52517858091653,2429
501.85827464052306,2638
504.19073011668036,2811
506.5225452222086,2961
508.85372017000566,2848
511.18425517304956,2783
513.514150444396,2800
515.8434061971808,3088
518.1720226446176,3598
520.4999999999999,3746
522.8273384766991,3431
525.1540382881666,3275
527.480099647932,2855
529.8055227696037,2516
532.1303078668694,2053
534.454455153496,1856
536.777964843328,1707
539.1008371502907,1702
541.4230722883866,1738
543.744670471698,1626
546.0656319143858,1654
548.3859568306899,1650
550.7056454349294,1603
553.0246979415016,1604
555.3431145648834,1649
557.6608955196306,1646
559.978041020377,1612
562.2945512818363,1562
564.6104265188006,1596
566.9256669461412,1589
569.2402727788082,1651
571.5542442318302,1638
573.8675815203156,1617
576.1802848594508,1707
578.4923544645015,1629
580.8037905508126,1591
583.114593333807,1663
585.4247630289875,1676
587.7342998519354,1627
590.0432040183106,1591
592.3514757438526,1608
594.6591152443794,1682
596.9661227357875,1616
599.2724984340531,1642
601.578242555231,1646
603.8833553154542,1652
606.1878369309362,1699
608.4916876179676,1664
610.7949075929192,1679
613.0974970722403,1639
615.3994562724587,1626
617.7007854101818,1596
620.0014847020951,1582
622.3015543649641,1700
624.6009946156324,1656
626.8998056710224,1629
629.1979877481361,1578
631.4955410640538,1678
633.7924658359349,1686
636.0887622810175,1713
638.3844306166192,1738
640.6794710601358,1656
642.9738838290426,1716
645.2676691408932,1736
647.5608272133207,1752
649.853358264037,1734
652.1452625108324,1723
654.4365401715764,1756
656.7271914642178,1761
659.0172166067838,1768
661.3066158173809,1758
663.5953893141935,1757
665.8835373154867,1787
668.1710600396028,1768
670.4579577049639,1784
672.7442305300709,1766
675.0298787335033,1715
677.3149025339197,1708
679.599302150058,1693
681.8830778007342,1703
684.1662297048437,1752
686.4487580813608,1720
688.7306631493387,1779
691.0119451279091,1729
693.2926042362834,1691
695.5726406937516,1744
697.8520547196814,1732
700.1308465335215,1695
702.4090163547982,1711
704.6865644031171,1694
706.9634908981619,1670
709.2397960596965,1690
711.5154801075631,1740
713.7905432616823,1680
716.0649857420548,1695
718.3388077687592,1701
720.612009561953,1675
722.8845913418733,1779
725.1565533288352,1696
727.427895743234,1748
729.6986188055427,1771
731.9687227363137,1748
734.238207756178,1699
736.5070740858458,1689
738.7753219461066,1665
741.0429515578281,1652
743.3099631419569,1780
745.5763569195191,1700
747.8421331116193,1680
750.1072919394409,1680
752.3718336242467,1656
754.6357583873777,1722
756.8990664502545,1682
759.1617580343765,1682
761.423833361321,1696
763.6852926527457,1705
765.9461361303862,1669
768.206364016058,1741
770.4659765316536,1698
772.7249738991469,1695
774.9833563405886,1719
777.2411240781092,1713
779.4982773339183,1759
781.7548163303044,1756
784.010741289634,1696
786.2660524343538,1775
788.5207499869881,1775
790.7748341701416,1753
793.0283052064964,1711
795.2811633188143,1752
797.5334087299362,1765
799.7850416627813,1700
802.0360623403484,1763
804.2864709857143,1735
806.5362678220353,1754
808.7854530725468,1760
811.0340269605625,1756
813.2819897094754,1698
815.5293415427581,1714
817.77608268396,1778
820.0222133567116,1693
822.2677337847211,1797
824.5126441917765,1752
826.7569448017433,1745
829.0006358385675,1766
831.2437175262731,1837
833.4861900889629,1688
835.7280537508192,1713
837.9693087361026,1765
840.2099552691533,1781
842.4499935743896,1741
844.689423876309,1680
846.9282463994886,1796
849.1664613685833,1729
851.4040690083276,1718
853.6410695435349,1789
855.877463199097,1740
858.1132501999847,1673
860.3484307712487,1748
862.5830051380175,1770
864.8169735254988,1708
867.0503361589791,1751
869.2830932638243,1783
871.5152450654786,1711
873.7467917894654,1766
875.9777336613873,1807
878.2080709069252,1793
880.4378037518389,1791
882.666932421968,1755
884.8954571432301,1755
887.1233781416219,1765
889.3506956432192,1765
891.5774098741766,1734
893.803521060728,1749
896.0290294291852,1793
898.2539352059397,1753
900.4782386174619,1795
902.7019398903011,1762
904.925039251085,1773
907.147536926521,1756
909.3694331433943,1728
911.59072812857,1717
913.8114221089921,1672
916.0315153116827,1755
918.2510079637437,1747
920.4699002923547,1763
922.6881925247761,1697
924.905884888345,1781
927.1229776104793,1694
929.3394709186747,1769
931.555365040506,1785
933.7706602036275,1725
935.9853566357709,1763
938.1994545647489,1709
940.4129542184515,1745
942.6258558248488,1754
944.8381596119883,1671
947.0498658079974,1773
949.2609746410825,1672
951.4714863395287,1700
953.6814011316998,1687
955.8907192460387,1638
958.0994409110671,1678
960.3075663553858,1695
962.5150958076741,1722
964.7220294966913,1656
966.928367651274,1659
969.1341105003388,1677
971.3392582728806,1687
973.5438111979742,1629
975.747769504772,1652
977.9511334225061,1646
980.153903180487,1697
982.3560790081052,1625
984.5576611348289,1699
986.7586497902058,1603
988.9590452038618,1621
991.158847605503,1597
993.3580572249133,1549
995.5566742919558,1592
997.7546990365728,1529
999.952131688785,1556
1002.1489724786926,1537
1004.3452216364743,1516
1006.5408793923874,1458
1008.7359459767691,1511
1010.9304216200343,1504
1013.1243065526781,1467
1015.3176010052733,1517
1017.510305208472,1431
1019.7024193930064,1498
1021.8939437896848,1431
1024.0848786293977,1445
1026.2752241431122,1483
1028.4649805618747,1409
1030.6541481168115,1339
1032.842727039127,1421
1035.0307175601051,1407
1037.2181199111074,1455
1039.4049343235752,1483
1041.591161029029,1452
1043.7768002590683,1439
1045.9618522453698,1437
1048.1463172196918,1448
1050.3301954138697,1379
1052.513487059818,1413
1054.69619238953,1435
1056.8783116350783,1399
1059.0598450286152,1435
1061.2407928023704,1365
1063.4211551886528,1383
1065.6009324198508,1396
1067.780124728432,1401
1069.9587323469414,1391
1072.1367555080046,1460
1074.314194444325,1474
1076.4910493886855,1395
1078.667320573947,1379
1080.843008233051,1413
1083.0181125990161,1410
1085.1926339049414,1369
1087.3665723840027,1268
1089.5399282694575,1382
1091.7127017946405,1388
1093.8848931929647,1316
1096.0565026979243,1299
1098.2275305430899,1388
1100.3979769621128,1362
1102.567842188722,1323
1104.737126456726,1364
1106.9058300000124,1372
1109.0739530525475,1340
1111.2414958483764,1335
1113.4084586216231,1283
1115.5748416064907,1337
1117.7406450372605,1318
1119.9058691482942,1366
1122.0705141740304,1348
1124.2345803489884,1342
1126.3980679077658,1295
1128.5609770850388,1332
1130.7233081155623,1350
1132.8850612341707,1319
1135.0462366757774,1329
1137.2068346753745,1325
1139.3668554680326,1367
1141.526299288901,1340
1143.68516637321,1305
1145.8434569562655,1296
1148.001171273455,1323
1150.158309560244,1256
1152.3148720521767,1280
1154.470858984876,1286
1156.626270594044,1315
1158.7811071154629,1294
1160.9353687849912,1296
1163.089055838569,1291
1165.242168512213,1306
1167.3947070420209,1278
1169.5466716641677,1299
1171.6980626149075,1292
1173.8488801305748,1275
1175.9991244475814,1311
1178.1487958024186,1289
1180.2978944316555,1297
1182.4464205719428,1297
1184.5943744600072,1200
1186.7417563326567,1268
1188.8885664267755,1275
1191.0348049793297,1338
1193.1804722273619,1252
1195.325568407995,1307
1197.4700937584303,1258
1199.614048515948,1268
1201.7574329179074,1267
1203.900247201746,1278
1206.042491604982,1281
1208.1841663652099,1301
1210.3252717201053,1262
1212.465807907422,1340
1214.6057751649923,1311
1216.7451737307279,1312
1218.8840038426192,1242
1221.0222657387353,1322
1223.1599596572241,1262
1225.2970858363137,1361
1227.4336445143094,1319
1229.5696359295966,1309
1231.705060320639,1349
1233.8399179259786,1291
1235.9742089842384,1355
1238.107933734118,1346
1240.2410924143974,1292
1242.373685263935,1275
1244.5057125216676,1334
1246.6371744266116,1355
1248.7680712178621,1364
1250.898403134593,1341
1253.028170416058,1319
1255.1573733015875,1336
1257.2860120305932,1300
1259.4140868425648,1328
1261.54159797707,1360
1263.6685456737569,1352
1265.7949301723515,1329
1267.9207517126597,1302
1270.046010534565,1360
1272.1707068780306,1344
1274.2948409830983,1379
1276.4184130898889,1327
1278.541423438603,1328
1280.6638722695184,1328
1282.785759822993,1370
1284.9070863394636,1354
1287.0278520594447,1406
1289.1480572235314,1394
1291.2677020723963,1365
1293.3867868467923,1437
1295.5053117875495,1425
1297.623277135579,1361
1299.740683131868,1431
1301.8575300174857,1446
1303.973818033578,1384
1306.0895474213703,1379
1308.2047184221678,1460
1310.3193312773528,1397
1312.4333862283888,1473
1314.5468835168163,1456
1316.659823384255,1420
1318.7722060724045,1493
1320.8840318230418,1450
1322.9953008780249,1411
1325.1060134792888,1431
1327.2161698688478,1435
1329.3257702887959,1483
1331.4348149813054,1461
1333.5433041886276,1476
1335.6512381530933,1455
1337.7586171171101,1465
1339.8654413231675,1498
1341.9717110138317,1466
1344.0774264317488,1455
1346.1825878196432,1475
1348.2871954203192,1404
1350.3912494766587,1510
1352.4947502316231,1475
1354.5976979282532,1465
1356.7000928096686,1453
1358.8019351190665,1463
1360.9032250997243,1422
1363.0039629949988,1452
1365.1041490483235,1433
1367.2037835032133,1435
1369.3028666032606,1454
1371.401398592137,1463
1373.4993797135926,1437
1375.5968102114575,1463
1377.6936903296396,1503
1379.7900203121262,1408
1381.8858004029835,1454
1383.9810308463561,1484
1386.075711886469,1416
1388.1698437676241,1452
1390.2634267342032,1447
1392.356461030667,1510
1394.4489469015557,1494
1396.5408845914872,1444
1398.6322743451592,1496
1400.7231164073469,1468
1402.813411022907,1460
1404.903158436773,1504
1406.9923588939578,1512
1409.0810126395531,1557
1411.1691199187303,1525
1413.2566809767386,1533
1415.343696058907,1565
1417.4301654106425,1527
1419.5160892774315,1574
1421.6014679048399,1510
1423.6863015385125,1561
1425.7705904241707,1677
1427.8543348076178,1643
1429.9375349347342,1636
1432.0201910514802,1624
1434.102303403894,1674
1436.1838722380944,1716
1438.2648978002767,1757
1440.3453803367174,1702
1442.4253200937692,1696
1444.5047173178677,1770
1446.5835722555234,1793
1448.6618851533285,1789
1450.739656257952,1804
1452.8168858161434,1843
1454.8935740747306,1927
1456.96972128062,1867
1459.045327680797,1895
1461.120393522327,1862
1463.1949190523528,1945
1465.2689045180973,1967
1467.3423501668608,2011
1469.415256246024,2004
1471.4876230030463,2079
1473.559450685465,2016
1475.6307395408976,2149
1477.7014898170391,2118
1479.771701761665,2101
1481.8413756226287,2211
1483.9105116478618,2230
1485.9791100853772,2239
1488.0471711832643,2237
1490.1146951896926,2251
1492.1816823529098,2363
1494.2481329212433,2373
1496.3140471430984,2399
1498.3794252669609,2480
1500.4442675413939,2454
1502.5085742150404,2404
1504.572345536622,2493
1506.6355817549388,2495
1508.6982831188702,2487
1510.7604498773744,2438
1512.8220822794883,2418
1514.8831805743293,2514
1516.9437450110909,2592
1519.003775839048,2520
1521.0632733075522,2496
1523.1222376660367,2584
1525.1806691640113,2507
1527.2385680510652,2606
1529.2959345768668,2684
1531.3527689911643,2645
1533.4090715437833,2692
1535.4648424846291,2629
1537.5200820636855,2802
1539.5747905310159,2763
1541.6289681367616,2813
1543.6826151311434,2796
1545.7357317644614,2922
1547.7883182870937,2878
1549.8403749494987,2888
1551.8919020022113,2966
1553.9428996958477,3040
1555.9933682811015,3131
1558.0433080087469,3104
1560.0927191296346,3171
1562.1416018946961,3238
1564.1899565549415,3205
1566.2377833614592,3253
1568.2850825654164,3175
1570.3318544180606,3124
1572.3780991707158,3118
1574.423817074788,3030
1576.4690083817595,2959
1578.5136733431923,2772
1580.5578122107272,2710
1582.601425236085,2655
1584.6445126710646,2425
1586.6870747675434,2331
1588.7291117774776,2285
1590.7706239529034,2258
1592.8116115459347,2181
1594.8520748087658,2103
1596.8920139936686,1955
1598.9314293529933,1879
1600.9703211391711,1834
1603.008689604711,1835
1605.0465350022005,1823
1607.0838575843068,1736
1609.1206576037753,1677
1611.1569353134305,1695
1613.1926909661765,1681
1615.2279248149953,1630
1617.2626371129481,1575
1619.2968281131757,1623
1621.3304980688963,1508
1623.3636472334088,1563
1625.39627586009,1537
1627.428384202396,1499
1629.459972513861,1479
1631.4910410480993,1471
1633.5215900588028,1475
1635.551619799744,1442
1637.5811305247717,1446
1639.6101224878166,1452
1641.6385959428862,1460
1643.6665511440683,1423
1645.693988345528,1407
1647.7209078015112,1418
1649.7473097663405,1423
1651.7731944944203,1434
1653.7985622402307,1355
1655.823413258333,1463
1657.847747803366,1448
1659.8715661300494,1387
1661.8948684931793,1414
1663.9176551476316,1387
1665.9399263483624,1385
1667.9616823504057,1364
1669.982923408873,1416
1672.0036497789574,1432
1674.0238617159293,1408
1676.043559475138,1455
1678.0627433120121,1409
1680.081413482059,1377
1682.0995702408654,1419
1684.117213844096,1378
1686.134344547495,1412
1688.1509626068864,1366
1690.1670682781705,1330
1692.182661817329,1406
1694.1977434804217,1404
1696.2123135235875,1395
1698.226372203043,1348
1700.2399197750851,1383
1702.2529564960905,1359
1704.2654826225112,1472
1706.277498410882,1381
1708.2890041178139,1354
1710.2999999999988,1394
1712.3104863142066,1347
1714.3204633172854,1372
1716.329931266163,1367
1718.3388904178469,1365
1720.3473410294214,1372
1722.3552833580516,1334
1724.3627176609807,1300
1726.3696441955308,1288
1728.3760632191033,1342
1730.3819749891782,1317
1732.3873797633146,1311
1734.3922777991502,1311
1736.3966693544012,1311
1738.4005546868639,1282
1740.4039340544127,1246
1742.406807715001,1372
1744.4091759266616,1362
1746.4110389475054,1359
1748.4123970357223,1315
1750.413250449582,1290
1752.4135994474318,1297
1754.4134442876993,1283
1756.4127852288902,1262
1758.4116225295893,1294
1760.4099564484595,1309
1762.407787244244,1315
1764.405115175764,1272
1766.4019405019203,1338
1768.3982634816916,1305
1770.3940843741357,1271
1772.3894034383907,1262
1774.3842209336717,1261
1776.378537119274,1258
1778.372352254571,1242
1780.3656665990156,1241
1782.3584804121397,1223
1784.3507939535534,1206
1786.3426074829463,1244
1788.3339212600863,1278
1790.3247355448211,1252
1792.3150505970766,1234
1794.3048666768573,1211
1796.2941840442477,1149
1798.2830029594106,1223
1800.2713236825884,1240
1802.2591464741004,1227
1804.2464715943465,1269
1806.2332993038058,1217
1808.2196298630352,1260
1810.2054635326708,1220
1812.190800573428,1250
1814.175641246101,1255
1816.1599858115628,1208
1818.1438345307652,1240
1820.127187664738,1238
1822.1100454745924,1266
1824.092408221516,1240
1826.0742761667766,1283
1828.055649571721,1234
1830.0365286977735,1221
1832.0169138064398,1169
1833.9968051593014,1253
1835.9762030180214,1208
1837.9551076443408,1240
1839.9335193000788,1155
1841.9114382471344,1180
1843.888864747485,1251
1845.8657990631878,1259
1847.842241456378,1189
1849.8181921892697,1183
1851.7936515241558,1205
1853.7686197234098,1217
1855.7430970494815,1255
1857.7170837649014,1220
1859.6905801322787,1187
1861.6635864143004,1224
1863.6361028737338,1246
1865.608129773424,1234
1867.5796673762961,1231
1869.5507159453537,1239
1871.521275743678,1213
1873.4913470344313,1257
1875.4609300808534,1219
1877.4300251462632,1204
1879.3986324940588,1221
1881.366752387717,1203
1883.3343850907936,1229
1885.3015308669228,1257
1887.268189979819,1212
1889.2343626932739,1237
1891.2000492711595,1198
1893.1652499774254,1219
1895.1299650761011,1245
1897.0941948312952,1223
1899.0579395071945,1215
1901.0211993680641,1249
1902.98397467825,1236
1904.9462657021745,1217
1906.9080727043415,1231
1908.869395949332,1251
1910.8302357018065,1223
1912.790592226504,1249
1914.7504657882428,1198
1916.7098566519212,1226
1918.6687650825133,1276
1920.6271913450764,1262
1922.5851357047422,1227
1924.5425984267245,1289
1926.499579776314,1249
1928.4560800188833,1268
1930.4120994198802,1214
1932.367638244833,1205
1934.32269675935,1255
1936.2772752291175,1284
1938.231373919899,1284
1940.1849930975404,1242
1942.1381330279637,1225
1944.0907939771696,1221
1946.0429762112412,1163
1947.9946799963363,1219
1949.9459055986945,1244
1951.896653284633,1251
1953.8469233205478,1232
1955.7967159729142,1219
1957.7460315082863,1205
1959.6948701932974,1208
1961.6432322946594,1211
1963.5911180791632,1277
1965.5385278136787,1199
1967.4854617651545,1197
1969.4319202006182,1221
1971.377903387176,1207
1973.3234115920136,1232
1975.268445082395,1198
1977.2130041256642,1222
1979.1570889892423,1187
1981.1006999406304,1232
1983.04383724741,1227
1984.986501177238,1169
1986.928691997853,1184
1988.8704099770712,1199
1990.811655382789,1205
1992.7524284829801,1188
1994.692729545698,1192
1996.6325588390755,1163
1998.5719166313224,1176
2000.5108031907307,1244
2002.4492187856677,1155
2004.387163684583,1209
2006.3246381560011,1144
2008.2616424685298,1191
2010.1981768908527,1178
2012.1342416917332,1141
2014.069837140014,1236
2016.0049635046162,1199
2017.9396210545406,1195
2019.8738100588666,1223
2021.8075307867502,1209
2023.740783507431,1183
2025.6735684902228,1160
2027.6058860045214,1191
2029.5377363198004,1206
2031.4691197056118,1218
2033.4000364315875,1197
2035.3304867674374,1173
2037.260470982952,1133
2039.189989347998,1225
2041.1190421325232,1190
2043.047629606554,1187
2044.9757520401945,1197
2046.9034097036288,1166
2048.8306028671195,1227
2050.7573318010086,1202
2052.683596775716,1199
2054.609398061742,1151
2056.5347359296647,1148
2058.4596106501403,1184
2060.384022493906,1180
2062.3079717317764,1194
2064.231458634646,1175
2066.1544834734873,1166
2068.077046519352,1182
2069.99914804337,1169
2071.9207883167524,1176
2073.8419676107865,1196
2075.7626861968406,1203
2077.6829443463607,1161
2079.6027423308715,1170
2081.522080421977,1210
2083.440958891362,1195
2085.359378010786,1175
2087.2773380520907,1143
2089.194839287196,1205
2091.111881988101,1195
2093.0284664268825,1235
2094.9445928756973,1188
2096.86026160678,1187
2098.775472892446,1222
2100.690227005088,1234
2102.604524217178,1170
2104.5183648012676,1173
2106.431749029985,1197
2108.34467717604,1201
2110.2571495122206,1133
2112.169166311393,1183
2114.080727846503,1184
2115.9918343905747,1220
2117.902486216711,1121
2119.8126835980956,1160
2121.722426807987,1186
2123.6317161197285,1240
2125.5405518067364,1141
2127.448934142509,1192
2129.356863400624,1184
2131.264339854737,1209
2133.1713637785815,1219
2135.077935445972,1176
2136.9840551308002,1162
2138.889723107037,1182
2140.7949396487334,1223
2142.699705030018,1228
2144.6040195250994,1162
2146.507883408264,1154
2148.4112969538774,1163
2150.3142604363848,1204
2152.2167741303097,1248
2154.1188383102535,1184
2156.0204532508997,1233
2157.9216192270064,1234
2159.822336513414,1261
2161.7226053850413,1233
2163.622426116884,1243
2165.5217989840185,1169
2167.4207242616,1229
2169.319202224862,1219
2171.2172331491165,1250
2173.1148173097563,1180
2175.0119549822507,1205
2176.90864644215,1228
2178.8048919650823,1238
2180.7006918267534,1227
2182.596046302952,1204
2184.4909556695407,1177
2186.3854202024645,1259
2188.279440177746,1221
2190.173015871487,1223
2192.066147559868,1228
2193.958835519149,1233
2195.851080025667,1206
2197.7428813558417,1284
2199.6342397861667,1226
2201.5251555932186,1213
2203.415629053651,1232
2205.3056604441986,1263
2207.19525004167,1267
2209.084398122958,1294
2210.9731049650327,1252
2212.861370844941,1294
2214.749196039812,1197
2216.636580826851,1286
2218.523525483344,1293
2220.410030286655,1263
2222.296095514226,1319
2224.1817214435805,1250
2226.066908352319,1247
2227.951656518121,1294
2229.835966218746,1260
2231.71983773203,1271
2233.6032713358913,1255
2235.486267308324,1289
2237.3688259274036,1223
2239.2509474712824,1272
2241.132632218193,1298
2243.013880446447,1254
2244.8946924344323,1217
2246.7750684606203,1255
2248.6550088035574,1255
2250.534513741871,1264
2252.413583554265,1256
2254.292218519526,1258
2256.170418916517,1264
2258.0481850241786,1290
2259.925517121534,1255
2261.8024154876825,1272
2263.678880401803,1250
2265.5549121431536,1306
2267.430510991071,1305
2269.305677224971,1268
2271.180411124348,1255
2273.0547129687766,1231
2274.9285830379076,1267
2276.8020216114737,1215
2278.6750289692845,1291
2280.5476053912294,1276
2282.4197511572766,1272
2284.2914665474727,1298
2286.162751841943,1277
2288.0336073208937,1300
2289.904033264608,1311
2291.774029953448,1285
2293.6435976678554,1283
2295.5127366883517,1289
2297.381447295534,1276
2299.2497297700825,1255
2301.1175843927526,1224
2302.9850114443825,1169
2304.852011205885,1092
2306.7185839582553,1129
2308.5847299825664,1171
2310.4504495599676,1129
2312.3157429716925,1098
2314.1806104990483,1114
2316.0450524234247,1069
2317.9090690262888,1079
2319.772660589186,1112
2321.635827393742,1103
2323.498569721661,1080
2325.3608878547248,1082
2327.2227820747967,1084
2329.0842526638157,1063
2330.945299903803,1069
2332.805924076857,1158
2334.6661254651535,1068
2336.525904350951,1119
2338.3852610165827,1110
2340.244195744464,1122
2342.102708817088,1090
2343.9608005170253,1136
2345.8184711269287,1112
2347.675720929526,1110
2349.532550207628,1127
2351.38895924412,1092
2353.24494832197,1135
2355.100517724223,1099
2356.955667734004,1129
2358.810398634514,1052
2360.664710709037,1130
2362.5186042409337,1133
2364.3720795136437,1112
2366.225136810686,1094
2368.0777764156583,1108
2369.929998612237,1153
2371.7818036841777,1160
2373.633191915315,1153
2375.484163589562,1119
2377.3347189909114,1177
2379.184858403434,1159
2381.03458211128,1107
2382.8838903986775,1131
2384.732783549936,1165
2386.5812618494406,1074
2388.4293255816588,1172
2390.2769750311327,1130
2392.1242104824883,1126
2393.971032220427,1138
2395.8174405297295,1188
2397.6634356952563,1140
2399.509018001947,1133
2401.3541877348193,1130
2403.1989451789705,1174
2405.043290619576,1097
2406.8872243418905,1161
2408.730746631247,1163
2410.5738577730594,1137
2412.4165580528183,1116
2414.258847756095,1160
2416.100727168537,1111
2417.9421965758734,1102
2419.783256263912,1121
2421.623906518538,1141
2423.4641476257157,1178
2425.303979871491,1199
2427.143403541984,1128
2428.9824189233977,1085
2430.821026302012,1158
2432.6592259641866,1130
2434.497018196361,1108
2436.33440328505,1185
2438.171381516851,1105
2440.00795317844,1095
2441.844118556569,1160
2443.6798779380724,1142
2445.5152316098606,1116
2447.3501798589255,1119
2449.1847229723357,1117
2451.0188612372403,1180
2452.8525949408663,1178
2454.6859243705203,1156
2456.518849813587,1151
2458.3513715575314,1108
2460.183489889895,1126
2462.015205098301,1106
2463.8465174704493,1123
2465.67742729412,1145
2467.5079348571717,1104
2469.338040447542,1207
2471.1677443532476,1141
2472.9970468623833,1117
2474.825948263123,1150
2476.6544488437207,1156
2478.482548892508,1144
2480.310248697896,1147
2482.137548548374,1145
2483.9644487325118,1139
2485.790949538956,1155
2487.617051256433,1142
2489.44275417375,1166
2491.26805857979,1188
2493.0929647635157,1207
2494.917473013971,1216
2496.741583620276,1197
2498.5652968716304,1206
2500.3886130573137,1205
2502.2115324666834,1186
2504.0340553891765,1205
2505.856182114308,1218
2507.6779129316733,1207
2509.499248130945,1255
2511.3201880018764,1200
2513.140732834298,1201
2514.9608829181198,1269
2516.780638543331,1223
2518.6,1234
2520.418967578273,1165
2522.237541568376,1247
2524.0557222606144,1218
2525.8735099453706,1211
2527.6909049131086,1157
2529.507907454368,1209
2531.32451785977,1250
2533.140736420014,1275
2534.9565634258774,1236
2536.771999168218,1283
2538.5870439379714,1259
2540.4016980261526,1268
2542.2159617238544,1241
2544.02983532225,1248
2545.8433191125914,1316
2547.656413386209,1307
2549.4691184345115,1329
2551.2814345489874,1329
2553.093362021204,1307
2554.904901142808,1343
2556.716052205523,1364
2558.526815501153,1361
2560.3371913215824,1387
2562.147179958771,1384
2563.956781704761,1370
2565.7659968516705,1390
2567.5748256916986,1377
2569.3832685171224,1454
2571.1913256202984,1416
2572.9989972936614,1365
2574.806283829725,1399
2576.613185521084,1480
2578.4197026604074,1460
2580.2258355404483,1523
2582.031584454035,1487
2583.836949694077,1501
2585.6419315535613,1449
2587.4465303255533,1533
2589.2507463032002,1506
2591.0545797797245,1487
2592.8580310484303,1458
2594.6611004026995,1531
2596.463788135992,1538
2598.266094541849,1500
2600.0680199138874,1503
2601.869564545807,1509
2603.670728731383,1515
2605.4715127644704,1531
2607.2719169390048,1540
2609.071941548998,1543
2610.8715868885433,1451
2612.670853251811,1495
2614.469740933052,1474
2616.268250226594,1478
2618.0663814268455,1388
2619.864134828292,1445
2621.6615107255006,1520
2623.458509413115,1435
2625.2551311858597,1483
2627.0513763385347,1475
2628.8472451660223,1456
2630.6427379632833,1475
2632.4378550253564,1408
2634.232596647359,1440
2636.026963124488,1379
2637.8209547520187,1429
2639.6145718253065,1450
2641.407814639785,1379
2643.200683490966,1411
2644.9931786744414,1372
2646.7853004858807,1391
2648.577049221034,1347
2650.3684251757277,1340
2652.1594286458712,1292
2653.9500599274484,1316
2655.740319316525,1365
2657.5302071092437,1361
2659.3197236018286,1326
2661.10886909058,1283
2662.8976438718782,1283
2664.686048242183,1306
2666.4740824980327,1318
2668.2617469360443,1242
2670.0490418529134,1224
2671.8359675454153,1284
2673.622524310403,1261
2675.408712444811,1232
2677.1945322456495,1237
2678.979984010009,1220
2680.76506803506,1203
2682.5497846180497,1189
2684.334134056306,1230
2686.1181166472343,1207
2687.9017326883213,1236
2689.6849824771293,1179
2691.4678663113013,1189
2693.2503844885596,1167
2695.032537306705,1240
2696.8143250636167,1145
2698.5957480572542,1195
2700.3768065856534,1195
2702.1575009469316,1155
2703.937831439283,1211
2705.717798360982,1150
2707.4974020103837,1146
2709.276642685917,1188
2711.055520686095,1169
2712.834036309506,1174
2714.612189854819,1107
2716.389981620782,1153
2718.1674119062204,1125
2719.944481010041,1071
2721.721189231226,1100
2723.4975368688415,1198
2725.273524222027,1128
2727.0491515900053,1151
2728.824419272075,1078
2730.5993275676146,1096
2732.3738767760838,1133
2734.148067197016,1148
2735.921899130031,1168
2737.6953728748194,1112
2739.468488731156,1131
2741.2412469988926,1108
2743.0136479779617,1075
2744.785691968372,1129
2746.5573792702116,1098
2748.3287101836504,1091
2750.099685008934,1099
2751.870304046388,1097
2753.640567596418,1081
2755.4104759595057,1095
2757.1800294362156,1122
2758.949228327187,1079
2760.7180729331412,1154
2762.486563554877,1111
2764.254700493272,1102
2766.022484049284,1151
2767.789914523947,1084
2769.5569922183786,1089
2771.3237174337705,1062
2773.090090471394,1082
2774.8561116326036,1082
2776.6217812188274,1117
2778.3870995315756,1097
2780.1520668724356,1068
2781.9166835430747,1108
2783.6809498452394,1098
2785.444866080754,1085
2787.2084325515225,1116
2788.971649559527,1086
2790.73451740683,1055
2792.4970363955713,1077
2794.2592068279705,1080
2796.0210290063264,1155
2797.7825032330147,1111
2799.543629810493,1107
2801.304409041296,1064
2803.0648412280366,1108
2804.8249266734088,1114
2806.5846656801846,1071
2808.344058551212,1080
2810.1031055894246,1067
2811.8618070978273,1115
2813.6201633795085,1115
2815.378174737636,1097
2817.1358414754536,1047
2818.893163896285,1127
2820.6501423035334,1096
2822.4067770006814,1104
2824.1630682912883,1117
2825.9190164789957,1066
2827.6746218675207,1070
2829.429884760661,1074
2831.184805462294,1059
2832.9393842763743,1095
2834.693621506936,1143
2836.4475174580916,1124
2838.201072434034,1088
2839.954286739034,1118
2841.707160677441,1076
2843.459694553685,1086
2845.2118886722724,1089
2846.96374333779,1079
2848.7152588549034,1099
2850.4664355283567,1053
2852.217273662973,1107
2853.9677735636546,1100
2855.7179355353833,1102
2857.4677598832186,1132
2859.217246912299,1081
2860.9663969278427,1115
2862.715210235146,1096
2864.4636871395846,1093
2866.211827946614,1120
2867.9596329617652,1073
2869.7071024906536,1115
2871.4542368389684,1063
2873.20103631248,1078
2874.947501217038,1089
2876.6936318585695,1086
2878.4394285430812,1124
2880.1848915766604,1080
2881.9300212654707,1087
2883.6748179157553,1061
2885.4192818338374,1081
2887.1634133261173,1065
2888.907212699077,1091
2890.6506802592744,1046
2892.393816313348,1104
2894.1366211680142,1112
2895.8790951300693,1133
2897.621238506388,1062
2899.363051603925,1128
2901.1045347297118,1121
2902.8456881908596,1148
2904.58651229456,1108
2906.327007348081,1116
2908.067173658772,1046
2909.8070115340597,1067
2911.5465212814497,1083
2913.285703208527,1089
2915.0245576229563,1081
2916.7630848324807,1088
2918.5012851449196,1091
2920.2391588681758,1118
2921.976706310227,1055
2923.7139277791334,1054
2925.4508235830313,1080
2927.187394030137,1084
2928.923639428745,1054
2930.6595600872306,1065
2932.395156314046,1107
2934.1304284177218,1138
2935.8653767068713,1100
2937.6000014901815,1067
2939.3343030764227,1083
2941.068281774442,1083
2942.8019378931644,1075
2944.5352717415976,1110
2946.2682836288236,1071
2948.0009738640065,1107
2949.7333427563885,1132
2951.465390615289,1087
2953.1971177501086,1094
2954.9285244703265,1102
2956.6596110855,1093
2958.3903779052657,1138
2960.1208252393385,1068
2961.8509533975125,1084
2963.5807626896617,1093
2965.3102534257378,1075
2967.0394259157715,1075
2968.768280469873,1008
2970.496817398232,1054
2972.2250370111146,1064
2973.952939618869,1110
2975.6805255319196,1091
2977.4077950607707,1079
2979.134748516006,1113
2980.861386208289,1100
2982.587708448359,1078
2984.313715547037,1113
2986.039407815222,1114
2987.764785563891,1071
2989.489849104102,1057
2991.2145987469908,1068
2992.9390348037705,1091
2994.6631575857346,1048
2996.3869674042576,1080
2998.1104645707887,1038
2999.83364939686,1074
3001.5565221940783,1113
3003.2790832741334,1082
3005.0013329487924,1079
3006.7232715298996,1078
3008.4448993293804,1047
3010.166216659239,1081
3011.887223831558,1079
3013.607921158498,1065
3015.3283089522993,1069
3017.0483875252826,1082
3018.7681571898443,1072
3020.4876182584626,1115
3022.2067710436927,1060
3023.9256158581707,1105
3025.644153014609,1082
3027.362382825801,1140
3029.0803056046193,1058
3030.797921664012,1096
3032.5152313170106,1082
3034.2322348767225,1055
3035.9489326563353,1101
3037.665324969115,1082
3039.3814121284063,1066
3041.097194447633,1096
3042.812672240299,1071
3044.5278458199855,1082
3046.2427155003525,1063
3047.9572815951406,1078
3049.671544418167,1061
3051.38550428333,1085
3053.0991615046073,1102
3054.812516396051,1085
3056.5255692717974,1077
3058.2383204460575,1096
3059.9507702331257,1076
3061.662918947372,1090
3063.3747669032446,1088
3065.0863144152736,1090
3066.7975617980674,1086
3068.508509366309,1132
3070.219157434767,1088
3071.9295063182844,1071
3073.639556331785,1090
3075.3493077902704,1065
3077.058761008821,1063
3078.7679163025964,1099
3080.476773986837,1060
3082.1853343768594,1113
3083.89359778806,1034
3085.6015645359153,1110
3087.3092349359786,1066
3089.016609303884,1059
3090.7236879553434,1062
3092.4304712061476,1100
3094.136959372166,1040
3095.843152769349,1098
3097.5490517137237,1074
3099.2546565213966,1098
3100.959967508554,1106
3102.66498499146,1112
3104.3697092864577,1093
3106.0741407099695,1097
3107.778279578498,1083
3109.482126208622,1063
3111.1856809170004,1066
3112.8889440203716,1084
3114.5919158355528,1123
3116.294596679439,1062
3117.996986869006,1122
3119.6990867213062,1100
3121.4008965534726,1116
3123.102416682717,1123
3124.803647426329,1107
3126.5045891016784,1081
3128.205242026213,1130
3129.90560651746,1105
3131.605682893025,1104
3133.3054714705922,1130
3135.0049725679282,1097
3136.7041865028714,1126
3138.4031135933465,1096
3140.101754157353,1172
3141.800108512971,1134
3143.498176978357,1102
3145.1959598717494,1080
3146.8934575114636,1133
3148.5906702158954,1050
3150.2875983035183,1053
3151.9842420928853,1047
3153.680601902627,1103
3155.376678051456,1044
3157.07247085816,1060
3158.767980641609,1065
3160.463207720748,1079
3162.158152414606,1097
3163.8528150422862,1083
3165.5471959229726,1040
3167.2412953759303,1070
3168.9351137204976,1066
3170.628651276098,1060
3172.3219083622307,1073
3174.014885298474,1049
3175.707582404485,1084
3177.4000000000005,1093
3179.092138404835,1119
3180.7839979388846,1045
3182.47557892212,1061
3184.166881674594,1063
3185.8579065164386,1050
3187.5486537678626,1073
3189.2391237491547,1092
3190.9293167806827,1096
3192.6192331828934,1139
3194.3088732763117,1049
3195.998237381542,1091
3197.687325819268,1061
3199.376138910251,1067
3201.064676975334,1045
3202.7529403354347,1047
3204.4409293115523,1070
3206.1286442247647,1051
3207.816085396229,1060
3209.5032531471825,1063
3211.190147798936,992
3212.8767696728846,1050
3214.5631190905015,1085
3216.2491963733373,1070
3217.9350018430214,1037
3219.6205358212637,1053
3221.305798629851,1046
3222.990790590651,1043
3224.6755120256103,1016
3226.359963256751,1006
3228.0441446061795,1026
3229.7280563960758,1079
3231.411698948703,999
3233.0950725863995,1094
3234.778177631587,1038
3236.461014406761,1018
3238.1435832345005,1068
3239.8258844374595,1089
3241.507918338374,1110
3243.1896852600576,1071
3244.8711855254023,1054
3246.552419457381,1039
3248.233387379042,1056
3249.914089613516,1078
3251.59452648401,1041
3253.274698313813,1090
3254.95460542629,1052
3256.6342481448855,1043
3258.313626793125,1033
3259.9927416946084,1061
3261.6715931730196,990
3263.3501815521176,1041
3265.0285071557437,1034
3266.706570307815,991
3268.3843713323286,1011
3270.0619105533615,1030
3271.739188295068,1044
3273.4162048816834,1068
3275.0929606375184,1045
3276.769455886966,1054
3278.445690954498,1066
3280.1216661646613,1029
3281.797381842087,1013
3283.4728383114807,1055
3285.1480358976296,1034
3286.8229749253996,1050
3288.4976557197333,1065
3290.172078605655,1039
3291.846243908266,1083
3293.5201519527463,1035
3295.193803064357,1071
3296.8671975684374,1062
3298.5403357904024,1046
3300.21321805575,1081
3301.8858446900567,1039
3303.558216018975,1002
3305.23033236824,1035
3306.9021940636603,1049
3308.57380143113,1049
3310.2451547966184,1014
3311.916254486174,1050
3313.5871008259246,1046
3315.2576941420766,1005
3316.9280347609147,1076
3318.5981230088046,1050
3320.2679592121895,1004
3321.9375436975924,1038
3323.606876791612,1036
3325.27595882093,993
3326.944790112305,1037
3328.6133709925753,1012
3330.2817017886573,1033
3331.949782827547,1081
3333.617614436319,1125
3335.2851969421245,1043
3336.952530672199,1045
3338.619615953853,1020
3340.286453114475,1097
3341.9530424815357,1077
3343.619384382583,1037
3345.2854791452437,1078
3346.951327097224,979
3348.6169285663073,1050
3350.2822838803577,1021
3351.947393367319,1018
3353.61225735521,1043
3355.2768761721345,1017
3356.9412501462693,1067
3358.605379605873,1035
3360.2692648792827,1057
3361.9329062949146,1115
3363.596304181263,1052
