CollectionTime,7/11/2024 1:29:51 PM
ExposureUsed,3
CalibratedSpectrum
-962.7078968117929,498
-959.9714848408522,549
-957.2358232597828,553
-954.5009119013725,512
-951.7667505983302,537
-949.0333391832855,547
-946.3006774887896,525
-943.5687653473143,557
-940.837602591253,567
-938.1071890529199,515
-935.3775245645503,547
-932.6486089583007,553
-929.9204420662485,559
-927.1930237203925,577
-924.4663537526524,510
-921.7404319948689,522
-919.0152582788041,548
-916.2908324361409,615
-913.5671542984834,565
-910.8442236973568,557
-908.1220404642074,536
-905.4006044304027,530
-902.679915427231,548
-899.959973285902,517
-897.2407778375464,542
-894.5223289132158,529
-891.8046263438832,535
-889.0876699604426,504
-886.3714595937089,521
-883.6559950744183,506
-880.9412762332282,510
-878.2273029007168,531
-875.5140749073835,528
-872.8015920836489,523
-870.0898542598545,539
-867.3788612662631,516
-864.6686129330585,520
-861.9591090903457,515
-859.2503495681506,540
-856.5423341964203,535
-853.8350628050229,519
-851.1285352237478,514
-848.4227512823054,526
-845.7177108103272,556
-843.0134136373656,520
-840.3098595928943,529
-837.6070485063082,554
-834.9049802069229,571
-832.2036545239757,564
-829.5030712866244,542
-826.8032303239481,531
-824.1041314649472,526
-821.4057745385428,544
-818.7081593735775,548
-816.0112857988148,547
-813.3151536429393,547
-810.6197627345566,545
-807.9251129021936,523
-805.2312039742981,530
-802.5380357792392,509
-799.8456081453069,549
-797.1539209007124,554
-794.462973873588,540
-791.772766891987,540
-789.083299783884,524
-786.3945723771743,530
-783.7065844996748,547
-781.0193359791231,534
-778.3328266431781,536
-775.6470563194197,538
-772.9620248353489,545
-770.2777320183878,540
-767.5941776958798,522
-764.9113616950891,559
-762.2292838432011,569
-759.5479439673222,563
-756.8673418944801,544
-754.1874774516235,544
-751.5083504656222,559
-748.8299607632671,541
-746.15230817127,557
-743.475392516264,589
-740.7992136248035,600
-738.1237713233636,584
-735.4490654383407,560
-732.7750957960521,588
-730.1018622227365,593
-727.4293645445534,622
-724.7576025875837,578
-722.0865761778291,562
-719.4162851412126,586
-716.7467293035781,570
-714.0779084906909,595
-711.409822528237,566
-708.7424712418238,560
-706.0758544569796,603
-703.4099719991541,583
-700.7448236937178,600
-698.0804093659622,651
-695.4167288411002,598
-692.7537819442656,623
-690.0915685005134,634
-687.4300883348199,619
-684.7693412720819,635
-682.1093271371178,614
-679.4500457546669,609
-676.7914969493897,605
-674.1336805458676,611
-671.4765963686034,598
-668.8202442420206,631
-666.1646239904642,624
-663.5097354382001,638
-660.8555784094151,644
-658.2021527282176,623
-655.5494582186366,640
-652.8974947046223,608
-650.2462620100463,632
-647.5957599587009,642
-644.9459883742998,655
-642.2969470804776,642
-639.6486359007902,629
-637.0010546587141,652
-634.3542031776476,634
-631.7080812809096,642
-629.0626887917401,623
-626.4180255333008,624
-623.7740913286734,626
-621.1308860008619,646
-618.4884093727904,634
-615.8466612673046,660
-613.2056415071715,644
-610.5653499150785,613
-607.9257863136347,666
-605.28695052537,670
-602.6488423727357,644
-600.0114616781036,628
-597.3748082637674,624
-594.7388819519412,662
-592.1036825647604,671
-589.4692099242818,689
-586.8354638524829,673
-584.2024441712624,659
-581.5701507024403,663
-578.9385832677575,635
-576.3077416888759,656
-573.6776257873787,669
-571.0482353847704,628
-568.4195703024757,674
-565.7916303618415,650
-563.164415384135,627
-560.5379251905453,654
-557.9121596021815,682
-555.2871184400748,687
-552.6628015251767,662
-550.0392086783606,662
-547.4163397204204,662
-544.794194472071,669
-542.1727727539491,715
-539.5520743866118,726
-536.9320991905377,720
-534.3128469861261,739
-531.6943175936979,743
-529.0765108334947,726
-526.4594265256793,777
-523.8430644903358,868
-521.2274245474689,927
-518.612506517005,1015
-515.9983102187913,986
-513.3848354725959,967
-510.77208209810846,1116
-508.16004991493924,1082
-505.5487387426199,1266
-502.9381484006032,1351
-500.3282787082628,1449
-497.71912948489364,1331
-495.1107005497117,1246
-492.5029917218539,1204
-489.8960028203786,1039
-487.28973366426493,928
-484.68418407241325,853
-482.07935386364494,844
-479.47524285670266,871
-476.87185087025,847
-474.2691777228715,835
-471.66722323307334,859
-469.0659872192821,806
-466.4654694998459,812
-463.86566989303384,790
-461.26658821703614,805
-458.66822428996414,827
-456.07057792985,839
-453.4736489546475,817
-450.877437182231,833
-448.28194243039627,812
-445.68716451686,828
-443.09310325926003,811
-440.49975847515555,806
-437.9071299820263,802
-435.31521759727354,795
-432.72402113821954,846
-430.13354042210767,802
-427.5437752661022,781
-424.95472548728867,860
-422.36639090267386,845
-419.7787713291855,866
-417.1918665836721,925
-414.60567648290385,918
-412.0202008435715,869
-409.4354394822874,850
-406.8513922155845,877
-404.26805885991723,879
-401.685439231661,843
-399.103533147112,879
-396.522340422488,850
-393.9418608739278,827
-391.3620943174908,848
-388.7830405691583,845
-386.2046994448317,844
-383.6270707603344,786
-381.05015433141045,695
-378.473949973725,703
-375.8984575028645,650
-373.32367673433623,569
-370.74960748356875,564
-368.1762495659117,552
-365.60360279663576,533
-363.03166699093265,474
-360.4604419639154,460
-357.8899275306178,439
-355.32012350599507,427
-352.7510297049233,448
-350.1826459421999,422
-347.61497203254316,438
-345.04800779059235,434
-342.4817530309082,433
-339.91620756797226,409
-337.35137121618743,445
-334.7872437898774,431
-332.22382510328725,455
-329.66111497058273,454
-327.09911320585127,427
-324.53781962310075,457
-321.9772340362607,434
-319.4173562591816,423
-316.8581861056348,422
-314.2997233893127,421
-311.7419679238294,409
-309.1849195227194,427
-306.62857799943856,439
-304.0729431673641,448
-301.51801483979375,458
-298.963792829947,467
-296.41027695096386,448
-293.85746701590574,479
-291.3053628377552,479
-288.7539642294155,490
-286.2032710037115,477
-283.65328297338897,481
-281.1039999511146,511
-278.5554217494762,506
-276.007548180983,493
-273.4603790580651,476
-270.9139141930734,473
-268.3681533982807,440
-265.8230964858798,450
-263.27874326798565,476
-260.7350935566336,486
-258.1921471637804,497
-255.6499039013039,511
-253.10836358100266,499
-250.56752601459698,509
-248.02739101372765,504
-245.48795838995704,539
-242.94922795476816,531
-240.41119951956557,501
-237.8738728956746,544
-235.33724789434166,566
-232.80132432673452,513
-230.2661020039418,530
-227.73158073697357,522
-225.19776033676033,546
-222.66464061415422,564
-220.1322213799284,536
-217.60050244477725,538
-215.06948361931552,501
-212.53916471408013,546
-210.00954553952818,556
-207.48062590603843,540
-204.9524056239104,538
-202.4248845033651,574
-199.8980623545441,593
-197.37193898751036,600
-194.84651421224817,600
-192.32178783866232,617
-189.79775967657952,626
-187.27442953574644,642
-184.7517972258321,653
-182.2298625564256,684
-179.7086253370378,752
-177.18808537710026,667
-174.66824248596583,633
-172.14909647290835,610
-169.6306471471229,635
-167.11289431772548,634
-164.59583779375328,652
-162.07947738416453,623
-159.5638128978386,644
-157.04884414357605,738
-154.53457093009854,730
-152.02099306604828,730
-149.50811035998936,645
-146.99592262040665,609
-144.48442965570587,658
-141.97363127421409,704
-139.46352728417958,702
-136.95411749377126,731
-134.44540171107985,726
-131.93737974411636,663
-129.43005140081357,703
-126.92341648902493,838
-124.41747481652521,1088
-121.91222619101006,1149
-119.40767042009657,1402
-116.90380731132257,1479
-114.40063667214702,1598
-111.8981583099503,1476
-109.3963720320337,1237
-106.89527764561933,1203
-104.39487495785067,1309
-101.89516377579241,1742
-99.39614390642998,2447
-96.89781515667039,2340
-94.40017733334128,2082
-91.90323024319173,2096
-89.40697369289148,3317
-86.91140748903172,4305
-84.41653143812482,4968
-81.92234534660395,4209
-79.42884902082358,3057
-76.93604226705907,3882
-74.4439248915071,8017
-71.95249670028534,13191
-69.46175749943245,16579
-66.97170709490854,18610
-64.48234529259423,18074
-61.99367189829195,14360
-59.50568671772464,10059
-57.01838955653636,7833
-54.53178022029283,7715
-52.045858514480074,7793
-49.560624244506016,7732
-47.07607721569923,8360
-44.59221723330904,8898
-42.10904410250669,8323
-39.62655762838392,7051
-37.14475761595372,5885
-34.66364387015028,5332
-32.18321619582866,5041
-29.70347439776515,5429
-27.224418280657005,5622
-24.74604764912317,6140
-22.26836230770266,8853
-19.7913620608565,17084
-17.315046712966478,31068
-14.83941606833514,41946
-12.36446993118659,55306
-9.89020810566592,65038
-7.416630395839093,65038
-4.94373660569363,65038
-2.471526539137585,65038
-6.821210263296962E-13,65038
2.47084320796705,65038
4.941003281093458,65038
7.410480415786196,65038
9.879274808531363,65038
12.347386655893956,65038
14.814816154518212,65038
17.28156350112681,65038
19.74762889252179,65038
22.21301252558385,20822
24.67771459727237,3586
27.141735304626195,2313
29.605074844762612,1990
32.06773341487792,1842
34.52971121224755,1859
36.99100843422559,2063
39.45162527824516,1616
41.91156194181792,1260
44.370818622535126,1253
46.82939551806646,1065
49.287292826160524,1162
51.74451074464503,1406
54.201049471426245,1430
56.65690920448981,1378
59.112090141899785,1158
61.56659248179983,1102
64.02041642241159,970
66.4735621620365,890
68.92602989905402,901
71.37781983192338,959
73.82893215918205,1037
76.27936707944684,1004
78.72912479141326,870
81.17820549385567,875
83.62660938562783,1082
86.07433666566146,1028
88.5213875329681,838
90.96776218663751,756
93.41346082583925,772
95.85848364982041,773
98.30283085790859,901
100.7465026495089,910
103.18949922410604,907
105.63182078126385,824
108.07346752062438,867
110.51443964190923,750
112.95473734491827,684
115.39436082953114,714
117.83331029570547,746
120.27158594347827,773
122.7091879729652,773
125.1461165843615,747
127.58237197794062,691
130.01795435405518,681
132.4528639131364,695
134.88710085569494,704
137.32066538231982,705
139.75355769367923,656
142.1857779905207,659
144.61732647366978,656
147.04820334403132,683
149.47840880258934,697
151.90794305040674,777
154.33680628862487,871
156.76499871846443,1042
159.19252054122433,1106
161.61937195828352,1224
164.04555317109896,1369
166.47106438120693,1492
168.89590579022217,1578
171.320077599839,1750
173.7435800118302,1869
176.16641322804742,1929
178.58857745042144,2045
181.01007288096173,2167
183.43089972175687,2130
185.85105817497413,2164
188.27054844285988,2186
190.6893707277394,2129
193.10752523201643,2181
195.5250121581745,2330
197.9418317087751,2352
200.3579840864594,2267
202.7734694939469,2258
205.18828813403627,2380
207.6024402096051,2459
210.01592592360964,2434
212.42874547908548,2472
214.84089907914665,2416
217.2523869269868,2436
219.66320922587727,2460
222.0733661791695,2357
224.48285799029293,2380
226.8916848627572,2417
229.29984700014882,2529
231.7073446061355,2465
234.11417788446204,2467
236.520347038953,2572
238.92585227351185,2647
241.33069379212054,2586
243.73487179884035,2686
246.1383864978112,2737
248.541238093252,2800
250.9434267894609,2695
253.34495279081432,2830
255.74581630176783,2862
258.1460175268563,2815
260.54555667069314,2861
262.9444339379703,2770
265.3426495334594,2766
267.7402036620107,2695
270.1370965285529,2620
272.53332833809407,2625
274.9288992957214,2587
277.32380960660055,2417
279.718059475976,2385
282.1116491091717,2318
284.5045787115897,2311
286.89684848871195,2304
289.2884586460981,2280
291.67940938938807,2333
294.0697009242996,2282
296.4593334566299,2299
298.84830719225477,2297
301.23662233712923,2253
303.6242790972866,2269
306.01127767884,2247
308.39761828798066,2091
310.78330113097934,2108
313.16832641418534,2120
315.5526943440269,2085
317.9364051270112,2057
320.3194589697242,2046
322.70185607883093,2046
325.0835966610754,1995
327.4646809232805,1966
329.8451090723478,1965
332.2248813152577,1979
334.6039978590701,1982
336.9824589109231,1899
339.36026467803447,1969
341.7374153677,1923
344.113911187295,1909
346.48975234427337,1884
348.8649390461686,1862
351.2394715005918,1874
353.61334991523415,1912
355.9865744978655,1827
358.35914545633375,1829
360.73106299856715,1918
363.10232733257146,1889
365.47293866643247,1876
367.84289720831396,1857
370.2122031664593,1770
372.5808567491905,1858
374.9488581649083,1836
377.31620762209275,1777
379.6829053293021,1786
382.0489514951745,1761
384.4143463284262,1780
386.7790900378528,1772
389.14318283232853,1698
391.50662492080653,1746
393.86941651231916,1809
396.23155781597745,1838
398.5930490409713,1724
400.9538903965696,1789
403.3140820921202,1731
405.6736243370498,1650
408.03251734086336,1720
410.3907613131465,1725
412.74835646356166,1722
415.10530300185144,1727
417.4616011378372,1751
419.81725108141893,1746
422.1722530425758,1715
424.5266072313656,1732
426.880313857925,1739
429.2333731324701,1749
431.58578526529516,1750
433.9375504667738,1743
436.2886689473588,1687
438.63914091758113,1663
440.9889665880513,1679
443.33814616945835,1647
445.68667987257015,1677
448.03456790823395,1650
450.3818104873759,1634
452.72840782100013,1644
455.07436012019105,1619
457.41966759611057,1683
459.7643304600007,1693
462.10834892318155,1700
464.4517231970525,1622
466.79445349309174,1707
469.1365400228566,1691
471.4779829979826,1651
473.81878263018564,1623
476.15893913125876,1679
478.4984527130747,1713
480.8373235875855,1733
483.17555196682144,1726
485.5131380628919,1835
487.8500820879857,1845
490.1863842543697,1996
492.52204477439034,2053
494.8570638604725,2157
497.1914417251204,2366
499.52517858091653,2661
501.85827464052306,2892
504.19073011668036,3033
506.5225452222086,2957
508.85372017000566,2951
511.18425517304956,2857
513.514150444396,2778
515.8434061971808,3239
518.1720226446176,3767
520.4999999999999,3813
522.8273384766991,3646
525.1540382881666,3394
527.480099647932,3145
529.8055227696037,2628
532.1303078668694,2228
534.454455153496,1950
536.777964843328,1780
539.1008371502907,1806
541.4230722883866,1682
543.744670471698,1757
546.0656319143858,1716
548.3859568306899,1809
550.7056454349294,1662
553.0246979415016,1650
555.3431145648834,1641
557.6608955196306,1640
559.978041020377,1592
562.2945512818363,1656
564.6104265188006,1691
566.9256669461412,1705
569.2402727788082,1653
571.5542442318302,1694
573.8675815203156,1663
576.1802848594508,1797
578.4923544645015,1733
580.8037905508126,1665
583.114593333807,1681
585.4247630289875,1705
587.7342998519354,1628
590.0432040183106,1710
592.3514757438526,1702
594.6591152443794,1704
596.9661227357875,1730
599.2724984340531,1724
601.578242555231,1704
603.8833553154542,1728
606.1878369309362,1805
608.4916876179676,1743
610.7949075929192,1768
613.0974970722403,1728
615.3994562724587,1723
617.7007854101818,1755
620.0014847020951,1711
622.3015543649641,1688
624.6009946156324,1663
626.8998056710224,1768
629.1979877481361,1757
631.4955410640538,1742
633.7924658359349,1813
636.0887622810175,1748
638.3844306166192,1716
640.6794710601358,1789
642.9738838290426,1748
645.2676691408932,1843
647.5608272133207,1807
649.853358264037,1733
652.1452625108324,1821
654.4365401715764,1778
656.7271914642178,1790
659.0172166067838,1818
661.3066158173809,1841
663.5953893141935,1815
665.8835373154867,1842
668.1710600396028,1910
670.4579577049639,1793
672.7442305300709,1819
675.0298787335033,1835
677.3149025339197,1772
679.599302150058,1756
681.8830778007342,1756
684.1662297048437,1759
686.4487580813608,1748
688.7306631493387,1817
691.0119451279091,1834
693.2926042362834,1830
695.5726406937516,1765
697.8520547196814,1769
700.1308465335215,1760
702.4090163547982,1779
704.6865644031171,1808
706.9634908981619,1781
709.2397960596965,1794
711.5154801075631,1831
713.7905432616823,1755
716.0649857420548,1836
718.3388077687592,1770
720.612009561953,1755
722.8845913418733,1760
725.1565533288352,1810
727.427895743234,1737
729.6986188055427,1747
731.9687227363137,1827
734.238207756178,1770
736.5070740858458,1792
738.7753219461066,1792
741.0429515578281,1828
743.3099631419569,1821
745.5763569195191,1757
747.8421331116193,1816
750.1072919394409,1808
752.3718336242467,1722
754.6357583873777,1806
756.8990664502545,1807
759.1617580343765,1754
761.423833361321,1755
763.6852926527457,1776
765.9461361303862,1769
768.206364016058,1718
770.4659765316536,1746
772.7249738991469,1754
774.9833563405886,1837
777.2411240781092,1772
779.4982773339183,1794
781.7548163303044,1770
784.010741289634,1863
786.2660524343538,1874
788.5207499869881,1810
790.7748341701416,1731
793.0283052064964,1755
795.2811633188143,1776
797.5334087299362,1817
799.7850416627813,1768
802.0360623403484,1840
804.2864709857143,1826
806.5362678220353,1803
808.7854530725468,1821
811.0340269605625,1801
813.2819897094754,1809
815.5293415427581,1857
817.77608268396,1869
820.0222133567116,1843
822.2677337847211,1828
824.5126441917765,1762
826.7569448017433,1779
829.0006358385675,1779
831.2437175262731,1819
833.4861900889629,1834
835.7280537508192,1732
837.9693087361026,1769
840.2099552691533,1775
842.4499935743896,1817
844.689423876309,1834
846.9282463994886,1786
849.1664613685833,1744
851.4040690083276,1837
853.6410695435349,1785
855.877463199097,1813
858.1132501999847,1787
860.3484307712487,1735
862.5830051380175,1715
864.8169735254988,1811
867.0503361589791,1825
869.2830932638243,1778
871.5152450654786,1835
873.7467917894654,1826
875.9777336613873,1835
878.2080709069252,1810
880.4378037518389,1751
882.666932421968,1837
884.8954571432301,1803
887.1233781416219,1831
889.3506956432192,1781
891.5774098741766,1856
893.803521060728,1834
896.0290294291852,1784
898.2539352059397,1845
900.4782386174619,1859
902.7019398903011,1889
904.925039251085,1812
907.147536926521,1841
909.3694331433943,1747
911.59072812857,1860
913.8114221089921,1848
916.0315153116827,1857
918.2510079637437,1772
920.4699002923547,1874
922.6881925247761,1796
924.905884888345,1722
927.1229776104793,1781
929.3394709186747,1846
931.555365040506,1767
933.7706602036275,1703
935.9853566357709,1762
938.1994545647489,1782
940.4129542184515,1784
942.6258558248488,1739
944.8381596119883,1770
947.0498658079974,1770
949.2609746410825,1722
951.4714863395287,1772
953.6814011316998,1714
955.8907192460387,1846
958.0994409110671,1729
960.3075663553858,1749
962.5150958076741,1733
964.7220294966913,1731
966.928367651274,1737
969.1341105003388,1722
971.3392582728806,1731
973.5438111979742,1740
975.747769504772,1692
977.9511334225061,1754
980.153903180487,1725
982.3560790081052,1707
984.5576611348289,1679
986.7586497902058,1588
988.9590452038618,1727
991.158847605503,1735
993.3580572249133,1615
995.5566742919558,1624
997.7546990365728,1642
999.952131688785,1611
1002.1489724786926,1589
1004.3452216364743,1516
1006.5408793923874,1564
1008.7359459767691,1526
1010.9304216200343,1542
1013.1243065526781,1525
1015.3176010052733,1509
1017.510305208472,1523
1019.7024193930064,1525
1021.8939437896848,1533
1024.0848786293977,1470
1026.2752241431122,1477
1028.4649805618747,1436
1030.6541481168115,1444
1032.842727039127,1467
1035.0307175601051,1484
1037.2181199111074,1495
1039.4049343235752,1491
1041.591161029029,1405
1043.7768002590683,1451
1045.9618522453698,1474
1048.1463172196918,1430
1050.3301954138697,1522
1052.513487059818,1483
1054.69619238953,1483
1056.8783116350783,1448
1059.0598450286152,1431
1061.2407928023704,1475
1063.4211551886528,1455
1065.6009324198508,1450
1067.780124728432,1412
1069.9587323469414,1442
1072.1367555080046,1424
1074.314194444325,1416
1076.4910493886855,1419
1078.667320573947,1425
1080.843008233051,1456
1083.0181125990161,1417
1085.1926339049414,1431
1087.3665723840027,1363
1089.5399282694575,1361
1091.7127017946405,1394
1093.8848931929647,1392
1096.0565026979243,1379
1098.2275305430899,1418
1100.3979769621128,1423
1102.567842188722,1345
1104.737126456726,1333
1106.9058300000124,1343
1109.0739530525475,1360
1111.2414958483764,1360
1113.4084586216231,1385
1115.5748416064907,1325
1117.7406450372605,1346
1119.9058691482942,1403
1122.0705141740304,1352
1124.2345803489884,1416
1126.3980679077658,1362
1128.5609770850388,1353
1130.7233081155623,1381
1132.8850612341707,1393
1135.0462366757774,1325
1137.2068346753745,1387
1139.3668554680326,1358
1141.526299288901,1318
1143.68516637321,1289
1145.8434569562655,1392
1148.001171273455,1349
1150.158309560244,1378
1152.3148720521767,1383
1154.470858984876,1357
1156.626270594044,1345
1158.7811071154629,1320
1160.9353687849912,1348
1163.089055838569,1340
1165.242168512213,1375
1167.3947070420209,1343
1169.5466716641677,1301
1171.6980626149075,1319
1173.8488801305748,1356
1175.9991244475814,1380
1178.1487958024186,1329
1180.2978944316555,1328
1182.4464205719428,1297
1184.5943744600072,1312
1186.7417563326567,1275
1188.8885664267755,1312
1191.0348049793297,1318
1193.1804722273619,1311
1195.325568407995,1345
1197.4700937584303,1298
1199.614048515948,1331
1201.7574329179074,1324
1203.900247201746,1341
1206.042491604982,1336
1208.1841663652099,1307
1210.3252717201053,1303
1212.465807907422,1306
1214.6057751649923,1320
1216.7451737307279,1304
1218.8840038426192,1326
1221.0222657387353,1358
1223.1599596572241,1334
1225.2970858363137,1410
1227.4336445143094,1327
1229.5696359295966,1318
1231.705060320639,1408
1233.8399179259786,1346
1235.9742089842384,1350
1238.107933734118,1339
1240.2410924143974,1372
1242.373685263935,1315
1244.5057125216676,1337
1246.6371744266116,1361
1248.7680712178621,1389
1250.898403134593,1347
1253.028170416058,1374
1255.1573733015875,1407
1257.2860120305932,1396
1259.4140868425648,1356
1261.54159797707,1366
1263.6685456737569,1351
1265.7949301723515,1385
1267.9207517126597,1395
1270.046010534565,1373
1272.1707068780306,1411
1274.2948409830983,1423
1276.4184130898889,1431
1278.541423438603,1394
1280.6638722695184,1384
1282.785759822993,1393
1284.9070863394636,1413
1287.0278520594447,1457
1289.1480572235314,1435
1291.2677020723963,1431
1293.3867868467923,1426
1295.5053117875495,1431
1297.623277135579,1428
1299.740683131868,1428
1301.8575300174857,1434
1303.973818033578,1429
1306.0895474213703,1493
1308.2047184221678,1496
1310.3193312773528,1415
1312.4333862283888,1493
1314.5468835168163,1471
1316.659823384255,1504
1318.7722060724045,1425
1320.8840318230418,1490
1322.9953008780249,1525
1325.1060134792888,1484
1327.2161698688478,1524
1329.3257702887959,1481
1331.4348149813054,1476
1333.5433041886276,1484
1335.6512381530933,1460
1337.7586171171101,1460
1339.8654413231675,1522
1341.9717110138317,1427
1344.0774264317488,1429
1346.1825878196432,1468
1348.2871954203192,1530
1350.3912494766587,1505
1352.4947502316231,1473
1354.5976979282532,1531
1356.7000928096686,1474
1358.8019351190665,1452
1360.9032250997243,1428
1363.0039629949988,1480
1365.1041490483235,1474
1367.2037835032133,1465
1369.3028666032606,1476
1371.401398592137,1479
1373.4993797135926,1466
1375.5968102114575,1463
1377.6936903296396,1529
1379.7900203121262,1481
1381.8858004029835,1458
1383.9810308463561,1486
1386.075711886469,1497
1388.1698437676241,1466
1390.2634267342032,1538
1392.356461030667,1474
1394.4489469015557,1486
1396.5408845914872,1524
1398.6322743451592,1521
1400.7231164073469,1510
1402.813411022907,1562
1404.903158436773,1547
1406.9923588939578,1590
1409.0810126395531,1519
1411.1691199187303,1572
1413.2566809767386,1568
1415.343696058907,1557
1417.4301654106425,1567
1419.5160892774315,1625
1421.6014679048399,1615
1423.6863015385125,1603
1425.7705904241707,1639
1427.8543348076178,1689
1429.9375349347342,1656
1432.0201910514802,1686
1434.102303403894,1676
1436.1838722380944,1695
1438.2648978002767,1729
1440.3453803367174,1675
1442.4253200937692,1708
1444.5047173178677,1708
1446.5835722555234,1776
1448.6618851533285,1820
1450.739656257952,1855
1452.8168858161434,1818
1454.8935740747306,1884
1456.96972128062,1904
1459.045327680797,1949
1461.120393522327,1868
1463.1949190523528,1940
1465.2689045180973,1964
1467.3423501668608,2047
1469.415256246024,2051
1471.4876230030463,2013
1473.559450685465,2067
1475.6307395408976,2149
1477.7014898170391,2157
1479.771701761665,2274
1481.8413756226287,2170
1483.9105116478618,2336
1485.9791100853772,2303
1488.0471711832643,2265
1490.1146951896926,2324
1492.1816823529098,2351
1494.2481329212433,2400
1496.3140471430984,2392
1498.3794252669609,2416
1500.4442675413939,2438
1502.5085742150404,2529
1504.572345536622,2457
1506.6355817549388,2502
1508.6982831188702,2533
1510.7604498773744,2518
1512.8220822794883,2567
1514.8831805743293,2501
1516.9437450110909,2528
1519.003775839048,2586
1521.0632733075522,2583
1523.1222376660367,2640
1525.1806691640113,2634
1527.2385680510652,2647
1529.2959345768668,2628
1531.3527689911643,2610
1533.4090715437833,2736
1535.4648424846291,2598
1537.5200820636855,2665
1539.5747905310159,2816
1541.6289681367616,2812
1543.6826151311434,2794
1545.7357317644614,2926
1547.7883182870937,2919
1549.8403749494987,2894
1551.8919020022113,3018
1553.9428996958477,3004
1555.9933682811015,3069
1558.0433080087469,3030
1560.0927191296346,3152
1562.1416018946961,3292
1564.1899565549415,3149
1566.2377833614592,3100
1568.2850825654164,3148
1570.3318544180606,3131
1572.3780991707158,3046
1574.423817074788,2935
1576.4690083817595,2832
1578.5136733431923,2711
1580.5578122107272,2625
1582.601425236085,2522
1584.6445126710646,2397
1586.6870747675434,2377
1588.7291117774776,2219
1590.7706239529034,2192
1592.8116115459347,2154
1594.8520748087658,1935
1596.8920139936686,1918
1598.9314293529933,1918
1600.9703211391711,1805
1603.008689604711,1799
1605.0465350022005,1798
1607.0838575843068,1748
1609.1206576037753,1695
1611.1569353134305,1682
1613.1926909661765,1621
1615.2279248149953,1643
1617.2626371129481,1574
1619.2968281131757,1580
1621.3304980688963,1554
1623.3636472334088,1537
1625.39627586009,1548
1627.428384202396,1547
1629.459972513861,1495
1631.4910410480993,1526
1633.5215900588028,1527
1635.551619799744,1508
1637.5811305247717,1523
1639.6101224878166,1500
1641.6385959428862,1507
1643.6665511440683,1460
1645.693988345528,1387
1647.7209078015112,1425
1649.7473097663405,1417
1651.7731944944203,1449
1653.7985622402307,1456
1655.823413258333,1428
1657.847747803366,1415
1659.8715661300494,1452
1661.8948684931793,1435
1663.9176551476316,1345
1665.9399263483624,1451
1667.9616823504057,1456
1669.982923408873,1429
1672.0036497789574,1423
1674.0238617159293,1430
1676.043559475138,1431
1678.0627433120121,1436
1680.081413482059,1442
1682.0995702408654,1426
1684.117213844096,1364
1686.134344547495,1359
1688.1509626068864,1409
1690.1670682781705,1388
1692.182661817329,1401
1694.1977434804217,1358
1696.2123135235875,1415
1698.226372203043,1459
1700.2399197750851,1379
1702.2529564960905,1357
1704.2654826225112,1453
1706.277498410882,1416
1708.2890041178139,1416
1710.2999999999988,1345
1712.3104863142066,1377
1714.3204633172854,1385
1716.329931266163,1378
1718.3388904178469,1393
1720.3473410294214,1424
1722.3552833580516,1346
1724.3627176609807,1399
1726.3696441955308,1401
1728.3760632191033,1354
1730.3819749891782,1336
1732.3873797633146,1370
1734.3922777991502,1392
1736.3966693544012,1375
1738.4005546868639,1393
1740.4039340544127,1335
1742.406807715001,1397
1744.4091759266616,1315
1746.4110389475054,1311
1748.4123970357223,1352
1750.413250449582,1318
1752.4135994474318,1312
1754.4134442876993,1313
1756.4127852288902,1281
1758.4116225295893,1273
1760.4099564484595,1319
1762.407787244244,1283
1764.405115175764,1265
1766.4019405019203,1334
1768.3982634816916,1278
1770.3940843741357,1365
1772.3894034383907,1314
1774.3842209336717,1270
1776.378537119274,1322
1778.372352254571,1256
1780.3656665990156,1266
1782.3584804121397,1294
1784.3507939535534,1273
1786.3426074829463,1232
1788.3339212600863,1271
1790.3247355448211,1305
1792.3150505970766,1307
1794.3048666768573,1237
1796.2941840442477,1277
1798.2830029594106,1247
1800.2713236825884,1238
1802.2591464741004,1274
1804.2464715943465,1233
1806.2332993038058,1218
1808.2196298630352,1272
1810.2054635326708,1274
1812.190800573428,1330
1814.175641246101,1276
1816.1599858115628,1301
1818.1438345307652,1266
1820.127187664738,1261
1822.1100454745924,1287
1824.092408221516,1294
1826.0742761667766,1220
1828.055649571721,1242
1830.0365286977735,1287
1832.0169138064398,1278
1833.9968051593014,1271
1835.9762030180214,1255
1837.9551076443408,1268
1839.9335193000788,1243
1841.9114382471344,1264
1843.888864747485,1221
1845.8657990631878,1221
1847.842241456378,1237
1849.8181921892697,1274
1851.7936515241558,1232
1853.7686197234098,1252
1855.7430970494815,1262
1857.7170837649014,1206
1859.6905801322787,1238
1861.6635864143004,1248
1863.6361028737338,1301
1865.608129773424,1231
1867.5796673762961,1255
1869.5507159453537,1246
1871.521275743678,1253
1873.4913470344313,1296
1875.4609300808534,1266
1877.4300251462632,1241
1879.3986324940588,1218
1881.366752387717,1290
1883.3343850907936,1312
1885.3015308669228,1281
1887.268189979819,1241
1889.2343626932739,1268
1891.2000492711595,1322
1893.1652499774254,1306
1895.1299650761011,1302
1897.0941948312952,1272
1899.0579395071945,1286
1901.0211993680641,1295
1902.98397467825,1300
1904.9462657021745,1268
1906.9080727043415,1310
1908.869395949332,1260
1910.8302357018065,1309
1912.790592226504,1281
1914.7504657882428,1352
1916.7098566519212,1321
1918.6687650825133,1275
1920.6271913450764,1247
1922.5851357047422,1248
1924.5425984267245,1273
1926.499579776314,1286
1928.4560800188833,1249
1930.4120994198802,1276
1932.367638244833,1315
1934.32269675935,1293
1936.2772752291175,1266
1938.231373919899,1288
1940.1849930975404,1281
1942.1381330279637,1273
1944.0907939771696,1305
1946.0429762112412,1257
1947.9946799963363,1275
1949.9459055986945,1293
1951.896653284633,1247
1953.8469233205478,1250
1955.7967159729142,1249
1957.7460315082863,1257
1959.6948701932974,1301
1961.6432322946594,1242
1963.5911180791632,1265
1965.5385278136787,1224
1967.4854617651545,1231
1969.4319202006182,1243
1971.377903387176,1299
1973.3234115920136,1263
1975.268445082395,1233
1977.2130041256642,1241
1979.1570889892423,1238
1981.1006999406304,1220
1983.04383724741,1247
1984.986501177238,1220
1986.928691997853,1205
1988.8704099770712,1270
1990.811655382789,1199
1992.7524284829801,1258
1994.692729545698,1223
1996.6325588390755,1277
1998.5719166313224,1232
2000.5108031907307,1216
2002.4492187856677,1224
2004.387163684583,1211
2006.3246381560011,1250
2008.2616424685298,1240
2010.1981768908527,1185
2012.1342416917332,1255
2014.069837140014,1279
2016.0049635046162,1248
2017.9396210545406,1167
2019.8738100588666,1178
2021.8075307867502,1235
2023.740783507431,1216
2025.6735684902228,1230
2027.6058860045214,1260
2029.5377363198004,1214
2031.4691197056118,1225
2033.4000364315875,1248
2035.3304867674374,1205
2037.260470982952,1206
2039.189989347998,1225
2041.1190421325232,1270
2043.047629606554,1197
2044.9757520401945,1239
2046.9034097036288,1272
2048.8306028671195,1264
2050.7573318010086,1193
2052.683596775716,1244
2054.609398061742,1236
2056.5347359296647,1189
2058.4596106501403,1230
2060.384022493906,1215
2062.3079717317764,1240
2064.231458634646,1202
2066.1544834734873,1203
2068.077046519352,1219
2069.99914804337,1186
2071.9207883167524,1241
2073.8419676107865,1253
2075.7626861968406,1269
2077.6829443463607,1232
2079.6027423308715,1190
2081.522080421977,1231
2083.440958891362,1222
2085.359378010786,1224
2087.2773380520907,1207
2089.194839287196,1185
2091.111881988101,1218
2093.0284664268825,1194
2094.9445928756973,1178
2096.86026160678,1239
2098.775472892446,1264
2100.690227005088,1218
2102.604524217178,1253
2104.5183648012676,1218
2106.431749029985,1233
2108.34467717604,1221
2110.2571495122206,1247
2112.169166311393,1169
2114.080727846503,1263
2115.9918343905747,1204
2117.902486216711,1232
2119.8126835980956,1171
2121.722426807987,1271
2123.6317161197285,1190
2125.5405518067364,1249
2127.448934142509,1218
2129.356863400624,1290
2131.264339854737,1207
2133.1713637785815,1220
2135.077935445972,1261
2136.9840551308002,1294
2138.889723107037,1194
2140.7949396487334,1241
2142.699705030018,1261
2144.6040195250994,1235
2146.507883408264,1232
2148.4112969538774,1218
2150.3142604363848,1255
2152.2167741303097,1257
2154.1188383102535,1245
2156.0204532508997,1234
2157.9216192270064,1198
2159.822336513414,1274
2161.7226053850413,1269
2163.622426116884,1253
2165.5217989840185,1242
2167.4207242616,1246
2169.319202224862,1227
2171.2172331491165,1256
2173.1148173097563,1257
2175.0119549822507,1233
2176.90864644215,1251
2178.8048919650823,1307
2180.7006918267534,1255
2182.596046302952,1285
2184.4909556695407,1262
2186.3854202024645,1285
2188.279440177746,1306
2190.173015871487,1214
2192.066147559868,1251
2193.958835519149,1261
2195.851080025667,1286
2197.7428813558417,1296
2199.6342397861667,1306
2201.5251555932186,1277
2203.415629053651,1298
2205.3056604441986,1323
2207.19525004167,1317
2209.084398122958,1270
2210.9731049650327,1297
2212.861370844941,1295
2214.749196039812,1285
2216.636580826851,1315
2218.523525483344,1381
2220.410030286655,1346
2222.296095514226,1331
2224.1817214435805,1330
2226.066908352319,1354
2227.951656518121,1291
2229.835966218746,1326
2231.71983773203,1298
2233.6032713358913,1342
2235.486267308324,1380
2237.3688259274036,1331
2239.2509474712824,1306
2241.132632218193,1364
2243.013880446447,1328
2244.8946924344323,1323
2246.7750684606203,1361
2248.6550088035574,1279
2250.534513741871,1305
2252.413583554265,1316
2254.292218519526,1369
2256.170418916517,1288
2258.0481850241786,1281
2259.925517121534,1311
2261.8024154876825,1361
2263.678880401803,1319
2265.5549121431536,1275
2267.430510991071,1296
2269.305677224971,1296
2271.180411124348,1304
2273.0547129687766,1278
2274.9285830379076,1319
2276.8020216114737,1311
2278.6750289692845,1276
2280.5476053912294,1326
2282.4197511572766,1308
2284.2914665474727,1303
2286.162751841943,1380
2288.0336073208937,1388
2289.904033264608,1352
2291.774029953448,1331
2293.6435976678554,1367
2295.5127366883517,1351
2297.381447295534,1290
2299.2497297700825,1246
2301.1175843927526,1270
2302.9850114443825,1150
2304.852011205885,1186
2306.7185839582553,1185
2308.5847299825664,1162
2310.4504495599676,1184
2312.3157429716925,1141
2314.1806104990483,1157
2316.0450524234247,1115
2317.9090690262888,1138
2319.772660589186,1108
2321.635827393742,1167
2323.498569721661,1200
2325.3608878547248,1152
2327.2227820747967,1150
2329.0842526638157,1150
2330.945299903803,1151
2332.805924076857,1123
2334.6661254651535,1099
2336.525904350951,1154
2338.3852610165827,1131
2340.244195744464,1116
2342.102708817088,1117
2343.9608005170253,1145
2345.8184711269287,1159
2347.675720929526,1139
2349.532550207628,1170
2351.38895924412,1134
2353.24494832197,1169
2355.100517724223,1186
2356.955667734004,1128
2358.810398634514,1191
2360.664710709037,1148
2362.5186042409337,1164
2364.3720795136437,1140
2366.225136810686,1126
2368.0777764156583,1172
2369.929998612237,1165
2371.7818036841777,1193
2373.633191915315,1165
2375.484163589562,1129
2377.3347189909114,1154
2379.184858403434,1251
2381.03458211128,1127
2382.8838903986775,1159
2384.732783549936,1113
2386.5812618494406,1167
2388.4293255816588,1121
2390.2769750311327,1184
2392.1242104824883,1203
2393.971032220427,1153
2395.8174405297295,1209
2397.6634356952563,1200
2399.509018001947,1158
2401.3541877348193,1149
2403.1989451789705,1134
2405.043290619576,1172
2406.8872243418905,1144
2408.730746631247,1174
2410.5738577730594,1142
2412.4165580528183,1157
2414.258847756095,1152
2416.100727168537,1160
2417.9421965758734,1129
2419.783256263912,1217
2421.623906518538,1181
2423.4641476257157,1189
2425.303979871491,1135
2427.143403541984,1182
2428.9824189233977,1159
2430.821026302012,1155
2432.6592259641866,1203
2434.497018196361,1153
2436.33440328505,1184
2438.171381516851,1205
2440.00795317844,1154
2441.844118556569,1207
2443.6798779380724,1173
2445.5152316098606,1180
2447.3501798589255,1193
2449.1847229723357,1180
2451.0188612372403,1174
2452.8525949408663,1161
2454.6859243705203,1169
2456.518849813587,1160
2458.3513715575314,1176
2460.183489889895,1207
2462.015205098301,1227
2463.8465174704493,1167
2465.67742729412,1164
2467.5079348571717,1212
2469.338040447542,1139
2471.1677443532476,1141
2472.9970468623833,1234
2474.825948263123,1208
2476.6544488437207,1164
2478.482548892508,1169
2480.310248697896,1182
2482.137548548374,1193
2483.9644487325118,1238
2485.790949538956,1211
2487.617051256433,1269
2489.44275417375,1186
2491.26805857979,1189
2493.0929647635157,1239
2494.917473013971,1190
2496.741583620276,1283
2498.5652968716304,1275
2500.3886130573137,1236
2502.2115324666834,1288
2504.0340553891765,1226
2505.856182114308,1229
2507.6779129316733,1229
2509.499248130945,1242
2511.3201880018764,1218
2513.140732834298,1205
2514.9608829181198,1219
2516.780638543331,1224
2518.6,1249
2520.418967578273,1169
2522.237541568376,1238
2524.0557222606144,1274
2525.8735099453706,1279
2527.6909049131086,1260
2529.507907454368,1233
2531.32451785977,1259
2533.140736420014,1328
2534.9565634258774,1294
2536.771999168218,1266
2538.5870439379714,1319
2540.4016980261526,1343
2542.2159617238544,1271
2544.02983532225,1248
2545.8433191125914,1307
2547.656413386209,1337
2549.4691184345115,1343
2551.2814345489874,1410
2553.093362021204,1375
2554.904901142808,1368
2556.716052205523,1359
2558.526815501153,1411
2560.3371913215824,1404
2562.147179958771,1381
2563.956781704761,1418
2565.7659968516705,1410
2567.5748256916986,1454
2569.3832685171224,1466
2571.1913256202984,1436
2572.9989972936614,1423
2574.806283829725,1392
2576.613185521084,1402
2578.4197026604074,1498
2580.2258355404483,1481
2582.031584454035,1457
2583.836949694077,1469
2585.6419315535613,1505
2587.4465303255533,1469
2589.2507463032002,1513
2591.0545797797245,1477
2592.8580310484303,1455
2594.6611004026995,1498
2596.463788135992,1516
2598.266094541849,1561
2600.0680199138874,1489
2601.869564545807,1478
2603.670728731383,1471
2605.4715127644704,1526
2607.2719169390048,1520
2609.071941548998,1479
2610.8715868885433,1519
2612.670853251811,1494
2614.469740933052,1479
2616.268250226594,1486
2618.0663814268455,1525
2619.864134828292,1533
2621.6615107255006,1516
2623.458509413115,1520
2625.2551311858597,1408
2627.0513763385347,1465
2628.8472451660223,1462
2630.6427379632833,1403
2632.4378550253564,1439
2634.232596647359,1477
2636.026963124488,1421
2637.8209547520187,1511
2639.6145718253065,1405
2641.407814639785,1362
2643.200683490966,1363
2644.9931786744414,1382
2646.7853004858807,1398
2648.577049221034,1399
2650.3684251757277,1343
2652.1594286458712,1376
2653.9500599274484,1398
2655.740319316525,1401
2657.5302071092437,1336
2659.3197236018286,1327
2661.10886909058,1390
2662.8976438718782,1287
2664.686048242183,1296
2666.4740824980327,1314
2668.2617469360443,1344
2670.0490418529134,1277
2671.8359675454153,1306
2673.622524310403,1307
2675.408712444811,1280
2677.1945322456495,1230
2678.979984010009,1264
2680.76506803506,1246
2682.5497846180497,1297
2684.334134056306,1251
2686.1181166472343,1211
2687.9017326883213,1145
2689.6849824771293,1227
2691.4678663113013,1217
2693.2503844885596,1214
2695.032537306705,1219
2696.8143250636167,1251
2698.5957480572542,1174
2700.3768065856534,1161
2702.1575009469316,1245
2703.937831439283,1183
2705.717798360982,1154
2707.4974020103837,1193
2709.276642685917,1199
2711.055520686095,1136
2712.834036309506,1144
2714.612189854819,1140
2716.389981620782,1134
2718.1674119062204,1187
2719.944481010041,1165
2721.721189231226,1133
2723.4975368688415,1176
2725.273524222027,1189
2727.0491515900053,1155
2728.824419272075,1221
2730.5993275676146,1155
2732.3738767760838,1187
2734.148067197016,1192
2735.921899130031,1214
2737.6953728748194,1171
2739.468488731156,1139
2741.2412469988926,1140
2743.0136479779617,1197
2744.785691968372,1165
2746.5573792702116,1179
2748.3287101836504,1146
2750.099685008934,1149
2751.870304046388,1129
2753.640567596418,1154
2755.4104759595057,1115
2757.1800294362156,1145
2758.949228327187,1177
2760.7180729331412,1154
2762.486563554877,1174
2764.254700493272,1210
2766.022484049284,1141
2767.789914523947,1207
2769.5569922183786,1155
2771.3237174337705,1143
2773.090090471394,1126
2774.8561116326036,1150
2776.6217812188274,1113
2778.3870995315756,1122
2780.1520668724356,1151
2781.9166835430747,1121
2783.6809498452394,1104
2785.444866080754,1193
2787.2084325515225,1110
2788.971649559527,1126
2790.73451740683,1081
2792.4970363955713,1137
2794.2592068279705,1161
2796.0210290063264,1201
2797.7825032330147,1133
2799.543629810493,1162
2801.304409041296,1139
2803.0648412280366,1159
2804.8249266734088,1158
2806.5846656801846,1170
2808.344058551212,1106
2810.1031055894246,1130
2811.8618070978273,1173
2813.6201633795085,1160
2815.378174737636,1170
2817.1358414754536,1129
2818.893163896285,1114
2820.6501423035334,1139
2822.4067770006814,1073
2824.1630682912883,1175
2825.9190164789957,1117
2827.6746218675207,1149
2829.429884760661,1166
2831.184805462294,1080
2832.9393842763743,1131
2834.693621506936,1095
2836.4475174580916,1130
2838.201072434034,1134
2839.954286739034,1142
2841.707160677441,1101
2843.459694553685,1134
2845.2118886722724,1133
2846.96374333779,1177
2848.7152588549034,1128
2850.4664355283567,1092
2852.217273662973,1101
2853.9677735636546,1168
2855.7179355353833,1153
2857.4677598832186,1143
2859.217246912299,1158
2860.9663969278427,1143
2862.715210235146,1119
2864.4636871395846,1130
2866.211827946614,1097
2867.9596329617652,1106
2869.7071024906536,1149
2871.4542368389684,1078
2873.20103631248,1082
2874.947501217038,1119
2876.6936318585695,1081
2878.4394285430812,1159
2880.1848915766604,1135
2881.9300212654707,1181
2883.6748179157553,1152
2885.4192818338374,1137
2887.1634133261173,1149
2888.907212699077,1143
2890.6506802592744,1128
2892.393816313348,1111
2894.1366211680142,1154
2895.8790951300693,1123
2897.621238506388,1170
2899.363051603925,1175
2901.1045347297118,1129
2902.8456881908596,1109
2904.58651229456,1096
2906.327007348081,1182
2908.067173658772,1164
2909.8070115340597,1118
2911.5465212814497,1198
2913.285703208527,1089
2915.0245576229563,1094
2916.7630848324807,1144
2918.5012851449196,1119
2920.2391588681758,1087
2921.976706310227,1182
2923.7139277791334,1189
2925.4508235830313,1158
2927.187394030137,1154
2928.923639428745,1083
2930.6595600872306,1103
2932.395156314046,1104
2934.1304284177218,1122
2935.8653767068713,1102
2937.6000014901815,1135
2939.3343030764227,1130
2941.068281774442,1139
2942.8019378931644,1162
2944.5352717415976,1151
2946.2682836288236,1136
2948.0009738640065,1140
2949.7333427563885,1147
2951.465390615289,1135
2953.1971177501086,1134
2954.9285244703265,1152
2956.6596110855,1106
2958.3903779052657,1112
2960.1208252393385,1112
2961.8509533975125,1131
2963.5807626896617,1122
2965.3102534257378,1104
2967.0394259157715,1081
2968.768280469873,1122
2970.496817398232,1152
2972.2250370111146,1104
2973.952939618869,1113
2975.6805255319196,1106
2977.4077950607707,1143
2979.134748516006,1176
2980.861386208289,1183
2982.587708448359,1178
2984.313715547037,1137
2986.039407815222,1135
2987.764785563891,1115
2989.489849104102,1109
2991.2145987469908,1139
2992.9390348037705,1155
2994.6631575857346,1094
2996.3869674042576,1065
2998.1104645707887,1124
2999.83364939686,1183
3001.5565221940783,1121
3003.2790832741334,1105
3005.0013329487924,1101
3006.7232715298996,1112
3008.4448993293804,1069
3010.166216659239,1101
3011.887223831558,1147
3013.607921158498,1148
3015.3283089522993,1111
3017.0483875252826,1086
3018.7681571898443,1101
3020.4876182584626,1135
3022.2067710436927,1094
3023.9256158581707,1106
3025.644153014609,1125
3027.362382825801,1090
3029.0803056046193,1094
3030.797921664012,1076
3032.5152313170106,1099
3034.2322348767225,1117
3035.9489326563353,1139
3037.665324969115,1165
3039.3814121284063,1110
3041.097194447633,1154
3042.812672240299,1127
3044.5278458199855,1120
3046.2427155003525,1105
3047.9572815951406,1111
3049.671544418167,1110
3051.38550428333,1051
3053.0991615046073,1052
3054.812516396051,1119
3056.5255692717974,1109
3058.2383204460575,1121
3059.9507702331257,1119
3061.662918947372,1123
3063.3747669032446,1117
3065.0863144152736,1123
3066.7975617980674,1099
3068.508509366309,1078
3070.219157434767,1095
3071.9295063182844,1106
3073.639556331785,1103
3075.3493077902704,1105
3077.058761008821,1133
3078.7679163025964,1076
3080.476773986837,1137
3082.1853343768594,1120
3083.89359778806,1133
3085.6015645359153,1166
3087.3092349359786,1096
3089.016609303884,1075
3090.7236879553434,1149
3092.4304712061476,1074
3094.136959372166,1119
3095.843152769349,1080
3097.5490517137237,1120
3099.2546565213966,1135
3100.959967508554,1172
3102.66498499146,1140
3104.3697092864577,1101
3106.0741407099695,1142
3107.778279578498,1105
3109.482126208622,1079
3111.1856809170004,1106
3112.8889440203716,1098
3114.5919158355528,1163
3116.294596679439,1141
3117.996986869006,1129
3119.6990867213062,1137
3121.4008965534726,1137
3123.102416682717,1175
3124.803647426329,1142
3126.5045891016784,1123
3128.205242026213,1178
3129.90560651746,1147
3131.605682893025,1137
3133.3054714705922,1163
3135.0049725679282,1134
3136.7041865028714,1116
3138.4031135933465,1144
3140.101754157353,1169
3141.800108512971,1114
3143.498176978357,1136
3145.1959598717494,1089
3146.8934575114636,1121
3148.5906702158954,1111
3150.2875983035183,1092
3151.9842420928853,1104
3153.680601902627,1120
3155.376678051456,1057
3157.07247085816,1074
3158.767980641609,1135
3160.463207720748,1115
3162.158152414606,1138
3163.8528150422862,1123
3165.5471959229726,1115
3167.2412953759303,1112
3168.9351137204976,1154
3170.628651276098,1167
3172.3219083622307,1154
3174.014885298474,1087
3175.707582404485,1162
3177.4000000000005,1126
3179.092138404835,1093
3180.7839979388846,1140
3182.47557892212,1073
3184.166881674594,1121
3185.8579065164386,1100
3187.5486537678626,1129
3189.2391237491547,1128
3190.9293167806827,1078
3192.6192331828934,1141
3194.3088732763117,1113
3195.998237381542,1082
3197.687325819268,1075
3199.376138910251,1107
3201.064676975334,1076
3202.7529403354347,1058
3204.4409293115523,1102
3206.1286442247647,1101
3207.816085396229,1126
3209.5032531471825,1076
3211.190147798936,1087
3212.8767696728846,1085
3214.5631190905015,1068
3216.2491963733373,1090
3217.9350018430214,1105
3219.6205358212637,1055
3221.305798629851,1057
3222.990790590651,1043
3224.6755120256103,1085
3226.359963256751,1053
3228.0441446061795,1104
3229.7280563960758,1085
3231.411698948703,1104
3233.0950725863995,1114
3234.778177631587,1120
3236.461014406761,1120
3238.1435832345005,1149
3239.8258844374595,1095
3241.507918338374,1074
3243.1896852600576,1130
3244.8711855254023,1130
3246.552419457381,1063
3248.233387379042,1113
3249.914089613516,1107
3251.59452648401,1113
3253.274698313813,1119
3254.95460542629,1082
3256.6342481448855,1092
3258.313626793125,1108
3259.9927416946084,1038
3261.6715931730196,1030
3263.3501815521176,1110
3265.0285071557437,1099
3266.706570307815,1113
3268.3843713323286,1097
3270.0619105533615,1057
3271.739188295068,1044
3273.4162048816834,1137
3275.0929606375184,1074
3276.769455886966,1079
3278.445690954498,1147
3280.1216661646613,1133
3281.797381842087,1063
3283.4728383114807,1110
3285.1480358976296,1126
3286.8229749253996,1064
3288.4976557197333,1093
3290.172078605655,1144
3291.846243908266,1125
3293.5201519527463,1116
3295.193803064357,1057
3296.8671975684374,1039
3298.5403357904024,1057
3300.21321805575,1140
3301.8858446900567,1099
3303.558216018975,1074
3305.23033236824,1106
3306.9021940636603,1130
3308.57380143113,1093
3310.2451547966184,1092
3311.916254486174,1057
3313.5871008259246,1064
3315.2576941420766,1111
3316.9280347609147,1095
3318.5981230088046,1085
3320.2679592121895,1081
3321.9375436975924,1020
3323.606876791612,1071
3325.27595882093,1051
3326.944790112305,1106
3328.6133709925753,1087
3330.2817017886573,1130
3331.949782827547,1109
3333.617614436319,1093
3335.2851969421245,1122
3336.952530672199,1115
3338.619615953853,1096
3340.286453114475,1077
3341.9530424815357,1040
3343.619384382583,1056
3345.2854791452437,1091
3346.951327097224,1107
3348.6169285663073,1122
3350.2822838803577,1126
3351.947393367319,1123
3353.61225735521,1098
3355.2768761721345,1055
3356.9412501462693,1117
3358.605379605873,1104
3360.2692648792827,1127
3361.9329062949146,1103
3363.596304181263,1086
