CollectionTime,7/9/2024 1:30:56 PM
ExposureUsed,3
CalibratedSpectrum
-962.7078968117929,736
-959.9714848408522,787
-957.2358232597828,775
-954.5009119013725,739
-951.7667505983302,792
-949.0333391832855,777
-946.3006774887896,732
-943.5687653473143,757
-940.837602591253,763
-938.1071890529199,771
-935.3775245645503,778
-932.6486089583007,834
-929.9204420662485,756
-927.1930237203925,791
-924.4663537526524,748
-921.7404319948689,784
-919.0152582788041,814
-916.2908324361409,817
-913.5671542984834,814
-910.8442236973568,802
-908.1220404642074,770
-905.4006044304027,780
-902.679915427231,819
-899.959973285902,787
-897.2407778375464,792
-894.5223289132158,747
-891.8046263438832,770
-889.0876699604426,757
-886.3714595937089,794
-883.6559950744183,760
-880.9412762332282,748
-878.2273029007168,746
-875.5140749073835,763
-872.8015920836489,758
-870.0898542598545,803
-867.3788612662631,758
-864.6686129330585,811
-861.9591090903457,780
-859.2503495681506,809
-856.5423341964203,822
-853.8350628050229,765
-851.1285352237478,807
-848.4227512823054,790
-845.7177108103272,814
-843.0134136373656,826
-840.3098595928943,825
-837.6070485063082,849
-834.9049802069229,820
-832.2036545239757,806
-829.5030712866244,818
-826.8032303239481,819
-824.1041314649472,816
-821.4057745385428,829
-818.7081593735775,780
-816.0112857988148,777
-813.3151536429393,842
-810.6197627345566,792
-807.9251129021936,781
-805.2312039742981,820
-802.5380357792392,803
-799.8456081453069,831
-797.1539209007124,860
-794.462973873588,824
-791.772766891987,833
-789.083299783884,824
-786.3945723771743,827
-783.7065844996748,826
-781.0193359791231,841
-778.3328266431781,797
-775.6470563194197,829
-772.9620248353489,872
-770.2777320183878,855
-767.5941776958798,856
-764.9113616950891,830
-762.2292838432011,857
-759.5479439673222,863
-756.8673418944801,791
-754.1874774516235,832
-751.5083504656222,863
-748.8299607632671,899
-746.15230817127,852
-743.475392516264,828
-740.7992136248035,832
-738.1237713233636,900
-735.4490654383407,851
-732.7750957960521,849
-730.1018622227365,851
-727.4293645445534,858
-724.7576025875837,878
-722.0865761778291,836
-719.4162851412126,920
-716.7467293035781,849
-714.0779084906909,965
-711.409822528237,895
-708.7424712418238,917
-706.0758544569796,896
-703.4099719991541,916
-700.7448236937178,906
-698.0804093659622,928
-695.4167288411002,940
-692.7537819442656,923
-690.0915685005134,946
-687.4300883348199,954
-684.7693412720819,924
-682.1093271371178,906
-679.4500457546669,927
-676.7914969493897,911
-674.1336805458676,921
-671.4765963686034,920
-668.8202442420206,985
-666.1646239904642,936
-663.5097354382001,931
-660.8555784094151,921
-658.2021527282176,988
-655.5494582186366,975
-652.8974947046223,978
-650.2462620100463,985
-647.5957599587009,946
-644.9459883742998,1010
-642.2969470804776,969
-639.6486359007902,966
-637.0010546587141,1005
-634.3542031776476,937
-631.7080812809096,963
-629.0626887917401,985
-626.4180255333008,963
-623.7740913286734,952
-621.1308860008619,933
-618.4884093727904,979
-615.8466612673046,968
-613.2056415071715,992
-610.5653499150785,986
-607.9257863136347,1018
-605.28695052537,1011
-602.6488423727357,993
-600.0114616781036,1014
-597.3748082637674,969
-594.7388819519412,995
-592.1036825647604,1018
-589.4692099242818,994
-586.8354638524829,971
-584.2024441712624,1006
-581.5701507024403,1033
-578.9385832677575,986
-576.3077416888759,981
-573.6776257873787,1037
-571.0482353847704,968
-568.4195703024757,996
-565.7916303618415,1014
-563.164415384135,1046
-560.5379251905453,1037
-557.9121596021815,981
-555.2871184400748,1035
-552.6628015251767,1032
-550.0392086783606,1029
-547.4163397204204,1055
-544.794194472071,1075
-542.1727727539491,1058
-539.5520743866118,1036
-536.9320991905377,1098
-534.3128469861261,1081
-531.6943175936979,1153
-529.0765108334947,1126
-526.4594265256793,1175
-523.8430644903358,1200
-521.2274245474689,1376
-518.612506517005,1410
-515.9983102187913,1389
-513.3848354725959,1399
-510.77208209810846,1427
-508.16004991493924,1563
-505.5487387426199,1643
-502.9381484006032,1733
-500.3282787082628,1688
-497.71912948489364,1642
-495.1107005497117,1570
-492.5029917218539,1450
-489.8960028203786,1431
-487.28973366426493,1277
-484.68418407241325,1143
-482.07935386364494,1222
-479.47524285670266,1189
-476.87185087025,1205
-474.2691777228715,1208
-471.66722323307334,1181
-469.0659872192821,1218
-466.4654694998459,1209
-463.86566989303384,1190
-461.26658821703614,1240
-458.66822428996414,1211
-456.07057792985,1213
-453.4736489546475,1213
-450.877437182231,1219
-448.28194243039627,1194
-445.68716451686,1172
-443.09310325926003,1235
-440.49975847515555,1180
-437.9071299820263,1213
-435.31521759727354,1201
-432.72402113821954,1239
-430.13354042210767,1218
-427.5437752661022,1168
-424.95472548728867,1178
-422.36639090267386,1187
-419.7787713291855,1260
-417.1918665836721,1320
-414.60567648290385,1327
-412.0202008435715,1254
-409.4354394822874,1260
-406.8513922155845,1359
-404.26805885991723,1337
-401.685439231661,1306
-399.103533147112,1269
-396.522340422488,1306
-393.9418608739278,1259
-391.3620943174908,1288
-388.7830405691583,1175
-386.2046994448317,1144
-383.6270707603344,1102
-381.05015433141045,1086
-378.473949973725,979
-375.8984575028645,886
-373.32367673433623,817
-370.74960748356875,812
-368.1762495659117,709
-365.60360279663576,646
-363.03166699093265,605
-360.4604419639154,541
-357.8899275306178,511
-355.32012350599507,509
-352.7510297049233,454
-350.1826459421999,459
-347.61497203254316,453
-345.04800779059235,447
-342.4817530309082,450
-339.91620756797226,440
-337.35137121618743,439
-334.7872437898774,449
-332.22382510328725,497
-329.66111497058273,451
-327.09911320585127,454
-324.53781962310075,446
-321.9772340362607,427
-319.4173562591816,443
-316.8581861056348,433
-314.2997233893127,447
-311.7419679238294,451
-309.1849195227194,450
-306.62857799943856,463
-304.0729431673641,482
-301.51801483979375,461
-298.963792829947,474
-296.41027695096386,475
-293.85746701590574,480
-291.3053628377552,500
-288.7539642294155,492
-286.2032710037115,475
-283.65328297338897,491
-281.1039999511146,507
-278.5554217494762,512
-276.007548180983,511
-273.4603790580651,511
-270.9139141930734,456
-268.3681533982807,493
-265.8230964858798,545
-263.27874326798565,531
-260.7350935566336,500
-258.1921471637804,522
-255.6499039013039,542
-253.10836358100266,540
-250.56752601459698,531
-248.02739101372765,554
-245.48795838995704,588
-242.94922795476816,529
-240.41119951956557,530
-237.8738728956746,541
-235.33724789434166,583
-232.80132432673452,574
-230.2661020039418,555
-227.73158073697357,542
-225.19776033676033,588
-222.66464061415422,585
-220.1322213799284,570
-217.60050244477725,551
-215.06948361931552,553
-212.53916471408013,605
-210.00954553952818,599
-207.48062590603843,628
-204.9524056239104,598
-202.4248845033651,607
-199.8980623545441,650
-197.37193898751036,594
-194.84651421224817,603
-192.32178783866232,620
-189.79775967657952,662
-187.27442953574644,632
-184.7517972258321,654
-182.2298625564256,656
-179.7086253370378,633
-177.18808537710026,623
-174.66824248596583,605
-172.14909647290835,633
-169.6306471471229,697
-167.11289431772548,711
-164.59583779375328,608
-162.07947738416453,695
-159.5638128978386,754
-157.04884414357605,822
-154.53457093009854,864
-152.02099306604828,816
-149.50811035998936,695
-146.99592262040665,664
-144.48442965570587,724
-141.97363127421409,786
-139.46352728417958,831
-136.95411749377126,1029
-134.44540171107985,987
-131.93737974411636,766
-129.43005140081357,774
-126.92341648902493,1093
-124.41747481652521,1429
-121.91222619101006,1683
-119.40767042009657,1739
-116.90380731132257,1791
-114.40063667214702,1938
-111.8981583099503,1765
-109.3963720320337,1433
-106.89527764561933,1362
-104.39487495785067,1585
-101.89516377579241,1883
-99.39614390642998,2281
-96.89781515667039,2787
-94.40017733334128,3016
-91.90323024319173,3264
-89.40697369289148,3330
-86.91140748903172,3047
-84.41653143812482,2573
-81.92234534660395,2136
-79.42884902082358,2323
-76.93604226705907,3396
-74.4439248915071,4920
-71.95249670028534,6389
-69.46175749943245,7523
-66.97170709490854,7490
-64.48234529259423,7075
-61.99367189829195,7255
-59.50568671772464,6177
-57.01838955653636,5066
-54.53178022029283,4873
-52.045858514480074,5210
-49.560624244506016,5932
-47.07607721569923,5510
-44.59221723330904,4930
-42.10904410250669,5100
-39.62655762838392,4784
-37.14475761595372,4263
-34.66364387015028,5377
-32.18321619582866,6240
-29.70347439776515,6848
-27.224418280657005,7877
-24.74604764912317,8585
-22.26836230770266,10690
-19.7913620608565,18691
-17.315046712966478,30628
-14.83941606833514,38561
-12.36446993118659,50920
-9.89020810566592,65039
-7.416630395839093,65039
-4.94373660569363,65039
-2.471526539137585,65039
-6.821210263296962E-13,65039
2.47084320796705,65039
4.941003281093458,65039
7.410480415786196,65039
9.879274808531363,65039
12.347386655893956,65039
14.814816154518212,65039
17.28156350112681,65039
19.74762889252179,65039
22.21301252558385,21189
24.67771459727237,4137
27.141735304626195,2724
29.605074844762612,2150
32.06773341487792,1858
34.52971121224755,1574
36.99100843422559,1492
39.45162527824516,1554
41.91156194181792,1500
44.370818622535126,1312
46.82939551806646,987
49.287292826160524,1037
51.74451074464503,1136
54.201049471426245,1012
56.65690920448981,997
59.112090141899785,899
61.56659248179983,897
64.02041642241159,920
66.4735621620365,855
68.92602989905402,904
71.37781983192338,982
73.82893215918205,1074
76.27936707944684,1033
78.72912479141326,1090
81.17820549385567,1023
83.62660938562783,821
86.07433666566146,816
88.5213875329681,762
90.96776218663751,731
93.41346082583925,735
95.85848364982041,815
98.30283085790859,832
100.7465026495089,824
103.18949922410604,857
105.63182078126385,768
108.07346752062438,844
110.51443964190923,914
112.95473734491827,835
115.39436082953114,727
117.83331029570547,716
120.27158594347827,715
122.7091879729652,772
125.1461165843615,807
127.58237197794062,775
130.01795435405518,733
132.4528639131364,793
134.88710085569494,860
137.32066538231982,843
139.75355769367923,818
142.1857779905207,790
144.61732647366978,768
147.04820334403132,734
149.47840880258934,798
151.90794305040674,858
154.33680628862487,973
156.76499871846443,1154
159.19252054122433,1225
161.61937195828352,1388
164.04555317109896,1573
166.47106438120693,1765
168.89590579022217,1931
171.320077599839,2052
173.7435800118302,2272
176.16641322804742,2261
178.58857745042144,2363
181.01007288096173,2465
183.43089972175687,2481
185.85105817497413,2584
188.27054844285988,2602
190.6893707277394,2714
193.10752523201643,2746
195.5250121581745,2819
197.9418317087751,2823
200.3579840864594,2883
202.7734694939469,2875
205.18828813403627,2940
207.6024402096051,3020
210.01592592360964,3055
212.42874547908548,2975
214.84089907914665,3024
217.2523869269868,2980
219.66320922587727,3055
222.0733661791695,3102
224.48285799029293,2923
226.8916848627572,3158
229.29984700014882,3110
231.7073446061355,3258
234.11417788446204,3167
236.520347038953,3241
238.92585227351185,3329
241.33069379212054,3410
243.73487179884035,3464
246.1383864978112,3541
248.541238093252,3500
250.9434267894609,3581
253.34495279081432,3466
255.74581630176783,3603
258.1460175268563,3683
260.54555667069314,3391
262.9444339379703,3592
265.3426495334594,3565
267.7402036620107,3455
270.1370965285529,3278
272.53332833809407,3236
274.9288992957214,3166
277.32380960660055,2976
279.718059475976,3024
282.1116491091717,3041
284.5045787115897,2983
286.89684848871195,3054
289.2884586460981,2921
291.67940938938807,2994
294.0697009242996,2971
296.4593334566299,3063
298.84830719225477,3085
301.23662233712923,2962
303.6242790972866,2930
306.01127767884,2937
308.39761828798066,2974
310.78330113097934,2941
313.16832641418534,2833
315.5526943440269,2848
317.9364051270112,2756
320.3194589697242,2802
322.70185607883093,2731
325.0835966610754,2741
327.4646809232805,2738
329.8451090723478,2778
332.2248813152577,2690
334.6039978590701,2620
336.9824589109231,2736
339.36026467803447,2751
341.7374153677,2696
344.113911187295,2690
346.48975234427337,2650
348.8649390461686,2666
351.2394715005918,2693
353.61334991523415,2717
355.9865744978655,2610
358.35914545633375,2575
360.73106299856715,2664
363.10232733257146,2664
365.47293866643247,2559
367.84289720831396,2629
370.2122031664593,2560
372.5808567491905,2502
374.9488581649083,2591
377.31620762209275,2617
379.6829053293021,2576
382.0489514951745,2545
384.4143463284262,2463
386.7790900378528,2473
389.14318283232853,2569
391.50662492080653,2590
393.86941651231916,2616
396.23155781597745,2629
398.5930490409713,2562
400.9538903965696,2466
403.3140820921202,2526
405.6736243370498,2518
408.03251734086336,2482
410.3907613131465,2534
412.74835646356166,2518
415.10530300185144,2604
417.4616011378372,2486
419.81725108141893,2533
422.1722530425758,2571
424.5266072313656,2505
426.880313857925,2542
429.2333731324701,2566
431.58578526529516,2545
433.9375504667738,2500
436.2886689473588,2417
438.63914091758113,2512
440.9889665880513,2429
443.33814616945835,2426
445.68667987257015,2444
448.03456790823395,2351
450.3818104873759,2430
452.72840782100013,2402
455.07436012019105,2419
457.41966759611057,2496
459.7643304600007,2512
462.10834892318155,2471
464.4517231970525,2489
466.79445349309174,2531
469.1365400228566,2425
471.4779829979826,2488
473.81878263018564,2442
476.15893913125876,2536
478.4984527130747,2487
480.8373235875855,2506
483.17555196682144,2650
485.5131380628919,2531
487.8500820879857,2656
490.1863842543697,2700
492.52204477439034,2830
494.8570638604725,3045
497.1914417251204,3194
499.52517858091653,3403
501.85827464052306,3616
504.19073011668036,3691
506.5225452222086,3735
508.85372017000566,3711
511.18425517304956,3632
513.514150444396,3803
515.8434061971808,4418
518.1720226446176,5273
520.4999999999999,5436
522.8273384766991,5123
525.1540382881666,4750
527.480099647932,4236
529.8055227696037,3567
532.1303078668694,3158
534.454455153496,2834
536.777964843328,2633
539.1008371502907,2590
541.4230722883866,2546
543.744670471698,2524
546.0656319143858,2640
548.3859568306899,2578
550.7056454349294,2589
553.0246979415016,2558
555.3431145648834,2575
557.6608955196306,2521
559.978041020377,2473
562.2945512818363,2545
564.6104265188006,2477
566.9256669461412,2598
569.2402727788082,2624
571.5542442318302,2552
573.8675815203156,2601
576.1802848594508,2629
578.4923544645015,2540
580.8037905508126,2554
583.114593333807,2622
585.4247630289875,2601
587.7342998519354,2562
590.0432040183106,2572
592.3514757438526,2544
594.6591152443794,2575
596.9661227357875,2640
599.2724984340531,2636
601.578242555231,2572
603.8833553154542,2656
606.1878369309362,2604
608.4916876179676,2589
610.7949075929192,2602
613.0974970722403,2551
615.3994562724587,2595
617.7007854101818,2529
620.0014847020951,2582
622.3015543649641,2614
624.6009946156324,2621
626.8998056710224,2522
629.1979877481361,2546
631.4955410640538,2588
633.7924658359349,2532
636.0887622810175,2613
638.3844306166192,2519
640.6794710601358,2573
642.9738838290426,2694
645.2676691408932,2698
647.5608272133207,2646
649.853358264037,2641
652.1452625108324,2685
654.4365401715764,2704
656.7271914642178,2677
659.0172166067838,2642
661.3066158173809,2715
663.5953893141935,2633
665.8835373154867,2694
668.1710600396028,2643
670.4579577049639,2620
672.7442305300709,2743
675.0298787335033,2650
677.3149025339197,2678
679.599302150058,2726
681.8830778007342,2703
684.1662297048437,2607
686.4487580813608,2681
688.7306631493387,2742
691.0119451279091,2616
693.2926042362834,2712
695.5726406937516,2635
697.8520547196814,2693
700.1308465335215,2628
702.4090163547982,2642
704.6865644031171,2654
706.9634908981619,2586
709.2397960596965,2699
711.5154801075631,2767
713.7905432616823,2671
716.0649857420548,2723
718.3388077687592,2732
720.612009561953,2637
722.8845913418733,2704
725.1565533288352,2641
727.427895743234,2663
729.6986188055427,2620
731.9687227363137,2594
734.238207756178,2675
736.5070740858458,2708
738.7753219461066,2510
741.0429515578281,2618
743.3099631419569,2650
745.5763569195191,2671
747.8421331116193,2678
750.1072919394409,2662
752.3718336242467,2648
754.6357583873777,2696
756.8990664502545,2550
759.1617580343765,2615
761.423833361321,2708
763.6852926527457,2642
765.9461361303862,2695
768.206364016058,2642
770.4659765316536,2638
772.7249738991469,2687
774.9833563405886,2763
777.2411240781092,2715
779.4982773339183,2659
781.7548163303044,2627
784.010741289634,2719
786.2660524343538,2710
788.5207499869881,2736
790.7748341701416,2721
793.0283052064964,2633
795.2811633188143,2634
797.5334087299362,2589
799.7850416627813,2691
802.0360623403484,2707
804.2864709857143,2646
806.5362678220353,2671
808.7854530725468,2712
811.0340269605625,2635
813.2819897094754,2697
815.5293415427581,2615
817.77608268396,2668
820.0222133567116,2688
822.2677337847211,2715
824.5126441917765,2611
826.7569448017433,2738
829.0006358385675,2721
831.2437175262731,2722
833.4861900889629,2705
835.7280537508192,2685
837.9693087361026,2727
840.2099552691533,2698
842.4499935743896,2678
844.689423876309,2698
846.9282463994886,2635
849.1664613685833,2699
851.4040690083276,2645
853.6410695435349,2632
855.877463199097,2696
858.1132501999847,2774
860.3484307712487,2697
862.5830051380175,2657
864.8169735254988,2710
867.0503361589791,2690
869.2830932638243,2719
871.5152450654786,2608
873.7467917894654,2696
875.9777336613873,2841
878.2080709069252,2813
880.4378037518389,2757
882.666932421968,2699
884.8954571432301,2733
887.1233781416219,2746
889.3506956432192,2785
891.5774098741766,2815
893.803521060728,2812
896.0290294291852,2668
898.2539352059397,2743
900.4782386174619,2755
902.7019398903011,2695
904.925039251085,2695
907.147536926521,2729
909.3694331433943,2754
911.59072812857,2729
913.8114221089921,2734
916.0315153116827,2773
918.2510079637437,2670
920.4699002923547,2751
922.6881925247761,2705
924.905884888345,2761
927.1229776104793,2756
929.3394709186747,2686
931.555365040506,2651
933.7706602036275,2614
935.9853566357709,2730
938.1994545647489,2754
940.4129542184515,2660
942.6258558248488,2706
944.8381596119883,2684
947.0498658079974,2704
949.2609746410825,2647
951.4714863395287,2745
953.6814011316998,2756
955.8907192460387,2715
958.0994409110671,2687
960.3075663553858,2698
962.5150958076741,2709
964.7220294966913,2773
966.928367651274,2720
969.1341105003388,2650
971.3392582728806,2653
973.5438111979742,2586
975.747769504772,2656
977.9511334225061,2650
980.153903180487,2665
982.3560790081052,2688
984.5576611348289,2683
986.7586497902058,2671
988.9590452038618,2556
991.158847605503,2564
993.3580572249133,2626
995.5566742919558,2505
997.7546990365728,2551
999.952131688785,2573
1002.1489724786926,2465
1004.3452216364743,2484
1006.5408793923874,2452
1008.7359459767691,2452
1010.9304216200343,2444
1013.1243065526781,2414
1015.3176010052733,2445
1017.510305208472,2444
1019.7024193930064,2349
1021.8939437896848,2393
1024.0848786293977,2414
1026.2752241431122,2402
1028.4649805618747,2377
1030.6541481168115,2462
1032.842727039127,2468
1035.0307175601051,2420
1037.2181199111074,2449
1039.4049343235752,2412
1041.591161029029,2340
1043.7768002590683,2372
1045.9618522453698,2370
1048.1463172196918,2351
1050.3301954138697,2314
1052.513487059818,2377
1054.69619238953,2422
1056.8783116350783,2347
1059.0598450286152,2375
1061.2407928023704,2307
1063.4211551886528,2373
1065.6009324198508,2423
1067.780124728432,2362
1069.9587323469414,2264
1072.1367555080046,2401
1074.314194444325,2424
1076.4910493886855,2331
1078.667320573947,2246
1080.843008233051,2305
1083.0181125990161,2280
1085.1926339049414,2330
1087.3665723840027,2300
1089.5399282694575,2327
1091.7127017946405,2372
1093.8848931929647,2277
1096.0565026979243,2271
1098.2275305430899,2287
1100.3979769621128,2279
1102.567842188722,2301
1104.737126456726,2351
1106.9058300000124,2322
1109.0739530525475,2257
1111.2414958483764,2390
1113.4084586216231,2194
1115.5748416064907,2283
1117.7406450372605,2289
1119.9058691482942,2305
1122.0705141740304,2275
1124.2345803489884,2288
1126.3980679077658,2325
1128.5609770850388,2298
1130.7233081155623,2221
1132.8850612341707,2281
1135.0462366757774,2295
1137.2068346753745,2210
1139.3668554680326,2279
1141.526299288901,2282
1143.68516637321,2217
1145.8434569562655,2238
1148.001171273455,2279
1150.158309560244,2245
1152.3148720521767,2231
1154.470858984876,2284
1156.626270594044,2230
1158.7811071154629,2320
1160.9353687849912,2307
1163.089055838569,2219
1165.242168512213,2253
1167.3947070420209,2216
1169.5466716641677,2227
1171.6980626149075,2214
1173.8488801305748,2294
1175.9991244475814,2216
1178.1487958024186,2182
1180.2978944316555,2280
1182.4464205719428,2258
1184.5943744600072,2197
1186.7417563326567,2204
1188.8885664267755,2225
1191.0348049793297,2217
1193.1804722273619,2188
1195.325568407995,2312
1197.4700937584303,2171
1199.614048515948,2295
1201.7574329179074,2195
1203.900247201746,2219
1206.042491604982,2217
1208.1841663652099,2312
1210.3252717201053,2279
1212.465807907422,2314
1214.6057751649923,2312
1216.7451737307279,2225
1218.8840038426192,2312
1221.0222657387353,2231
1223.1599596572241,2226
1225.2970858363137,2252
1227.4336445143094,2252
1229.5696359295966,2279
1231.705060320639,2257
1233.8399179259786,2309
1235.9742089842384,2194
1238.107933734118,2321
1240.2410924143974,2307
1242.373685263935,2302
1244.5057125216676,2339
1246.6371744266116,2291
1248.7680712178621,2354
1250.898403134593,2305
1253.028170416058,2273
1255.1573733015875,2346
1257.2860120305932,2289
1259.4140868425648,2286
1261.54159797707,2324
1263.6685456737569,2268
1265.7949301723515,2299
1267.9207517126597,2325
1270.046010534565,2319
1272.1707068780306,2384
1274.2948409830983,2353
1276.4184130898889,2275
1278.541423438603,2356
1280.6638722695184,2403
1282.785759822993,2366
1284.9070863394636,2363
1287.0278520594447,2342
1289.1480572235314,2325
1291.2677020723963,2322
1293.3867868467923,2359
1295.5053117875495,2381
1297.623277135579,2370
1299.740683131868,2440
1301.8575300174857,2379
1303.973818033578,2432
1306.0895474213703,2482
1308.2047184221678,2450
1310.3193312773528,2357
1312.4333862283888,2419
1314.5468835168163,2483
1316.659823384255,2421
1318.7722060724045,2511
1320.8840318230418,2548
1322.9953008780249,2522
1325.1060134792888,2501
1327.2161698688478,2488
1329.3257702887959,2499
1331.4348149813054,2503
1333.5433041886276,2465
1335.6512381530933,2492
1337.7586171171101,2409
1339.8654413231675,2498
1341.9717110138317,2538
1344.0774264317488,2489
1346.1825878196432,2418
1348.2871954203192,2369
1350.3912494766587,2403
1352.4947502316231,2435
1354.5976979282532,2415
1356.7000928096686,2417
1358.8019351190665,2434
1360.9032250997243,2428
1363.0039629949988,2403
1365.1041490483235,2438
1367.2037835032133,2443
1369.3028666032606,2475
1371.401398592137,2456
1373.4993797135926,2462
1375.5968102114575,2459
1377.6936903296396,2385
1379.7900203121262,2526
1381.8858004029835,2411
1383.9810308463561,2433
1386.075711886469,2480
1388.1698437676241,2451
1390.2634267342032,2559
1392.356461030667,2524
1394.4489469015557,2500
1396.5408845914872,2517
1398.6322743451592,2506
1400.7231164073469,2595
1402.813411022907,2482
1404.903158436773,2555
1406.9923588939578,2514
1409.0810126395531,2668
1411.1691199187303,2588
1413.2566809767386,2524
1415.343696058907,2506
1417.4301654106425,2587
1419.5160892774315,2590
1421.6014679048399,2613
1423.6863015385125,2679
1425.7705904241707,2740
1427.8543348076178,2705
1429.9375349347342,2668
1432.0201910514802,2665
1434.102303403894,2658
1436.1838722380944,2659
1438.2648978002767,2797
1440.3453803367174,2701
1442.4253200937692,2805
1444.5047173178677,2801
1446.5835722555234,2802
1448.6618851533285,2876
1450.739656257952,2940
1452.8168858161434,2896
1454.8935740747306,2858
1456.96972128062,3013
1459.045327680797,3042
1461.120393522327,3050
1463.1949190523528,2947
1465.2689045180973,3112
1467.3423501668608,3135
1469.415256246024,3122
1471.4876230030463,3136
1473.559450685465,3284
1475.6307395408976,3419
1477.7014898170391,3315
1479.771701761665,3382
1481.8413756226287,3364
1483.9105116478618,3385
1485.9791100853772,3440
1488.0471711832643,3572
1490.1146951896926,3562
1492.1816823529098,3554
1494.2481329212433,3612
1496.3140471430984,3632
1498.3794252669609,3620
1500.4442675413939,3658
1502.5085742150404,3713
1504.572345536622,3678
1506.6355817549388,3753
1508.6982831188702,3783
1510.7604498773744,3766
1512.8220822794883,3806
1514.8831805743293,3803
1516.9437450110909,3745
1519.003775839048,3975
1521.0632733075522,3851
1523.1222376660367,3892
1525.1806691640113,4044
1527.2385680510652,4006
1529.2959345768668,4041
1531.3527689911643,4049
1533.4090715437833,4075
1535.4648424846291,4160
1537.5200820636855,4163
1539.5747905310159,4245
1541.6289681367616,4167
1543.6826151311434,4332
1545.7357317644614,4305
1547.7883182870937,4371
1549.8403749494987,4424
1551.8919020022113,4444
1553.9428996958477,4498
1555.9933682811015,4695
1558.0433080087469,4619
1560.0927191296346,4703
1562.1416018946961,4824
1564.1899565549415,4732
1566.2377833614592,4678
1568.2850825654164,4760
1570.3318544180606,4659
1572.3780991707158,4665
1574.423817074788,4493
1576.4690083817595,4353
1578.5136733431923,4231
1580.5578122107272,4218
1582.601425236085,3956
1584.6445126710646,3870
1586.6870747675434,3650
1588.7291117774776,3512
1590.7706239529034,3427
1592.8116115459347,3280
1594.8520748087658,3292
1596.8920139936686,3180
1598.9314293529933,3079
1600.9703211391711,3063
1603.008689604711,3002
1605.0465350022005,2861
1607.0838575843068,2820
1609.1206576037753,2826
1611.1569353134305,2756
1613.1926909661765,2768
1615.2279248149953,2658
1617.2626371129481,2713
1619.2968281131757,2576
1621.3304980688963,2624
1623.3636472334088,2586
1625.39627586009,2600
1627.428384202396,2530
1629.459972513861,2493
1631.4910410480993,2448
1633.5215900588028,2512
1635.551619799744,2504
1637.5811305247717,2493
1639.6101224878166,2395
1641.6385959428862,2420
1643.6665511440683,2489
1645.693988345528,2425
1647.7209078015112,2412
1649.7473097663405,2408
1651.7731944944203,2394
1653.7985622402307,2421
1655.823413258333,2384
1657.847747803366,2458
1659.8715661300494,2392
1661.8948684931793,2502
1663.9176551476316,2423
1665.9399263483624,2439
1667.9616823504057,2317
1669.982923408873,2348
1672.0036497789574,2310
1674.0238617159293,2404
1676.043559475138,2291
1678.0627433120121,2412
1680.081413482059,2333
1682.0995702408654,2433
1684.117213844096,2340
1686.134344547495,2349
1688.1509626068864,2427
1690.1670682781705,2382
1692.182661817329,2372
1694.1977434804217,2378
1696.2123135235875,2310
1698.226372203043,2375
1700.2399197750851,2299
1702.2529564960905,2414
1704.2654826225112,2363
1706.277498410882,2386
1708.2890041178139,2348
1710.2999999999988,2326
1712.3104863142066,2358
1714.3204633172854,2333
1716.329931266163,2333
1718.3388904178469,2299
1720.3473410294214,2271
1722.3552833580516,2343
1724.3627176609807,2336
1726.3696441955308,2303
1728.3760632191033,2306
1730.3819749891782,2248
1732.3873797633146,2273
1734.3922777991502,2295
1736.3966693544012,2345
1738.4005546868639,2317
1740.4039340544127,2257
1742.406807715001,2275
1744.4091759266616,2263
1746.4110389475054,2255
1748.4123970357223,2283
1750.413250449582,2362
1752.4135994474318,2259
1754.4134442876993,2221
1756.4127852288902,2240
1758.4116225295893,2182
1760.4099564484595,2232
1762.407787244244,2264
1764.405115175764,2171
1766.4019405019203,2262
1768.3982634816916,2256
1770.3940843741357,2179
1772.3894034383907,2151
1774.3842209336717,2199
1776.378537119274,2240
1778.372352254571,2266
1780.3656665990156,2240
1782.3584804121397,2193
1784.3507939535534,2170
1786.3426074829463,2198
1788.3339212600863,2186
1790.3247355448211,2249
1792.3150505970766,2174
1794.3048666768573,2164
1796.2941840442477,2172
1798.2830029594106,2229
1800.2713236825884,2216
1802.2591464741004,2252
1804.2464715943465,2187
1806.2332993038058,2146
1808.2196298630352,2219
1810.2054635326708,2208
1812.190800573428,2147
1814.175641246101,2162
1816.1599858115628,2135
1818.1438345307652,2195
1820.127187664738,2164
1822.1100454745924,2225
1824.092408221516,2189
1826.0742761667766,2206
1828.055649571721,2240
1830.0365286977735,2141
1832.0169138064398,2192
1833.9968051593014,2218
1835.9762030180214,2231
1837.9551076443408,2223
1839.9335193000788,2167
1841.9114382471344,2149
1843.888864747485,2180
1845.8657990631878,2174
1847.842241456378,2197
1849.8181921892697,2218
1851.7936515241558,2177
1853.7686197234098,2188
1855.7430970494815,2212
1857.7170837649014,2163
1859.6905801322787,2183
1861.6635864143004,2130
1863.6361028737338,2175
1865.608129773424,2217
1867.5796673762961,2162
1869.5507159453537,2257
1871.521275743678,2094
1873.4913470344313,2199
1875.4609300808534,2188
1877.4300251462632,2206
1879.3986324940588,2238
1881.366752387717,2294
1883.3343850907936,2254
1885.3015308669228,2213
1887.268189979819,2121
1889.2343626932739,2291
1891.2000492711595,2255
1893.1652499774254,2195
1895.1299650761011,2261
1897.0941948312952,2285
1899.0579395071945,2212
1901.0211993680641,2251
1902.98397467825,2231
1904.9462657021745,2233
1906.9080727043415,2281
1908.869395949332,2332
1910.8302357018065,2188
1912.790592226504,2227
1914.7504657882428,2260
1916.7098566519212,2221
1918.6687650825133,2250
1920.6271913450764,2256
1922.5851357047422,2266
1924.5425984267245,2218
1926.499579776314,2179
1928.4560800188833,2251
1930.4120994198802,2242
1932.367638244833,2189
1934.32269675935,2252
1936.2772752291175,2255
1938.231373919899,2229
1940.1849930975404,2137
1942.1381330279637,2211
1944.0907939771696,2201
1946.0429762112412,2236
1947.9946799963363,2220
1949.9459055986945,2302
1951.896653284633,2229
1953.8469233205478,2240
1955.7967159729142,2237
1957.7460315082863,2174
1959.6948701932974,2200
1961.6432322946594,2233
1963.5911180791632,2224
1965.5385278136787,2190
1967.4854617651545,2273
1969.4319202006182,2229
1971.377903387176,2213
1973.3234115920136,2189
1975.268445082395,2271
1977.2130041256642,2130
1979.1570889892423,2155
1981.1006999406304,2290
1983.04383724741,2132
1984.986501177238,2235
1986.928691997853,2255
1988.8704099770712,2234
1990.811655382789,2209
1992.7524284829801,2185
1994.692729545698,2159
1996.6325588390755,2319
1998.5719166313224,2245
2000.5108031907307,2210
2002.4492187856677,2161
2004.387163684583,2204
2006.3246381560011,2166
2008.2616424685298,2174
2010.1981768908527,2232
2012.1342416917332,2184
2014.069837140014,2162
2016.0049635046162,2208
2017.9396210545406,2178
2019.8738100588666,2131
2021.8075307867502,2183
2023.740783507431,2215
2025.6735684902228,2194
2027.6058860045214,2222
2029.5377363198004,2203
2031.4691197056118,2176
2033.4000364315875,2227
2035.3304867674374,2173
2037.260470982952,2235
2039.189989347998,2218
2041.1190421325232,2240
2043.047629606554,2153
2044.9757520401945,2198
2046.9034097036288,2261
2048.8306028671195,2298
2050.7573318010086,2231
2052.683596775716,2242
2054.609398061742,2249
2056.5347359296647,2182
2058.4596106501403,2207
2060.384022493906,2151
2062.3079717317764,2278
2064.231458634646,2215
2066.1544834734873,2106
2068.077046519352,2267
2069.99914804337,2242
2071.9207883167524,2232
2073.8419676107865,2272
2075.7626861968406,2225
2077.6829443463607,2225
2079.6027423308715,2215
2081.522080421977,2303
2083.440958891362,2223
2085.359378010786,2244
2087.2773380520907,2243
2089.194839287196,2210
2091.111881988101,2258
2093.0284664268825,2234
2094.9445928756973,2219
2096.86026160678,2252
2098.775472892446,2234
2100.690227005088,2257
2102.604524217178,2281
2104.5183648012676,2249
2106.431749029985,2251
2108.34467717604,2208
2110.2571495122206,2206
2112.169166311393,2298
2114.080727846503,2243
2115.9918343905747,2224
2117.902486216711,2268
2119.8126835980956,2196
2121.722426807987,2200
2123.6317161197285,2289
2125.5405518067364,2197
2127.448934142509,2247
2129.356863400624,2240
2131.264339854737,2320
2133.1713637785815,2380
2135.077935445972,2310
2136.9840551308002,2267
2138.889723107037,2332
2140.7949396487334,2281
2142.699705030018,2280
2144.6040195250994,2284
2146.507883408264,2245
2148.4112969538774,2275
2150.3142604363848,2268
2152.2167741303097,2286
2154.1188383102535,2334
2156.0204532508997,2301
2157.9216192270064,2315
2159.822336513414,2352
2161.7226053850413,2308
2163.622426116884,2319
2165.5217989840185,2347
2167.4207242616,2298
2169.319202224862,2400
2171.2172331491165,2343
2173.1148173097563,2324
2175.0119549822507,2311
2176.90864644215,2373
2178.8048919650823,2435
2180.7006918267534,2334
2182.596046302952,2257
2184.4909556695407,2322
2186.3854202024645,2337
2188.279440177746,2405
2190.173015871487,2375
2192.066147559868,2358
2193.958835519149,2413
2195.851080025667,2387
2197.7428813558417,2333
2199.6342397861667,2381
2201.5251555932186,2384
2203.415629053651,2316
2205.3056604441986,2352
2207.19525004167,2439
2209.084398122958,2393
2210.9731049650327,2353
2212.861370844941,2322
2214.749196039812,2402
2216.636580826851,2409
2218.523525483344,2398
2220.410030286655,2508
2222.296095514226,2434
2224.1817214435805,2409
2226.066908352319,2477
2227.951656518121,2428
2229.835966218746,2344
2231.71983773203,2351
2233.6032713358913,2476
2235.486267308324,2417
2237.3688259274036,2355
2239.2509474712824,2405
2241.132632218193,2481
2243.013880446447,2394
2244.8946924344323,2311
2246.7750684606203,2313
2248.6550088035574,2414
2250.534513741871,2424
2252.413583554265,2417
2254.292218519526,2423
2256.170418916517,2408
2258.0481850241786,2346
2259.925517121534,2354
2261.8024154876825,2296
2263.678880401803,2335
2265.5549121431536,2423
2267.430510991071,2305
2269.305677224971,2398
2271.180411124348,2375
2273.0547129687766,2419
2274.9285830379076,2359
2276.8020216114737,2314
2278.6750289692845,2309
2280.5476053912294,2424
2282.4197511572766,2360
2284.2914665474727,2417
2286.162751841943,2390
2288.0336073208937,2400
2289.904033264608,2417
2291.774029953448,2421
2293.6435976678554,2363
2295.5127366883517,2444
2297.381447295534,2328
2299.2497297700825,2290
2301.1175843927526,2336
2302.9850114443825,2357
2304.852011205885,2281
2306.7185839582553,2273
2308.5847299825664,2260
2310.4504495599676,2272
2312.3157429716925,2305
2314.1806104990483,2327
2316.0450524234247,2177
2317.9090690262888,2274
2319.772660589186,2283
2321.635827393742,2255
2323.498569721661,2236
2325.3608878547248,2226
2327.2227820747967,2254
2329.0842526638157,2245
2330.945299903803,2264
2332.805924076857,2304
2334.6661254651535,2228
2336.525904350951,2269
2338.3852610165827,2230
2340.244195744464,2262
2342.102708817088,2259
2343.9608005170253,2331
2345.8184711269287,2272
2347.675720929526,2212
2349.532550207628,2254
2351.38895924412,2258
2353.24494832197,2289
2355.100517724223,2235
2356.955667734004,2288
2358.810398634514,2232
2360.664710709037,2246
2362.5186042409337,2219
2364.3720795136437,2275
2366.225136810686,2237
2368.0777764156583,2288
2369.929998612237,2255
2371.7818036841777,2320
2373.633191915315,2298
2375.484163589562,2312
2377.3347189909114,2278
2379.184858403434,2274
2381.03458211128,2317
2382.8838903986775,2240
2384.732783549936,2290
2386.5812618494406,2339
2388.4293255816588,2346
2390.2769750311327,2307
2392.1242104824883,2348
2393.971032220427,2298
2395.8174405297295,2291
2397.6634356952563,2362
2399.509018001947,2322
2401.3541877348193,2390
2403.1989451789705,2322
2405.043290619576,2362
2406.8872243418905,2258
2408.730746631247,2334
2410.5738577730594,2327
2412.4165580528183,2315
2414.258847756095,2318
2416.100727168537,2360
2417.9421965758734,2345
2419.783256263912,2349
2421.623906518538,2336
2423.4641476257157,2333
2425.303979871491,2310
2427.143403541984,2315
2428.9824189233977,2411
2430.821026302012,2316
2432.6592259641866,2315
2434.497018196361,2370
2436.33440328505,2360
2438.171381516851,2352
2440.00795317844,2346
2441.844118556569,2410
2443.6798779380724,2348
2445.5152316098606,2349
2447.3501798589255,2334
2449.1847229723357,2289
2451.0188612372403,2345
2452.8525949408663,2286
2454.6859243705203,2341
2456.518849813587,2359
2458.3513715575314,2394
2460.183489889895,2345
2462.015205098301,2362
2463.8465174704493,2283
2465.67742729412,2372
2467.5079348571717,2385
2469.338040447542,2401
2471.1677443532476,2383
2472.9970468623833,2390
2474.825948263123,2419
2476.6544488437207,2425
2478.482548892508,2353
2480.310248697896,2366
2482.137548548374,2339
2483.9644487325118,2380
2485.790949538956,2355
2487.617051256433,2383
2489.44275417375,2374
2491.26805857979,2301
2493.0929647635157,2427
2494.917473013971,2374
2496.741583620276,2416
2498.5652968716304,2422
2500.3886130573137,2386
2502.2115324666834,2413
2504.0340553891765,2465
2505.856182114308,2407
2507.6779129316733,2483
2509.499248130945,2417
2511.3201880018764,2356
2513.140732834298,2454
2514.9608829181198,2464
2516.780638543331,2419
2518.6,2500
2520.418967578273,2533
2522.237541568376,2450
2524.0557222606144,2459
2525.8735099453706,2475
2527.6909049131086,2481
2529.507907454368,2501
2531.32451785977,2538
2533.140736420014,2456
2534.9565634258774,2494
2536.771999168218,2508
2538.5870439379714,2483
2540.4016980261526,2590
2542.2159617238544,2586
2544.02983532225,2638
2545.8433191125914,2574
2547.656413386209,2631
2549.4691184345115,2670
2551.2814345489874,2621
2553.093362021204,2595
2554.904901142808,2627
2556.716052205523,2666
2558.526815501153,2708
2560.3371913215824,2695
2562.147179958771,2677
2563.956781704761,2640
2565.7659968516705,2664
2567.5748256916986,2753
2569.3832685171224,2747
2571.1913256202984,2722
2572.9989972936614,2720
2574.806283829725,2734
2576.613185521084,2743
2578.4197026604074,2670
2580.2258355404483,2744
2582.031584454035,2718
2583.836949694077,2764
2585.6419315535613,2743
2587.4465303255533,2889
2589.2507463032002,2849
2591.0545797797245,2838
2592.8580310484303,2764
2594.6611004026995,2854
2596.463788135992,2832
2598.266094541849,2854
2600.0680199138874,2814
2601.869564545807,2827
2603.670728731383,2864
2605.4715127644704,2845
2607.2719169390048,2805
2609.071941548998,2799
2610.8715868885433,2804
2612.670853251811,2822
2614.469740933052,2839
2616.268250226594,2732
2618.0663814268455,2729
2619.864134828292,2820
2621.6615107255006,2766
2623.458509413115,2679
2625.2551311858597,2679
2627.0513763385347,2766
2628.8472451660223,2773
2630.6427379632833,2659
2632.4378550253564,2800
2634.232596647359,2690
2636.026963124488,2689
2637.8209547520187,2781
2639.6145718253065,2704
2641.407814639785,2707
2643.200683490966,2657
2644.9931786744414,2647
2646.7853004858807,2598
2648.577049221034,2647
2650.3684251757277,2620
2652.1594286458712,2647
2653.9500599274484,2574
2655.740319316525,2576
2657.5302071092437,2590
2659.3197236018286,2638
2661.10886909058,2579
2662.8976438718782,2584
2664.686048242183,2559
2666.4740824980327,2635
2668.2617469360443,2538
2670.0490418529134,2498
2671.8359675454153,2504
2673.622524310403,2475
2675.408712444811,2535
2677.1945322456495,2464
2678.979984010009,2569
2680.76506803506,2522
2682.5497846180497,2513
2684.334134056306,2471
2686.1181166472343,2496
2687.9017326883213,2533
2689.6849824771293,2415
2691.4678663113013,2418
2693.2503844885596,2496
2695.032537306705,2471
2696.8143250636167,2387
2698.5957480572542,2475
2700.3768065856534,2477
2702.1575009469316,2475
2703.937831439283,2380
2705.717798360982,2455
2707.4974020103837,2490
2709.276642685917,2351
2711.055520686095,2482
2712.834036309506,2382
2714.612189854819,2419
2716.389981620782,2375
2718.1674119062204,2402
2719.944481010041,2469
2721.721189231226,2330
2723.4975368688415,2401
2725.273524222027,2379
2727.0491515900053,2400
2728.824419272075,2443
2730.5993275676146,2423
2732.3738767760838,2369
2734.148067197016,2336
2735.921899130031,2296
2737.6953728748194,2428
2739.468488731156,2410
2741.2412469988926,2432
2743.0136479779617,2376
2744.785691968372,2354
2746.5573792702116,2401
2748.3287101836504,2350
2750.099685008934,2356
2751.870304046388,2363
2753.640567596418,2310
2755.4104759595057,2396
2757.1800294362156,2322
2758.949228327187,2406
2760.7180729331412,2414
2762.486563554877,2407
2764.254700493272,2417
2766.022484049284,2391
2767.789914523947,2376
2769.5569922183786,2379
2771.3237174337705,2361
2773.090090471394,2412
2774.8561116326036,2309
2776.6217812188274,2362
2778.3870995315756,2433
2780.1520668724356,2320
2781.9166835430747,2339
2783.6809498452394,2381
2785.444866080754,2362
2787.2084325515225,2386
2788.971649559527,2363
2790.73451740683,2371
2792.4970363955713,2404
2794.2592068279705,2381
2796.0210290063264,2420
2797.7825032330147,2350
2799.543629810493,2288
2801.304409041296,2371
2803.0648412280366,2359
2804.8249266734088,2338
2806.5846656801846,2349
2808.344058551212,2347
2810.1031055894246,2336
2811.8618070978273,2366
2813.6201633795085,2418
2815.378174737636,2441
2817.1358414754536,2391
2818.893163896285,2396
2820.6501423035334,2417
2822.4067770006814,2430
2824.1630682912883,2401
2825.9190164789957,2387
2827.6746218675207,2358
2829.429884760661,2416
2831.184805462294,2364
2832.9393842763743,2388
2834.693621506936,2390
2836.4475174580916,2378
2838.201072434034,2465
2839.954286739034,2469
2841.707160677441,2393
2843.459694553685,2380
2845.2118886722724,2390
2846.96374333779,2381
2848.7152588549034,2384
2850.4664355283567,2353
2852.217273662973,2381
2853.9677735636546,2449
2855.7179355353833,2406
2857.4677598832186,2449
2859.217246912299,2474
2860.9663969278427,2450
2862.715210235146,2358
2864.4636871395846,2398
2866.211827946614,2351
2867.9596329617652,2420
2869.7071024906536,2391
2871.4542368389684,2412
2873.20103631248,2425
2874.947501217038,2411
2876.6936318585695,2338
2878.4394285430812,2356
2880.1848915766604,2438
2881.9300212654707,2425
2883.6748179157553,2385
2885.4192818338374,2430
2887.1634133261173,2386
2888.907212699077,2409
2890.6506802592744,2433
2892.393816313348,2368
2894.1366211680142,2361
2895.8790951300693,2355
2897.621238506388,2417
2899.363051603925,2349
2901.1045347297118,2424
2902.8456881908596,2496
2904.58651229456,2414
2906.327007348081,2393
2908.067173658772,2358
2909.8070115340597,2381
2911.5465212814497,2391
2913.285703208527,2383
2915.0245576229563,2470
2916.7630848324807,2337
2918.5012851449196,2404
2920.2391588681758,2324
2921.976706310227,2396
2923.7139277791334,2376
2925.4508235830313,2466
2927.187394030137,2411
2928.923639428745,2409
2930.6595600872306,2382
2932.395156314046,2412
2934.1304284177218,2356
2935.8653767068713,2385
2937.6000014901815,2427
2939.3343030764227,2437
2941.068281774442,2391
2942.8019378931644,2337
2944.5352717415976,2448
2946.2682836288236,2460
2948.0009738640065,2449
2949.7333427563885,2412
2951.465390615289,2423
2953.1971177501086,2437
2954.9285244703265,2397
2956.6596110855,2467
2958.3903779052657,2460
2960.1208252393385,2380
2961.8509533975125,2402
2963.5807626896617,2417
2965.3102534257378,2423
2967.0394259157715,2387
2968.768280469873,2417
2970.496817398232,2364
2972.2250370111146,2436
2973.952939618869,2390
2975.6805255319196,2421
2977.4077950607707,2447
2979.134748516006,2505
2980.861386208289,2365
2982.587708448359,2453
2984.313715547037,2452
2986.039407815222,2494
2987.764785563891,2444
2989.489849104102,2509
2991.2145987469908,2446
2992.9390348037705,2431
2994.6631575857346,2351
2996.3869674042576,2476
2998.1104645707887,2429
2999.83364939686,2421
3001.5565221940783,2402
3003.2790832741334,2382
3005.0013329487924,2394
3006.7232715298996,2377
3008.4448993293804,2391
3010.166216659239,2345
3011.887223831558,2378
3013.607921158498,2396
3015.3283089522993,2326
3017.0483875252826,2429
3018.7681571898443,2424
3020.4876182584626,2427
3022.2067710436927,2304
3023.9256158581707,2437
3025.644153014609,2376
3027.362382825801,2390
3029.0803056046193,2449
3030.797921664012,2450
3032.5152313170106,2413
3034.2322348767225,2400
3035.9489326563353,2370
3037.665324969115,2379
3039.3814121284063,2379
3041.097194447633,2437
3042.812672240299,2435
3044.5278458199855,2488
3046.2427155003525,2448
3047.9572815951406,2384
3049.671544418167,2449
3051.38550428333,2430
3053.0991615046073,2444
3054.812516396051,2409
3056.5255692717974,2424
3058.2383204460575,2397
3059.9507702331257,2389
3061.662918947372,2401
3063.3747669032446,2385
3065.0863144152736,2389
3066.7975617980674,2412
3068.508509366309,2463
3070.219157434767,2397
3071.9295063182844,2387
3073.639556331785,2517
3075.3493077902704,2429
3077.058761008821,2376
3078.7679163025964,2466
3080.476773986837,2415
3082.1853343768594,2398
3083.89359778806,2499
3085.6015645359153,2459
3087.3092349359786,2467
3089.016609303884,2532
3090.7236879553434,2441
3092.4304712061476,2322
3094.136959372166,2479
3095.843152769349,2409
3097.5490517137237,2395
3099.2546565213966,2381
3100.959967508554,2401
3102.66498499146,2393
3104.3697092864577,2478
3106.0741407099695,2464
3107.778279578498,2497
3109.482126208622,2392
3111.1856809170004,2473
3112.8889440203716,2506
3114.5919158355528,2445
3116.294596679439,2499
3117.996986869006,2383
3119.6990867213062,2448
3121.4008965534726,2506
3123.102416682717,2512
3124.803647426329,2463
3126.5045891016784,2569
3128.205242026213,2492
3129.90560651746,2475
3131.605682893025,2476
3133.3054714705922,2484
3135.0049725679282,2568
3136.7041865028714,2513
3138.4031135933465,2456
3140.101754157353,2446
3141.800108512971,2503
3143.498176978357,2475
3145.1959598717494,2497
3146.8934575114636,2510
3148.5906702158954,2468
3150.2875983035183,2468
3151.9842420928853,2469
3153.680601902627,2507
3155.376678051456,2400
3157.07247085816,2439
3158.767980641609,2428
3160.463207720748,2344
3162.158152414606,2420
3163.8528150422862,2426
3165.5471959229726,2437
3167.2412953759303,2407
3168.9351137204976,2446
3170.628651276098,2467
3172.3219083622307,2444
3174.014885298474,2409
3175.707582404485,2419
3177.4000000000005,2509
3179.092138404835,2433
3180.7839979388846,2437
3182.47557892212,2372
3184.166881674594,2468
3185.8579065164386,2441
3187.5486537678626,2453
3189.2391237491547,2507
3190.9293167806827,2468
3192.6192331828934,2365
3194.3088732763117,2501
3195.998237381542,2453
3197.687325819268,2429
3199.376138910251,2477
3201.064676975334,2484
3202.7529403354347,2360
3204.4409293115523,2431
3206.1286442247647,2438
3207.816085396229,2390
3209.5032531471825,2419
3211.190147798936,2385
3212.8767696728846,2425
3214.5631190905015,2347
3216.2491963733373,2369
3217.9350018430214,2347
3219.6205358212637,2402
3221.305798629851,2377
3222.990790590651,2366
3224.6755120256103,2320
3226.359963256751,2378
3228.0441446061795,2332
3229.7280563960758,2372
3231.411698948703,2408
3233.0950725863995,2437
3234.778177631587,2370
3236.461014406761,2450
3238.1435832345005,2493
3239.8258844374595,2386
3241.507918338374,2469
3243.1896852600576,2422
3244.8711855254023,2443
3246.552419457381,2459
3248.233387379042,2469
3249.914089613516,2482
3251.59452648401,2416
3253.274698313813,2391
3254.95460542629,2422
3256.6342481448855,2420
3258.313626793125,2348
3259.9927416946084,2362
3261.6715931730196,2403
3263.3501815521176,2417
3265.0285071557437,2349
3266.706570307815,2352
3268.3843713323286,2415
3270.0619105533615,2394
3271.739188295068,2396
3273.4162048816834,2459
3275.0929606375184,2447
3276.769455886966,2477
3278.445690954498,2335
3280.1216661646613,2424
3281.797381842087,2488
3283.4728383114807,2421
3285.1480358976296,2345
3286.8229749253996,2409
3288.4976557197333,2434
3290.172078605655,2352
3291.846243908266,2324
3293.5201519527463,2399
3295.193803064357,2403
3296.8671975684374,2358
3298.5403357904024,2265
3300.21321805575,2343
3301.8858446900567,2443
3303.558216018975,2420
3305.23033236824,2390
3306.9021940636603,2410
3308.57380143113,2453
3310.2451547966184,2377
3311.916254486174,2428
3313.5871008259246,2416
3315.2576941420766,2439
3316.9280347609147,2405
3318.5981230088046,2352
3320.2679592121895,2380
3321.9375436975924,2415
3323.606876791612,2373
3325.27595882093,2343
3326.944790112305,2469
3328.6133709925753,2455
3330.2817017886573,2395
3331.949782827547,2344
3333.617614436319,2365
3335.2851969421245,2472
3336.952530672199,2374
3338.619615953853,2463
3340.286453114475,2438
3341.9530424815357,2435
3343.619384382583,2410
3345.2854791452437,2468
3346.951327097224,2405
3348.6169285663073,2446
3350.2822838803577,2437
3351.947393367319,2462
3353.61225735521,2425
3355.2768761721345,2390
3356.9412501462693,2436
3358.605379605873,2402
3360.2692648792827,2451
3361.9329062949146,2365
3363.596304181263,2393
