CollectionTime,7/9/2024 1:30:33 PM
ExposureUsed,3
CalibratedSpectrum
-962.7078968117929,491
-959.9714848408522,546
-957.2358232597828,527
-954.5009119013725,572
-951.7667505983302,574
-949.0333391832855,590
-946.3006774887896,549
-943.5687653473143,563
-940.837602591253,550
-938.1071890529199,556
-935.3775245645503,575
-932.6486089583007,596
-929.9204420662485,583
-927.1930237203925,565
-924.4663537526524,564
-921.7404319948689,610
-919.0152582788041,596
-916.2908324361409,581
-913.5671542984834,584
-910.8442236973568,577
-908.1220404642074,573
-905.4006044304027,589
-902.679915427231,574
-899.959973285902,567
-897.2407778375464,568
-894.5223289132158,554
-891.8046263438832,566
-889.0876699604426,560
-886.3714595937089,568
-883.6559950744183,544
-880.9412762332282,557
-878.2273029007168,568
-875.5140749073835,547
-872.8015920836489,588
-870.0898542598545,558
-867.3788612662631,569
-864.6686129330585,545
-861.9591090903457,553
-859.2503495681506,581
-856.5423341964203,551
-853.8350628050229,549
-851.1285352237478,539
-848.4227512823054,562
-845.7177108103272,564
-843.0134136373656,563
-840.3098595928943,566
-837.6070485063082,553
-834.9049802069229,595
-832.2036545239757,585
-829.5030712866244,570
-826.8032303239481,550
-824.1041314649472,585
-821.4057745385428,552
-818.7081593735775,566
-816.0112857988148,573
-813.3151536429393,569
-810.6197627345566,577
-807.9251129021936,563
-805.2312039742981,563
-802.5380357792392,585
-799.8456081453069,581
-797.1539209007124,580
-794.462973873588,579
-791.772766891987,582
-789.083299783884,607
-786.3945723771743,597
-783.7065844996748,554
-781.0193359791231,605
-778.3328266431781,565
-775.6470563194197,568
-772.9620248353489,590
-770.2777320183878,583
-767.5941776958798,575
-764.9113616950891,599
-762.2292838432011,599
-759.5479439673222,572
-756.8673418944801,574
-754.1874774516235,582
-751.5083504656222,603
-748.8299607632671,613
-746.15230817127,589
-743.475392516264,577
-740.7992136248035,606
-738.1237713233636,606
-735.4490654383407,575
-732.7750957960521,568
-730.1018622227365,589
-727.4293645445534,606
-724.7576025875837,633
-722.0865761778291,632
-719.4162851412126,643
-716.7467293035781,645
-714.0779084906909,605
-711.409822528237,592
-708.7424712418238,653
-706.0758544569796,621
-703.4099719991541,650
-700.7448236937178,619
-698.0804093659622,672
-695.4167288411002,650
-692.7537819442656,655
-690.0915685005134,642
-687.4300883348199,628
-684.7693412720819,634
-682.1093271371178,672
-679.4500457546669,634
-676.7914969493897,630
-674.1336805458676,655
-671.4765963686034,642
-668.8202442420206,667
-666.1646239904642,674
-663.5097354382001,620
-660.8555784094151,672
-658.2021527282176,656
-655.5494582186366,682
-652.8974947046223,702
-650.2462620100463,648
-647.5957599587009,639
-644.9459883742998,669
-642.2969470804776,704
-639.6486359007902,751
-637.0010546587141,680
-634.3542031776476,651
-631.7080812809096,647
-629.0626887917401,670
-626.4180255333008,629
-623.7740913286734,651
-621.1308860008619,650
-618.4884093727904,697
-615.8466612673046,697
-613.2056415071715,683
-610.5653499150785,674
-607.9257863136347,677
-605.28695052537,722
-602.6488423727357,686
-600.0114616781036,691
-597.3748082637674,671
-594.7388819519412,720
-592.1036825647604,686
-589.4692099242818,705
-586.8354638524829,701
-584.2024441712624,683
-581.5701507024403,687
-578.9385832677575,701
-576.3077416888759,701
-573.6776257873787,711
-571.0482353847704,675
-568.4195703024757,653
-565.7916303618415,674
-563.164415384135,709
-560.5379251905453,683
-557.9121596021815,637
-555.2871184400748,703
-552.6628015251767,702
-550.0392086783606,701
-547.4163397204204,706
-544.794194472071,699
-542.1727727539491,710
-539.5520743866118,733
-536.9320991905377,755
-534.3128469861261,724
-531.6943175936979,792
-529.0765108334947,768
-526.4594265256793,825
-523.8430644903358,898
-521.2274245474689,973
-518.612506517005,1066
-515.9983102187913,1037
-513.3848354725959,1085
-510.77208209810846,1113
-508.16004991493924,1197
-505.5487387426199,1339
-502.9381484006032,1353
-500.3282787082628,1395
-497.71912948489364,1344
-495.1107005497117,1225
-492.5029917218539,1130
-489.8960028203786,1016
-487.28973366426493,955
-484.68418407241325,930
-482.07935386364494,889
-479.47524285670266,832
-476.87185087025,886
-474.2691777228715,894
-471.66722323307334,871
-469.0659872192821,864
-466.4654694998459,843
-463.86566989303384,890
-461.26658821703614,867
-458.66822428996414,916
-456.07057792985,863
-453.4736489546475,884
-450.877437182231,911
-448.28194243039627,872
-445.68716451686,836
-443.09310325926003,882
-440.49975847515555,861
-437.9071299820263,796
-435.31521759727354,859
-432.72402113821954,850
-430.13354042210767,935
-427.5437752661022,895
-424.95472548728867,873
-422.36639090267386,897
-419.7787713291855,875
-417.1918665836721,940
-414.60567648290385,960
-412.0202008435715,958
-409.4354394822874,908
-406.8513922155845,965
-404.26805885991723,945
-401.685439231661,946
-399.103533147112,898
-396.522340422488,888
-393.9418608739278,880
-391.3620943174908,872
-388.7830405691583,876
-386.2046994448317,804
-383.6270707603344,867
-381.05015433141045,732
-378.473949973725,734
-375.8984575028645,703
-373.32367673433623,643
-370.74960748356875,603
-368.1762495659117,594
-365.60360279663576,555
-363.03166699093265,523
-360.4604419639154,509
-357.8899275306178,494
-355.32012350599507,478
-352.7510297049233,458
-350.1826459421999,451
-347.61497203254316,444
-345.04800779059235,437
-342.4817530309082,455
-339.91620756797226,442
-337.35137121618743,441
-334.7872437898774,420
-332.22382510328725,450
-329.66111497058273,460
-327.09911320585127,455
-324.53781962310075,440
-321.9772340362607,460
-319.4173562591816,453
-316.8581861056348,447
-314.2997233893127,440
-311.7419679238294,425
-309.1849195227194,442
-306.62857799943856,475
-304.0729431673641,496
-301.51801483979375,473
-298.963792829947,501
-296.41027695096386,490
-293.85746701590574,486
-291.3053628377552,474
-288.7539642294155,481
-286.2032710037115,474
-283.65328297338897,476
-281.1039999511146,486
-278.5554217494762,497
-276.007548180983,468
-273.4603790580651,512
-270.9139141930734,491
-268.3681533982807,477
-265.8230964858798,520
-263.27874326798565,488
-260.7350935566336,492
-258.1921471637804,516
-255.6499039013039,534
-253.10836358100266,524
-250.56752601459698,517
-248.02739101372765,515
-245.48795838995704,531
-242.94922795476816,539
-240.41119951956557,526
-237.8738728956746,509
-235.33724789434166,543
-232.80132432673452,524
-230.2661020039418,506
-227.73158073697357,557
-225.19776033676033,570
-222.66464061415422,563
-220.1322213799284,551
-217.60050244477725,537
-215.06948361931552,530
-212.53916471408013,550
-210.00954553952818,558
-207.48062590603843,572
-204.9524056239104,582
-202.4248845033651,623
-199.8980623545441,611
-197.37193898751036,611
-194.84651421224817,592
-192.32178783866232,639
-189.79775967657952,642
-187.27442953574644,669
-184.7517972258321,605
-182.2298625564256,588
-179.7086253370378,601
-177.18808537710026,603
-174.66824248596583,601
-172.14909647290835,610
-169.6306471471229,635
-167.11289431772548,647
-164.59583779375328,664
-162.07947738416453,637
-159.5638128978386,646
-157.04884414357605,763
-154.53457093009854,825
-152.02099306604828,803
-149.50811035998936,730
-146.99592262040665,647
-144.48442965570587,712
-141.97363127421409,725
-139.46352728417958,806
-136.95411749377126,932
-134.44540171107985,868
-131.93737974411636,812
-129.43005140081357,807
-126.92341648902493,943
-124.41747481652521,1205
-121.91222619101006,1455
-119.40767042009657,1700
-116.90380731132257,1868
-114.40063667214702,1933
-111.8981583099503,1756
-109.3963720320337,1336
-106.89527764561933,1183
-104.39487495785067,1263
-101.89516377579241,1695
-99.39614390642998,2195
-96.89781515667039,2810
-94.40017733334128,2812
-91.90323024319173,2723
-89.40697369289148,2570
-86.91140748903172,2500
-84.41653143812482,2815
-81.92234534660395,2617
-79.42884902082358,2560
-76.93604226705907,2806
-74.4439248915071,3818
-71.95249670028534,5043
-69.46175749943245,6450
-66.97170709490854,7111
-64.48234529259423,6952
-61.99367189829195,7070
-59.50568671772464,6515
-57.01838955653636,5636
-54.53178022029283,5670
-52.045858514480074,6802
-49.560624244506016,8430
-47.07607721569923,8604
-44.59221723330904,8157
-42.10904410250669,7912
-39.62655762838392,6795
-37.14475761595372,6147
-34.66364387015028,6774
-32.18321619582866,7077
-29.70347439776515,7601
-27.224418280657005,8706
-24.74604764912317,9247
-22.26836230770266,9613
-19.7913620608565,14969
-17.315046712966478,24950
-14.83941606833514,33702
-12.36446993118659,43529
-9.89020810566592,65039
-7.416630395839093,65039
-4.94373660569363,65039
-2.471526539137585,65039
-6.821210263296962E-13,65039
2.47084320796705,65039
4.941003281093458,65039
7.410480415786196,65039
9.879274808531363,65039
12.347386655893956,65039
14.814816154518212,65039
17.28156350112681,65039
19.74762889252179,65039
22.21301252558385,21161
24.67771459727237,3911
27.141735304626195,2634
29.605074844762612,2228
32.06773341487792,1841
34.52971121224755,1653
36.99100843422559,1709
39.45162527824516,1546
41.91156194181792,1477
44.370818622535126,1260
46.82939551806646,1040
49.287292826160524,1042
51.74451074464503,1087
54.201049471426245,931
56.65690920448981,882
59.112090141899785,951
61.56659248179983,888
64.02041642241159,929
66.4735621620365,916
68.92602989905402,854
71.37781983192338,940
73.82893215918205,1021
76.27936707944684,1083
78.72912479141326,1100
81.17820549385567,1022
83.62660938562783,850
86.07433666566146,806
88.5213875329681,678
90.96776218663751,681
93.41346082583925,698
95.85848364982041,798
98.30283085790859,850
100.7465026495089,852
103.18949922410604,890
105.63182078126385,825
108.07346752062438,885
110.51443964190923,963
112.95473734491827,892
115.39436082953114,768
117.83331029570547,704
120.27158594347827,736
122.7091879729652,693
125.1461165843615,736
127.58237197794062,705
130.01795435405518,728
132.4528639131364,781
134.88710085569494,909
137.32066538231982,808
139.75355769367923,752
142.1857779905207,704
144.61732647366978,716
147.04820334403132,735
149.47840880258934,747
151.90794305040674,807
154.33680628862487,830
156.76499871846443,986
159.19252054122433,1185
161.61937195828352,1333
164.04555317109896,1430
166.47106438120693,1650
168.89590579022217,1716
171.320077599839,1812
173.7435800118302,1890
176.16641322804742,2047
178.58857745042144,2086
181.01007288096173,2157
183.43089972175687,2240
185.85105817497413,2254
188.27054844285988,2283
190.6893707277394,2196
193.10752523201643,2234
195.5250121581745,2318
197.9418317087751,2429
200.3579840864594,2480
202.7734694939469,2391
205.18828813403627,2383
207.6024402096051,2564
210.01592592360964,2509
212.42874547908548,2566
214.84089907914665,2534
217.2523869269868,2492
219.66320922587727,2493
222.0733661791695,2582
224.48285799029293,2516
226.8916848627572,2590
229.29984700014882,2647
231.7073446061355,2600
234.11417788446204,2613
236.520347038953,2694
238.92585227351185,2763
241.33069379212054,2800
243.73487179884035,2842
246.1383864978112,2872
248.541238093252,2941
250.9434267894609,2886
253.34495279081432,2981
255.74581630176783,2977
258.1460175268563,2992
260.54555667069314,3089
262.9444339379703,2997
265.3426495334594,2912
267.7402036620107,2938
270.1370965285529,2715
272.53332833809407,2636
274.9288992957214,2607
277.32380960660055,2518
279.718059475976,2496
282.1116491091717,2508
284.5045787115897,2479
286.89684848871195,2420
289.2884586460981,2404
291.67940938938807,2489
294.0697009242996,2428
296.4593334566299,2472
298.84830719225477,2416
301.23662233712923,2426
303.6242790972866,2389
306.01127767884,2346
308.39761828798066,2352
310.78330113097934,2317
313.16832641418534,2255
315.5526943440269,2235
317.9364051270112,2211
320.3194589697242,2148
322.70185607883093,2173
325.0835966610754,2195
327.4646809232805,2123
329.8451090723478,2112
332.2248813152577,2099
334.6039978590701,2151
336.9824589109231,2071
339.36026467803447,1996
341.7374153677,2032
344.113911187295,2100
346.48975234427337,2006
348.8649390461686,2070
351.2394715005918,2122
353.61334991523415,2012
355.9865744978655,1999
358.35914545633375,1978
360.73106299856715,2017
363.10232733257146,2051
365.47293866643247,1986
367.84289720831396,1993
370.2122031664593,2019
372.5808567491905,1994
374.9488581649083,2038
377.31620762209275,1953
379.6829053293021,1986
382.0489514951745,1940
384.4143463284262,1921
386.7790900378528,1917
389.14318283232853,1894
391.50662492080653,1940
393.86941651231916,1972
396.23155781597745,1941
398.5930490409713,1898
400.9538903965696,1924
403.3140820921202,1898
405.6736243370498,1869
408.03251734086336,1938
410.3907613131465,1894
412.74835646356166,1877
415.10530300185144,1874
417.4616011378372,1969
419.81725108141893,1845
422.1722530425758,1921
424.5266072313656,1867
426.880313857925,1855
429.2333731324701,1903
431.58578526529516,1869
433.9375504667738,1876
436.2886689473588,1784
438.63914091758113,1825
440.9889665880513,1820
443.33814616945835,1853
445.68667987257015,1767
448.03456790823395,1809
450.3818104873759,1813
452.72840782100013,1808
455.07436012019105,1827
457.41966759611057,1809
459.7643304600007,1852
462.10834892318155,1798
464.4517231970525,1802
466.79445349309174,1885
469.1365400228566,1861
471.4779829979826,1800
473.81878263018564,1770
476.15893913125876,1880
478.4984527130747,1861
480.8373235875855,1950
483.17555196682144,1927
485.5131380628919,1946
487.8500820879857,2013
490.1863842543697,2077
492.52204477439034,2222
494.8570638604725,2376
497.1914417251204,2495
499.52517858091653,2880
501.85827464052306,2985
504.19073011668036,3067
506.5225452222086,3163
508.85372017000566,3152
511.18425517304956,3101
513.514150444396,3196
515.8434061971808,3692
518.1720226446176,4627
520.4999999999999,4720
522.8273384766991,4477
525.1540382881666,3964
527.480099647932,3635
529.8055227696037,2960
532.1303078668694,2441
534.454455153496,2155
536.777964843328,2012
539.1008371502907,1944
541.4230722883866,1943
543.744670471698,1946
546.0656319143858,1923
548.3859568306899,1884
550.7056454349294,1871
553.0246979415016,1889
555.3431145648834,1872
557.6608955196306,1809
559.978041020377,1880
562.2945512818363,1930
564.6104265188006,1875
566.9256669461412,1898
569.2402727788082,1917
571.5542442318302,1863
573.8675815203156,1913
576.1802848594508,1898
578.4923544645015,1954
580.8037905508126,1899
583.114593333807,1862
585.4247630289875,1844
587.7342998519354,1939
590.0432040183106,1880
592.3514757438526,1946
594.6591152443794,1879
596.9661227357875,1924
599.2724984340531,1910
601.578242555231,1983
603.8833553154542,1930
606.1878369309362,1952
608.4916876179676,1910
610.7949075929192,1932
613.0974970722403,1913
615.3994562724587,1904
617.7007854101818,1948
620.0014847020951,1911
622.3015543649641,1912
624.6009946156324,1875
626.8998056710224,1935
629.1979877481361,1926
631.4955410640538,1944
633.7924658359349,2010
636.0887622810175,1967
638.3844306166192,2044
640.6794710601358,2040
642.9738838290426,2039
645.2676691408932,2014
647.5608272133207,1965
649.853358264037,1955
652.1452625108324,2016
654.4365401715764,2050
656.7271914642178,1901
659.0172166067838,2004
661.3066158173809,2077
663.5953893141935,1990
665.8835373154867,2026
668.1710600396028,1918
670.4579577049639,1945
672.7442305300709,2001
675.0298787335033,1958
677.3149025339197,1948
679.599302150058,1965
681.8830778007342,1943
684.1662297048437,1976
686.4487580813608,1989
688.7306631493387,1992
691.0119451279091,1940
693.2926042362834,1930
695.5726406937516,1994
697.8520547196814,1977
700.1308465335215,2001
702.4090163547982,1935
704.6865644031171,1959
706.9634908981619,1990
709.2397960596965,1961
711.5154801075631,1936
713.7905432616823,1998
716.0649857420548,1900
718.3388077687592,1885
720.612009561953,1990
722.8845913418733,1926
725.1565533288352,1964
727.427895743234,1898
729.6986188055427,1907
731.9687227363137,1916
734.238207756178,1988
736.5070740858458,1934
738.7753219461066,1913
741.0429515578281,1902
743.3099631419569,2009
745.5763569195191,1973
747.8421331116193,1924
750.1072919394409,1955
752.3718336242467,1983
754.6357583873777,1928
756.8990664502545,1918
759.1617580343765,1990
761.423833361321,1943
763.6852926527457,1979
765.9461361303862,1981
768.206364016058,1938
770.4659765316536,1926
772.7249738991469,2007
774.9833563405886,1976
777.2411240781092,1981
779.4982773339183,1935
781.7548163303044,1941
784.010741289634,1948
786.2660524343538,2032
788.5207499869881,1997
790.7748341701416,2051
793.0283052064964,1991
795.2811633188143,2010
797.5334087299362,1998
799.7850416627813,2028
802.0360623403484,2049
804.2864709857143,1995
806.5362678220353,1999
808.7854530725468,2032
811.0340269605625,1956
813.2819897094754,1967
815.5293415427581,2039
817.77608268396,1977
820.0222133567116,1998
822.2677337847211,1961
824.5126441917765,1973
826.7569448017433,2006
829.0006358385675,2030
831.2437175262731,1946
833.4861900889629,1960
835.7280537508192,1897
837.9693087361026,1931
840.2099552691533,1961
842.4499935743896,1975
844.689423876309,1983
846.9282463994886,1989
849.1664613685833,2036
851.4040690083276,1995
853.6410695435349,1964
855.877463199097,1935
858.1132501999847,1991
860.3484307712487,2022
862.5830051380175,2051
864.8169735254988,2002
867.0503361589791,1991
869.2830932638243,2008
871.5152450654786,2008
873.7467917894654,2104
875.9777336613873,2006
878.2080709069252,1992
880.4378037518389,2040
882.666932421968,2033
884.8954571432301,2047
887.1233781416219,1973
889.3506956432192,1988
891.5774098741766,1997
893.803521060728,1980
896.0290294291852,2035
898.2539352059397,2052
900.4782386174619,2017
902.7019398903011,2078
904.925039251085,2030
907.147536926521,2017
909.3694331433943,2074
911.59072812857,1972
913.8114221089921,1998
916.0315153116827,2027
918.2510079637437,1957
920.4699002923547,1984
922.6881925247761,1976
924.905884888345,1995
927.1229776104793,1973
929.3394709186747,2015
931.555365040506,1978
933.7706602036275,2041
935.9853566357709,1990
938.1994545647489,1981
940.4129542184515,2089
942.6258558248488,1981
944.8381596119883,2013
947.0498658079974,2035
949.2609746410825,2028
951.4714863395287,2055
953.6814011316998,2004
955.8907192460387,2015
958.0994409110671,1999
960.3075663553858,2048
962.5150958076741,2088
964.7220294966913,1991
966.928367651274,1922
969.1341105003388,1884
971.3392582728806,1927
973.5438111979742,1940
975.747769504772,1930
977.9511334225061,1890
980.153903180487,1909
982.3560790081052,1932
984.5576611348289,1928
986.7586497902058,1844
988.9590452038618,1875
991.158847605503,1845
993.3580572249133,1815
995.5566742919558,1855
997.7546990365728,1763
999.952131688785,1723
1002.1489724786926,1795
1004.3452216364743,1726
1006.5408793923874,1726
1008.7359459767691,1710
1010.9304216200343,1768
1013.1243065526781,1745
1015.3176010052733,1744
1017.510305208472,1717
1019.7024193930064,1728
1021.8939437896848,1628
1024.0848786293977,1704
1026.2752241431122,1665
1028.4649805618747,1711
1030.6541481168115,1634
1032.842727039127,1662
1035.0307175601051,1675
1037.2181199111074,1562
1039.4049343235752,1603
1041.591161029029,1579
1043.7768002590683,1672
1045.9618522453698,1565
1048.1463172196918,1685
1050.3301954138697,1664
1052.513487059818,1686
1054.69619238953,1659
1056.8783116350783,1673
1059.0598450286152,1585
1061.2407928023704,1634
1063.4211551886528,1637
1065.6009324198508,1649
1067.780124728432,1634
1069.9587323469414,1660
1072.1367555080046,1636
1074.314194444325,1612
1076.4910493886855,1578
1078.667320573947,1627
1080.843008233051,1586
1083.0181125990161,1614
1085.1926339049414,1523
1087.3665723840027,1567
1089.5399282694575,1572
1091.7127017946405,1583
1093.8848931929647,1554
1096.0565026979243,1580
1098.2275305430899,1495
1100.3979769621128,1528
1102.567842188722,1573
1104.737126456726,1589
1106.9058300000124,1558
1109.0739530525475,1523
1111.2414958483764,1556
1113.4084586216231,1542
1115.5748416064907,1533
1117.7406450372605,1551
1119.9058691482942,1540
1122.0705141740304,1552
1124.2345803489884,1458
1126.3980679077658,1561
1128.5609770850388,1552
1130.7233081155623,1513
1132.8850612341707,1563
1135.0462366757774,1543
1137.2068346753745,1489
1139.3668554680326,1477
1141.526299288901,1483
1143.68516637321,1521
1145.8434569562655,1555
1148.001171273455,1554
1150.158309560244,1510
1152.3148720521767,1513
1154.470858984876,1481
1156.626270594044,1468
1158.7811071154629,1444
1160.9353687849912,1539
1163.089055838569,1548
1165.242168512213,1488
1167.3947070420209,1482
1169.5466716641677,1523
1171.6980626149075,1487
1173.8488801305748,1540
1175.9991244475814,1506
1178.1487958024186,1480
1180.2978944316555,1497
1182.4464205719428,1460
1184.5943744600072,1432
1186.7417563326567,1452
1188.8885664267755,1463
1191.0348049793297,1510
1193.1804722273619,1454
1195.325568407995,1488
1197.4700937584303,1439
1199.614048515948,1507
1201.7574329179074,1487
1203.900247201746,1470
1206.042491604982,1543
1208.1841663652099,1519
1210.3252717201053,1539
1212.465807907422,1507
1214.6057751649923,1537
1216.7451737307279,1474
1218.8840038426192,1500
1221.0222657387353,1538
1223.1599596572241,1523
1225.2970858363137,1520
1227.4336445143094,1542
1229.5696359295966,1512
1231.705060320639,1557
1233.8399179259786,1580
1235.9742089842384,1594
1238.107933734118,1543
1240.2410924143974,1571
1242.373685263935,1575
1244.5057125216676,1524
1246.6371744266116,1582
1248.7680712178621,1498
1250.898403134593,1541
1253.028170416058,1538
1255.1573733015875,1551
1257.2860120305932,1585
1259.4140868425648,1556
1261.54159797707,1523
1263.6685456737569,1601
1265.7949301723515,1584
1267.9207517126597,1571
1270.046010534565,1595
1272.1707068780306,1569
1274.2948409830983,1558
1276.4184130898889,1626
1278.541423438603,1618
1280.6638722695184,1542
1282.785759822993,1582
1284.9070863394636,1644
1287.0278520594447,1630
1289.1480572235314,1691
1291.2677020723963,1631
1293.3867868467923,1681
1295.5053117875495,1688
1297.623277135579,1684
1299.740683131868,1631
1301.8575300174857,1649
1303.973818033578,1657
1306.0895474213703,1671
1308.2047184221678,1653
1310.3193312773528,1678
1312.4333862283888,1700
1314.5468835168163,1679
1316.659823384255,1727
1318.7722060724045,1715
1320.8840318230418,1725
1322.9953008780249,1686
1325.1060134792888,1720
1327.2161698688478,1734
1329.3257702887959,1621
1331.4348149813054,1705
1333.5433041886276,1709
1335.6512381530933,1674
1337.7586171171101,1736
1339.8654413231675,1680
1341.9717110138317,1651
1344.0774264317488,1687
1346.1825878196432,1680
1348.2871954203192,1677
1350.3912494766587,1689
1352.4947502316231,1735
1354.5976979282532,1722
1356.7000928096686,1647
1358.8019351190665,1650
1360.9032250997243,1669
1363.0039629949988,1722
1365.1041490483235,1655
1367.2037835032133,1705
1369.3028666032606,1683
1371.401398592137,1687
1373.4993797135926,1737
1375.5968102114575,1699
1377.6936903296396,1689
1379.7900203121262,1713
1381.8858004029835,1735
1383.9810308463561,1725
1386.075711886469,1738
1388.1698437676241,1701
1390.2634267342032,1679
1392.356461030667,1736
1394.4489469015557,1807
1396.5408845914872,1703
1398.6322743451592,1740
1400.7231164073469,1752
1402.813411022907,1744
1404.903158436773,1714
1406.9923588939578,1795
1409.0810126395531,1810
1411.1691199187303,1812
1413.2566809767386,1823
1415.343696058907,1785
1417.4301654106425,1848
1419.5160892774315,1826
1421.6014679048399,1894
1423.6863015385125,1946
1425.7705904241707,1907
1427.8543348076178,1896
1429.9375349347342,1851
1432.0201910514802,1893
1434.102303403894,1954
1436.1838722380944,1982
1438.2648978002767,1999
1440.3453803367174,2002
1442.4253200937692,2057
1444.5047173178677,2097
1446.5835722555234,2106
1448.6618851533285,2033
1450.739656257952,2130
1452.8168858161434,2143
1454.8935740747306,2190
1456.96972128062,2252
1459.045327680797,2296
1461.120393522327,2332
1463.1949190523528,2279
1465.2689045180973,2371
1467.3423501668608,2308
1469.415256246024,2374
1471.4876230030463,2454
1473.559450685465,2489
1475.6307395408976,2464
1477.7014898170391,2552
1479.771701761665,2625
1481.8413756226287,2593
1483.9105116478618,2695
1485.9791100853772,2673
1488.0471711832643,2792
1490.1146951896926,2814
1492.1816823529098,2777
1494.2481329212433,2817
1496.3140471430984,2898
1498.3794252669609,2848
1500.4442675413939,2831
1502.5085742150404,2928
1504.572345536622,3064
1506.6355817549388,2926
1508.6982831188702,3055
1510.7604498773744,3002
1512.8220822794883,2996
1514.8831805743293,3072
1516.9437450110909,3064
1519.003775839048,3109
1521.0632733075522,3125
1523.1222376660367,3106
1525.1806691640113,3160
1527.2385680510652,3298
1529.2959345768668,3308
1531.3527689911643,3218
1533.4090715437833,3269
1535.4648424846291,3382
1537.5200820636855,3351
1539.5747905310159,3500
1541.6289681367616,3516
1543.6826151311434,3610
1545.7357317644614,3509
1547.7883182870937,3575
1549.8403749494987,3655
1551.8919020022113,3670
1553.9428996958477,3774
1555.9933682811015,3916
1558.0433080087469,3735
1560.0927191296346,3931
1562.1416018946961,4024
1564.1899565549415,4087
1566.2377833614592,3995
1568.2850825654164,4088
1570.3318544180606,3893
1572.3780991707158,3976
1574.423817074788,3744
1576.4690083817595,3683
1578.5136733431923,3552
1580.5578122107272,3361
1582.601425236085,3101
1584.6445126710646,3066
1586.6870747675434,2964
1588.7291117774776,2852
1590.7706239529034,2664
1592.8116115459347,2514
1594.8520748087658,2458
1596.8920139936686,2388
1598.9314293529933,2350
1600.9703211391711,2281
1603.008689604711,2299
1605.0465350022005,2086
1607.0838575843068,2109
1609.1206576037753,2043
1611.1569353134305,2077
1613.1926909661765,1969
1615.2279248149953,1917
1617.2626371129481,1918
1619.2968281131757,1906
1621.3304980688963,1855
1623.3636472334088,1816
1625.39627586009,1817
1627.428384202396,1776
1629.459972513861,1794
1631.4910410480993,1765
1633.5215900588028,1703
1635.551619799744,1689
1637.5811305247717,1655
1639.6101224878166,1701
1641.6385959428862,1656
1643.6665511440683,1686
1645.693988345528,1683
1647.7209078015112,1658
1649.7473097663405,1649
1651.7731944944203,1625
1653.7985622402307,1587
1655.823413258333,1645
1657.847747803366,1586
1659.8715661300494,1592
1661.8948684931793,1657
1663.9176551476316,1650
1665.9399263483624,1613
1667.9616823504057,1635
1669.982923408873,1630
1672.0036497789574,1667
1674.0238617159293,1615
1676.043559475138,1569
1678.0627433120121,1648
1680.081413482059,1587
1682.0995702408654,1535
1684.117213844096,1605
1686.134344547495,1538
1688.1509626068864,1616
1690.1670682781705,1556
1692.182661817329,1617
1694.1977434804217,1652
1696.2123135235875,1547
1698.226372203043,1547
1700.2399197750851,1580
1702.2529564960905,1632
1704.2654826225112,1597
1706.277498410882,1591
1708.2890041178139,1568
1710.2999999999988,1594
1712.3104863142066,1577
1714.3204633172854,1500
1716.329931266163,1457
1718.3388904178469,1535
1720.3473410294214,1480
1722.3552833580516,1517
1724.3627176609807,1522
1726.3696441955308,1519
1728.3760632191033,1495
1730.3819749891782,1495
1732.3873797633146,1529
1734.3922777991502,1510
1736.3966693544012,1499
1738.4005546868639,1469
1740.4039340544127,1513
1742.406807715001,1495
1744.4091759266616,1478
1746.4110389475054,1519
1748.4123970357223,1477
1750.413250449582,1385
1752.4135994474318,1566
1754.4134442876993,1419
1756.4127852288902,1492
1758.4116225295893,1457
1760.4099564484595,1413
1762.407787244244,1487
1764.405115175764,1434
1766.4019405019203,1460
1768.3982634816916,1471
1770.3940843741357,1484
1772.3894034383907,1435
1774.3842209336717,1466
1776.378537119274,1382
1778.372352254571,1403
1780.3656665990156,1372
1782.3584804121397,1458
1784.3507939535534,1394
1786.3426074829463,1454
1788.3339212600863,1445
1790.3247355448211,1433
1792.3150505970766,1439
1794.3048666768573,1380
1796.2941840442477,1388
1798.2830029594106,1475
1800.2713236825884,1441
1802.2591464741004,1418
1804.2464715943465,1370
1806.2332993038058,1407
1808.2196298630352,1386
1810.2054635326708,1376
1812.190800573428,1443
1814.175641246101,1413
1816.1599858115628,1427
1818.1438345307652,1463
1820.127187664738,1423
1822.1100454745924,1440
1824.092408221516,1365
1826.0742761667766,1409
1828.055649571721,1383
1830.0365286977735,1367
1832.0169138064398,1391
1833.9968051593014,1458
1835.9762030180214,1422
1837.9551076443408,1369
1839.9335193000788,1365
1841.9114382471344,1412
1843.888864747485,1369
1845.8657990631878,1374
1847.842241456378,1419
1849.8181921892697,1393
1851.7936515241558,1307
1853.7686197234098,1359
1855.7430970494815,1385
1857.7170837649014,1392
1859.6905801322787,1343
1861.6635864143004,1368
1863.6361028737338,1377
1865.608129773424,1392
1867.5796673762961,1364
1869.5507159453537,1393
1871.521275743678,1412
1873.4913470344313,1415
1875.4609300808534,1410
1877.4300251462632,1405
1879.3986324940588,1435
1881.366752387717,1403
1883.3343850907936,1410
1885.3015308669228,1406
1887.268189979819,1401
1889.2343626932739,1457
1891.2000492711595,1484
1893.1652499774254,1452
1895.1299650761011,1486
1897.0941948312952,1451
1899.0579395071945,1440
1901.0211993680641,1468
1902.98397467825,1436
1904.9462657021745,1422
1906.9080727043415,1456
1908.869395949332,1457
1910.8302357018065,1446
1912.790592226504,1444
1914.7504657882428,1408
1916.7098566519212,1467
1918.6687650825133,1407
1920.6271913450764,1410
1922.5851357047422,1421
1924.5425984267245,1431
1926.499579776314,1413
1928.4560800188833,1438
1930.4120994198802,1397
1932.367638244833,1459
1934.32269675935,1398
1936.2772752291175,1390
1938.231373919899,1507
1940.1849930975404,1466
1942.1381330279637,1452
1944.0907939771696,1464
1946.0429762112412,1431
1947.9946799963363,1421
1949.9459055986945,1475
1951.896653284633,1458
1953.8469233205478,1443
1955.7967159729142,1500
1957.7460315082863,1431
1959.6948701932974,1405
1961.6432322946594,1423
1963.5911180791632,1452
1965.5385278136787,1440
1967.4854617651545,1418
1969.4319202006182,1406
1971.377903387176,1437
1973.3234115920136,1401
1975.268445082395,1408
1977.2130041256642,1390
1979.1570889892423,1443
1981.1006999406304,1410
1983.04383724741,1442
1984.986501177238,1352
1986.928691997853,1429
1988.8704099770712,1352
1990.811655382789,1364
1992.7524284829801,1378
1994.692729545698,1376
1996.6325588390755,1384
1998.5719166313224,1342
2000.5108031907307,1409
2002.4492187856677,1389
2004.387163684583,1425
2006.3246381560011,1414
2008.2616424685298,1372
2010.1981768908527,1410
2012.1342416917332,1381
2014.069837140014,1431
2016.0049635046162,1405
2017.9396210545406,1364
2019.8738100588666,1418
2021.8075307867502,1421
2023.740783507431,1333
2025.6735684902228,1360
2027.6058860045214,1387
2029.5377363198004,1380
2031.4691197056118,1358
2033.4000364315875,1398
2035.3304867674374,1384
2037.260470982952,1366
2039.189989347998,1343
2041.1190421325232,1379
2043.047629606554,1325
2044.9757520401945,1405
2046.9034097036288,1402
2048.8306028671195,1309
2050.7573318010086,1363
2052.683596775716,1353
2054.609398061742,1374
2056.5347359296647,1349
2058.4596106501403,1387
2060.384022493906,1335
2062.3079717317764,1395
2064.231458634646,1331
2066.1544834734873,1347
2068.077046519352,1375
2069.99914804337,1298
2071.9207883167524,1355
2073.8419676107865,1365
2075.7626861968406,1406
2077.6829443463607,1363
2079.6027423308715,1356
2081.522080421977,1363
2083.440958891362,1372
2085.359378010786,1388
2087.2773380520907,1359
2089.194839287196,1441
2091.111881988101,1371
2093.0284664268825,1373
2094.9445928756973,1388
2096.86026160678,1345
2098.775472892446,1379
2100.690227005088,1344
2102.604524217178,1419
2104.5183648012676,1384
2106.431749029985,1385
2108.34467717604,1373
2110.2571495122206,1436
2112.169166311393,1311
2114.080727846503,1382
2115.9918343905747,1403
2117.902486216711,1366
2119.8126835980956,1362
2121.722426807987,1390
2123.6317161197285,1449
2125.5405518067364,1301
2127.448934142509,1396
2129.356863400624,1384
2131.264339854737,1406
2133.1713637785815,1408
2135.077935445972,1325
2136.9840551308002,1391
2138.889723107037,1440
2140.7949396487334,1444
2142.699705030018,1431
2144.6040195250994,1412
2146.507883408264,1425
2148.4112969538774,1435
2150.3142604363848,1445
2152.2167741303097,1337
2154.1188383102535,1421
2156.0204532508997,1449
2157.9216192270064,1460
2159.822336513414,1445
2161.7226053850413,1406
2163.622426116884,1458
2165.5217989840185,1445
2167.4207242616,1392
2169.319202224862,1442
2171.2172331491165,1436
2173.1148173097563,1499
2175.0119549822507,1449
2176.90864644215,1420
2178.8048919650823,1430
2180.7006918267534,1465
2182.596046302952,1421
2184.4909556695407,1453
2186.3854202024645,1488
2188.279440177746,1464
2190.173015871487,1431
2192.066147559868,1388
2193.958835519149,1534
2195.851080025667,1459
2197.7428813558417,1460
2199.6342397861667,1446
2201.5251555932186,1378
2203.415629053651,1424
2205.3056604441986,1453
2207.19525004167,1523
2209.084398122958,1427
2210.9731049650327,1443
2212.861370844941,1468
2214.749196039812,1419
2216.636580826851,1453
2218.523525483344,1495
2220.410030286655,1465
2222.296095514226,1455
2224.1817214435805,1475
2226.066908352319,1445
2227.951656518121,1422
2229.835966218746,1482
2231.71983773203,1444
2233.6032713358913,1532
2235.486267308324,1451
2237.3688259274036,1466
2239.2509474712824,1442
2241.132632218193,1458
2243.013880446447,1545
2244.8946924344323,1488
2246.7750684606203,1482
2248.6550088035574,1457
2250.534513741871,1469
2252.413583554265,1507
2254.292218519526,1442
2256.170418916517,1424
2258.0481850241786,1500
2259.925517121534,1487
2261.8024154876825,1517
2263.678880401803,1446
2265.5549121431536,1502
2267.430510991071,1511
2269.305677224971,1430
2271.180411124348,1481
2273.0547129687766,1446
2274.9285830379076,1458
2276.8020216114737,1421
2278.6750289692845,1463
2280.5476053912294,1437
2282.4197511572766,1459
2284.2914665474727,1495
2286.162751841943,1458
2288.0336073208937,1499
2289.904033264608,1483
2291.774029953448,1475
2293.6435976678554,1483
2295.5127366883517,1458
2297.381447295534,1468
2299.2497297700825,1422
2301.1175843927526,1426
2302.9850114443825,1377
2304.852011205885,1342
2306.7185839582553,1341
2308.5847299825664,1336
2310.4504495599676,1331
2312.3157429716925,1362
2314.1806104990483,1343
2316.0450524234247,1285
2317.9090690262888,1304
2319.772660589186,1344
2321.635827393742,1345
2323.498569721661,1284
2325.3608878547248,1278
2327.2227820747967,1327
2329.0842526638157,1343
2330.945299903803,1324
2332.805924076857,1359
2334.6661254651535,1319
2336.525904350951,1299
2338.3852610165827,1375
2340.244195744464,1285
2342.102708817088,1355
2343.9608005170253,1330
2345.8184711269287,1350
2347.675720929526,1303
2349.532550207628,1337
2351.38895924412,1337
2353.24494832197,1336
2355.100517724223,1364
2356.955667734004,1344
2358.810398634514,1314
2360.664710709037,1277
2362.5186042409337,1298
2364.3720795136437,1316
2366.225136810686,1368
2368.0777764156583,1370
2369.929998612237,1341
2371.7818036841777,1327
2373.633191915315,1314
2375.484163589562,1343
2377.3347189909114,1360
2379.184858403434,1361
2381.03458211128,1335
2382.8838903986775,1329
2384.732783549936,1345
2386.5812618494406,1342
2388.4293255816588,1395
2390.2769750311327,1354
2392.1242104824883,1358
2393.971032220427,1313
2395.8174405297295,1353
2397.6634356952563,1369
2399.509018001947,1377
2401.3541877348193,1356
2403.1989451789705,1400
2405.043290619576,1356
2406.8872243418905,1334
2408.730746631247,1357
2410.5738577730594,1421
2412.4165580528183,1324
2414.258847756095,1323
2416.100727168537,1406
2417.9421965758734,1462
2419.783256263912,1307
2421.623906518538,1308
2423.4641476257157,1346
2425.303979871491,1428
2427.143403541984,1397
2428.9824189233977,1374
2430.821026302012,1347
2432.6592259641866,1332
2434.497018196361,1393
2436.33440328505,1339
2438.171381516851,1411
2440.00795317844,1333
2441.844118556569,1370
2443.6798779380724,1382
2445.5152316098606,1423
2447.3501798589255,1414
2449.1847229723357,1453
2451.0188612372403,1337
2452.8525949408663,1339
2454.6859243705203,1404
2456.518849813587,1355
2458.3513715575314,1385
2460.183489889895,1340
2462.015205098301,1395
2463.8465174704493,1382
2465.67742729412,1394
2467.5079348571717,1373
2469.338040447542,1364
2471.1677443532476,1390
2472.9970468623833,1396
2474.825948263123,1415
2476.6544488437207,1396
2478.482548892508,1379
2480.310248697896,1370
2482.137548548374,1404
2483.9644487325118,1388
2485.790949538956,1351
2487.617051256433,1412
2489.44275417375,1438
2491.26805857979,1411
2493.0929647635157,1421
2494.917473013971,1399
2496.741583620276,1406
2498.5652968716304,1447
2500.3886130573137,1419
2502.2115324666834,1421
2504.0340553891765,1445
2505.856182114308,1411
2507.6779129316733,1431
2509.499248130945,1461
2511.3201880018764,1398
2513.140732834298,1431
2514.9608829181198,1511
2516.780638543331,1488
2518.6,1480
2520.418967578273,1498
2522.237541568376,1494
2524.0557222606144,1488
2525.8735099453706,1469
2527.6909049131086,1481
2529.507907454368,1496
2531.32451785977,1455
2533.140736420014,1550
2534.9565634258774,1520
2536.771999168218,1556
2538.5870439379714,1534
2540.4016980261526,1575
2542.2159617238544,1562
2544.02983532225,1508
2545.8433191125914,1582
2547.656413386209,1607
2549.4691184345115,1557
2551.2814345489874,1585
2553.093362021204,1593
2554.904901142808,1534
2556.716052205523,1606
2558.526815501153,1640
2560.3371913215824,1683
2562.147179958771,1648
2563.956781704761,1687
2565.7659968516705,1688
2567.5748256916986,1703
2569.3832685171224,1705
2571.1913256202984,1774
2572.9989972936614,1681
2574.806283829725,1715
2576.613185521084,1747
2578.4197026604074,1757
2580.2258355404483,1770
2582.031584454035,1708
2583.836949694077,1787
2585.6419315535613,1734
2587.4465303255533,1788
2589.2507463032002,1757
2591.0545797797245,1827
2592.8580310484303,1799
2594.6611004026995,1741
2596.463788135992,1744
2598.266094541849,1831
2600.0680199138874,1755
2601.869564545807,1832
2603.670728731383,1795
2605.4715127644704,1814
2607.2719169390048,1790
2609.071941548998,1778
2610.8715868885433,1761
2612.670853251811,1756
2614.469740933052,1788
2616.268250226594,1837
2618.0663814268455,1743
2619.864134828292,1758
2621.6615107255006,1751
2623.458509413115,1725
2625.2551311858597,1683
2627.0513763385347,1698
2628.8472451660223,1728
2630.6427379632833,1772
2632.4378550253564,1826
2634.232596647359,1713
2636.026963124488,1652
2637.8209547520187,1734
2639.6145718253065,1640
2641.407814639785,1657
2643.200683490966,1665
2644.9931786744414,1611
2646.7853004858807,1674
2648.577049221034,1600
2650.3684251757277,1609
2652.1594286458712,1539
2653.9500599274484,1577
2655.740319316525,1573
2657.5302071092437,1583
2659.3197236018286,1537
2661.10886909058,1530
2662.8976438718782,1555
2664.686048242183,1548
2666.4740824980327,1430
2668.2617469360443,1551
2670.0490418529134,1477
2671.8359675454153,1502
2673.622524310403,1466
2675.408712444811,1495
2677.1945322456495,1447
2678.979984010009,1427
2680.76506803506,1454
2682.5497846180497,1453
2684.334134056306,1459
2686.1181166472343,1453
2687.9017326883213,1477
2689.6849824771293,1439
2691.4678663113013,1382
2693.2503844885596,1385
2695.032537306705,1391
2696.8143250636167,1375
2698.5957480572542,1394
2700.3768065856534,1429
2702.1575009469316,1346
2703.937831439283,1401
2705.717798360982,1407
2707.4974020103837,1358
2709.276642685917,1309
2711.055520686095,1401
2712.834036309506,1328
2714.612189854819,1356
2716.389981620782,1374
2718.1674119062204,1373
2719.944481010041,1288
2721.721189231226,1357
2723.4975368688415,1367
2725.273524222027,1353
2727.0491515900053,1358
2728.824419272075,1395
2730.5993275676146,1310
2732.3738767760838,1325
2734.148067197016,1345
2735.921899130031,1341
2737.6953728748194,1307
2739.468488731156,1341
2741.2412469988926,1293
2743.0136479779617,1317
2744.785691968372,1325
2746.5573792702116,1287
2748.3287101836504,1316
2750.099685008934,1325
2751.870304046388,1340
2753.640567596418,1316
2755.4104759595057,1318
2757.1800294362156,1407
2758.949228327187,1273
2760.7180729331412,1277
2762.486563554877,1298
2764.254700493272,1323
2766.022484049284,1280
2767.789914523947,1322
2769.5569922183786,1383
2771.3237174337705,1270
2773.090090471394,1296
2774.8561116326036,1339
2776.6217812188274,1332
2778.3870995315756,1315
2780.1520668724356,1273
2781.9166835430747,1312
2783.6809498452394,1318
2785.444866080754,1307
2787.2084325515225,1296
2788.971649559527,1323
2790.73451740683,1297
2792.4970363955713,1331
2794.2592068279705,1292
2796.0210290063264,1298
2797.7825032330147,1294
2799.543629810493,1315
2801.304409041296,1270
2803.0648412280366,1328
2804.8249266734088,1259
2806.5846656801846,1280
2808.344058551212,1280
2810.1031055894246,1304
2811.8618070978273,1308
2813.6201633795085,1322
2815.378174737636,1300
2817.1358414754536,1293
2818.893163896285,1336
2820.6501423035334,1342
2822.4067770006814,1315
2824.1630682912883,1288
2825.9190164789957,1296
2827.6746218675207,1315
2829.429884760661,1306
2831.184805462294,1336
2832.9393842763743,1289
2834.693621506936,1276
2836.4475174580916,1343
2838.201072434034,1325
2839.954286739034,1378
2841.707160677441,1316
2843.459694553685,1262
2845.2118886722724,1292
2846.96374333779,1290
2848.7152588549034,1288
2850.4664355283567,1301
2852.217273662973,1301
2853.9677735636546,1285
2855.7179355353833,1316
2857.4677598832186,1259
2859.217246912299,1250
2860.9663969278427,1307
2862.715210235146,1263
2864.4636871395846,1263
2866.211827946614,1324
2867.9596329617652,1292
2869.7071024906536,1283
2871.4542368389684,1236
2873.20103631248,1298
2874.947501217038,1332
2876.6936318585695,1329
2878.4394285430812,1277
2880.1848915766604,1334
2881.9300212654707,1300
2883.6748179157553,1287
2885.4192818338374,1275
2887.1634133261173,1271
2888.907212699077,1243
2890.6506802592744,1247
2892.393816313348,1308
2894.1366211680142,1300
2895.8790951300693,1287
2897.621238506388,1293
2899.363051603925,1304
2901.1045347297118,1303
2902.8456881908596,1333
2904.58651229456,1319
2906.327007348081,1267
2908.067173658772,1320
2909.8070115340597,1257
2911.5465212814497,1262
2913.285703208527,1291
2915.0245576229563,1281
2916.7630848324807,1307
2918.5012851449196,1222
2920.2391588681758,1256
2921.976706310227,1280
2923.7139277791334,1272
2925.4508235830313,1294
2927.187394030137,1342
2928.923639428745,1318
2930.6595600872306,1319
2932.395156314046,1304
2934.1304284177218,1327
2935.8653767068713,1307
2937.6000014901815,1303
2939.3343030764227,1292
2941.068281774442,1265
2942.8019378931644,1289
2944.5352717415976,1270
2946.2682836288236,1292
2948.0009738640065,1265
2949.7333427563885,1274
2951.465390615289,1251
2953.1971177501086,1304
2954.9285244703265,1254
2956.6596110855,1290
2958.3903779052657,1228
2960.1208252393385,1313
2961.8509533975125,1278
2963.5807626896617,1326
2965.3102534257378,1297
2967.0394259157715,1305
2968.768280469873,1290
2970.496817398232,1311
2972.2250370111146,1285
2973.952939618869,1242
2975.6805255319196,1263
2977.4077950607707,1310
2979.134748516006,1303
2980.861386208289,1320
2982.587708448359,1252
2984.313715547037,1304
2986.039407815222,1289
2987.764785563891,1265
2989.489849104102,1297
2991.2145987469908,1325
2992.9390348037705,1249
2994.6631575857346,1279
2996.3869674042576,1364
2998.1104645707887,1328
2999.83364939686,1275
3001.5565221940783,1344
3003.2790832741334,1272
3005.0013329487924,1255
3006.7232715298996,1264
3008.4448993293804,1319
3010.166216659239,1245
3011.887223831558,1205
3013.607921158498,1338
3015.3283089522993,1306
3017.0483875252826,1284
3018.7681571898443,1262
3020.4876182584626,1280
3022.2067710436927,1317
3023.9256158581707,1311
3025.644153014609,1299
3027.362382825801,1266
3029.0803056046193,1298
3030.797921664012,1235
3032.5152313170106,1268
3034.2322348767225,1315
3035.9489326563353,1321
3037.665324969115,1282
3039.3814121284063,1344
3041.097194447633,1221
3042.812672240299,1294
3044.5278458199855,1314
3046.2427155003525,1293
3047.9572815951406,1312
3049.671544418167,1252
3051.38550428333,1266
3053.0991615046073,1265
3054.812516396051,1277
3056.5255692717974,1267
3058.2383204460575,1318
3059.9507702331257,1330
3061.662918947372,1319
3063.3747669032446,1322
3065.0863144152736,1258
3066.7975617980674,1316
3068.508509366309,1322
3070.219157434767,1315
3071.9295063182844,1323
3073.639556331785,1284
3075.3493077902704,1290
3077.058761008821,1274
3078.7679163025964,1346
3080.476773986837,1267
3082.1853343768594,1275
3083.89359778806,1341
3085.6015645359153,1321
3087.3092349359786,1303
3089.016609303884,1288
3090.7236879553434,1322
3092.4304712061476,1276
3094.136959372166,1314
3095.843152769349,1323
3097.5490517137237,1327
3099.2546565213966,1289
3100.959967508554,1385
3102.66498499146,1294
3104.3697092864577,1296
3106.0741407099695,1299
3107.778279578498,1278
3109.482126208622,1293
3111.1856809170004,1342
3112.8889440203716,1291
3114.5919158355528,1303
3116.294596679439,1306
3117.996986869006,1297
3119.6990867213062,1348
3121.4008965534726,1311
3123.102416682717,1333
3124.803647426329,1284
3126.5045891016784,1303
3128.205242026213,1262
3129.90560651746,1333
3131.605682893025,1367
3133.3054714705922,1291
3135.0049725679282,1350
3136.7041865028714,1262
3138.4031135933465,1311
3140.101754157353,1306
3141.800108512971,1292
3143.498176978357,1301
3145.1959598717494,1305
3146.8934575114636,1305
3148.5906702158954,1313
3150.2875983035183,1252
3151.9842420928853,1276
3153.680601902627,1275
3155.376678051456,1296
3157.07247085816,1306
3158.767980641609,1249
3160.463207720748,1307
3162.158152414606,1303
3163.8528150422862,1291
3165.5471959229726,1282
3167.2412953759303,1308
3168.9351137204976,1279
3170.628651276098,1302
3172.3219083622307,1248
3174.014885298474,1275
3175.707582404485,1287
3177.4000000000005,1312
3179.092138404835,1291
3180.7839979388846,1302
3182.47557892212,1212
3184.166881674594,1296
3185.8579065164386,1341
3187.5486537678626,1232
3189.2391237491547,1281
3190.9293167806827,1323
3192.6192331828934,1230
3194.3088732763117,1246
3195.998237381542,1320
3197.687325819268,1300
3199.376138910251,1272
3201.064676975334,1292
3202.7529403354347,1285
3204.4409293115523,1275
3206.1286442247647,1248
3207.816085396229,1298
3209.5032531471825,1271
3211.190147798936,1238
3212.8767696728846,1275
3214.5631190905015,1267
3216.2491963733373,1281
3217.9350018430214,1269
3219.6205358212637,1248
3221.305798629851,1253
3222.990790590651,1254
3224.6755120256103,1234
3226.359963256751,1232
3228.0441446061795,1239
3229.7280563960758,1251
3231.411698948703,1273
3233.0950725863995,1228
3234.778177631587,1248
3236.461014406761,1272
3238.1435832345005,1277
3239.8258844374595,1323
3241.507918338374,1296
3243.1896852600576,1265
3244.8711855254023,1236
3246.552419457381,1308
3248.233387379042,1314
3249.914089613516,1269
3251.59452648401,1280
3253.274698313813,1227
3254.95460542629,1232
3256.6342481448855,1278
3258.313626793125,1221
3259.9927416946084,1195
3261.6715931730196,1208
3263.3501815521176,1231
3265.0285071557437,1195
3266.706570307815,1212
3268.3843713323286,1222
3270.0619105533615,1257
3271.739188295068,1239
3273.4162048816834,1235
3275.0929606375184,1293
3276.769455886966,1231
3278.445690954498,1277
3280.1216661646613,1288
3281.797381842087,1255
3283.4728383114807,1258
3285.1480358976296,1262
3286.8229749253996,1311
3288.4976557197333,1252
3290.172078605655,1240
3291.846243908266,1257
3293.5201519527463,1235
3295.193803064357,1249
3296.8671975684374,1274
3298.5403357904024,1273
3300.21321805575,1257
3301.8858446900567,1248
3303.558216018975,1248
3305.23033236824,1239
3306.9021940636603,1279
3308.57380143113,1267
3310.2451547966184,1260
3311.916254486174,1287
3313.5871008259246,1258
3315.2576941420766,1220
3316.9280347609147,1278
3318.5981230088046,1252
3320.2679592121895,1306
3321.9375436975924,1258
3323.606876791612,1256
3325.27595882093,1215
3326.944790112305,1268
3328.6133709925753,1254
3330.2817017886573,1244
3331.949782827547,1231
3333.617614436319,1246
3335.2851969421245,1200
3336.952530672199,1218
3338.619615953853,1229
3340.286453114475,1210
3341.9530424815357,1253
3343.619384382583,1266
3345.2854791452437,1252
3346.951327097224,1253
3348.6169285663073,1287
3350.2822838803577,1295
3351.947393367319,1339
3353.61225735521,1253
3355.2768761721345,1233
3356.9412501462693,1270
3358.605379605873,1251
3360.2692648792827,1251
3361.9329062949146,1295
3363.596304181263,1259
