CollectionTime,7/9/2024 1:31:15 PM
ExposureUsed,3
CalibratedSpectrum
-962.7078968117929,867
-959.9714848408522,888
-957.2358232597828,926
-954.5009119013725,943
-951.7667505983302,910
-949.0333391832855,951
-946.3006774887896,889
-943.5687653473143,892
-940.837602591253,928
-938.1071890529199,956
-935.3775245645503,918
-932.6486089583007,934
-929.9204420662485,945
-927.1930237203925,938
-924.4663537526524,893
-921.7404319948689,972
-919.0152582788041,966
-916.2908324361409,987
-913.5671542984834,961
-910.8442236973568,919
-908.1220404642074,926
-905.4006044304027,981
-902.679915427231,960
-899.959973285902,938
-897.2407778375464,909
-894.5223289132158,937
-891.8046263438832,974
-889.0876699604426,887
-886.3714595937089,915
-883.6559950744183,980
-880.9412762332282,938
-878.2273029007168,986
-875.5140749073835,926
-872.8015920836489,947
-870.0898542598545,943
-867.3788612662631,949
-864.6686129330585,924
-861.9591090903457,950
-859.2503495681506,952
-856.5423341964203,963
-853.8350628050229,972
-851.1285352237478,966
-848.4227512823054,997
-845.7177108103272,963
-843.0134136373656,952
-840.3098595928943,975
-837.6070485063082,997
-834.9049802069229,992
-832.2036545239757,980
-829.5030712866244,979
-826.8032303239481,959
-824.1041314649472,958
-821.4057745385428,951
-818.7081593735775,989
-816.0112857988148,1027
-813.3151536429393,987
-810.6197627345566,1000
-807.9251129021936,1001
-805.2312039742981,1001
-802.5380357792392,982
-799.8456081453069,1021
-797.1539209007124,1036
-794.462973873588,984
-791.772766891987,1001
-789.083299783884,1019
-786.3945723771743,1003
-783.7065844996748,993
-781.0193359791231,1005
-778.3328266431781,1018
-775.6470563194197,994
-772.9620248353489,977
-770.2777320183878,1016
-767.5941776958798,975
-764.9113616950891,1019
-762.2292838432011,1051
-759.5479439673222,1026
-756.8673418944801,986
-754.1874774516235,1038
-751.5083504656222,999
-748.8299607632671,1039
-746.15230817127,1073
-743.475392516264,1016
-740.7992136248035,1092
-738.1237713233636,1074
-735.4490654383407,1081
-732.7750957960521,1016
-730.1018622227365,1059
-727.4293645445534,1022
-724.7576025875837,1044
-722.0865761778291,1050
-719.4162851412126,1105
-716.7467293035781,1107
-714.0779084906909,1097
-711.409822528237,1049
-708.7424712418238,1042
-706.0758544569796,1073
-703.4099719991541,1103
-700.7448236937178,1117
-698.0804093659622,1159
-695.4167288411002,1119
-692.7537819442656,1083
-690.0915685005134,1106
-687.4300883348199,1098
-684.7693412720819,1091
-682.1093271371178,1120
-679.4500457546669,1132
-676.7914969493897,1143
-674.1336805458676,1140
-671.4765963686034,1117
-668.8202442420206,1146
-666.1646239904642,1156
-663.5097354382001,1174
-660.8555784094151,1128
-658.2021527282176,1121
-655.5494582186366,1165
-652.8974947046223,1192
-650.2462620100463,1149
-647.5957599587009,1159
-644.9459883742998,1144
-642.2969470804776,1119
-639.6486359007902,1226
-637.0010546587141,1166
-634.3542031776476,1237
-631.7080812809096,1251
-629.0626887917401,1214
-626.4180255333008,1175
-623.7740913286734,1200
-621.1308860008619,1183
-618.4884093727904,1202
-615.8466612673046,1187
-613.2056415071715,1201
-610.5653499150785,1206
-607.9257863136347,1206
-605.28695052537,1176
-602.6488423727357,1177
-600.0114616781036,1207
-597.3748082637674,1195
-594.7388819519412,1133
-592.1036825647604,1158
-589.4692099242818,1235
-586.8354638524829,1229
-584.2024441712624,1201
-581.5701507024403,1242
-578.9385832677575,1248
-576.3077416888759,1294
-573.6776257873787,1214
-571.0482353847704,1186
-568.4195703024757,1231
-565.7916303618415,1213
-563.164415384135,1198
-560.5379251905453,1252
-557.9121596021815,1216
-555.2871184400748,1207
-552.6628015251767,1219
-550.0392086783606,1256
-547.4163397204204,1292
-544.794194472071,1263
-542.1727727539491,1305
-539.5520743866118,1266
-536.9320991905377,1259
-534.3128469861261,1319
-531.6943175936979,1322
-529.0765108334947,1359
-526.4594265256793,1323
-523.8430644903358,1422
-521.2274245474689,1563
-518.612506517005,1670
-515.9983102187913,1624
-513.3848354725959,1597
-510.77208209810846,1666
-508.16004991493924,1727
-505.5487387426199,1837
-502.9381484006032,1860
-500.3282787082628,1881
-497.71912948489364,1808
-495.1107005497117,1748
-492.5029917218539,1668
-489.8960028203786,1519
-487.28973366426493,1460
-484.68418407241325,1430
-482.07935386364494,1468
-479.47524285670266,1433
-476.87185087025,1427
-474.2691777228715,1391
-471.66722323307334,1431
-469.0659872192821,1497
-466.4654694998459,1390
-463.86566989303384,1395
-461.26658821703614,1438
-458.66822428996414,1461
-456.07057792985,1463
-453.4736489546475,1420
-450.877437182231,1477
-448.28194243039627,1451
-445.68716451686,1381
-443.09310325926003,1417
-440.49975847515555,1431
-437.9071299820263,1396
-435.31521759727354,1452
-432.72402113821954,1442
-430.13354042210767,1456
-427.5437752661022,1390
-424.95472548728867,1435
-422.36639090267386,1404
-419.7787713291855,1493
-417.1918665836721,1496
-414.60567648290385,1457
-412.0202008435715,1473
-409.4354394822874,1492
-406.8513922155845,1533
-404.26805885991723,1616
-401.685439231661,1495
-399.103533147112,1494
-396.522340422488,1557
-393.9418608739278,1488
-391.3620943174908,1468
-388.7830405691583,1408
-386.2046994448317,1383
-383.6270707603344,1325
-381.05015433141045,1184
-378.473949973725,1102
-375.8984575028645,1026
-373.32367673433623,933
-370.74960748356875,899
-368.1762495659117,820
-365.60360279663576,685
-363.03166699093265,617
-360.4604419639154,544
-357.8899275306178,532
-355.32012350599507,496
-352.7510297049233,466
-350.1826459421999,455
-347.61497203254316,456
-345.04800779059235,459
-342.4817530309082,433
-339.91620756797226,462
-337.35137121618743,467
-334.7872437898774,465
-332.22382510328725,484
-329.66111497058273,481
-327.09911320585127,447
-324.53781962310075,476
-321.9772340362607,439
-319.4173562591816,446
-316.8581861056348,443
-314.2997233893127,439
-311.7419679238294,446
-309.1849195227194,450
-306.62857799943856,464
-304.0729431673641,479
-301.51801483979375,476
-298.963792829947,454
-296.41027695096386,484
-293.85746701590574,498
-291.3053628377552,502
-288.7539642294155,449
-286.2032710037115,495
-283.65328297338897,487
-281.1039999511146,494
-278.5554217494762,513
-276.007548180983,504
-273.4603790580651,466
-270.9139141930734,462
-268.3681533982807,511
-265.8230964858798,498
-263.27874326798565,514
-260.7350935566336,508
-258.1921471637804,537
-255.6499039013039,569
-253.10836358100266,541
-250.56752601459698,563
-248.02739101372765,555
-245.48795838995704,625
-242.94922795476816,588
-240.41119951956557,565
-237.8738728956746,590
-235.33724789434166,642
-232.80132432673452,589
-230.2661020039418,549
-227.73158073697357,597
-225.19776033676033,619
-222.66464061415422,615
-220.1322213799284,603
-217.60050244477725,575
-215.06948361931552,541
-212.53916471408013,586
-210.00954553952818,639
-207.48062590603843,622
-204.9524056239104,647
-202.4248845033651,662
-199.8980623545441,649
-197.37193898751036,623
-194.84651421224817,606
-192.32178783866232,631
-189.79775967657952,638
-187.27442953574644,694
-184.7517972258321,692
-182.2298625564256,705
-179.7086253370378,689
-177.18808537710026,647
-174.66824248596583,648
-172.14909647290835,659
-169.6306471471229,679
-167.11289431772548,686
-164.59583779375328,643
-162.07947738416453,661
-159.5638128978386,760
-157.04884414357605,899
-154.53457093009854,974
-152.02099306604828,883
-149.50811035998936,719
-146.99592262040665,708
-144.48442965570587,751
-141.97363127421409,823
-139.46352728417958,877
-136.95411749377126,1006
-134.44540171107985,1021
-131.93737974411636,882
-129.43005140081357,823
-126.92341648902493,1121
-124.41747481652521,1494
-121.91222619101006,1803
-119.40767042009657,1791
-116.90380731132257,1777
-114.40063667214702,1828
-111.8981583099503,2277
-109.3963720320337,2817
-106.89527764561933,3557
-104.39487495785067,4046
-101.89516377579241,3843
-99.39614390642998,3514
-96.89781515667039,4325
-94.40017733334128,6395
-91.90323024319173,8658
-89.40697369289148,9784
-86.91140748903172,7901
-84.41653143812482,5006
-81.92234534660395,3134
-79.42884902082358,3059
-76.93604226705907,5431
-74.4439248915071,7472
-71.95249670028534,8498
-69.46175749943245,9182
-66.97170709490854,8330
-64.48234529259423,7557
-61.99367189829195,6991
-59.50568671772464,6042
-57.01838955653636,5014
-54.53178022029283,4825
-52.045858514480074,5085
-49.560624244506016,5416
-47.07607721569923,5008
-44.59221723330904,4859
-42.10904410250669,5166
-39.62655762838392,4689
-37.14475761595372,3973
-34.66364387015028,4743
-32.18321619582866,5625
-29.70347439776515,6422
-27.224418280657005,7094
-24.74604764912317,8277
-22.26836230770266,10882
-19.7913620608565,19474
-17.315046712966478,32632
-14.83941606833514,41502
-12.36446993118659,56798
-9.89020810566592,65039
-7.416630395839093,65039
-4.94373660569363,65039
-2.471526539137585,65039
-6.821210263296962E-13,65039
2.47084320796705,65039
4.941003281093458,65039
7.410480415786196,65039
9.879274808531363,65039
12.347386655893956,65039
14.814816154518212,65039
17.28156350112681,65039
19.74762889252179,65039
22.21301252558385,20947
24.67771459727237,4122
27.141735304626195,2500
29.605074844762612,2074
32.06773341487792,1819
34.52971121224755,1560
36.99100843422559,1354
39.45162527824516,1458
41.91156194181792,1493
44.370818622535126,1403
46.82939551806646,1154
49.287292826160524,1179
51.74451074464503,1303
54.201049471426245,1207
56.65690920448981,1119
59.112090141899785,931
61.56659248179983,985
64.02041642241159,982
66.4735621620365,931
68.92602989905402,930
71.37781983192338,1059
73.82893215918205,1134
76.27936707944684,1062
78.72912479141326,1012
81.17820549385567,1008
83.62660938562783,872
86.07433666566146,858
88.5213875329681,776
90.96776218663751,795
93.41346082583925,859
95.85848364982041,866
98.30283085790859,971
100.7465026495089,927
103.18949922410604,944
105.63182078126385,860
108.07346752062438,812
110.51443964190923,899
112.95473734491827,898
115.39436082953114,849
117.83331029570547,745
120.27158594347827,716
122.7091879729652,715
125.1461165843615,788
127.58237197794062,787
130.01795435405518,735
132.4528639131364,771
134.88710085569494,868
137.32066538231982,888
139.75355769367923,847
142.1857779905207,856
144.61732647366978,788
147.04820334403132,764
149.47840880258934,824
151.90794305040674,914
154.33680628862487,1039
156.76499871846443,1224
159.19252054122433,1281
161.61937195828352,1449
164.04555317109896,1631
166.47106438120693,1854
168.89590579022217,2072
171.320077599839,2139
173.7435800118302,2295
176.16641322804742,2456
178.58857745042144,2621
181.01007288096173,2744
183.43089972175687,2749
185.85105817497413,2795
188.27054844285988,2896
190.6893707277394,2920
193.10752523201643,3098
195.5250121581745,3087
197.9418317087751,3269
200.3579840864594,3197
202.7734694939469,3181
205.18828813403627,3312
207.6024402096051,3314
210.01592592360964,3384
212.42874547908548,3376
214.84089907914665,3336
217.2523869269868,3380
219.66320922587727,3424
222.0733661791695,3382
224.48285799029293,3388
226.8916848627572,3425
229.29984700014882,3470
231.7073446061355,3622
234.11417788446204,3477
236.520347038953,3608
238.92585227351185,3586
241.33069379212054,3698
243.73487179884035,3796
246.1383864978112,3875
248.541238093252,3860
250.9434267894609,3802
253.34495279081432,3891
255.74581630176783,3916
258.1460175268563,4008
260.54555667069314,3883
262.9444339379703,3864
265.3426495334594,3903
267.7402036620107,3770
270.1370965285529,3750
272.53332833809407,3533
274.9288992957214,3596
277.32380960660055,3464
279.718059475976,3472
282.1116491091717,3347
284.5045787115897,3300
286.89684848871195,3298
289.2884586460981,3348
291.67940938938807,3390
294.0697009242996,3409
296.4593334566299,3420
298.84830719225477,3393
301.23662233712923,3278
303.6242790972866,3364
306.01127767884,3275
308.39761828798066,3346
310.78330113097934,3250
313.16832641418534,3228
315.5526943440269,3205
317.9364051270112,3224
320.3194589697242,3066
322.70185607883093,3187
325.0835966610754,3096
327.4646809232805,3175
329.8451090723478,3139
332.2248813152577,3079
334.6039978590701,3061
336.9824589109231,3104
339.36026467803447,3053
341.7374153677,3135
344.113911187295,3061
346.48975234427337,3054
348.8649390461686,2999
351.2394715005918,3057
353.61334991523415,3065
355.9865744978655,3069
358.35914545633375,3003
360.73106299856715,3036
363.10232733257146,2987
365.47293866643247,2932
367.84289720831396,2958
370.2122031664593,2972
372.5808567491905,2944
374.9488581649083,3010
377.31620762209275,2998
379.6829053293021,2965
382.0489514951745,2894
384.4143463284262,2981
386.7790900378528,2885
389.14318283232853,2935
391.50662492080653,3024
393.86941651231916,2955
396.23155781597745,2855
398.5930490409713,2972
400.9538903965696,2908
403.3140820921202,2893
405.6736243370498,2927
408.03251734086336,2929
410.3907613131465,2866
412.74835646356166,2951
415.10530300185144,2880
417.4616011378372,2960
419.81725108141893,2901
422.1722530425758,2939
424.5266072313656,2936
426.880313857925,2940
429.2333731324701,2886
431.58578526529516,2861
433.9375504667738,2955
436.2886689473588,2984
438.63914091758113,2930
440.9889665880513,2913
443.33814616945835,2856
445.68667987257015,2792
448.03456790823395,2859
450.3818104873759,2840
452.72840782100013,2827
455.07436012019105,2765
457.41966759611057,2864
459.7643304600007,2901
462.10834892318155,2915
464.4517231970525,2968
466.79445349309174,2886
469.1365400228566,2849
471.4779829979826,2881
473.81878263018564,2948
476.15893913125876,2891
478.4984527130747,2949
480.8373235875855,2990
483.17555196682144,3022
485.5131380628919,2993
487.8500820879857,2959
490.1863842543697,3120
492.52204477439034,3178
494.8570638604725,3356
497.1914417251204,3488
499.52517858091653,3704
501.85827464052306,3992
504.19073011668036,4147
506.5225452222086,4121
508.85372017000566,4138
511.18425517304956,4264
513.514150444396,4253
515.8434061971808,4811
518.1720226446176,5581
520.4999999999999,5850
522.8273384766991,5497
525.1540382881666,5270
527.480099647932,4727
529.8055227696037,4137
532.1303078668694,3572
534.454455153496,3376
536.777964843328,3108
539.1008371502907,3156
541.4230722883866,3063
543.744670471698,3004
546.0656319143858,2977
548.3859568306899,3011
550.7056454349294,2965
553.0246979415016,2986
555.3431145648834,3077
557.6608955196306,2934
559.978041020377,3005
562.2945512818363,2980
564.6104265188006,3019
566.9256669461412,3044
569.2402727788082,3035
571.5542442318302,3020
573.8675815203156,3087
576.1802848594508,3017
578.4923544645015,3025
580.8037905508126,3040
583.114593333807,3179
585.4247630289875,3047
587.7342998519354,3040
590.0432040183106,3043
592.3514757438526,3061
594.6591152443794,3017
596.9661227357875,3023
599.2724984340531,3045
601.578242555231,3126
603.8833553154542,2967
606.1878369309362,3070
608.4916876179676,3080
610.7949075929192,2996
613.0974970722403,2973
615.3994562724587,3111
617.7007854101818,3034
620.0014847020951,3156
622.3015543649641,3014
624.6009946156324,3048
626.8998056710224,3080
629.1979877481361,3142
631.4955410640538,3027
633.7924658359349,3105
636.0887622810175,3081
638.3844306166192,3121
640.6794710601358,3057
642.9738838290426,3198
645.2676691408932,3176
647.5608272133207,3160
649.853358264037,3126
652.1452625108324,3142
654.4365401715764,3114
656.7271914642178,3190
659.0172166067838,3239
661.3066158173809,3255
663.5953893141935,3160
665.8835373154867,3251
668.1710600396028,3195
670.4579577049639,3185
672.7442305300709,3133
675.0298787335033,3108
677.3149025339197,3142
679.599302150058,3218
681.8830778007342,3267
684.1662297048437,3199
686.4487580813608,3269
688.7306631493387,3172
691.0119451279091,3183
693.2926042362834,3176
695.5726406937516,3203
697.8520547196814,3181
700.1308465335215,3218
702.4090163547982,3128
704.6865644031171,3170
706.9634908981619,3118
709.2397960596965,3247
711.5154801075631,3152
713.7905432616823,3212
716.0649857420548,3149
718.3388077687592,3208
720.612009561953,3103
722.8845913418733,3093
725.1565533288352,3154
727.427895743234,3231
729.6986188055427,3151
731.9687227363137,3222
734.238207756178,3136
736.5070740858458,3189
738.7753219461066,3198
741.0429515578281,3181
743.3099631419569,3219
745.5763569195191,3220
747.8421331116193,3222
750.1072919394409,3292
752.3718336242467,3218
754.6357583873777,3198
756.8990664502545,3207
759.1617580343765,3188
761.423833361321,3133
763.6852926527457,3178
765.9461361303862,3123
768.206364016058,3179
770.4659765316536,3127
772.7249738991469,3188
774.9833563405886,3153
777.2411240781092,3284
779.4982773339183,3210
781.7548163303044,3168
784.010741289634,3281
786.2660524343538,3296
788.5207499869881,3300
790.7748341701416,3141
793.0283052064964,3251
795.2811633188143,3111
797.5334087299362,3275
799.7850416627813,3157
802.0360623403484,3265
804.2864709857143,3320
806.5362678220353,3339
808.7854530725468,3326
811.0340269605625,3287
813.2819897094754,3244
815.5293415427581,3228
817.77608268396,3228
820.0222133567116,3236
822.2677337847211,3285
824.5126441917765,3248
826.7569448017433,3189
829.0006358385675,3173
831.2437175262731,3237
833.4861900889629,3319
835.7280537508192,3150
837.9693087361026,3143
840.2099552691533,3263
842.4499935743896,3205
844.689423876309,3246
846.9282463994886,3220
849.1664613685833,3195
851.4040690083276,3387
853.6410695435349,3282
855.877463199097,3267
858.1132501999847,3186
860.3484307712487,3227
862.5830051380175,3160
864.8169735254988,3252
867.0503361589791,3281
869.2830932638243,3217
871.5152450654786,3308
873.7467917894654,3276
875.9777336613873,3318
878.2080709069252,3281
880.4378037518389,3259
882.666932421968,3281
884.8954571432301,3229
887.1233781416219,3455
889.3506956432192,3350
891.5774098741766,3275
893.803521060728,3314
896.0290294291852,3310
898.2539352059397,3374
900.4782386174619,3309
902.7019398903011,3347
904.925039251085,3299
907.147536926521,3336
909.3694331433943,3270
911.59072812857,3254
913.8114221089921,3282
916.0315153116827,3311
918.2510079637437,3313
920.4699002923547,3244
922.6881925247761,3262
924.905884888345,3201
927.1229776104793,3339
929.3394709186747,3257
931.555365040506,3269
933.7706602036275,3307
935.9853566357709,3248
938.1994545647489,3297
940.4129542184515,3265
942.6258558248488,3302
944.8381596119883,3341
947.0498658079974,3322
949.2609746410825,3312
951.4714863395287,3331
953.6814011316998,3331
955.8907192460387,3316
958.0994409110671,3276
960.3075663553858,3202
962.5150958076741,3232
964.7220294966913,3284
966.928367651274,3190
969.1341105003388,3174
971.3392582728806,3314
973.5438111979742,3243
975.747769504772,3224
977.9511334225061,3214
980.153903180487,3249
982.3560790081052,3235
984.5576611348289,3226
986.7586497902058,3246
988.9590452038618,3196
991.158847605503,3182
993.3580572249133,3209
995.5566742919558,3220
997.7546990365728,3066
999.952131688785,3121
1002.1489724786926,3170
1004.3452216364743,3114
1006.5408793923874,3062
1008.7359459767691,3057
1010.9304216200343,3017
1013.1243065526781,3111
1015.3176010052733,2987
1017.510305208472,3025
1019.7024193930064,3000
1021.8939437896848,2962
1024.0848786293977,2972
1026.2752241431122,2977
1028.4649805618747,2942
1030.6541481168115,2914
1032.842727039127,3024
1035.0307175601051,2924
1037.2181199111074,2927
1039.4049343235752,2960
1041.591161029029,2971
1043.7768002590683,2970
1045.9618522453698,3008
1048.1463172196918,3023
1050.3301954138697,2970
1052.513487059818,3075
1054.69619238953,2909
1056.8783116350783,3069
1059.0598450286152,2960
1061.2407928023704,3075
1063.4211551886528,2949
1065.6009324198508,2910
1067.780124728432,3062
1069.9587323469414,3027
1072.1367555080046,2927
1074.314194444325,2978
1076.4910493886855,2941
1078.667320573947,2965
1080.843008233051,2982
1083.0181125990161,2949
1085.1926339049414,2931
1087.3665723840027,2912
1089.5399282694575,2919
1091.7127017946405,2915
1093.8848931929647,2884
1096.0565026979243,2875
1098.2275305430899,3005
1100.3979769621128,2953
1102.567842188722,2911
1104.737126456726,2876
1106.9058300000124,2892
1109.0739530525475,2948
1111.2414958483764,2912
1113.4084586216231,2892
1115.5748416064907,2888
1117.7406450372605,2970
1119.9058691482942,2890
1122.0705141740304,2887
1124.2345803489884,3016
1126.3980679077658,2897
1128.5609770850388,2871
1130.7233081155623,2970
1132.8850612341707,2944
1135.0462366757774,2878
1137.2068346753745,2848
1139.3668554680326,2904
1141.526299288901,2859
1143.68516637321,2919
1145.8434569562655,2933
1148.001171273455,2979
1150.158309560244,2886
1152.3148720521767,2895
1154.470858984876,2795
1156.626270594044,2891
1158.7811071154629,2962
1160.9353687849912,2861
1163.089055838569,2898
1165.242168512213,2868
1167.3947070420209,2914
1169.5466716641677,2868
1171.6980626149075,2756
1173.8488801305748,2841
1175.9991244475814,2815
1178.1487958024186,2802
1180.2978944316555,2877
1182.4464205719428,2832
1184.5943744600072,2885
1186.7417563326567,2937
1188.8885664267755,2884
1191.0348049793297,2903
1193.1804722273619,2933
1195.325568407995,2841
1197.4700937584303,2923
1199.614048515948,2802
1201.7574329179074,2946
1203.900247201746,2971
1206.042491604982,2949
1208.1841663652099,2846
1210.3252717201053,2955
1212.465807907422,2851
1214.6057751649923,2856
1216.7451737307279,2911
1218.8840038426192,2936
1221.0222657387353,2963
1223.1599596572241,2868
1225.2970858363137,2908
1227.4336445143094,2923
1229.5696359295966,3002
1231.705060320639,2855
1233.8399179259786,3082
1235.9742089842384,2946
1238.107933734118,2960
1240.2410924143974,2892
1242.373685263935,3001
1244.5057125216676,2881
1246.6371744266116,2959
1248.7680712178621,2894
1250.898403134593,2965
1253.028170416058,2968
1255.1573733015875,2863
1257.2860120305932,2961
1259.4140868425648,2900
1261.54159797707,2945
1263.6685456737569,3047
1265.7949301723515,2960
1267.9207517126597,2970
1270.046010534565,3089
1272.1707068780306,3087
1274.2948409830983,3025
1276.4184130898889,3005
1278.541423438603,3015
1280.6638722695184,2992
1282.785759822993,3017
1284.9070863394636,3101
1287.0278520594447,3065
1289.1480572235314,3097
1291.2677020723963,3050
1293.3867868467923,3036
1295.5053117875495,3050
1297.623277135579,2942
1299.740683131868,3147
1301.8575300174857,3177
1303.973818033578,3167
1306.0895474213703,3087
1308.2047184221678,3186
1310.3193312773528,3035
1312.4333862283888,3184
1314.5468835168163,3175
1316.659823384255,3204
1318.7722060724045,3119
1320.8840318230418,3200
1322.9953008780249,3132
1325.1060134792888,3194
1327.2161698688478,3172
1329.3257702887959,3162
1331.4348149813054,3264
1333.5433041886276,3282
1335.6512381530933,3212
1337.7586171171101,3095
1339.8654413231675,3157
1341.9717110138317,3188
1344.0774264317488,3127
1346.1825878196432,3136
1348.2871954203192,3240
1350.3912494766587,3188
1352.4947502316231,3198
1354.5976979282532,3167
1356.7000928096686,3194
1358.8019351190665,3107
1360.9032250997243,3152
1363.0039629949988,3133
1365.1041490483235,3219
1367.2037835032133,3144
1369.3028666032606,3146
1371.401398592137,3136
1373.4993797135926,3111
1375.5968102114575,3183
1377.6936903296396,3175
1379.7900203121262,3158
1381.8858004029835,3197
1383.9810308463561,3235
1386.075711886469,3215
1388.1698437676241,3240
1390.2634267342032,3269
1392.356461030667,3255
1394.4489469015557,3215
1396.5408845914872,3234
1398.6322743451592,3188
1400.7231164073469,3220
1402.813411022907,3167
1404.903158436773,3214
1406.9923588939578,3240
1409.0810126395531,3370
1411.1691199187303,3333
1413.2566809767386,3256
1415.343696058907,3233
1417.4301654106425,3258
1419.5160892774315,3342
1421.6014679048399,3354
1423.6863015385125,3343
1425.7705904241707,3331
1427.8543348076178,3280
1429.9375349347342,3420
1432.0201910514802,3472
1434.102303403894,3447
1436.1838722380944,3404
1438.2648978002767,3494
1440.3453803367174,3516
1442.4253200937692,3435
1444.5047173178677,3418
1446.5835722555234,3552
1448.6618851533285,3577
1450.739656257952,3612
1452.8168858161434,3686
1454.8935740747306,3678
1456.96972128062,3757
1459.045327680797,3707
1461.120393522327,3789
1463.1949190523528,3704
1465.2689045180973,3849
1467.3423501668608,3800
1469.415256246024,3882
1471.4876230030463,3916
1473.559450685465,3994
1475.6307395408976,3968
1477.7014898170391,4039
1479.771701761665,4026
1481.8413756226287,4070
1483.9105116478618,4152
1485.9791100853772,4177
1488.0471711832643,4355
1490.1146951896926,4320
1492.1816823529098,4283
1494.2481329212433,4428
1496.3140471430984,4286
1498.3794252669609,4459
1500.4442675413939,4432
1502.5085742150404,4416
1504.572345536622,4413
1506.6355817549388,4511
1508.6982831188702,4514
1510.7604498773744,4488
1512.8220822794883,4486
1514.8831805743293,4583
1516.9437450110909,4564
1519.003775839048,4544
1521.0632733075522,4651
1523.1222376660367,4675
1525.1806691640113,4709
1527.2385680510652,4649
1529.2959345768668,4784
1531.3527689911643,4821
1533.4090715437833,4793
1535.4648424846291,4901
1537.5200820636855,4931
1539.5747905310159,4952
1541.6289681367616,4934
1543.6826151311434,5114
1545.7357317644614,5091
1547.7883182870937,5018
1549.8403749494987,5190
1551.8919020022113,5085
1553.9428996958477,5135
1555.9933682811015,5280
1558.0433080087469,5398
1560.0927191296346,5467
1562.1416018946961,5364
1564.1899565549415,5579
1566.2377833614592,5400
1568.2850825654164,5444
1570.3318544180606,5294
1572.3780991707158,5341
1574.423817074788,5197
1576.4690083817595,5002
1578.5136733431923,4965
1580.5578122107272,4884
1582.601425236085,4724
1584.6445126710646,4623
1586.6870747675434,4318
1588.7291117774776,4113
1590.7706239529034,4134
1592.8116115459347,4052
1594.8520748087658,4017
1596.8920139936686,3926
1598.9314293529933,3862
1600.9703211391711,3752
1603.008689604711,3698
1605.0465350022005,3607
1607.0838575843068,3568
1609.1206576037753,3588
1611.1569353134305,3512
1613.1926909661765,3504
1615.2279248149953,3534
1617.2626371129481,3495
1619.2968281131757,3412
1621.3304980688963,3355
1623.3636472334088,3356
1625.39627586009,3346
1627.428384202396,3366
1629.459972513861,3338
1631.4910410480993,3235
1633.5215900588028,3285
1635.551619799744,3234
1637.5811305247717,3266
1639.6101224878166,3230
1641.6385959428862,3292
1643.6665511440683,3239
1645.693988345528,3213
1647.7209078015112,3142
1649.7473097663405,3232
1651.7731944944203,3142
1653.7985622402307,3166
1655.823413258333,3223
1657.847747803366,3056
1659.8715661300494,3102
1661.8948684931793,3148
1663.9176551476316,3172
1665.9399263483624,3139
1667.9616823504057,3118
1669.982923408873,3078
1672.0036497789574,3102
1674.0238617159293,3243
1676.043559475138,3172
1678.0627433120121,3187
1680.081413482059,3208
1682.0995702408654,3208
1684.117213844096,3250
1686.134344547495,3146
1688.1509626068864,3052
1690.1670682781705,3037
1692.182661817329,3070
1694.1977434804217,3139
1696.2123135235875,3108
1698.226372203043,3107
1700.2399197750851,3200
1702.2529564960905,3098
1704.2654826225112,3124
1706.277498410882,3196
1708.2890041178139,3175
1710.2999999999988,3132
1712.3104863142066,3106
1714.3204633172854,3104
1716.329931266163,3166
1718.3388904178469,3049
1720.3473410294214,3150
1722.3552833580516,3057
1724.3627176609807,3007
1726.3696441955308,3104
1728.3760632191033,2997
1730.3819749891782,3032
1732.3873797633146,3139
1734.3922777991502,3124
1736.3966693544012,3001
1738.4005546868639,3079
1740.4039340544127,3074
1742.406807715001,2989
1744.4091759266616,3068
1746.4110389475054,2971
1748.4123970357223,3068
1750.413250449582,3020
1752.4135994474318,3024
1754.4134442876993,3014
1756.4127852288902,2982
1758.4116225295893,3011
1760.4099564484595,3046
1762.407787244244,3027
1764.405115175764,3025
1766.4019405019203,2912
1768.3982634816916,2995
1770.3940843741357,2987
1772.3894034383907,3056
1774.3842209336717,3054
1776.378537119274,3020
1778.372352254571,2915
1780.3656665990156,3055
1782.3584804121397,2967
1784.3507939535534,2942
1786.3426074829463,3037
1788.3339212600863,3007
1790.3247355448211,3016
1792.3150505970766,2948
1794.3048666768573,2981
1796.2941840442477,2935
1798.2830029594106,3025
1800.2713236825884,3005
1802.2591464741004,2944
1804.2464715943465,2958
1806.2332993038058,2978
1808.2196298630352,3082
1810.2054635326708,2964
1812.190800573428,2915
1814.175641246101,3005
1816.1599858115628,2986
1818.1438345307652,3011
1820.127187664738,3016
1822.1100454745924,2952
1824.092408221516,2929
1826.0742761667766,2935
1828.055649571721,2994
1830.0365286977735,2970
1832.0169138064398,2944
1833.9968051593014,2894
1835.9762030180214,3060
1837.9551076443408,3044
1839.9335193000788,3068
1841.9114382471344,3032
1843.888864747485,3004
1845.8657990631878,2987
1847.842241456378,2985
1849.8181921892697,3046
1851.7936515241558,2917
1853.7686197234098,2944
1855.7430970494815,2999
1857.7170837649014,3010
1859.6905801322787,2927
1861.6635864143004,3005
1863.6361028737338,2894
1865.608129773424,2943
1867.5796673762961,2987
1869.5507159453537,2951
1871.521275743678,2941
1873.4913470344313,3010
1875.4609300808534,3001
1877.4300251462632,2929
1879.3986324940588,3013
1881.366752387717,2910
1883.3343850907936,3081
1885.3015308669228,2989
1887.268189979819,3063
1889.2343626932739,3035
1891.2000492711595,3067
1893.1652499774254,3111
1895.1299650761011,2979
1897.0941948312952,3039
1899.0579395071945,3049
1901.0211993680641,3026
1902.98397467825,2998
1904.9462657021745,3012
1906.9080727043415,3077
1908.869395949332,3077
1910.8302357018065,2972
1912.790592226504,3062
1914.7504657882428,3015
1916.7098566519212,2998
1918.6687650825133,3001
1920.6271913450764,2995
1922.5851357047422,3024
1924.5425984267245,2898
1926.499579776314,3085
1928.4560800188833,3036
1930.4120994198802,3003
1932.367638244833,2958
1934.32269675935,3068
1936.2772752291175,3074
1938.231373919899,3097
1940.1849930975404,2989
1942.1381330279637,3008
1944.0907939771696,3046
1946.0429762112412,3032
1947.9946799963363,3057
1949.9459055986945,3040
1951.896653284633,2997
1953.8469233205478,3140
1955.7967159729142,3075
1957.7460315082863,3097
1959.6948701932974,3046
1961.6432322946594,3081
1963.5911180791632,3100
1965.5385278136787,3054
1967.4854617651545,3065
1969.4319202006182,3048
1971.377903387176,3063
1973.3234115920136,3020
1975.268445082395,3044
1977.2130041256642,3033
1979.1570889892423,3058
1981.1006999406304,3037
1983.04383724741,2975
1984.986501177238,3067
1986.928691997853,3095
1988.8704099770712,3053
1990.811655382789,3096
1992.7524284829801,2984
1994.692729545698,3031
1996.6325588390755,3119
1998.5719166313224,2963
2000.5108031907307,3102
2002.4492187856677,3076
2004.387163684583,3013
2006.3246381560011,3043
2008.2616424685298,3063
2010.1981768908527,2979
2012.1342416917332,2986
2014.069837140014,3093
2016.0049635046162,3070
2017.9396210545406,3058
2019.8738100588666,2987
2021.8075307867502,2999
2023.740783507431,3046
2025.6735684902228,3056
2027.6058860045214,3037
2029.5377363198004,2970
2031.4691197056118,3038
2033.4000364315875,2962
2035.3304867674374,3042
2037.260470982952,3021
2039.189989347998,2952
2041.1190421325232,2947
2043.047629606554,2968
2044.9757520401945,3046
2046.9034097036288,3018
2048.8306028671195,3016
2050.7573318010086,3046
2052.683596775716,3051
2054.609398061742,3049
2056.5347359296647,3075
2058.4596106501403,3011
2060.384022493906,2976
2062.3079717317764,3003
2064.231458634646,3021
2066.1544834734873,2959
2068.077046519352,3063
2069.99914804337,3052
2071.9207883167524,3075
2073.8419676107865,3028
2075.7626861968406,3039
2077.6829443463607,2998
2079.6027423308715,3126
2081.522080421977,3108
2083.440958891362,3159
2085.359378010786,3057
2087.2773380520907,3067
2089.194839287196,3156
2091.111881988101,3076
2093.0284664268825,3047
2094.9445928756973,3088
2096.86026160678,3107
2098.775472892446,3057
2100.690227005088,3011
2102.604524217178,3170
2104.5183648012676,3096
2106.431749029985,3150
2108.34467717604,3077
2110.2571495122206,3036
2112.169166311393,3053
2114.080727846503,3120
2115.9918343905747,3074
2117.902486216711,3098
2119.8126835980956,3137
2121.722426807987,3115
2123.6317161197285,3107
2125.5405518067364,3120
2127.448934142509,3030
2129.356863400624,3114
2131.264339854737,3220
2133.1713637785815,3163
2135.077935445972,3094
2136.9840551308002,3199
2138.889723107037,3124
2140.7949396487334,3129
2142.699705030018,3060
2144.6040195250994,3169
2146.507883408264,3127
2148.4112969538774,3171
2150.3142604363848,3144
2152.2167741303097,3122
2154.1188383102535,3203
2156.0204532508997,3236
2157.9216192270064,3136
2159.822336513414,3115
2161.7226053850413,3189
2163.622426116884,3151
2165.5217989840185,3163
2167.4207242616,3202
2169.319202224862,3180
2171.2172331491165,3159
2173.1148173097563,3068
2175.0119549822507,3254
2176.90864644215,3228
2178.8048919650823,3161
2180.7006918267534,3143
2182.596046302952,3219
2184.4909556695407,3175
2186.3854202024645,3151
2188.279440177746,3142
2190.173015871487,3324
2192.066147559868,3233
2193.958835519149,3021
2195.851080025667,3272
2197.7428813558417,3255
2199.6342397861667,3245
2201.5251555932186,3270
2203.415629053651,3227
2205.3056604441986,3209
2207.19525004167,3326
2209.084398122958,3203
2210.9731049650327,3288
2212.861370844941,3249
2214.749196039812,3264
2216.636580826851,3305
2218.523525483344,3274
2220.410030286655,3298
2222.296095514226,3250
2224.1817214435805,3306
2226.066908352319,3279
2227.951656518121,3177
2229.835966218746,3229
2231.71983773203,3233
2233.6032713358913,3249
2235.486267308324,3248
2237.3688259274036,3202
2239.2509474712824,3260
2241.132632218193,3254
2243.013880446447,3279
2244.8946924344323,3294
2246.7750684606203,3200
2248.6550088035574,3330
2250.534513741871,3292
2252.413583554265,3293
2254.292218519526,3318
2256.170418916517,3300
2258.0481850241786,3214
2259.925517121534,3320
2261.8024154876825,3262
2263.678880401803,3361
2265.5549121431536,3200
2267.430510991071,3222
2269.305677224971,3197
2271.180411124348,3261
2273.0547129687766,3230
2274.9285830379076,3289
2276.8020216114737,3187
2278.6750289692845,3271
2280.5476053912294,3305
2282.4197511572766,3275
2284.2914665474727,3205
2286.162751841943,3293
2288.0336073208937,3329
2289.904033264608,3280
2291.774029953448,3274
2293.6435976678554,3216
2295.5127366883517,3278
2297.381447295534,3271
2299.2497297700825,3152
2301.1175843927526,3297
2302.9850114443825,3134
2304.852011205885,3129
2306.7185839582553,3197
2308.5847299825664,3180
2310.4504495599676,3181
2312.3157429716925,3158
2314.1806104990483,3171
2316.0450524234247,3065
2317.9090690262888,3123
2319.772660589186,3091
2321.635827393742,3088
2323.498569721661,3108
2325.3608878547248,3104
2327.2227820747967,3138
2329.0842526638157,3130
2330.945299903803,3156
2332.805924076857,3196
2334.6661254651535,3191
2336.525904350951,3135
2338.3852610165827,3156
2340.244195744464,3213
2342.102708817088,3144
2343.9608005170253,3101
2345.8184711269287,3162
2347.675720929526,3149
2349.532550207628,3185
2351.38895924412,3161
2353.24494832197,3205
2355.100517724223,3130
2356.955667734004,3200
2358.810398634514,3102
2360.664710709037,3102
2362.5186042409337,3070
2364.3720795136437,3224
2366.225136810686,3176
2368.0777764156583,3212
2369.929998612237,3234
2371.7818036841777,3161
2373.633191915315,3132
2375.484163589562,3180
2377.3347189909114,3245
2379.184858403434,3187
2381.03458211128,3198
2382.8838903986775,3285
2384.732783549936,3176
2386.5812618494406,3241
2388.4293255816588,3199
2390.2769750311327,3187
2392.1242104824883,3195
2393.971032220427,3221
2395.8174405297295,3137
2397.6634356952563,3202
2399.509018001947,3211
2401.3541877348193,3290
2403.1989451789705,3278
2405.043290619576,3209
2406.8872243418905,3249
2408.730746631247,3271
2410.5738577730594,3227
2412.4165580528183,3173
2414.258847756095,3245
2416.100727168537,3245
2417.9421965758734,3136
2419.783256263912,3295
2421.623906518538,3214
2423.4641476257157,3212
2425.303979871491,3264
2427.143403541984,3243
2428.9824189233977,3302
2430.821026302012,3263
2432.6592259641866,3283
2434.497018196361,3244
2436.33440328505,3210
2438.171381516851,3192
2440.00795317844,3332
2441.844118556569,3303
2443.6798779380724,3292
2445.5152316098606,3275
2447.3501798589255,3315
2449.1847229723357,3231
2451.0188612372403,3288
2452.8525949408663,3299
2454.6859243705203,3297
2456.518849813587,3344
2458.3513715575314,3347
2460.183489889895,3385
2462.015205098301,3219
2463.8465174704493,3300
2465.67742729412,3233
2467.5079348571717,3289
2469.338040447542,3247
2471.1677443532476,3376
2472.9970468623833,3319
2474.825948263123,3327
2476.6544488437207,3313
2478.482548892508,3246
2480.310248697896,3289
2482.137548548374,3272
2483.9644487325118,3343
2485.790949538956,3152
2487.617051256433,3319
2489.44275417375,3420
2491.26805857979,3280
2493.0929647635157,3335
2494.917473013971,3298
2496.741583620276,3415
2498.5652968716304,3408
2500.3886130573137,3365
2502.2115324666834,3381
2504.0340553891765,3400
2505.856182114308,3420
2507.6779129316733,3496
2509.499248130945,3463
2511.3201880018764,3204
2513.140732834298,3503
2514.9608829181198,3350
2516.780638543331,3321
2518.6,3297
2520.418967578273,3366
2522.237541568376,3394
2524.0557222606144,3430
2525.8735099453706,3369
2527.6909049131086,3403
2529.507907454368,3414
2531.32451785977,3391
2533.140736420014,3469
2534.9565634258774,3439
2536.771999168218,3365
2538.5870439379714,3601
2540.4016980261526,3505
2542.2159617238544,3429
2544.02983532225,3476
2545.8433191125914,3412
2547.656413386209,3562
2549.4691184345115,3502
2551.2814345489874,3505
2553.093362021204,3651
2554.904901142808,3554
2556.716052205523,3482
2558.526815501153,3611
2560.3371913215824,3507
2562.147179958771,3617
2563.956781704761,3638
2565.7659968516705,3618
2567.5748256916986,3563
2569.3832685171224,3631
2571.1913256202984,3623
2572.9989972936614,3584
2574.806283829725,3716
2576.613185521084,3671
2578.4197026604074,3726
2580.2258355404483,3627
2582.031584454035,3707
2583.836949694077,3726
2585.6419315535613,3776
2587.4465303255533,3793
2589.2507463032002,3730
2591.0545797797245,3674
2592.8580310484303,3853
2594.6611004026995,3761
2596.463788135992,3708
2598.266094541849,3759
2600.0680199138874,3758
2601.869564545807,3675
2603.670728731383,3767
2605.4715127644704,3662
2607.2719169390048,3723
2609.071941548998,3750
2610.8715868885433,3745
2612.670853251811,3673
2614.469740933052,3688
2616.268250226594,3716
2618.0663814268455,3712
2619.864134828292,3673
2621.6615107255006,3732
2623.458509413115,3776
2625.2551311858597,3747
2627.0513763385347,3597
2628.8472451660223,3576
2630.6427379632833,3596
2632.4378550253564,3558
2634.232596647359,3715
2636.026963124488,3722
2637.8209547520187,3732
2639.6145718253065,3684
2641.407814639785,3640
2643.200683490966,3527
2644.9931786744414,3523
2646.7853004858807,3588
2648.577049221034,3633
2650.3684251757277,3562
2652.1594286458712,3571
2653.9500599274484,3462
2655.740319316525,3475
2657.5302071092437,3549
2659.3197236018286,3487
2661.10886909058,3465
2662.8976438718782,3649
2664.686048242183,3517
2666.4740824980327,3449
2668.2617469360443,3511
2670.0490418529134,3502
2671.8359675454153,3468
2673.622524310403,3479
2675.408712444811,3411
2677.1945322456495,3405
2678.979984010009,3459
2680.76506803506,3395
2682.5497846180497,3406
2684.334134056306,3398
2686.1181166472343,3362
2687.9017326883213,3380
2689.6849824771293,3376
2691.4678663113013,3437
2693.2503844885596,3420
2695.032537306705,3572
2696.8143250636167,3420
2698.5957480572542,3425
2700.3768065856534,3442
2702.1575009469316,3400
2703.937831439283,3443
2705.717798360982,3347
2707.4974020103837,3394
2709.276642685917,3411
2711.055520686095,3256
2712.834036309506,3373
2714.612189854819,3251
2716.389981620782,3443
2718.1674119062204,3330
2719.944481010041,3402
2721.721189231226,3304
2723.4975368688415,3379
2725.273524222027,3346
2727.0491515900053,3310
2728.824419272075,3322
2730.5993275676146,3347
2732.3738767760838,3266
2734.148067197016,3411
2735.921899130031,3300
2737.6953728748194,3327
2739.468488731156,3300
2741.2412469988926,3366
2743.0136479779617,3410
2744.785691968372,3287
2746.5573792702116,3397
2748.3287101836504,3350
2750.099685008934,3297
2751.870304046388,3412
2753.640567596418,3375
2755.4104759595057,3327
2757.1800294362156,3302
2758.949228327187,3304
2760.7180729331412,3379
2762.486563554877,3274
2764.254700493272,3314
2766.022484049284,3284
2767.789914523947,3403
2769.5569922183786,3393
2771.3237174337705,3367
2773.090090471394,3368
2774.8561116326036,3313
2776.6217812188274,3403
2778.3870995315756,3357
2780.1520668724356,3316
2781.9166835430747,3360
2783.6809498452394,3416
2785.444866080754,3459
2787.2084325515225,3401
2788.971649559527,3476
2790.73451740683,3418
2792.4970363955713,3446
2794.2592068279705,3377
2796.0210290063264,3291
2797.7825032330147,3444
2799.543629810493,3430
2801.304409041296,3434
2803.0648412280366,3366
2804.8249266734088,3329
2806.5846656801846,3393
2808.344058551212,3319
2810.1031055894246,3389
2811.8618070978273,3328
2813.6201633795085,3344
2815.378174737636,3427
2817.1358414754536,3408
2818.893163896285,3302
2820.6501423035334,3298
2822.4067770006814,3398
2824.1630682912883,3457
2825.9190164789957,3423
2827.6746218675207,3507
2829.429884760661,3404
2831.184805462294,3442
2832.9393842763743,3396
2834.693621506936,3423
2836.4475174580916,3491
2838.201072434034,3478
2839.954286739034,3416
2841.707160677441,3429
2843.459694553685,3449
2845.2118886722724,3435
2846.96374333779,3411
2848.7152588549034,3304
2850.4664355283567,3386
2852.217273662973,3358
2853.9677735636546,3491
2855.7179355353833,3400
2857.4677598832186,3350
2859.217246912299,3280
2860.9663969278427,3464
2862.715210235146,3530
2864.4636871395846,3388
2866.211827946614,3370
2867.9596329617652,3396
2869.7071024906536,3362
2871.4542368389684,3293
2873.20103631248,3429
2874.947501217038,3356
2876.6936318585695,3371
2878.4394285430812,3375
2880.1848915766604,3358
2881.9300212654707,3479
2883.6748179157553,3402
2885.4192818338374,3365
2887.1634133261173,3361
2888.907212699077,3405
2890.6506802592744,3483
2892.393816313348,3417
2894.1366211680142,3423
2895.8790951300693,3470
2897.621238506388,3312
2899.363051603925,3415
2901.1045347297118,3454
2902.8456881908596,3536
2904.58651229456,3374
2906.327007348081,3471
2908.067173658772,3411
2909.8070115340597,3331
2911.5465212814497,3339
2913.285703208527,3353
2915.0245576229563,3435
2916.7630848324807,3309
2918.5012851449196,3441
2920.2391588681758,3307
2921.976706310227,3425
2923.7139277791334,3302
2925.4508235830313,3479
2927.187394030137,3378
2928.923639428745,3424
2930.6595600872306,3424
2932.395156314046,3398
2934.1304284177218,3407
2935.8653767068713,3443
2937.6000014901815,3549
2939.3343030764227,3504
2941.068281774442,3507
2942.8019378931644,3546
2944.5352717415976,3512
2946.2682836288236,3533
2948.0009738640065,3420
2949.7333427563885,3427
2951.465390615289,3388
2953.1971177501086,3461
2954.9285244703265,3479
2956.6596110855,3419
2958.3903779052657,3413
2960.1208252393385,3414
2961.8509533975125,3475
2963.5807626896617,3495
2965.3102534257378,3287
2967.0394259157715,3393
2968.768280469873,3438
2970.496817398232,3478
2972.2250370111146,3479
2973.952939618869,3491
2975.6805255319196,3482
2977.4077950607707,3535
2979.134748516006,3437
2980.861386208289,3363
2982.587708448359,3407
2984.313715547037,3569
2986.039407815222,3579
2987.764785563891,3554
2989.489849104102,3595
2991.2145987469908,3578
2992.9390348037705,3496
2994.6631575857346,3461
2996.3869674042576,3474
2998.1104645707887,3433
2999.83364939686,3401
3001.5565221940783,3401
3003.2790832741334,3420
3005.0013329487924,3453
3006.7232715298996,3467
3008.4448993293804,3421
3010.166216659239,3411
3011.887223831558,3458
3013.607921158498,3507
3015.3283089522993,3464
3017.0483875252826,3447
3018.7681571898443,3486
3020.4876182584626,3395
3022.2067710436927,3474
3023.9256158581707,3543
3025.644153014609,3519
3027.362382825801,3549
3029.0803056046193,3501
3030.797921664012,3450
3032.5152313170106,3493
3034.2322348767225,3587
3035.9489326563353,3521
3037.665324969115,3496
3039.3814121284063,3555
3041.097194447633,3512
3042.812672240299,3561
3044.5278458199855,3412
3046.2427155003525,3549
3047.9572815951406,3592
3049.671544418167,3445
3051.38550428333,3491
3053.0991615046073,3460
3054.812516396051,3423
3056.5255692717974,3540
3058.2383204460575,3447
3059.9507702331257,3490
3061.662918947372,3464
3063.3747669032446,3499
3065.0863144152736,3475
3066.7975617980674,3490
3068.508509366309,3445
3070.219157434767,3518
3071.9295063182844,3501
3073.639556331785,3482
3075.3493077902704,3455
3077.058761008821,3466
3078.7679163025964,3450
3080.476773986837,3493
3082.1853343768594,3599
3083.89359778806,3619
3085.6015645359153,3511
3087.3092349359786,3558
3089.016609303884,3621
3090.7236879553434,3441
3092.4304712061476,3598
3094.136959372166,3555
3095.843152769349,3433
3097.5490517137237,3473
3099.2546565213966,3451
3100.959967508554,3466
3102.66498499146,3500
3104.3697092864577,3478
3106.0741407099695,3513
3107.778279578498,3550
3109.482126208622,3571
3111.1856809170004,3700
3112.8889440203716,3562
3114.5919158355528,3535
3116.294596679439,3575
3117.996986869006,3524
3119.6990867213062,3609
3121.4008965534726,3458
3123.102416682717,3467
3124.803647426329,3520
3126.5045891016784,3551
3128.205242026213,3576
3129.90560651746,3597
3131.605682893025,3609
3133.3054714705922,3552
3135.0049725679282,3506
3136.7041865028714,3564
3138.4031135933465,3518
3140.101754157353,3582
3141.800108512971,3623
3143.498176978357,3595
3145.1959598717494,3557
3146.8934575114636,3477
3148.5906702158954,3552
3150.2875983035183,3596
3151.9842420928853,3545
3153.680601902627,3580
3155.376678051456,3519
3157.07247085816,3566
3158.767980641609,3571
3160.463207720748,3519
3162.158152414606,3608
3163.8528150422862,3589
3165.5471959229726,3615
3167.2412953759303,3560
3168.9351137204976,3559
3170.628651276098,3495
3172.3219083622307,3529
3174.014885298474,3580
3175.707582404485,3678
3177.4000000000005,3613
3179.092138404835,3541
3180.7839979388846,3572
3182.47557892212,3650
3184.166881674594,3661
3185.8579065164386,3541
3187.5486537678626,3702
3189.2391237491547,3588
3190.9293167806827,3554
3192.6192331828934,3592
3194.3088732763117,3629
3195.998237381542,3596
3197.687325819268,3539
3199.376138910251,3546
3201.064676975334,3599
3202.7529403354347,3535
3204.4409293115523,3648
3206.1286442247647,3531
3207.816085396229,3550
3209.5032531471825,3577
3211.190147798936,3526
3212.8767696728846,3492
3214.5631190905015,3539
3216.2491963733373,3534
3217.9350018430214,3557
3219.6205358212637,3578
3221.305798629851,3436
3222.990790590651,3639
3224.6755120256103,3390
3226.359963256751,3501
3228.0441446061795,3513
3229.7280563960758,3511
3231.411698948703,3567
3233.0950725863995,3619
3234.778177631587,3520
3236.461014406761,3613
3238.1435832345005,3511
3239.8258844374595,3606
3241.507918338374,3559
3243.1896852600576,3553
3244.8711855254023,3671
3246.552419457381,3661
3248.233387379042,3585
3249.914089613516,3591
3251.59452648401,3608
3253.274698313813,3510
3254.95460542629,3470
3256.6342481448855,3474
3258.313626793125,3604
3259.9927416946084,3587
3261.6715931730196,3604
3263.3501815521176,3546
3265.0285071557437,3454
3266.706570307815,3595
3268.3843713323286,3544
3270.0619105533615,3468
3271.739188295068,3562
3273.4162048816834,3557
3275.0929606375184,3621
3276.769455886966,3497
3278.445690954498,3664
3280.1216661646613,3547
3281.797381842087,3643
3283.4728383114807,3644
3285.1480358976296,3634
3286.8229749253996,3585
3288.4976557197333,3538
3290.172078605655,3544
3291.846243908266,3502
3293.5201519527463,3575
3295.193803064357,3437
3296.8671975684374,3451
3298.5403357904024,3651
3300.21321805575,3529
3301.8858446900567,3699
3303.558216018975,3610
3305.23033236824,3564
3306.9021940636603,3479
3308.57380143113,3591
3310.2451547966184,3626
3311.916254486174,3600
3313.5871008259246,3640
3315.2576941420766,3484
3316.9280347609147,3542
3318.5981230088046,3589
3320.2679592121895,3581
3321.9375436975924,3561
3323.606876791612,3536
3325.27595882093,3524
3326.944790112305,3542
3328.6133709925753,3532
3330.2817017886573,3548
3331.949782827547,3608
3333.617614436319,3554
3335.2851969421245,3545
3336.952530672199,3573
3338.619615953853,3588
3340.286453114475,3636
3341.9530424815357,3624
3343.619384382583,3630
3345.2854791452437,3695
3346.951327097224,3677
3348.6169285663073,3660
3350.2822838803577,3741
3351.947393367319,3688
3353.61225735521,3633
3355.2768761721345,3594
3356.9412501462693,3611
3358.605379605873,3693
3360.2692648792827,3639
3361.9329062949146,3619
3363.596304181263,3597
