CollectionTime,7/9/2024 1:27:08 PM
ExposureUsed,3
CalibratedSpectrum
-962.7078968117929,480
-959.9714848408522,487
-957.2358232597828,547
-954.5009119013725,523
-951.7667505983302,489
-949.0333391832855,522
-946.3006774887896,544
-943.5687653473143,519
-940.837602591253,531
-938.1071890529199,513
-935.3775245645503,514
-932.6486089583007,520
-929.9204420662485,511
-927.1930237203925,539
-924.4663537526524,522
-921.7404319948689,550
-919.0152582788041,509
-916.2908324361409,573
-913.5671542984834,560
-910.8442236973568,503
-908.1220404642074,535
-905.4006044304027,556
-902.679915427231,530
-899.959973285902,516
-897.2407778375464,520
-894.5223289132158,510
-891.8046263438832,520
-889.0876699604426,516
-886.3714595937089,516
-883.6559950744183,504
-880.9412762332282,506
-878.2273029007168,503
-875.5140749073835,488
-872.8015920836489,477
-870.0898542598545,498
-867.3788612662631,519
-864.6686129330585,527
-861.9591090903457,529
-859.2503495681506,534
-856.5423341964203,516
-853.8350628050229,501
-851.1285352237478,528
-848.4227512823054,520
-845.7177108103272,522
-843.0134136373656,521
-840.3098595928943,550
-837.6070485063082,518
-834.9049802069229,537
-832.2036545239757,551
-829.5030712866244,511
-826.8032303239481,495
-824.1041314649472,509
-821.4057745385428,509
-818.7081593735775,523
-816.0112857988148,524
-813.3151536429393,523
-810.6197627345566,545
-807.9251129021936,509
-805.2312039742981,540
-802.5380357792392,551
-799.8456081453069,540
-797.1539209007124,531
-794.462973873588,533
-791.772766891987,541
-789.083299783884,570
-786.3945723771743,535
-783.7065844996748,513
-781.0193359791231,497
-778.3328266431781,535
-775.6470563194197,526
-772.9620248353489,561
-770.2777320183878,525
-767.5941776958798,503
-764.9113616950891,520
-762.2292838432011,536
-759.5479439673222,545
-756.8673418944801,528
-754.1874774516235,569
-751.5083504656222,559
-748.8299607632671,558
-746.15230817127,551
-743.475392516264,543
-740.7992136248035,574
-738.1237713233636,557
-735.4490654383407,534
-732.7750957960521,569
-730.1018622227365,557
-727.4293645445534,562
-724.7576025875837,551
-722.0865761778291,559
-719.4162851412126,549
-716.7467293035781,583
-714.0779084906909,595
-711.409822528237,587
-708.7424712418238,599
-706.0758544569796,586
-703.4099719991541,583
-700.7448236937178,583
-698.0804093659622,591
-695.4167288411002,582
-692.7537819442656,589
-690.0915685005134,593
-687.4300883348199,570
-684.7693412720819,555
-682.1093271371178,594
-679.4500457546669,560
-676.7914969493897,572
-674.1336805458676,571
-671.4765963686034,578
-668.8202442420206,606
-666.1646239904642,591
-663.5097354382001,590
-660.8555784094151,596
-658.2021527282176,600
-655.5494582186366,614
-652.8974947046223,583
-650.2462620100463,590
-647.5957599587009,613
-644.9459883742998,581
-642.2969470804776,606
-639.6486359007902,624
-637.0010546587141,619
-634.3542031776476,592
-631.7080812809096,611
-629.0626887917401,637
-626.4180255333008,623
-623.7740913286734,644
-621.1308860008619,660
-618.4884093727904,657
-615.8466612673046,685
-613.2056415071715,641
-610.5653499150785,621
-607.9257863136347,620
-605.28695052537,640
-602.6488423727357,642
-600.0114616781036,598
-597.3748082637674,614
-594.7388819519412,666
-592.1036825647604,657
-589.4692099242818,677
-586.8354638524829,677
-584.2024441712624,662
-581.5701507024403,665
-578.9385832677575,664
-576.3077416888759,673
-573.6776257873787,688
-571.0482353847704,673
-568.4195703024757,672
-565.7916303618415,646
-563.164415384135,661
-560.5379251905453,668
-557.9121596021815,654
-555.2871184400748,638
-552.6628015251767,638
-550.0392086783606,666
-547.4163397204204,637
-544.794194472071,669
-542.1727727539491,674
-539.5520743866118,715
-536.9320991905377,726
-534.3128469861261,710
-531.6943175936979,771
-529.0765108334947,783
-526.4594265256793,805
-523.8430644903358,910
-521.2274245474689,1060
-518.612506517005,1065
-515.9983102187913,1064
-513.3848354725959,1154
-510.77208209810846,1160
-508.16004991493924,1337
-505.5487387426199,1449
-502.9381484006032,1635
-500.3282787082628,1694
-497.71912948489364,1544
-495.1107005497117,1415
-492.5029917218539,1225
-489.8960028203786,1110
-487.28973366426493,960
-484.68418407241325,889
-482.07935386364494,877
-479.47524285670266,826
-476.87185087025,877
-474.2691777228715,853
-471.66722323307334,872
-469.0659872192821,832
-466.4654694998459,869
-463.86566989303384,863
-461.26658821703614,846
-458.66822428996414,863
-456.07057792985,790
-453.4736489546475,806
-450.877437182231,805
-448.28194243039627,794
-445.68716451686,818
-443.09310325926003,817
-440.49975847515555,838
-437.9071299820263,788
-435.31521759727354,804
-432.72402113821954,867
-430.13354042210767,872
-427.5437752661022,799
-424.95472548728867,812
-422.36639090267386,841
-419.7787713291855,841
-417.1918665836721,969
-414.60567648290385,990
-412.0202008435715,923
-409.4354394822874,905
-406.8513922155845,900
-404.26805885991723,902
-401.685439231661,885
-399.103533147112,898
-396.522340422488,905
-393.9418608739278,824
-391.3620943174908,908
-388.7830405691583,842
-386.2046994448317,817
-383.6270707603344,838
-381.05015433141045,801
-378.473949973725,778
-375.8984575028645,699
-373.32367673433623,654
-370.74960748356875,613
-368.1762495659117,632
-365.60360279663576,581
-363.03166699093265,527
-360.4604419639154,530
-357.8899275306178,486
-355.32012350599507,507
-352.7510297049233,476
-350.1826459421999,465
-347.61497203254316,465
-345.04800779059235,497
-342.4817530309082,487
-339.91620756797226,481
-337.35137121618743,481
-334.7872437898774,483
-332.22382510328725,510
-329.66111497058273,505
-327.09911320585127,513
-324.53781962310075,500
-321.9772340362607,484
-319.4173562591816,478
-316.8581861056348,486
-314.2997233893127,456
-311.7419679238294,451
-309.1849195227194,461
-306.62857799943856,501
-304.0729431673641,516
-301.51801483979375,523
-298.963792829947,525
-296.41027695096386,564
-293.85746701590574,556
-291.3053628377552,580
-288.7539642294155,634
-286.2032710037115,538
-283.65328297338897,540
-281.1039999511146,568
-278.5554217494762,622
-276.007548180983,591
-273.4603790580651,549
-270.9139141930734,593
-268.3681533982807,569
-265.8230964858798,578
-263.27874326798565,548
-260.7350935566336,590
-258.1921471637804,591
-255.6499039013039,632
-253.10836358100266,616
-250.56752601459698,593
-248.02739101372765,609
-245.48795838995704,599
-242.94922795476816,601
-240.41119951956557,577
-237.8738728956746,629
-235.33724789434166,731
-232.80132432673452,685
-230.2661020039418,661
-227.73158073697357,689
-225.19776033676033,769
-222.66464061415422,725
-220.1322213799284,659
-217.60050244477725,601
-215.06948361931552,640
-212.53916471408013,684
-210.00954553952818,758
-207.48062590603843,645
-204.9524056239104,681
-202.4248845033651,749
-199.8980623545441,799
-197.37193898751036,737
-194.84651421224817,721
-192.32178783866232,713
-189.79775967657952,755
-187.27442953574644,843
-184.7517972258321,892
-182.2298625564256,801
-179.7086253370378,793
-177.18808537710026,773
-174.66824248596583,833
-172.14909647290835,851
-169.6306471471229,879
-167.11289431772548,821
-164.59583779375328,894
-162.07947738416453,889
-159.5638128978386,954
-157.04884414357605,1089
-154.53457093009854,1261
-152.02099306604828,1174
-149.50811035998936,903
-146.99592262040665,872
-144.48442965570587,933
-141.97363127421409,982
-139.46352728417958,1177
-136.95411749377126,1315
-134.44540171107985,1147
-131.93737974411636,934
-129.43005140081357,1088
-126.92341648902493,1627
-124.41747481652521,2203
-121.91222619101006,2627
-119.40767042009657,3288
-116.90380731132257,3843
-114.40063667214702,3812
-111.8981583099503,3150
-109.3963720320337,2160
-106.89527764561933,1811
-104.39487495785067,2287
-101.89516377579241,3153
-99.39614390642998,4423
-96.89781515667039,5211
-94.40017733334128,5145
-91.90323024319173,4666
-89.40697369289148,5110
-86.91140748903172,5633
-84.41653143812482,5890
-81.92234534660395,4616
-79.42884902082358,3609
-76.93604226705907,4586
-74.4439248915071,7759
-71.95249670028534,12297
-69.46175749943245,14294
-66.97170709490854,14153
-64.48234529259423,12881
-61.99367189829195,11439
-59.50568671772464,10019
-57.01838955653636,7728
-54.53178022029283,6800
-52.045858514480074,8737
-49.560624244506016,10190
-47.07607721569923,11624
-44.59221723330904,12343
-42.10904410250669,12233
-39.62655762838392,10889
-37.14475761595372,9460
-34.66364387015028,8991
-32.18321619582866,8491
-29.70347439776515,8155
-27.224418280657005,9168
-24.74604764912317,10784
-22.26836230770266,16097
-19.7913620608565,31223
-17.315046712966478,57848
-14.83941606833514,65037
-12.36446993118659,65037
-9.89020810566592,65037
-7.416630395839093,65037
-4.94373660569363,65037
-2.471526539137585,65037
-6.821210263296962E-13,65037
2.47084320796705,65037
4.941003281093458,65037
7.410480415786196,65037
9.879274808531363,65037
12.347386655893956,65037
14.814816154518212,65037
17.28156350112681,65037
19.74762889252179,65037
22.21301252558385,65037
24.67771459727237,20783
27.141735304626195,4313
29.605074844762612,2564
32.06773341487792,2003
34.52971121224755,2178
36.99100843422559,2401
39.45162527824516,2232
41.91156194181792,2142
44.370818622535126,1762
46.82939551806646,1370
49.287292826160524,1290
51.74451074464503,1365
54.201049471426245,1173
56.65690920448981,1164
59.112090141899785,1184
61.56659248179983,1063
64.02041642241159,1025
66.4735621620365,1032
68.92602989905402,960
71.37781983192338,967
73.82893215918205,1008
76.27936707944684,1153
78.72912479141326,1208
81.17820549385567,1204
83.62660938562783,1127
86.07433666566146,977
88.5213875329681,833
90.96776218663751,893
93.41346082583925,848
95.85848364982041,965
98.30283085790859,1085
100.7465026495089,1203
103.18949922410604,1169
105.63182078126385,1035
108.07346752062438,1094
110.51443964190923,975
112.95473734491827,909
115.39436082953114,942
117.83331029570547,896
120.27158594347827,870
122.7091879729652,955
125.1461165843615,914
127.58237197794062,852
130.01795435405518,801
132.4528639131364,959
134.88710085569494,973
137.32066538231982,855
139.75355769367923,765
142.1857779905207,763
144.61732647366978,792
147.04820334403132,905
149.47840880258934,973
151.90794305040674,945
154.33680628862487,1026
156.76499871846443,1085
159.19252054122433,1264
161.61937195828352,1300
164.04555317109896,1470
166.47106438120693,1598
168.89590579022217,1693
171.320077599839,1897
173.7435800118302,1930
176.16641322804742,2010
178.58857745042144,2227
181.01007288096173,2312
183.43089972175687,2448
185.85105817497413,2306
188.27054844285988,2300
190.6893707277394,2321
193.10752523201643,2330
195.5250121581745,2287
197.9418317087751,2405
200.3579840864594,2431
202.7734694939469,2451
205.18828813403627,2434
207.6024402096051,2564
210.01592592360964,2583
212.42874547908548,2518
214.84089907914665,2707
217.2523869269868,2523
219.66320922587727,2414
222.0733661791695,2519
224.48285799029293,2518
226.8916848627572,2503
229.29984700014882,2477
231.7073446061355,2567
234.11417788446204,2448
236.520347038953,2544
238.92585227351185,2512
241.33069379212054,2575
243.73487179884035,2549
246.1383864978112,2694
248.541238093252,2604
250.9434267894609,2627
253.34495279081432,2562
255.74581630176783,2584
258.1460175268563,2565
260.54555667069314,2569
262.9444339379703,2618
265.3426495334594,2770
267.7402036620107,2693
270.1370965285529,2641
272.53332833809407,2526
274.9288992957214,2557
277.32380960660055,2429
279.718059475976,2443
282.1116491091717,2555
284.5045787115897,2430
286.89684848871195,2395
289.2884586460981,2505
291.67940938938807,2613
294.0697009242996,2512
296.4593334566299,2575
298.84830719225477,2503
301.23662233712923,2460
303.6242790972866,2406
306.01127767884,2451
308.39761828798066,2393
310.78330113097934,2377
313.16832641418534,2385
315.5526943440269,2323
317.9364051270112,2298
320.3194589697242,2303
322.70185607883093,2301
325.0835966610754,2222
327.4646809232805,2196
329.8451090723478,2168
332.2248813152577,2219
334.6039978590701,2224
336.9824589109231,2193
339.36026467803447,2156
341.7374153677,2204
344.113911187295,2117
346.48975234427337,2088
348.8649390461686,2049
351.2394715005918,2155
353.61334991523415,2129
355.9865744978655,2138
358.35914545633375,2016
360.73106299856715,2019
363.10232733257146,2075
365.47293866643247,2145
367.84289720831396,2062
370.2122031664593,1997
372.5808567491905,2109
374.9488581649083,2051
377.31620762209275,2045
379.6829053293021,2000
382.0489514951745,1974
384.4143463284262,2034
386.7790900378528,2073
389.14318283232853,1943
391.50662492080653,2018
393.86941651231916,2064
396.23155781597745,2052
398.5930490409713,2026
400.9538903965696,2031
403.3140820921202,1879
405.6736243370498,1924
408.03251734086336,1923
410.3907613131465,1882
412.74835646356166,1880
415.10530300185144,1933
417.4616011378372,1967
419.81725108141893,1846
422.1722530425758,1923
424.5266072313656,1929
426.880313857925,1887
429.2333731324701,1943
431.58578526529516,1942
433.9375504667738,1915
436.2886689473588,1872
438.63914091758113,1900
440.9889665880513,1875
443.33814616945835,1900
445.68667987257015,1868
448.03456790823395,1876
450.3818104873759,1905
452.72840782100013,1871
455.07436012019105,1892
457.41966759611057,1835
459.7643304600007,1903
462.10834892318155,1827
464.4517231970525,1839
466.79445349309174,1889
469.1365400228566,1899
471.4779829979826,1915
473.81878263018564,1838
476.15893913125876,1916
478.4984527130747,1890
480.8373235875855,1952
483.17555196682144,2069
485.5131380628919,2124
487.8500820879857,2195
490.1863842543697,2292
492.52204477439034,2334
494.8570638604725,2606
497.1914417251204,2881
499.52517858091653,3306
501.85827464052306,3650
504.19073011668036,3779
506.5225452222086,3890
508.85372017000566,3726
511.18425517304956,3725
513.514150444396,3688
515.8434061971808,4229
518.1720226446176,5155
520.4999999999999,5410
522.8273384766991,4961
525.1540382881666,4451
527.480099647932,3866
529.8055227696037,3210
532.1303078668694,2619
534.454455153496,2252
536.777964843328,2125
539.1008371502907,2105
541.4230722883866,2035
543.744670471698,2045
546.0656319143858,2036
548.3859568306899,2035
550.7056454349294,1955
553.0246979415016,1957
555.3431145648834,1943
557.6608955196306,1889
559.978041020377,1890
562.2945512818363,1945
564.6104265188006,1939
566.9256669461412,2015
569.2402727788082,2019
571.5542442318302,2027
573.8675815203156,1963
576.1802848594508,1970
578.4923544645015,2034
580.8037905508126,2008
583.114593333807,2096
585.4247630289875,2085
587.7342998519354,1949
590.0432040183106,1928
592.3514757438526,1968
594.6591152443794,2040
596.9661227357875,2101
599.2724984340531,2038
601.578242555231,2043
603.8833553154542,2043
606.1878369309362,1959
608.4916876179676,1956
610.7949075929192,1970
613.0974970722403,1996
615.3994562724587,1912
617.7007854101818,1932
620.0014847020951,1934
622.3015543649641,1960
624.6009946156324,1987
626.8998056710224,1980
629.1979877481361,2002
631.4955410640538,1945
633.7924658359349,1962
636.0887622810175,2005
638.3844306166192,1960
640.6794710601358,1906
642.9738838290426,1944
645.2676691408932,2010
647.5608272133207,1993
649.853358264037,2017
652.1452625108324,2024
654.4365401715764,2058
656.7271914642178,1959
659.0172166067838,1933
661.3066158173809,1980
663.5953893141935,1963
665.8835373154867,2007
668.1710600396028,2016
670.4579577049639,1965
672.7442305300709,1971
675.0298787335033,2013
677.3149025339197,1951
679.599302150058,2046
681.8830778007342,2044
684.1662297048437,1958
686.4487580813608,2073
688.7306631493387,2035
691.0119451279091,1944
693.2926042362834,2026
695.5726406937516,2029
697.8520547196814,2043
700.1308465335215,1998
702.4090163547982,1998
704.6865644031171,1967
706.9634908981619,1924
709.2397960596965,2014
711.5154801075631,2047
713.7905432616823,1994
716.0649857420548,1939
718.3388077687592,1993
720.612009561953,2031
722.8845913418733,1947
725.1565533288352,1972
727.427895743234,1962
729.6986188055427,1913
731.9687227363137,1936
734.238207756178,1965
736.5070740858458,2001
738.7753219461066,2007
741.0429515578281,1941
743.3099631419569,2098
745.5763569195191,2024
747.8421331116193,1993
750.1072919394409,2021
752.3718336242467,1945
754.6357583873777,1917
756.8990664502545,1988
759.1617580343765,1954
761.423833361321,2062
763.6852926527457,2034
765.9461361303862,1953
768.206364016058,1964
770.4659765316536,2055
772.7249738991469,2007
774.9833563405886,2054
777.2411240781092,2101
779.4982773339183,2013
781.7548163303044,2073
784.010741289634,2042
786.2660524343538,2129
788.5207499869881,2026
790.7748341701416,1968
793.0283052064964,2124
795.2811633188143,2069
797.5334087299362,2002
799.7850416627813,2031
802.0360623403484,2006
804.2864709857143,2006
806.5362678220353,2081
808.7854530725468,2100
811.0340269605625,2038
813.2819897094754,2052
815.5293415427581,2032
817.77608268396,2093
820.0222133567116,2061
822.2677337847211,2013
824.5126441917765,1944
826.7569448017433,1975
829.0006358385675,2023
831.2437175262731,2002
833.4861900889629,2087
835.7280537508192,2066
837.9693087361026,2112
840.2099552691533,2065
842.4499935743896,2051
844.689423876309,1992
846.9282463994886,2030
849.1664613685833,2065
851.4040690083276,2035
853.6410695435349,2066
855.877463199097,2028
858.1132501999847,2074
860.3484307712487,2048
862.5830051380175,2033
864.8169735254988,1988
867.0503361589791,2074
869.2830932638243,2070
871.5152450654786,2033
873.7467917894654,2147
875.9777336613873,2095
878.2080709069252,2083
880.4378037518389,2065
882.666932421968,2112
884.8954571432301,2076
887.1233781416219,2032
889.3506956432192,2147
891.5774098741766,2089
893.803521060728,2067
896.0290294291852,2089
898.2539352059397,2073
900.4782386174619,2082
902.7019398903011,2097
904.925039251085,2100
907.147536926521,2113
909.3694331433943,2090
911.59072812857,2091
913.8114221089921,2030
916.0315153116827,2035
918.2510079637437,2114
920.4699002923547,2097
922.6881925247761,2048
924.905884888345,2086
927.1229776104793,2041
929.3394709186747,1994
931.555365040506,1988
933.7706602036275,1964
935.9853566357709,2047
938.1994545647489,2013
940.4129542184515,2071
942.6258558248488,2049
944.8381596119883,2003
947.0498658079974,2042
949.2609746410825,2026
951.4714863395287,1942
953.6814011316998,1986
955.8907192460387,2029
958.0994409110671,2035
960.3075663553858,1993
962.5150958076741,1968
964.7220294966913,1970
966.928367651274,2018
969.1341105003388,1978
971.3392582728806,2005
973.5438111979742,1918
975.747769504772,1935
977.9511334225061,1936
980.153903180487,1982
982.3560790081052,1929
984.5576611348289,1908
986.7586497902058,1896
988.9590452038618,1960
991.158847605503,1913
993.3580572249133,1850
995.5566742919558,1834
997.7546990365728,1800
999.952131688785,1792
1002.1489724786926,1754
1004.3452216364743,1716
1006.5408793923874,1681
1008.7359459767691,1699
1010.9304216200343,1723
1013.1243065526781,1625
1015.3176010052733,1733
1017.510305208472,1704
1019.7024193930064,1677
1021.8939437896848,1705
1024.0848786293977,1706
1026.2752241431122,1706
1028.4649805618747,1700
1030.6541481168115,1632
1032.842727039127,1707
1035.0307175601051,1656
1037.2181199111074,1583
1039.4049343235752,1585
1041.591161029029,1614
1043.7768002590683,1626
1045.9618522453698,1587
1048.1463172196918,1675
1050.3301954138697,1631
1052.513487059818,1576
1054.69619238953,1699
1056.8783116350783,1575
1059.0598450286152,1603
1061.2407928023704,1535
1063.4211551886528,1606
1065.6009324198508,1614
1067.780124728432,1601
1069.9587323469414,1611
1072.1367555080046,1631
1074.314194444325,1602
1076.4910493886855,1618
1078.667320573947,1606
1080.843008233051,1498
1083.0181125990161,1552
1085.1926339049414,1591
1087.3665723840027,1538
1089.5399282694575,1559
1091.7127017946405,1539
1093.8848931929647,1575
1096.0565026979243,1535
1098.2275305430899,1491
1100.3979769621128,1492
1102.567842188722,1569
1104.737126456726,1574
1106.9058300000124,1546
1109.0739530525475,1581
1111.2414958483764,1530
1113.4084586216231,1515
1115.5748416064907,1576
1117.7406450372605,1462
1119.9058691482942,1566
1122.0705141740304,1472
1124.2345803489884,1502
1126.3980679077658,1529
1128.5609770850388,1488
1130.7233081155623,1554
1132.8850612341707,1461
1135.0462366757774,1471
1137.2068346753745,1469
1139.3668554680326,1463
1141.526299288901,1467
1143.68516637321,1474
1145.8434569562655,1466
1148.001171273455,1483
1150.158309560244,1458
1152.3148720521767,1524
1154.470858984876,1461
1156.626270594044,1436
1158.7811071154629,1464
1160.9353687849912,1460
1163.089055838569,1475
1165.242168512213,1464
1167.3947070420209,1495
1169.5466716641677,1465
1171.6980626149075,1426
1173.8488801305748,1478
1175.9991244475814,1433
1178.1487958024186,1435
1180.2978944316555,1522
1182.4464205719428,1510
1184.5943744600072,1422
1186.7417563326567,1370
1188.8885664267755,1454
1191.0348049793297,1446
1193.1804722273619,1446
1195.325568407995,1463
1197.4700937584303,1457
1199.614048515948,1366
1201.7574329179074,1471
1203.900247201746,1461
1206.042491604982,1480
1208.1841663652099,1447
1210.3252717201053,1472
1212.465807907422,1525
1214.6057751649923,1576
1216.7451737307279,1532
1218.8840038426192,1478
1221.0222657387353,1484
1223.1599596572241,1470
1225.2970858363137,1471
1227.4336445143094,1421
1229.5696359295966,1516
1231.705060320639,1491
1233.8399179259786,1534
1235.9742089842384,1524
1238.107933734118,1477
1240.2410924143974,1553
1242.373685263935,1503
1244.5057125216676,1518
1246.6371744266116,1467
1248.7680712178621,1514
1250.898403134593,1490
1253.028170416058,1525
1255.1573733015875,1515
1257.2860120305932,1528
1259.4140868425648,1545
1261.54159797707,1522
1263.6685456737569,1539
1265.7949301723515,1521
1267.9207517126597,1522
1270.046010534565,1512
1272.1707068780306,1545
1274.2948409830983,1554
1276.4184130898889,1540
1278.541423438603,1526
1280.6638722695184,1567
1282.785759822993,1480
1284.9070863394636,1566
1287.0278520594447,1470
1289.1480572235314,1560
1291.2677020723963,1607
1293.3867868467923,1605
1295.5053117875495,1564
1297.623277135579,1630
1299.740683131868,1573
1301.8575300174857,1563
1303.973818033578,1626
1306.0895474213703,1619
1308.2047184221678,1549
1310.3193312773528,1607
1312.4333862283888,1605
1314.5468835168163,1602
1316.659823384255,1568
1318.7722060724045,1573
1320.8840318230418,1582
1322.9953008780249,1603
1325.1060134792888,1628
1327.2161698688478,1576
1329.3257702887959,1598
1331.4348149813054,1631
1333.5433041886276,1601
1335.6512381530933,1615
1337.7586171171101,1596
1339.8654413231675,1632
1341.9717110138317,1621
1344.0774264317488,1592
1346.1825878196432,1561
1348.2871954203192,1590
1350.3912494766587,1531
1352.4947502316231,1620
1354.5976979282532,1592
1356.7000928096686,1610
1358.8019351190665,1632
1360.9032250997243,1567
1363.0039629949988,1547
1365.1041490483235,1580
1367.2037835032133,1594
1369.3028666032606,1545
1371.401398592137,1594
1373.4993797135926,1603
1375.5968102114575,1592
1377.6936903296396,1618
1379.7900203121262,1614
1381.8858004029835,1588
1383.9810308463561,1602
1386.075711886469,1606
1388.1698437676241,1607
1390.2634267342032,1591
1392.356461030667,1586
1394.4489469015557,1655
1396.5408845914872,1594
1398.6322743451592,1587
1400.7231164073469,1695
1402.813411022907,1695
1404.903158436773,1672
1406.9923588939578,1673
1409.0810126395531,1649
1411.1691199187303,1660
1413.2566809767386,1623
1415.343696058907,1645
1417.4301654106425,1687
1419.5160892774315,1661
1421.6014679048399,1683
1423.6863015385125,1738
1425.7705904241707,1691
1427.8543348076178,1702
1429.9375349347342,1736
1432.0201910514802,1702
1434.102303403894,1680
1436.1838722380944,1686
1438.2648978002767,1735
1440.3453803367174,1709
1442.4253200937692,1780
1444.5047173178677,1777
1446.5835722555234,1798
1448.6618851533285,1762
1450.739656257952,1793
1452.8168858161434,1805
1454.8935740747306,1805
1456.96972128062,1790
1459.045327680797,1858
1461.120393522327,1885
1463.1949190523528,1859
1465.2689045180973,1859
1467.3423501668608,1891
1469.415256246024,1882
1471.4876230030463,1911
1473.559450685465,1993
1475.6307395408976,1973
1477.7014898170391,1978
1479.771701761665,1981
1481.8413756226287,1941
1483.9105116478618,2022
1485.9791100853772,2045
1488.0471711832643,2032
1490.1146951896926,2054
1492.1816823529098,2037
1494.2481329212433,2017
1496.3140471430984,2054
1498.3794252669609,2137
1500.4442675413939,2123
1502.5085742150404,2103
1504.572345536622,2134
1506.6355817549388,2113
1508.6982831188702,2133
1510.7604498773744,2136
1512.8220822794883,2219
1514.8831805743293,2149
1516.9437450110909,2126
1519.003775839048,2169
1521.0632733075522,2090
1523.1222376660367,2253
1525.1806691640113,2165
1527.2385680510652,2229
1529.2959345768668,2248
1531.3527689911643,2190
1533.4090715437833,2244
1535.4648424846291,2217
1537.5200820636855,2174
1539.5747905310159,2287
1541.6289681367616,2303
1543.6826151311434,2359
1545.7357317644614,2344
1547.7883182870937,2366
1549.8403749494987,2382
1551.8919020022113,2360
1553.9428996958477,2475
1555.9933682811015,2554
1558.0433080087469,2408
1560.0927191296346,2570
1562.1416018946961,2549
1564.1899565549415,2642
1566.2377833614592,2600
1568.2850825654164,2641
1570.3318544180606,2633
1572.3780991707158,2599
1574.423817074788,2588
1576.4690083817595,2437
1578.5136733431923,2416
1580.5578122107272,2259
1582.601425236085,2348
1584.6445126710646,2216
1586.6870747675434,2121
1588.7291117774776,2107
1590.7706239529034,2141
1592.8116115459347,2000
1594.8520748087658,1950
1596.8920139936686,1926
1598.9314293529933,1904
1600.9703211391711,1924
1603.008689604711,1808
1605.0465350022005,1838
1607.0838575843068,1763
1609.1206576037753,1746
1611.1569353134305,1721
1613.1926909661765,1797
1615.2279248149953,1745
1617.2626371129481,1692
1619.2968281131757,1656
1621.3304980688963,1625
1623.3636472334088,1639
1625.39627586009,1636
1627.428384202396,1687
1629.459972513861,1652
1631.4910410480993,1584
1633.5215900588028,1648
1635.551619799744,1614
1637.5811305247717,1664
1639.6101224878166,1584
1641.6385959428862,1593
1643.6665511440683,1589
1645.693988345528,1580
1647.7209078015112,1578
1649.7473097663405,1579
1651.7731944944203,1511
1653.7985622402307,1492
1655.823413258333,1531
1657.847747803366,1544
1659.8715661300494,1511
1661.8948684931793,1601
1663.9176551476316,1523
1665.9399263483624,1589
1667.9616823504057,1538
1669.982923408873,1531
1672.0036497789574,1556
1674.0238617159293,1522
1676.043559475138,1526
1678.0627433120121,1501
1680.081413482059,1528
1682.0995702408654,1545
1684.117213844096,1510
1686.134344547495,1518
1688.1509626068864,1534
1690.1670682781705,1588
1692.182661817329,1543
1694.1977434804217,1541
1696.2123135235875,1551
1698.226372203043,1557
1700.2399197750851,1526
1702.2529564960905,1542
1704.2654826225112,1584
1706.277498410882,1486
1708.2890041178139,1569
1710.2999999999988,1598
1712.3104863142066,1500
1714.3204633172854,1561
1716.329931266163,1461
1718.3388904178469,1482
1720.3473410294214,1484
1722.3552833580516,1579
1724.3627176609807,1532
1726.3696441955308,1517
1728.3760632191033,1485
1730.3819749891782,1540
1732.3873797633146,1512
1734.3922777991502,1556
1736.3966693544012,1518
1738.4005546868639,1468
1740.4039340544127,1504
1742.406807715001,1521
1744.4091759266616,1473
1746.4110389475054,1504
1748.4123970357223,1474
1750.413250449582,1514
1752.4135994474318,1478
1754.4134442876993,1454
1756.4127852288902,1472
1758.4116225295893,1504
1760.4099564484595,1562
1762.407787244244,1451
1764.405115175764,1514
1766.4019405019203,1544
1768.3982634816916,1553
1770.3940843741357,1463
1772.3894034383907,1472
1774.3842209336717,1450
1776.378537119274,1479
1778.372352254571,1500
1780.3656665990156,1465
1782.3584804121397,1524
1784.3507939535534,1492
1786.3426074829463,1485
1788.3339212600863,1489
1790.3247355448211,1488
1792.3150505970766,1475
1794.3048666768573,1453
1796.2941840442477,1480
1798.2830029594106,1512
1800.2713236825884,1475
1802.2591464741004,1522
1804.2464715943465,1571
1806.2332993038058,1488
1808.2196298630352,1461
1810.2054635326708,1513
1812.190800573428,1413
1814.175641246101,1537
1816.1599858115628,1537
1818.1438345307652,1477
1820.127187664738,1499
1822.1100454745924,1464
1824.092408221516,1465
1826.0742761667766,1408
1828.055649571721,1466
1830.0365286977735,1490
1832.0169138064398,1486
1833.9968051593014,1495
1835.9762030180214,1497
1837.9551076443408,1501
1839.9335193000788,1459
1841.9114382471344,1508
1843.888864747485,1476
1845.8657990631878,1430
1847.842241456378,1351
1849.8181921892697,1464
1851.7936515241558,1415
1853.7686197234098,1417
1855.7430970494815,1432
1857.7170837649014,1421
1859.6905801322787,1415
1861.6635864143004,1464
1863.6361028737338,1454
1865.608129773424,1438
1867.5796673762961,1502
1869.5507159453537,1423
1871.521275743678,1488
1873.4913470344313,1394
1875.4609300808534,1432
1877.4300251462632,1476
1879.3986324940588,1452
1881.366752387717,1516
1883.3343850907936,1410
1885.3015308669228,1484
1887.268189979819,1439
1889.2343626932739,1432
1891.2000492711595,1535
1893.1652499774254,1454
1895.1299650761011,1465
1897.0941948312952,1491
1899.0579395071945,1547
1901.0211993680641,1495
1902.98397467825,1493
1904.9462657021745,1487
1906.9080727043415,1471
1908.869395949332,1502
1910.8302357018065,1488
1912.790592226504,1455
1914.7504657882428,1458
1916.7098566519212,1450
1918.6687650825133,1492
1920.6271913450764,1432
1922.5851357047422,1464
1924.5425984267245,1506
1926.499579776314,1463
1928.4560800188833,1462
1930.4120994198802,1505
1932.367638244833,1494
1934.32269675935,1505
1936.2772752291175,1447
1938.231373919899,1489
1940.1849930975404,1481
1942.1381330279637,1512
1944.0907939771696,1481
1946.0429762112412,1452
1947.9946799963363,1462
1949.9459055986945,1457
1951.896653284633,1461
1953.8469233205478,1444
1955.7967159729142,1463
1957.7460315082863,1411
1959.6948701932974,1446
1961.6432322946594,1403
1963.5911180791632,1454
1965.5385278136787,1436
1967.4854617651545,1458
1969.4319202006182,1461
1971.377903387176,1443
1973.3234115920136,1460
1975.268445082395,1493
1977.2130041256642,1468
1979.1570889892423,1470
1981.1006999406304,1482
1983.04383724741,1478
1984.986501177238,1457
1986.928691997853,1455
1988.8704099770712,1490
1990.811655382789,1425
1992.7524284829801,1439
1994.692729545698,1416
1996.6325588390755,1476
1998.5719166313224,1518
2000.5108031907307,1402
2002.4492187856677,1453
2004.387163684583,1435
2006.3246381560011,1462
2008.2616424685298,1444
2010.1981768908527,1433
2012.1342416917332,1448
2014.069837140014,1394
2016.0049635046162,1440
2017.9396210545406,1430
2019.8738100588666,1466
2021.8075307867502,1477
2023.740783507431,1378
2025.6735684902228,1421
2027.6058860045214,1463
2029.5377363198004,1444
2031.4691197056118,1423
2033.4000364315875,1445
2035.3304867674374,1416
2037.260470982952,1412
2039.189989347998,1454
2041.1190421325232,1461
2043.047629606554,1402
2044.9757520401945,1450
2046.9034097036288,1470
2048.8306028671195,1461
2050.7573318010086,1433
2052.683596775716,1434
2054.609398061742,1443
2056.5347359296647,1464
2058.4596106501403,1391
2060.384022493906,1493
2062.3079717317764,1468
2064.231458634646,1458
2066.1544834734873,1494
2068.077046519352,1377
2069.99914804337,1423
2071.9207883167524,1416
2073.8419676107865,1434
2075.7626861968406,1457
2077.6829443463607,1394
2079.6027423308715,1374
2081.522080421977,1386
2083.440958891362,1390
2085.359378010786,1389
2087.2773380520907,1363
2089.194839287196,1395
2091.111881988101,1498
2093.0284664268825,1452
2094.9445928756973,1429
2096.86026160678,1421
2098.775472892446,1463
2100.690227005088,1461
2102.604524217178,1434
2104.5183648012676,1441
2106.431749029985,1475
2108.34467717604,1423
2110.2571495122206,1457
2112.169166311393,1377
2114.080727846503,1424
2115.9918343905747,1450
2117.902486216711,1440
2119.8126835980956,1443
2121.722426807987,1460
2123.6317161197285,1454
2125.5405518067364,1457
2127.448934142509,1473
2129.356863400624,1461
2131.264339854737,1401
2133.1713637785815,1439
2135.077935445972,1479
2136.9840551308002,1457
2138.889723107037,1433
2140.7949396487334,1442
2142.699705030018,1453
2144.6040195250994,1441
2146.507883408264,1469
2148.4112969538774,1499
2150.3142604363848,1442
2152.2167741303097,1494
2154.1188383102535,1465
2156.0204532508997,1466
2157.9216192270064,1452
2159.822336513414,1490
2161.7226053850413,1494
2163.622426116884,1482
2165.5217989840185,1467
2167.4207242616,1485
2169.319202224862,1482
2171.2172331491165,1545
2173.1148173097563,1528
2175.0119549822507,1502
2176.90864644215,1492
2178.8048919650823,1483
2180.7006918267534,1615
2182.596046302952,1460
2184.4909556695407,1534
2186.3854202024645,1547
2188.279440177746,1566
2190.173015871487,1547
2192.066147559868,1516
2193.958835519149,1516
2195.851080025667,1548
2197.7428813558417,1557
2199.6342397861667,1572
2201.5251555932186,1548
2203.415629053651,1577
2205.3056604441986,1591
2207.19525004167,1574
2209.084398122958,1562
2210.9731049650327,1587
2212.861370844941,1520
2214.749196039812,1561
2216.636580826851,1574
2218.523525483344,1621
2220.410030286655,1563
2222.296095514226,1637
2224.1817214435805,1553
2226.066908352319,1595
2227.951656518121,1540
2229.835966218746,1563
2231.71983773203,1626
2233.6032713358913,1594
2235.486267308324,1595
2237.3688259274036,1543
2239.2509474712824,1567
2241.132632218193,1611
2243.013880446447,1626
2244.8946924344323,1592
2246.7750684606203,1541
2248.6550088035574,1602
2250.534513741871,1653
2252.413583554265,1590
2254.292218519526,1547
2256.170418916517,1554
2258.0481850241786,1639
2259.925517121534,1596
2261.8024154876825,1594
2263.678880401803,1598
2265.5549121431536,1585
2267.430510991071,1579
2269.305677224971,1615
2271.180411124348,1554
2273.0547129687766,1590
2274.9285830379076,1556
2276.8020216114737,1619
2278.6750289692845,1518
2280.5476053912294,1512
2282.4197511572766,1545
2284.2914665474727,1560
2286.162751841943,1642
2288.0336073208937,1624
2289.904033264608,1670
2291.774029953448,1637
2293.6435976678554,1601
2295.5127366883517,1561
2297.381447295534,1526
2299.2497297700825,1558
2301.1175843927526,1487
2302.9850114443825,1453
2304.852011205885,1416
2306.7185839582553,1382
2308.5847299825664,1393
2310.4504495599676,1371
2312.3157429716925,1320
2314.1806104990483,1318
2316.0450524234247,1290
2317.9090690262888,1241
2319.772660589186,1369
2321.635827393742,1327
2323.498569721661,1319
2325.3608878547248,1258
2327.2227820747967,1286
2329.0842526638157,1322
2330.945299903803,1357
2332.805924076857,1285
2334.6661254651535,1306
2336.525904350951,1287
2338.3852610165827,1286
2340.244195744464,1227
2342.102708817088,1312
2343.9608005170253,1282
2345.8184711269287,1278
2347.675720929526,1270
2349.532550207628,1293
2351.38895924412,1284
2353.24494832197,1333
2355.100517724223,1308
2356.955667734004,1282
2358.810398634514,1337
2360.664710709037,1325
2362.5186042409337,1313
2364.3720795136437,1345
2366.225136810686,1302
2368.0777764156583,1320
2369.929998612237,1302
2371.7818036841777,1296
2373.633191915315,1361
2375.484163589562,1330
2377.3347189909114,1272
2379.184858403434,1288
2381.03458211128,1301
2382.8838903986775,1309
2384.732783549936,1245
2386.5812618494406,1310
2388.4293255816588,1315
2390.2769750311327,1285
2392.1242104824883,1306
2393.971032220427,1269
2395.8174405297295,1321
2397.6634356952563,1369
2399.509018001947,1332
2401.3541877348193,1288
2403.1989451789705,1338
2405.043290619576,1303
2406.8872243418905,1256
2408.730746631247,1323
2410.5738577730594,1297
2412.4165580528183,1364
2414.258847756095,1373
2416.100727168537,1326
2417.9421965758734,1352
2419.783256263912,1300
2421.623906518538,1342
2423.4641476257157,1277
2425.303979871491,1336
2427.143403541984,1384
2428.9824189233977,1397
2430.821026302012,1400
2432.6592259641866,1302
2434.497018196361,1383
2436.33440328505,1348
2438.171381516851,1364
2440.00795317844,1362
2441.844118556569,1385
2443.6798779380724,1290
2445.5152316098606,1377
2447.3501798589255,1334
2449.1847229723357,1361
2451.0188612372403,1350
2452.8525949408663,1334
2454.6859243705203,1403
2456.518849813587,1333
2458.3513715575314,1317
2460.183489889895,1328
2462.015205098301,1374
2463.8465174704493,1326
2465.67742729412,1320
2467.5079348571717,1337
2469.338040447542,1337
2471.1677443532476,1335
2472.9970468623833,1336
2474.825948263123,1354
2476.6544488437207,1353
2478.482548892508,1331
2480.310248697896,1339
2482.137548548374,1340
2483.9644487325118,1318
2485.790949538956,1316
2487.617051256433,1324
2489.44275417375,1381
2491.26805857979,1277
2493.0929647635157,1386
2494.917473013971,1334
2496.741583620276,1396
2498.5652968716304,1370
2500.3886130573137,1392
2502.2115324666834,1453
2504.0340553891765,1389
2505.856182114308,1388
2507.6779129316733,1353
2509.499248130945,1382
2511.3201880018764,1377
2513.140732834298,1359
2514.9608829181198,1468
2516.780638543331,1378
2518.6,1337
2520.418967578273,1316
2522.237541568376,1318
2524.0557222606144,1366
2525.8735099453706,1415
2527.6909049131086,1406
2529.507907454368,1390
2531.32451785977,1393
2533.140736420014,1400
2534.9565634258774,1432
2536.771999168218,1458
2538.5870439379714,1394
2540.4016980261526,1487
2542.2159617238544,1410
2544.02983532225,1418
2545.8433191125914,1417
2547.656413386209,1505
2549.4691184345115,1397
2551.2814345489874,1430
2553.093362021204,1467
2554.904901142808,1529
2556.716052205523,1440
2558.526815501153,1521
2560.3371913215824,1511
2562.147179958771,1512
2563.956781704761,1492
2565.7659968516705,1549
2567.5748256916986,1531
2569.3832685171224,1554
2571.1913256202984,1511
2572.9989972936614,1555
2574.806283829725,1530
2576.613185521084,1509
2578.4197026604074,1542
2580.2258355404483,1574
2582.031584454035,1529
2583.836949694077,1525
2585.6419315535613,1580
2587.4465303255533,1532
2589.2507463032002,1597
2591.0545797797245,1511
2592.8580310484303,1531
2594.6611004026995,1530
2596.463788135992,1569
2598.266094541849,1573
2600.0680199138874,1560
2601.869564545807,1534
2603.670728731383,1571
2605.4715127644704,1518
2607.2719169390048,1526
2609.071941548998,1631
2610.8715868885433,1630
2612.670853251811,1615
2614.469740933052,1571
2616.268250226594,1605
2618.0663814268455,1610
2619.864134828292,1580
2621.6615107255006,1527
2623.458509413115,1521
2625.2551311858597,1498
2627.0513763385347,1550
2628.8472451660223,1503
2630.6427379632833,1511
2632.4378550253564,1534
2634.232596647359,1502
2636.026963124488,1519
2637.8209547520187,1540
2639.6145718253065,1441
2641.407814639785,1544
2643.200683490966,1481
2644.9931786744414,1425
2646.7853004858807,1513
2648.577049221034,1486
2650.3684251757277,1422
2652.1594286458712,1472
2653.9500599274484,1461
2655.740319316525,1444
2657.5302071092437,1431
2659.3197236018286,1409
2661.10886909058,1502
2662.8976438718782,1388
2664.686048242183,1410
2666.4740824980327,1423
2668.2617469360443,1408
2670.0490418529134,1386
2671.8359675454153,1421
2673.622524310403,1357
2675.408712444811,1408
2677.1945322456495,1376
2678.979984010009,1389
2680.76506803506,1342
2682.5497846180497,1385
2684.334134056306,1343
2686.1181166472343,1384
2687.9017326883213,1375
2689.6849824771293,1369
2691.4678663113013,1335
2693.2503844885596,1340
2695.032537306705,1336
2696.8143250636167,1348
2698.5957480572542,1381
2700.3768065856534,1353
2702.1575009469316,1297
2703.937831439283,1357
2705.717798360982,1385
2707.4974020103837,1333
2709.276642685917,1367
2711.055520686095,1299
2712.834036309506,1351
2714.612189854819,1373
2716.389981620782,1278
2718.1674119062204,1336
2719.944481010041,1259
2721.721189231226,1335
2723.4975368688415,1344
2725.273524222027,1326
2727.0491515900053,1336
2728.824419272075,1372
2730.5993275676146,1386
2732.3738767760838,1382
2734.148067197016,1343
2735.921899130031,1320
2737.6953728748194,1303
2739.468488731156,1326
2741.2412469988926,1251
2743.0136479779617,1322
2744.785691968372,1305
2746.5573792702116,1316
2748.3287101836504,1262
2750.099685008934,1308
2751.870304046388,1353
2753.640567596418,1306
2755.4104759595057,1338
2757.1800294362156,1303
2758.949228327187,1359
2760.7180729331412,1344
2762.486563554877,1341
2764.254700493272,1259
2766.022484049284,1299
2767.789914523947,1289
2769.5569922183786,1269
2771.3237174337705,1306
2773.090090471394,1309
2774.8561116326036,1286
2776.6217812188274,1337
2778.3870995315756,1301
2780.1520668724356,1334
2781.9166835430747,1321
2783.6809498452394,1305
2785.444866080754,1329
2787.2084325515225,1379
2788.971649559527,1316
2790.73451740683,1264
2792.4970363955713,1278
2794.2592068279705,1310
2796.0210290063264,1315
2797.7825032330147,1228
2799.543629810493,1307
2801.304409041296,1361
2803.0648412280366,1284
2804.8249266734088,1294
2806.5846656801846,1269
2808.344058551212,1335
2810.1031055894246,1256
2811.8618070978273,1306
2813.6201633795085,1301
2815.378174737636,1340
2817.1358414754536,1342
2818.893163896285,1304
2820.6501423035334,1317
2822.4067770006814,1278
2824.1630682912883,1271
2825.9190164789957,1275
2827.6746218675207,1377
2829.429884760661,1298
2831.184805462294,1286
2832.9393842763743,1356
2834.693621506936,1262
2836.4475174580916,1269
2838.201072434034,1288
2839.954286739034,1279
2841.707160677441,1296
2843.459694553685,1274
2845.2118886722724,1273
2846.96374333779,1299
2848.7152588549034,1290
2850.4664355283567,1297
2852.217273662973,1315
2853.9677735636546,1376
2855.7179355353833,1336
2857.4677598832186,1333
2859.217246912299,1296
2860.9663969278427,1312
2862.715210235146,1368
2864.4636871395846,1256
2866.211827946614,1321
2867.9596329617652,1294
2869.7071024906536,1275
2871.4542368389684,1324
2873.20103631248,1274
2874.947501217038,1255
2876.6936318585695,1336
2878.4394285430812,1342
2880.1848915766604,1308
2881.9300212654707,1308
2883.6748179157553,1342
2885.4192818338374,1300
2887.1634133261173,1285
2888.907212699077,1311
2890.6506802592744,1335
2892.393816313348,1325
2894.1366211680142,1325
2895.8790951300693,1342
2897.621238506388,1293
2899.363051603925,1295
2901.1045347297118,1335
2902.8456881908596,1329
2904.58651229456,1277
2906.327007348081,1261
2908.067173658772,1292
2909.8070115340597,1369
2911.5465212814497,1315
2913.285703208527,1274
2915.0245576229563,1316
2916.7630848324807,1275
2918.5012851449196,1349
2920.2391588681758,1333
2921.976706310227,1310
2923.7139277791334,1290
2925.4508235830313,1275
2927.187394030137,1276
2928.923639428745,1299
2930.6595600872306,1325
2932.395156314046,1284
2934.1304284177218,1304
2935.8653767068713,1278
2937.6000014901815,1320
2939.3343030764227,1308
2941.068281774442,1319
2942.8019378931644,1328
2944.5352717415976,1304
2946.2682836288236,1364
2948.0009738640065,1312
2949.7333427563885,1287
2951.465390615289,1304
2953.1971177501086,1333
2954.9285244703265,1336
2956.6596110855,1332
2958.3903779052657,1313
2960.1208252393385,1311
2961.8509533975125,1294
2963.5807626896617,1277
2965.3102534257378,1226
2967.0394259157715,1272
2968.768280469873,1300
2970.496817398232,1273
2972.2250370111146,1320
2973.952939618869,1290
2975.6805255319196,1312
2977.4077950607707,1344
2979.134748516006,1307
2980.861386208289,1295
2982.587708448359,1366
2984.313715547037,1297
2986.039407815222,1348
2987.764785563891,1287
2989.489849104102,1252
2991.2145987469908,1313
2992.9390348037705,1277
2994.6631575857346,1298
2996.3869674042576,1283
2998.1104645707887,1341
2999.83364939686,1321
3001.5565221940783,1280
3003.2790832741334,1255
3005.0013329487924,1301
3006.7232715298996,1310
3008.4448993293804,1283
3010.166216659239,1256
3011.887223831558,1267
3013.607921158498,1249
3015.3283089522993,1258
3017.0483875252826,1230
3018.7681571898443,1282
3020.4876182584626,1340
3022.2067710436927,1298
3023.9256158581707,1289
3025.644153014609,1316
3027.362382825801,1362
3029.0803056046193,1299
3030.797921664012,1290
3032.5152313170106,1335
3034.2322348767225,1262
3035.9489326563353,1284
3037.665324969115,1296
3039.3814121284063,1317
3041.097194447633,1307
3042.812672240299,1277
3044.5278458199855,1242
3046.2427155003525,1317
3047.9572815951406,1317
3049.671544418167,1274
3051.38550428333,1275
3053.0991615046073,1289
3054.812516396051,1283
3056.5255692717974,1285
3058.2383204460575,1253
3059.9507702331257,1227
3061.662918947372,1302
3063.3747669032446,1295
3065.0863144152736,1313
3066.7975617980674,1273
3068.508509366309,1253
3070.219157434767,1334
3071.9295063182844,1293
3073.639556331785,1292
3075.3493077902704,1282
3077.058761008821,1266
3078.7679163025964,1294
3080.476773986837,1251
3082.1853343768594,1273
3083.89359778806,1314
3085.6015645359153,1295
3087.3092349359786,1292
3089.016609303884,1314
3090.7236879553434,1309
3092.4304712061476,1311
3094.136959372166,1301
3095.843152769349,1289
3097.5490517137237,1258
3099.2546565213966,1248
3100.959967508554,1314
3102.66498499146,1301
3104.3697092864577,1288
3106.0741407099695,1265
3107.778279578498,1307
3109.482126208622,1271
3111.1856809170004,1306
3112.8889440203716,1312
3114.5919158355528,1321
3116.294596679439,1328
3117.996986869006,1284
3119.6990867213062,1271
3121.4008965534726,1274
3123.102416682717,1286
3124.803647426329,1310
3126.5045891016784,1339
3128.205242026213,1293
3129.90560651746,1325
3131.605682893025,1350
3133.3054714705922,1339
3135.0049725679282,1281
3136.7041865028714,1346
3138.4031135933465,1226
3140.101754157353,1285
3141.800108512971,1298
3143.498176978357,1270
3145.1959598717494,1307
3146.8934575114636,1310
3148.5906702158954,1249
3150.2875983035183,1269
3151.9842420928853,1305
3153.680601902627,1315
3155.376678051456,1291
3157.07247085816,1272
3158.767980641609,1235
3160.463207720748,1294
3162.158152414606,1296
3163.8528150422862,1251
3165.5471959229726,1322
3167.2412953759303,1290
3168.9351137204976,1324
3170.628651276098,1294
3172.3219083622307,1269
3174.014885298474,1310
3175.707582404485,1248
3177.4000000000005,1295
3179.092138404835,1258
3180.7839979388846,1267
3182.47557892212,1270
3184.166881674594,1244
3185.8579065164386,1290
3187.5486537678626,1346
3189.2391237491547,1271
3190.9293167806827,1294
3192.6192331828934,1297
3194.3088732763117,1278
3195.998237381542,1263
3197.687325819268,1298
3199.376138910251,1317
3201.064676975334,1287
3202.7529403354347,1312
3204.4409293115523,1278
3206.1286442247647,1291
3207.816085396229,1276
3209.5032531471825,1334
3211.190147798936,1256
3212.8767696728846,1267
3214.5631190905015,1270
3216.2491963733373,1243
3217.9350018430214,1306
3219.6205358212637,1281
3221.305798629851,1226
3222.990790590651,1207
3224.6755120256103,1220
3226.359963256751,1266
3228.0441446061795,1212
3229.7280563960758,1246
3231.411698948703,1326
3233.0950725863995,1255
3234.778177631587,1253
3236.461014406761,1277
3238.1435832345005,1270
3239.8258844374595,1311
3241.507918338374,1301
3243.1896852600576,1257
3244.8711855254023,1308
3246.552419457381,1315
3248.233387379042,1285
3249.914089613516,1326
3251.59452648401,1262
3253.274698313813,1286
3254.95460542629,1238
3256.6342481448855,1271
3258.313626793125,1270
3259.9927416946084,1230
3261.6715931730196,1212
3263.3501815521176,1246
3265.0285071557437,1268
3266.706570307815,1284
3268.3843713323286,1272
3270.0619105533615,1224
3271.739188295068,1270
3273.4162048816834,1288
3275.0929606375184,1202
3276.769455886966,1242
3278.445690954498,1284
3280.1216661646613,1305
3281.797381842087,1333
3283.4728383114807,1307
3285.1480358976296,1360
3286.8229749253996,1277
3288.4976557197333,1237
3290.172078605655,1249
3291.846243908266,1237
3293.5201519527463,1299
3295.193803064357,1274
3296.8671975684374,1267
3298.5403357904024,1275
3300.21321805575,1265
3301.8858446900567,1234
3303.558216018975,1236
3305.23033236824,1242
3306.9021940636603,1247
3308.57380143113,1271
3310.2451547966184,1287
3311.916254486174,1300
3313.5871008259246,1329
3315.2576941420766,1278
3316.9280347609147,1258
3318.5981230088046,1230
3320.2679592121895,1266
3321.9375436975924,1204
3323.606876791612,1312
3325.27595882093,1302
3326.944790112305,1245
3328.6133709925753,1286
3330.2817017886573,1259
3331.949782827547,1239
3333.617614436319,1266
3335.2851969421245,1270
3336.952530672199,1269
3338.619615953853,1264
3340.286453114475,1258
3341.9530424815357,1312
3343.619384382583,1322
3345.2854791452437,1285
3346.951327097224,1237
3348.6169285663073,1274
3350.2822838803577,1292
3351.947393367319,1275
3353.61225735521,1275
3355.2768761721345,1303
3356.9412501462693,1280
3358.605379605873,1240
3360.2692648792827,1263
3361.9329062949146,1223
3363.596304181263,1288
