CollectionTime,7/11/2024 1:21:08 PM
ExposureUsed,3
CalibratedSpectrum
-962.7078968117929,506
-959.9714848408522,509
-957.2358232597828,544
-954.5009119013725,514
-951.7667505983302,509
-949.0333391832855,514
-946.3006774887896,539
-943.5687653473143,536
-940.837602591253,523
-938.1071890529199,533
-935.3775245645503,537
-932.6486089583007,520
-929.9204420662485,520
-927.1930237203925,545
-924.4663537526524,521
-921.7404319948689,540
-919.0152582788041,530
-916.2908324361409,594
-913.5671542984834,547
-910.8442236973568,535
-908.1220404642074,544
-905.4006044304027,549
-902.679915427231,537
-899.959973285902,533
-897.2407778375464,514
-894.5223289132158,539
-891.8046263438832,548
-889.0876699604426,526
-886.3714595937089,499
-883.6559950744183,530
-880.9412762332282,534
-878.2273029007168,519
-875.5140749073835,503
-872.8015920836489,501
-870.0898542598545,516
-867.3788612662631,509
-864.6686129330585,537
-861.9591090903457,522
-859.2503495681506,516
-856.5423341964203,515
-853.8350628050229,491
-851.1285352237478,510
-848.4227512823054,517
-845.7177108103272,507
-843.0134136373656,506
-840.3098595928943,524
-837.6070485063082,529
-834.9049802069229,512
-832.2036545239757,507
-829.5030712866244,514
-826.8032303239481,539
-824.1041314649472,526
-821.4057745385428,525
-818.7081593735775,552
-816.0112857988148,537
-813.3151536429393,528
-810.6197627345566,527
-807.9251129021936,526
-805.2312039742981,538
-802.5380357792392,514
-799.8456081453069,505
-797.1539209007124,526
-794.462973873588,544
-791.772766891987,546
-789.083299783884,524
-786.3945723771743,501
-783.7065844996748,507
-781.0193359791231,521
-778.3328266431781,543
-775.6470563194197,523
-772.9620248353489,515
-770.2777320183878,508
-767.5941776958798,498
-764.9113616950891,542
-762.2292838432011,547
-759.5479439673222,527
-756.8673418944801,550
-754.1874774516235,545
-751.5083504656222,518
-748.8299607632671,569
-746.15230817127,532
-743.475392516264,541
-740.7992136248035,573
-738.1237713233636,537
-735.4490654383407,555
-732.7750957960521,543
-730.1018622227365,581
-727.4293645445534,564
-724.7576025875837,550
-722.0865761778291,548
-719.4162851412126,558
-716.7467293035781,584
-714.0779084906909,597
-711.409822528237,570
-708.7424712418238,577
-706.0758544569796,579
-703.4099719991541,584
-700.7448236937178,618
-698.0804093659622,595
-695.4167288411002,591
-692.7537819442656,558
-690.0915685005134,577
-687.4300883348199,579
-684.7693412720819,571
-682.1093271371178,585
-679.4500457546669,598
-676.7914969493897,592
-674.1336805458676,585
-671.4765963686034,567
-668.8202442420206,642
-666.1646239904642,614
-663.5097354382001,574
-660.8555784094151,611
-658.2021527282176,632
-655.5494582186366,616
-652.8974947046223,620
-650.2462620100463,588
-647.5957599587009,607
-644.9459883742998,625
-642.2969470804776,622
-639.6486359007902,637
-637.0010546587141,637
-634.3542031776476,604
-631.7080812809096,623
-629.0626887917401,632
-626.4180255333008,609
-623.7740913286734,646
-621.1308860008619,625
-618.4884093727904,628
-615.8466612673046,619
-613.2056415071715,611
-610.5653499150785,585
-607.9257863136347,623
-605.28695052537,630
-602.6488423727357,625
-600.0114616781036,666
-597.3748082637674,613
-594.7388819519412,648
-592.1036825647604,673
-589.4692099242818,710
-586.8354638524829,669
-584.2024441712624,650
-581.5701507024403,659
-578.9385832677575,616
-576.3077416888759,607
-573.6776257873787,639
-571.0482353847704,638
-568.4195703024757,630
-565.7916303618415,620
-563.164415384135,646
-560.5379251905453,660
-557.9121596021815,672
-555.2871184400748,654
-552.6628015251767,663
-550.0392086783606,673
-547.4163397204204,709
-544.794194472071,676
-542.1727727539491,694
-539.5520743866118,695
-536.9320991905377,748
-534.3128469861261,727
-531.6943175936979,741
-529.0765108334947,729
-526.4594265256793,768
-523.8430644903358,863
-521.2274245474689,924
-518.612506517005,994
-515.9983102187913,1002
-513.3848354725959,1020
-510.77208209810846,1082
-508.16004991493924,1158
-505.5487387426199,1351
-502.9381484006032,1429
-500.3282787082628,1425
-497.71912948489364,1331
-495.1107005497117,1240
-492.5029917218539,1143
-489.8960028203786,1005
-487.28973366426493,881
-484.68418407241325,863
-482.07935386364494,801
-479.47524285670266,791
-476.87185087025,817
-474.2691777228715,819
-471.66722323307334,840
-469.0659872192821,821
-466.4654694998459,885
-463.86566989303384,834
-461.26658821703614,813
-458.66822428996414,845
-456.07057792985,777
-453.4736489546475,809
-450.877437182231,760
-448.28194243039627,750
-445.68716451686,767
-443.09310325926003,824
-440.49975847515555,797
-437.9071299820263,770
-435.31521759727354,804
-432.72402113821954,832
-430.13354042210767,804
-427.5437752661022,819
-424.95472548728867,834
-422.36639090267386,821
-419.7787713291855,843
-417.1918665836721,865
-414.60567648290385,887
-412.0202008435715,837
-409.4354394822874,873
-406.8513922155845,843
-404.26805885991723,878
-401.685439231661,865
-399.103533147112,910
-396.522340422488,861
-393.9418608739278,905
-391.3620943174908,829
-388.7830405691583,857
-386.2046994448317,814
-383.6270707603344,751
-381.05015433141045,717
-378.473949973725,721
-375.8984575028645,656
-373.32367673433623,634
-370.74960748356875,572
-368.1762495659117,595
-365.60360279663576,554
-363.03166699093265,470
-360.4604419639154,505
-357.8899275306178,483
-355.32012350599507,458
-352.7510297049233,460
-350.1826459421999,446
-347.61497203254316,436
-345.04800779059235,437
-342.4817530309082,465
-339.91620756797226,458
-337.35137121618743,496
-334.7872437898774,490
-332.22382510328725,495
-329.66111497058273,458
-327.09911320585127,458
-324.53781962310075,456
-321.9772340362607,458
-319.4173562591816,432
-316.8581861056348,423
-314.2997233893127,434
-311.7419679238294,419
-309.1849195227194,432
-306.62857799943856,463
-304.0729431673641,514
-301.51801483979375,470
-298.963792829947,487
-296.41027695096386,495
-293.85746701590574,514
-291.3053628377552,534
-288.7539642294155,566
-286.2032710037115,491
-283.65328297338897,462
-281.1039999511146,526
-278.5554217494762,587
-276.007548180983,531
-273.4603790580651,480
-270.9139141930734,489
-268.3681533982807,475
-265.8230964858798,489
-263.27874326798565,522
-260.7350935566336,563
-258.1921471637804,502
-255.6499039013039,479
-253.10836358100266,550
-250.56752601459698,562
-248.02739101372765,572
-245.48795838995704,607
-242.94922795476816,554
-240.41119951956557,543
-237.8738728956746,581
-235.33724789434166,600
-232.80132432673452,539
-230.2661020039418,521
-227.73158073697357,573
-225.19776033676033,624
-222.66464061415422,630
-220.1322213799284,572
-217.60050244477725,539
-215.06948361931552,554
-212.53916471408013,571
-210.00954553952818,619
-207.48062590603843,604
-204.9524056239104,574
-202.4248845033651,635
-199.8980623545441,584
-197.37193898751036,588
-194.84651421224817,603
-192.32178783866232,625
-189.79775967657952,632
-187.27442953574644,730
-184.7517972258321,763
-182.2298625564256,771
-179.7086253370378,706
-177.18808537710026,662
-174.66824248596583,635
-172.14909647290835,656
-169.6306471471229,676
-167.11289431772548,711
-164.59583779375328,727
-162.07947738416453,683
-159.5638128978386,680
-157.04884414357605,746
-154.53457093009854,820
-152.02099306604828,727
-149.50811035998936,630
-146.99592262040665,677
-144.48442965570587,719
-141.97363127421409,730
-139.46352728417958,733
-136.95411749377126,770
-134.44540171107985,712
-131.93737974411636,695
-129.43005140081357,741
-126.92341648902493,955
-124.41747481652521,1076
-121.91222619101006,1227
-119.40767042009657,1543
-116.90380731132257,1557
-114.40063667214702,1719
-111.8981583099503,1865
-109.3963720320337,1451
-106.89527764561933,1241
-104.39487495785067,1310
-101.89516377579241,1678
-99.39614390642998,2416
-96.89781515667039,2591
-94.40017733334128,2379
-91.90323024319173,2392
-89.40697369289148,4511
-86.91140748903172,6137
-84.41653143812482,6468
-81.92234534660395,5210
-79.42884902082358,3783
-76.93604226705907,5609
-74.4439248915071,12035
-71.95249670028534,20053
-69.46175749943245,23920
-66.97170709490854,23930
-64.48234529259423,21450
-61.99367189829195,17146
-59.50568671772464,12538
-57.01838955653636,8751
-54.53178022029283,8257
-52.045858514480074,7728
-49.560624244506016,7195
-47.07607721569923,8228
-44.59221723330904,9321
-42.10904410250669,9260
-39.62655762838392,8430
-37.14475761595372,8463
-34.66364387015028,8423
-32.18321619582866,7635
-29.70347439776515,7726
-27.224418280657005,7399
-24.74604764912317,7357
-22.26836230770266,10351
-19.7913620608565,19515
-17.315046712966478,35257
-14.83941606833514,48180
-12.36446993118659,65038
-9.89020810566592,65038
-7.416630395839093,65038
-4.94373660569363,65038
-2.471526539137585,65038
-6.821210263296962E-13,65038
2.47084320796705,65038
4.941003281093458,65038
7.410480415786196,65038
9.879274808531363,65038
12.347386655893956,65038
14.814816154518212,65038
17.28156350112681,65038
19.74762889252179,65038
22.21301252558385,20908
24.67771459727237,3837
27.141735304626195,2448
29.605074844762612,2135
32.06773341487792,2083
34.52971121224755,2119
36.99100843422559,2447
39.45162527824516,2056
41.91156194181792,1581
44.370818622535126,1505
46.82939551806646,1223
49.287292826160524,1305
51.74451074464503,1603
54.201049471426245,1628
56.65690920448981,1568
59.112090141899785,1312
61.56659248179983,1105
64.02041642241159,955
66.4735621620365,899
68.92602989905402,870
71.37781983192338,1008
73.82893215918205,1108
76.27936707944684,1087
78.72912479141326,1015
81.17820549385567,1040
83.62660938562783,1224
86.07433666566146,1152
88.5213875329681,898
90.96776218663751,842
93.41346082583925,834
95.85848364982041,886
98.30283085790859,1104
100.7465026495089,1181
103.18949922410604,1002
105.63182078126385,900
108.07346752062438,950
110.51443964190923,755
112.95473734491827,799
115.39436082953114,815
117.83331029570547,814
120.27158594347827,779
122.7091879729652,949
125.1461165843615,951
127.58237197794062,792
130.01795435405518,675
132.4528639131364,721
134.88710085569494,754
137.32066538231982,716
139.75355769367923,742
142.1857779905207,698
144.61732647366978,715
147.04820334403132,778
149.47840880258934,788
151.90794305040674,786
154.33680628862487,943
156.76499871846443,1074
159.19252054122433,1223
161.61937195828352,1236
164.04555317109896,1353
166.47106438120693,1548
168.89590579022217,1630
171.320077599839,1783
173.7435800118302,1839
176.16641322804742,1870
178.58857745042144,2002
181.01007288096173,2120
183.43089972175687,2117
185.85105817497413,2037
188.27054844285988,2103
190.6893707277394,2131
193.10752523201643,2076
195.5250121581745,2131
197.9418317087751,2246
200.3579840864594,2212
202.7734694939469,2188
205.18828813403627,2278
207.6024402096051,2295
210.01592592360964,2390
212.42874547908548,2285
214.84089907914665,2308
217.2523869269868,2385
219.66320922587727,2286
222.0733661791695,2290
224.48285799029293,2282
226.8916848627572,2355
229.29984700014882,2329
231.7073446061355,2448
234.11417788446204,2451
236.520347038953,2425
238.92585227351185,2420
241.33069379212054,2515
243.73487179884035,2616
246.1383864978112,2532
248.541238093252,2633
250.9434267894609,2554
253.34495279081432,2633
255.74581630176783,2689
258.1460175268563,2671
260.54555667069314,2659
262.9444339379703,2675
265.3426495334594,2544
267.7402036620107,2572
270.1370965285529,2611
272.53332833809407,2488
274.9288992957214,2404
277.32380960660055,2299
279.718059475976,2262
282.1116491091717,2353
284.5045787115897,2186
286.89684848871195,2215
289.2884586460981,2233
291.67940938938807,2251
294.0697009242996,2311
296.4593334566299,2334
298.84830719225477,2264
301.23662233712923,2200
303.6242790972866,2243
306.01127767884,2156
308.39761828798066,2184
310.78330113097934,2164
313.16832641418534,2116
315.5526943440269,2080
317.9364051270112,2063
320.3194589697242,2111
322.70185607883093,2075
325.0835966610754,2053
327.4646809232805,2038
329.8451090723478,1959
332.2248813152577,1945
334.6039978590701,2034
336.9824589109231,1916
339.36026467803447,1897
341.7374153677,1972
344.113911187295,1934
346.48975234427337,1950
348.8649390461686,1927
351.2394715005918,1834
353.61334991523415,1828
355.9865744978655,1841
358.35914545633375,1826
360.73106299856715,1868
363.10232733257146,1908
365.47293866643247,1847
367.84289720831396,1857
370.2122031664593,1803
372.5808567491905,1827
374.9488581649083,1865
377.31620762209275,1771
379.6829053293021,1780
382.0489514951745,1795
384.4143463284262,1785
386.7790900378528,1773
389.14318283232853,1784
391.50662492080653,1824
393.86941651231916,1817
396.23155781597745,1811
398.5930490409713,1775
400.9538903965696,1836
403.3140820921202,1745
405.6736243370498,1766
408.03251734086336,1747
410.3907613131465,1767
412.74835646356166,1787
415.10530300185144,1797
417.4616011378372,1728
419.81725108141893,1735
422.1722530425758,1743
424.5266072313656,1739
426.880313857925,1701
429.2333731324701,1664
431.58578526529516,1780
433.9375504667738,1782
436.2886689473588,1724
438.63914091758113,1664
440.9889665880513,1698
443.33814616945835,1723
445.68667987257015,1662
448.03456790823395,1615
450.3818104873759,1679
452.72840782100013,1681
455.07436012019105,1650
457.41966759611057,1662
459.7643304600007,1699
462.10834892318155,1695
464.4517231970525,1677
466.79445349309174,1709
469.1365400228566,1623
471.4779829979826,1703
473.81878263018564,1679
476.15893913125876,1749
478.4984527130747,1709
480.8373235875855,1736
483.17555196682144,1734
485.5131380628919,1809
487.8500820879857,1895
490.1863842543697,1953
492.52204477439034,2039
494.8570638604725,2184
497.1914417251204,2447
499.52517858091653,2741
501.85827464052306,2990
504.19073011668036,3105
506.5225452222086,3176
508.85372017000566,3048
511.18425517304956,3109
513.514150444396,3040
515.8434061971808,3607
518.1720226446176,4113
520.4999999999999,4200
522.8273384766991,4026
525.1540382881666,3719
527.480099647932,3258
529.8055227696037,2730
532.1303078668694,2253
534.454455153496,1904
536.777964843328,1887
539.1008371502907,1795
541.4230722883866,1719
543.744670471698,1671
546.0656319143858,1749
548.3859568306899,1682
550.7056454349294,1667
553.0246979415016,1664
555.3431145648834,1667
557.6608955196306,1640
559.978041020377,1620
562.2945512818363,1688
564.6104265188006,1670
566.9256669461412,1697
569.2402727788082,1743
571.5542442318302,1675
573.8675815203156,1699
576.1802848594508,1704
578.4923544645015,1736
580.8037905508126,1736
583.114593333807,1653
585.4247630289875,1681
587.7342998519354,1710
590.0432040183106,1736
592.3514757438526,1700
594.6591152443794,1722
596.9661227357875,1754
599.2724984340531,1753
601.578242555231,1654
603.8833553154542,1702
606.1878369309362,1818
608.4916876179676,1746
610.7949075929192,1710
613.0974970722403,1729
615.3994562724587,1728
617.7007854101818,1751
620.0014847020951,1737
622.3015543649641,1687
624.6009946156324,1773
626.8998056710224,1738
629.1979877481361,1679
631.4955410640538,1703
633.7924658359349,1772
636.0887622810175,1727
638.3844306166192,1746
640.6794710601358,1790
642.9738838290426,1855
645.2676691408932,1797
647.5608272133207,1751
649.853358264037,1811
652.1452625108324,1793
654.4365401715764,1792
656.7271914642178,1833
659.0172166067838,1737
661.3066158173809,1859
663.5953893141935,1770
665.8835373154867,1829
668.1710600396028,1787
670.4579577049639,1747
672.7442305300709,1659
675.0298787335033,1754
677.3149025339197,1757
679.599302150058,1727
681.8830778007342,1780
684.1662297048437,1746
686.4487580813608,1816
688.7306631493387,1846
691.0119451279091,1777
693.2926042362834,1726
695.5726406937516,1763
697.8520547196814,1829
700.1308465335215,1773
702.4090163547982,1841
704.6865644031171,1760
706.9634908981619,1783
709.2397960596965,1745
711.5154801075631,1805
713.7905432616823,1827
716.0649857420548,1763
718.3388077687592,1720
720.612009561953,1777
722.8845913418733,1772
725.1565533288352,1779
727.427895743234,1805
729.6986188055427,1764
731.9687227363137,1702
734.238207756178,1712
736.5070740858458,1717
738.7753219461066,1729
741.0429515578281,1760
743.3099631419569,1802
745.5763569195191,1807
747.8421331116193,1707
750.1072919394409,1745
752.3718336242467,1757
754.6357583873777,1808
756.8990664502545,1801
759.1617580343765,1828
761.423833361321,1770
763.6852926527457,1801
765.9461361303862,1851
768.206364016058,1833
770.4659765316536,1768
772.7249738991469,1807
774.9833563405886,1754
777.2411240781092,1698
779.4982773339183,1784
781.7548163303044,1767
784.010741289634,1832
786.2660524343538,1914
788.5207499869881,1816
790.7748341701416,1751
793.0283052064964,1807
795.2811633188143,1802
797.5334087299362,1799
799.7850416627813,1821
802.0360623403484,1813
804.2864709857143,1780
806.5362678220353,1805
808.7854530725468,1814
811.0340269605625,1861
813.2819897094754,1862
815.5293415427581,1753
817.77608268396,1802
820.0222133567116,1791
822.2677337847211,1770
824.5126441917765,1834
826.7569448017433,1874
829.0006358385675,1783
831.2437175262731,1826
833.4861900889629,1758
835.7280537508192,1838
837.9693087361026,1847
840.2099552691533,1769
842.4499935743896,1755
844.689423876309,1815
846.9282463994886,1850
849.1664613685833,1821
851.4040690083276,1785
853.6410695435349,1835
855.877463199097,1788
858.1132501999847,1825
860.3484307712487,1811
862.5830051380175,1882
864.8169735254988,1720
867.0503361589791,1785
869.2830932638243,1830
871.5152450654786,1779
873.7467917894654,1828
875.9777336613873,1795
878.2080709069252,1838
880.4378037518389,1816
882.666932421968,1777
884.8954571432301,1838
887.1233781416219,1834
889.3506956432192,1860
891.5774098741766,1862
893.803521060728,1866
896.0290294291852,1844
898.2539352059397,1886
900.4782386174619,1788
902.7019398903011,1859
904.925039251085,1794
907.147536926521,1825
909.3694331433943,1807
911.59072812857,1835
913.8114221089921,1752
916.0315153116827,1889
918.2510079637437,1867
920.4699002923547,1718
922.6881925247761,1819
924.905884888345,1760
927.1229776104793,1807
929.3394709186747,1825
931.555365040506,1776
933.7706602036275,1732
935.9853566357709,1776
938.1994545647489,1771
940.4129542184515,1846
942.6258558248488,1804
944.8381596119883,1809
947.0498658079974,1761
949.2609746410825,1814
951.4714863395287,1741
953.6814011316998,1721
955.8907192460387,1769
958.0994409110671,1720
960.3075663553858,1757
962.5150958076741,1780
964.7220294966913,1752
966.928367651274,1759
969.1341105003388,1744
971.3392582728806,1711
973.5438111979742,1702
975.747769504772,1654
977.9511334225061,1647
980.153903180487,1618
982.3560790081052,1769
984.5576611348289,1703
986.7586497902058,1623
988.9590452038618,1687
991.158847605503,1662
993.3580572249133,1605
995.5566742919558,1614
997.7546990365728,1581
999.952131688785,1568
1002.1489724786926,1587
1004.3452216364743,1511
1006.5408793923874,1500
1008.7359459767691,1525
1010.9304216200343,1515
1013.1243065526781,1558
1015.3176010052733,1591
1017.510305208472,1483
1019.7024193930064,1518
1021.8939437896848,1511
1024.0848786293977,1587
1026.2752241431122,1495
1028.4649805618747,1514
1030.6541481168115,1446
1032.842727039127,1494
1035.0307175601051,1448
1037.2181199111074,1426
1039.4049343235752,1395
1041.591161029029,1453
1043.7768002590683,1380
1045.9618522453698,1477
1048.1463172196918,1419
1050.3301954138697,1490
1052.513487059818,1421
1054.69619238953,1427
1056.8783116350783,1422
1059.0598450286152,1423
1061.2407928023704,1439
1063.4211551886528,1394
1065.6009324198508,1423
1067.780124728432,1403
1069.9587323469414,1357
1072.1367555080046,1459
1074.314194444325,1420
1076.4910493886855,1466
1078.667320573947,1408
1080.843008233051,1382
1083.0181125990161,1354
1085.1926339049414,1387
1087.3665723840027,1360
1089.5399282694575,1372
1091.7127017946405,1402
1093.8848931929647,1385
1096.0565026979243,1356
1098.2275305430899,1378
1100.3979769621128,1316
1102.567842188722,1396
1104.737126456726,1374
1106.9058300000124,1358
1109.0739530525475,1373
1111.2414958483764,1345
1113.4084586216231,1318
1115.5748416064907,1303
1117.7406450372605,1272
1119.9058691482942,1330
1122.0705141740304,1316
1124.2345803489884,1342
1126.3980679077658,1363
1128.5609770850388,1361
1130.7233081155623,1324
1132.8850612341707,1394
1135.0462366757774,1393
1137.2068346753745,1359
1139.3668554680326,1370
1141.526299288901,1410
1143.68516637321,1359
1145.8434569562655,1400
1148.001171273455,1356
1150.158309560244,1336
1152.3148720521767,1308
1154.470858984876,1351
1156.626270594044,1385
1158.7811071154629,1340
1160.9353687849912,1307
1163.089055838569,1331
1165.242168512213,1333
1167.3947070420209,1294
1169.5466716641677,1337
1171.6980626149075,1300
1173.8488801305748,1285
1175.9991244475814,1328
1178.1487958024186,1268
1180.2978944316555,1309
1182.4464205719428,1310
1184.5943744600072,1306
1186.7417563326567,1325
1188.8885664267755,1295
1191.0348049793297,1282
1193.1804722273619,1274
1195.325568407995,1302
1197.4700937584303,1329
1199.614048515948,1358
1201.7574329179074,1321
1203.900247201746,1334
1206.042491604982,1330
1208.1841663652099,1289
1210.3252717201053,1289
1212.465807907422,1313
1214.6057751649923,1364
1216.7451737307279,1297
1218.8840038426192,1341
1221.0222657387353,1327
1223.1599596572241,1336
1225.2970858363137,1359
1227.4336445143094,1304
1229.5696359295966,1308
1231.705060320639,1333
1233.8399179259786,1381
1235.9742089842384,1357
1238.107933734118,1306
1240.2410924143974,1347
1242.373685263935,1296
1244.5057125216676,1378
1246.6371744266116,1341
1248.7680712178621,1351
1250.898403134593,1319
1253.028170416058,1346
1255.1573733015875,1374
1257.2860120305932,1342
1259.4140868425648,1381
1261.54159797707,1381
1263.6685456737569,1355
1265.7949301723515,1358
1267.9207517126597,1396
1270.046010534565,1314
1272.1707068780306,1419
1274.2948409830983,1359
1276.4184130898889,1390
1278.541423438603,1393
1280.6638722695184,1377
1282.785759822993,1393
1284.9070863394636,1410
1287.0278520594447,1373
1289.1480572235314,1426
1291.2677020723963,1437
1293.3867868467923,1440
1295.5053117875495,1433
1297.623277135579,1462
1299.740683131868,1440
1301.8575300174857,1450
1303.973818033578,1452
1306.0895474213703,1469
1308.2047184221678,1442
1310.3193312773528,1431
1312.4333862283888,1461
1314.5468835168163,1435
1316.659823384255,1422
1318.7722060724045,1494
1320.8840318230418,1467
1322.9953008780249,1469
1325.1060134792888,1486
1327.2161698688478,1402
1329.3257702887959,1473
1331.4348149813054,1454
1333.5433041886276,1450
1335.6512381530933,1449
1337.7586171171101,1429
1339.8654413231675,1458
1341.9717110138317,1492
1344.0774264317488,1462
1346.1825878196432,1474
1348.2871954203192,1486
1350.3912494766587,1417
1352.4947502316231,1457
1354.5976979282532,1446
1356.7000928096686,1421
1358.8019351190665,1418
1360.9032250997243,1451
1363.0039629949988,1426
1365.1041490483235,1415
1367.2037835032133,1439
1369.3028666032606,1427
1371.401398592137,1466
1373.4993797135926,1472
1375.5968102114575,1439
1377.6936903296396,1492
1379.7900203121262,1416
1381.8858004029835,1439
1383.9810308463561,1431
1386.075711886469,1433
1388.1698437676241,1505
1390.2634267342032,1455
1392.356461030667,1440
1394.4489469015557,1472
1396.5408845914872,1498
1398.6322743451592,1454
1400.7231164073469,1494
1402.813411022907,1491
1404.903158436773,1448
1406.9923588939578,1485
1409.0810126395531,1500
1411.1691199187303,1528
1413.2566809767386,1455
1415.343696058907,1480
1417.4301654106425,1531
1419.5160892774315,1540
1421.6014679048399,1491
1423.6863015385125,1484
1425.7705904241707,1580
1427.8543348076178,1514
1429.9375349347342,1572
1432.0201910514802,1604
1434.102303403894,1607
1436.1838722380944,1547
1438.2648978002767,1590
1440.3453803367174,1656
1442.4253200937692,1655
1444.5047173178677,1662
1446.5835722555234,1675
1448.6618851533285,1649
1450.739656257952,1681
1452.8168858161434,1748
1454.8935740747306,1749
1456.96972128062,1720
1459.045327680797,1715
1461.120393522327,1825
1463.1949190523528,1790
1465.2689045180973,1815
1467.3423501668608,1822
1469.415256246024,1866
1471.4876230030463,1821
1473.559450685465,1896
1475.6307395408976,1902
1477.7014898170391,1976
1479.771701761665,2016
1481.8413756226287,2062
1483.9105116478618,1976
1485.9791100853772,1922
1488.0471711832643,2106
1490.1146951896926,2066
1492.1816823529098,2047
1494.2481329212433,2069
1496.3140471430984,2098
1498.3794252669609,2136
1500.4442675413939,2115
1502.5085742150404,2152
1504.572345536622,2140
1506.6355817549388,2183
1508.6982831188702,2198
1510.7604498773744,2177
1512.8220822794883,2159
1514.8831805743293,2196
1516.9437450110909,2217
1519.003775839048,2218
1521.0632733075522,2270
1523.1222376660367,2199
1525.1806691640113,2224
1527.2385680510652,2213
1529.2959345768668,2336
1531.3527689911643,2260
1533.4090715437833,2304
1535.4648424846291,2278
1537.5200820636855,2353
1539.5747905310159,2375
1541.6289681367616,2347
1543.6826151311434,2366
1545.7357317644614,2407
1547.7883182870937,2437
1549.8403749494987,2526
1551.8919020022113,2526
1553.9428996958477,2507
1555.9933682811015,2564
1558.0433080087469,2619
1560.0927191296346,2643
1562.1416018946961,2678
1564.1899565549415,2739
1566.2377833614592,2763
1568.2850825654164,2652
1570.3318544180606,2647
1572.3780991707158,2627
1574.423817074788,2517
1576.4690083817595,2542
1578.5136733431923,2424
1580.5578122107272,2391
1582.601425236085,2250
1584.6445126710646,2154
1586.6870747675434,2115
1588.7291117774776,2058
1590.7706239529034,1941
1592.8116115459347,1979
1594.8520748087658,1897
1596.8920139936686,1839
1598.9314293529933,1869
1600.9703211391711,1791
1603.008689604711,1732
1605.0465350022005,1665
1607.0838575843068,1645
1609.1206576037753,1688
1611.1569353134305,1614
1613.1926909661765,1632
1615.2279248149953,1607
1617.2626371129481,1563
1619.2968281131757,1523
1621.3304980688963,1529
1623.3636472334088,1560
1625.39627586009,1527
1627.428384202396,1525
1629.459972513861,1490
1631.4910410480993,1519
1633.5215900588028,1458
1635.551619799744,1426
1637.5811305247717,1445
1639.6101224878166,1428
1641.6385959428862,1472
1643.6665511440683,1382
1645.693988345528,1380
1647.7209078015112,1446
1649.7473097663405,1401
1651.7731944944203,1410
1653.7985622402307,1414
1655.823413258333,1448
1657.847747803366,1347
1659.8715661300494,1443
1661.8948684931793,1412
1663.9176551476316,1436
1665.9399263483624,1422
1667.9616823504057,1402
1669.982923408873,1396
1672.0036497789574,1396
1674.0238617159293,1413
1676.043559475138,1368
1678.0627433120121,1388
1680.081413482059,1403
1682.0995702408654,1347
1684.117213844096,1383
1686.134344547495,1409
1688.1509626068864,1413
1690.1670682781705,1394
1692.182661817329,1363
1694.1977434804217,1430
1696.2123135235875,1386
1698.226372203043,1393
1700.2399197750851,1421
1702.2529564960905,1426
1704.2654826225112,1409
1706.277498410882,1400
1708.2890041178139,1388
1710.2999999999988,1403
1712.3104863142066,1380
1714.3204633172854,1367
1716.329931266163,1376
1718.3388904178469,1379
1720.3473410294214,1392
1722.3552833580516,1441
1724.3627176609807,1338
1726.3696441955308,1421
1728.3760632191033,1372
1730.3819749891782,1316
1732.3873797633146,1396
1734.3922777991502,1411
1736.3966693544012,1383
1738.4005546868639,1360
1740.4039340544127,1384
1742.406807715001,1380
1744.4091759266616,1377
1746.4110389475054,1385
1748.4123970357223,1390
1750.413250449582,1348
1752.4135994474318,1355
1754.4134442876993,1270
1756.4127852288902,1321
1758.4116225295893,1365
1760.4099564484595,1293
1762.407787244244,1337
1764.405115175764,1285
1766.4019405019203,1284
1768.3982634816916,1294
1770.3940843741357,1399
1772.3894034383907,1286
1774.3842209336717,1262
1776.378537119274,1249
1778.372352254571,1318
1780.3656665990156,1291
1782.3584804121397,1309
1784.3507939535534,1290
1786.3426074829463,1294
1788.3339212600863,1311
1790.3247355448211,1316
1792.3150505970766,1302
1794.3048666768573,1317
1796.2941840442477,1276
1798.2830029594106,1283
1800.2713236825884,1340
1802.2591464741004,1333
1804.2464715943465,1315
1806.2332993038058,1314
1808.2196298630352,1284
1810.2054635326708,1313
1812.190800573428,1256
1814.175641246101,1302
1816.1599858115628,1262
1818.1438345307652,1291
1820.127187664738,1258
1822.1100454745924,1254
1824.092408221516,1222
1826.0742761667766,1282
1828.055649571721,1307
1830.0365286977735,1304
1832.0169138064398,1264
1833.9968051593014,1347
1835.9762030180214,1273
1837.9551076443408,1231
1839.9335193000788,1240
1841.9114382471344,1260
1843.888864747485,1297
1845.8657990631878,1278
1847.842241456378,1285
1849.8181921892697,1289
1851.7936515241558,1242
1853.7686197234098,1208
1855.7430970494815,1252
1857.7170837649014,1252
1859.6905801322787,1244
1861.6635864143004,1266
1863.6361028737338,1230
1865.608129773424,1245
1867.5796673762961,1252
1869.5507159453537,1251
1871.521275743678,1267
1873.4913470344313,1292
1875.4609300808534,1264
1877.4300251462632,1310
1879.3986324940588,1302
1881.366752387717,1289
1883.3343850907936,1294
1885.3015308669228,1309
1887.268189979819,1270
1889.2343626932739,1275
1891.2000492711595,1237
1893.1652499774254,1326
1895.1299650761011,1289
1897.0941948312952,1305
1899.0579395071945,1315
1901.0211993680641,1329
1902.98397467825,1293
1904.9462657021745,1260
1906.9080727043415,1249
1908.869395949332,1276
1910.8302357018065,1266
1912.790592226504,1276
1914.7504657882428,1275
1916.7098566519212,1236
1918.6687650825133,1285
1920.6271913450764,1266
1922.5851357047422,1238
1924.5425984267245,1243
1926.499579776314,1262
1928.4560800188833,1274
1930.4120994198802,1314
1932.367638244833,1282
1934.32269675935,1256
1936.2772752291175,1242
1938.231373919899,1286
1940.1849930975404,1274
1942.1381330279637,1312
1944.0907939771696,1254
1946.0429762112412,1276
1947.9946799963363,1266
1949.9459055986945,1228
1951.896653284633,1277
1953.8469233205478,1255
1955.7967159729142,1282
1957.7460315082863,1262
1959.6948701932974,1284
1961.6432322946594,1325
1963.5911180791632,1246
1965.5385278136787,1258
1967.4854617651545,1285
1969.4319202006182,1282
1971.377903387176,1314
1973.3234115920136,1238
1975.268445082395,1255
1977.2130041256642,1257
1979.1570889892423,1259
1981.1006999406304,1247
1983.04383724741,1216
1984.986501177238,1225
1986.928691997853,1238
1988.8704099770712,1236
1990.811655382789,1279
1992.7524284829801,1272
1994.692729545698,1252
1996.6325588390755,1262
1998.5719166313224,1272
2000.5108031907307,1199
2002.4492187856677,1269
2004.387163684583,1263
2006.3246381560011,1244
2008.2616424685298,1219
2010.1981768908527,1228
2012.1342416917332,1294
2014.069837140014,1252
2016.0049635046162,1194
2017.9396210545406,1254
2019.8738100588666,1232
2021.8075307867502,1179
2023.740783507431,1268
2025.6735684902228,1217
2027.6058860045214,1212
2029.5377363198004,1296
2031.4691197056118,1224
2033.4000364315875,1223
2035.3304867674374,1262
2037.260470982952,1216
2039.189989347998,1218
2041.1190421325232,1243
2043.047629606554,1258
2044.9757520401945,1208
2046.9034097036288,1204
2048.8306028671195,1207
2050.7573318010086,1259
2052.683596775716,1217
2054.609398061742,1257
2056.5347359296647,1170
2058.4596106501403,1162
2060.384022493906,1213
2062.3079717317764,1254
2064.231458634646,1243
2066.1544834734873,1241
2068.077046519352,1225
2069.99914804337,1184
2071.9207883167524,1230
2073.8419676107865,1198
2075.7626861968406,1185
2077.6829443463607,1248
2079.6027423308715,1255
2081.522080421977,1203
2083.440958891362,1179
2085.359378010786,1290
2087.2773380520907,1224
2089.194839287196,1247
2091.111881988101,1209
2093.0284664268825,1205
2094.9445928756973,1266
2096.86026160678,1204
2098.775472892446,1204
2100.690227005088,1205
2102.604524217178,1211
2104.5183648012676,1318
2106.431749029985,1253
2108.34467717604,1258
2110.2571495122206,1224
2112.169166311393,1224
2114.080727846503,1222
2115.9918343905747,1197
2117.902486216711,1266
2119.8126835980956,1212
2121.722426807987,1225
2123.6317161197285,1219
2125.5405518067364,1222
2127.448934142509,1235
2129.356863400624,1291
2131.264339854737,1287
2133.1713637785815,1222
2135.077935445972,1251
2136.9840551308002,1242
2138.889723107037,1251
2140.7949396487334,1281
2142.699705030018,1242
2144.6040195250994,1269
2146.507883408264,1275
2148.4112969538774,1212
2150.3142604363848,1294
2152.2167741303097,1232
2154.1188383102535,1255
2156.0204532508997,1235
2157.9216192270064,1259
2159.822336513414,1259
2161.7226053850413,1245
2163.622426116884,1295
2165.5217989840185,1250
2167.4207242616,1305
2169.319202224862,1319
2171.2172331491165,1312
2173.1148173097563,1274
2175.0119549822507,1307
2176.90864644215,1300
2178.8048919650823,1328
2180.7006918267534,1263
2182.596046302952,1341
2184.4909556695407,1311
2186.3854202024645,1318
2188.279440177746,1254
2190.173015871487,1235
2192.066147559868,1249
2193.958835519149,1354
2195.851080025667,1312
2197.7428813558417,1285
2199.6342397861667,1273
2201.5251555932186,1314
2203.415629053651,1313
2205.3056604441986,1298
2207.19525004167,1351
2209.084398122958,1265
2210.9731049650327,1349
2212.861370844941,1378
2214.749196039812,1312
2216.636580826851,1361
2218.523525483344,1291
2220.410030286655,1310
2222.296095514226,1374
2224.1817214435805,1286
2226.066908352319,1361
2227.951656518121,1359
2229.835966218746,1351
2231.71983773203,1330
2233.6032713358913,1354
2235.486267308324,1291
2237.3688259274036,1332
2239.2509474712824,1293
2241.132632218193,1341
2243.013880446447,1386
2244.8946924344323,1367
2246.7750684606203,1316
2248.6550088035574,1336
2250.534513741871,1353
2252.413583554265,1345
2254.292218519526,1342
2256.170418916517,1338
2258.0481850241786,1348
2259.925517121534,1346
2261.8024154876825,1352
2263.678880401803,1326
2265.5549121431536,1354
2267.430510991071,1331
2269.305677224971,1349
2271.180411124348,1373
2273.0547129687766,1357
2274.9285830379076,1319
2276.8020216114737,1320
2278.6750289692845,1332
2280.5476053912294,1372
2282.4197511572766,1371
2284.2914665474727,1396
2286.162751841943,1404
2288.0336073208937,1362
2289.904033264608,1310
2291.774029953448,1353
2293.6435976678554,1323
2295.5127366883517,1310
2297.381447295534,1286
2299.2497297700825,1252
2301.1175843927526,1250
2302.9850114443825,1227
2304.852011205885,1234
2306.7185839582553,1190
2308.5847299825664,1229
2310.4504495599676,1121
2312.3157429716925,1207
2314.1806104990483,1163
2316.0450524234247,1135
2317.9090690262888,1182
2319.772660589186,1136
2321.635827393742,1153
2323.498569721661,1132
2325.3608878547248,1136
2327.2227820747967,1147
2329.0842526638157,1152
2330.945299903803,1149
2332.805924076857,1182
2334.6661254651535,1124
2336.525904350951,1138
2338.3852610165827,1101
2340.244195744464,1123
2342.102708817088,1133
2343.9608005170253,1148
2345.8184711269287,1148
2347.675720929526,1166
2349.532550207628,1118
2351.38895924412,1095
2353.24494832197,1136
2355.100517724223,1146
2356.955667734004,1140
2358.810398634514,1160
2360.664710709037,1175
2362.5186042409337,1119
2364.3720795136437,1158
2366.225136810686,1153
2368.0777764156583,1194
2369.929998612237,1168
2371.7818036841777,1142
2373.633191915315,1213
2375.484163589562,1251
2377.3347189909114,1179
2379.184858403434,1142
2381.03458211128,1213
2382.8838903986775,1178
2384.732783549936,1175
2386.5812618494406,1142
2388.4293255816588,1170
2390.2769750311327,1129
2392.1242104824883,1168
2393.971032220427,1174
2395.8174405297295,1126
2397.6634356952563,1145
2399.509018001947,1196
2401.3541877348193,1219
2403.1989451789705,1211
2405.043290619576,1185
2406.8872243418905,1169
2408.730746631247,1163
2410.5738577730594,1176
2412.4165580528183,1121
2414.258847756095,1157
2416.100727168537,1131
2417.9421965758734,1254
2419.783256263912,1198
2421.623906518538,1160
2423.4641476257157,1153
2425.303979871491,1210
2427.143403541984,1187
2428.9824189233977,1256
2430.821026302012,1193
2432.6592259641866,1213
2434.497018196361,1169
2436.33440328505,1203
2438.171381516851,1175
2440.00795317844,1170
2441.844118556569,1227
2443.6798779380724,1160
2445.5152316098606,1182
2447.3501798589255,1194
2449.1847229723357,1210
2451.0188612372403,1168
2452.8525949408663,1180
2454.6859243705203,1222
2456.518849813587,1210
2458.3513715575314,1190
2460.183489889895,1187
2462.015205098301,1136
2463.8465174704493,1180
2465.67742729412,1203
2467.5079348571717,1167
2469.338040447542,1207
2471.1677443532476,1193
2472.9970468623833,1166
2474.825948263123,1156
2476.6544488437207,1128
2478.482548892508,1222
2480.310248697896,1156
2482.137548548374,1154
2483.9644487325118,1135
2485.790949538956,1177
2487.617051256433,1191
2489.44275417375,1205
2491.26805857979,1157
2493.0929647635157,1240
2494.917473013971,1221
2496.741583620276,1249
2498.5652968716304,1193
2500.3886130573137,1181
2502.2115324666834,1242
2504.0340553891765,1209
2505.856182114308,1259
2507.6779129316733,1257
2509.499248130945,1252
2511.3201880018764,1201
2513.140732834298,1248
2514.9608829181198,1253
2516.780638543331,1213
2518.6,1280
2520.418967578273,1222
2522.237541568376,1263
2524.0557222606144,1213
2525.8735099453706,1273
2527.6909049131086,1230
2529.507907454368,1233
2531.32451785977,1239
2533.140736420014,1244
2534.9565634258774,1250
2536.771999168218,1249
2538.5870439379714,1295
2540.4016980261526,1285
2542.2159617238544,1317
2544.02983532225,1321
2545.8433191125914,1295
2547.656413386209,1303
2549.4691184345115,1336
2551.2814345489874,1369
2553.093362021204,1376
2554.904901142808,1302
2556.716052205523,1385
2558.526815501153,1349
2560.3371913215824,1311
2562.147179958771,1344
2563.956781704761,1369
2565.7659968516705,1372
2567.5748256916986,1404
2569.3832685171224,1366
2571.1913256202984,1379
2572.9989972936614,1359
2574.806283829725,1397
2576.613185521084,1424
2578.4197026604074,1437
2580.2258355404483,1433
2582.031584454035,1367
2583.836949694077,1419
2585.6419315535613,1414
2587.4465303255533,1447
2589.2507463032002,1408
2591.0545797797245,1463
2592.8580310484303,1475
2594.6611004026995,1442
2596.463788135992,1446
2598.266094541849,1409
2600.0680199138874,1513
2601.869564545807,1465
2603.670728731383,1459
2605.4715127644704,1412
2607.2719169390048,1448
2609.071941548998,1409
2610.8715868885433,1365
2612.670853251811,1451
2614.469740933052,1414
2616.268250226594,1432
2618.0663814268455,1360
2619.864134828292,1346
2621.6615107255006,1417
2623.458509413115,1464
2625.2551311858597,1396
2627.0513763385347,1377
2628.8472451660223,1379
2630.6427379632833,1385
2632.4378550253564,1396
2634.232596647359,1400
2636.026963124488,1332
2637.8209547520187,1364
2639.6145718253065,1383
2641.407814639785,1370
2643.200683490966,1352
2644.9931786744414,1325
2646.7853004858807,1340
2648.577049221034,1351
2650.3684251757277,1400
2652.1594286458712,1304
2653.9500599274484,1302
2655.740319316525,1299
2657.5302071092437,1259
2659.3197236018286,1285
2661.10886909058,1346
2662.8976438718782,1264
2664.686048242183,1272
2666.4740824980327,1248
2668.2617469360443,1251
2670.0490418529134,1256
2671.8359675454153,1269
2673.622524310403,1223
2675.408712444811,1220
2677.1945322456495,1199
2678.979984010009,1222
2680.76506803506,1220
2682.5497846180497,1227
2684.334134056306,1238
2686.1181166472343,1234
2687.9017326883213,1212
2689.6849824771293,1179
2691.4678663113013,1169
2693.2503844885596,1252
2695.032537306705,1251
2696.8143250636167,1227
2698.5957480572542,1198
2700.3768065856534,1208
2702.1575009469316,1271
2703.937831439283,1225
2705.717798360982,1202
2707.4974020103837,1186
2709.276642685917,1171
2711.055520686095,1163
2712.834036309506,1157
2714.612189854819,1262
2716.389981620782,1170
2718.1674119062204,1160
2719.944481010041,1144
2721.721189231226,1140
2723.4975368688415,1143
2725.273524222027,1171
2727.0491515900053,1177
2728.824419272075,1208
2730.5993275676146,1168
2732.3738767760838,1154
2734.148067197016,1134
2735.921899130031,1174
2737.6953728748194,1141
2739.468488731156,1141
2741.2412469988926,1166
2743.0136479779617,1120
2744.785691968372,1115
2746.5573792702116,1124
2748.3287101836504,1197
2750.099685008934,1142
2751.870304046388,1195
2753.640567596418,1162
2755.4104759595057,1143
2757.1800294362156,1168
2758.949228327187,1170
2760.7180729331412,1196
2762.486563554877,1134
2764.254700493272,1086
2766.022484049284,1147
2767.789914523947,1113
2769.5569922183786,1137
2771.3237174337705,1153
2773.090090471394,1146
2774.8561116326036,1145
2776.6217812188274,1152
2778.3870995315756,1135
2780.1520668724356,1170
2781.9166835430747,1127
2783.6809498452394,1117
2785.444866080754,1150
2787.2084325515225,1184
2788.971649559527,1138
2790.73451740683,1152
2792.4970363955713,1153
2794.2592068279705,1130
2796.0210290063264,1170
2797.7825032330147,1145
2799.543629810493,1142
2801.304409041296,1112
2803.0648412280366,1068
2804.8249266734088,1160
2806.5846656801846,1141
2808.344058551212,1100
2810.1031055894246,1170
2811.8618070978273,1166
2813.6201633795085,1161
2815.378174737636,1135
2817.1358414754536,1138
2818.893163896285,1126
2820.6501423035334,1181
2822.4067770006814,1135
2824.1630682912883,1160
2825.9190164789957,1153
2827.6746218675207,1157
2829.429884760661,1126
2831.184805462294,1177
2832.9393842763743,1149
2834.693621506936,1127
2836.4475174580916,1163
2838.201072434034,1137
2839.954286739034,1150
2841.707160677441,1156
2843.459694553685,1143
2845.2118886722724,1124
2846.96374333779,1131
2848.7152588549034,1115
2850.4664355283567,1160
2852.217273662973,1162
2853.9677735636546,1171
2855.7179355353833,1153
2857.4677598832186,1145
2859.217246912299,1143
2860.9663969278427,1101
2862.715210235146,1132
2864.4636871395846,1151
2866.211827946614,1169
2867.9596329617652,1126
2869.7071024906536,1143
2871.4542368389684,1129
2873.20103631248,1129
2874.947501217038,1134
2876.6936318585695,1143
2878.4394285430812,1137
2880.1848915766604,1152
2881.9300212654707,1152
2883.6748179157553,1176
2885.4192818338374,1132
2887.1634133261173,1118
2888.907212699077,1106
2890.6506802592744,1155
2892.393816313348,1131
2894.1366211680142,1151
2895.8790951300693,1075
2897.621238506388,1181
2899.363051603925,1146
2901.1045347297118,1127
2902.8456881908596,1164
2904.58651229456,1154
2906.327007348081,1158
2908.067173658772,1187
2909.8070115340597,1174
2911.5465212814497,1122
2913.285703208527,1160
2915.0245576229563,1159
2916.7630848324807,1155
2918.5012851449196,1112
2920.2391588681758,1164
2921.976706310227,1106
2923.7139277791334,1166
2925.4508235830313,1114
2927.187394030137,1122
2928.923639428745,1115
2930.6595600872306,1156
2932.395156314046,1180
2934.1304284177218,1137
2935.8653767068713,1149
2937.6000014901815,1163
2939.3343030764227,1127
2941.068281774442,1123
2942.8019378931644,1108
2944.5352717415976,1128
2946.2682836288236,1130
2948.0009738640065,1122
2949.7333427563885,1119
2951.465390615289,1140
2953.1971177501086,1144
2954.9285244703265,1155
2956.6596110855,1202
2958.3903779052657,1146
2960.1208252393385,1180
2961.8509533975125,1154
2963.5807626896617,1144
2965.3102534257378,1123
2967.0394259157715,1065
2968.768280469873,1158
2970.496817398232,1110
2972.2250370111146,1150
2973.952939618869,1166
2975.6805255319196,1163
2977.4077950607707,1198
2979.134748516006,1138
2980.861386208289,1178
2982.587708448359,1111
2984.313715547037,1145
2986.039407815222,1170
2987.764785563891,1110
2989.489849104102,1180
2991.2145987469908,1186
2992.9390348037705,1111
2994.6631575857346,1066
2996.3869674042576,1118
2998.1104645707887,1146
2999.83364939686,1137
3001.5565221940783,1114
3003.2790832741334,1157
3005.0013329487924,1146
3006.7232715298996,1147
3008.4448993293804,1096
3010.166216659239,1175
3011.887223831558,1126
3013.607921158498,1145
3015.3283089522993,1141
3017.0483875252826,1116
3018.7681571898443,1118
3020.4876182584626,1115
3022.2067710436927,1163
3023.9256158581707,1118
3025.644153014609,1134
3027.362382825801,1126
3029.0803056046193,1134
3030.797921664012,1098
3032.5152313170106,1137
3034.2322348767225,1141
3035.9489326563353,1099
3037.665324969115,1087
3039.3814121284063,1098
3041.097194447633,1139
3042.812672240299,1140
3044.5278458199855,1134
3046.2427155003525,1118
3047.9572815951406,1109
3049.671544418167,1127
3051.38550428333,1142
3053.0991615046073,1115
3054.812516396051,1108
3056.5255692717974,1055
3058.2383204460575,1167
3059.9507702331257,1166
3061.662918947372,1138
3063.3747669032446,1130
3065.0863144152736,1134
3066.7975617980674,1171
3068.508509366309,1097
3070.219157434767,1133
3071.9295063182844,1078
3073.639556331785,1105
3075.3493077902704,1097
3077.058761008821,1181
3078.7679163025964,1158
3080.476773986837,1177
3082.1853343768594,1133
3083.89359778806,1136
3085.6015645359153,1141
3087.3092349359786,1115
3089.016609303884,1134
3090.7236879553434,1185
3092.4304712061476,1135
3094.136959372166,1054
3095.843152769349,1129
3097.5490517137237,1141
3099.2546565213966,1178
3100.959967508554,1132
3102.66498499146,1066
3104.3697092864577,1123
3106.0741407099695,1070
3107.778279578498,1073
3109.482126208622,1129
3111.1856809170004,1113
3112.8889440203716,1097
3114.5919158355528,1090
3116.294596679439,1102
3117.996986869006,1095
3119.6990867213062,1160
3121.4008965534726,1146
3123.102416682717,1153
3124.803647426329,1139
3126.5045891016784,1130
3128.205242026213,1126
3129.90560651746,1165
3131.605682893025,1173
3133.3054714705922,1123
3135.0049725679282,1118
3136.7041865028714,1121
3138.4031135933465,1128
3140.101754157353,1129
3141.800108512971,1164
3143.498176978357,1118
3145.1959598717494,1166
3146.8934575114636,1125
3148.5906702158954,1091
3150.2875983035183,1098
3151.9842420928853,1122
3153.680601902627,1138
3155.376678051456,1082
3157.07247085816,1076
3158.767980641609,1125
3160.463207720748,1129
3162.158152414606,1134
3163.8528150422862,1073
3165.5471959229726,1168
3167.2412953759303,1132
3168.9351137204976,1148
3170.628651276098,1137
3172.3219083622307,1111
3174.014885298474,1089
3175.707582404485,1158
3177.4000000000005,1100
3179.092138404835,1150
3180.7839979388846,1059
3182.47557892212,1122
3184.166881674594,1104
3185.8579065164386,1110
3187.5486537678626,1159
3189.2391237491547,1125
3190.9293167806827,1110
3192.6192331828934,1093
3194.3088732763117,1103
3195.998237381542,1118
3197.687325819268,1114
3199.376138910251,1049
3201.064676975334,1108
3202.7529403354347,1094
3204.4409293115523,1107
3206.1286442247647,1082
3207.816085396229,1106
3209.5032531471825,1079
3211.190147798936,1041
3212.8767696728846,1096
3214.5631190905015,1109
3216.2491963733373,1069
3217.9350018430214,1081
3219.6205358212637,1066
3221.305798629851,1057
3222.990790590651,1047
3224.6755120256103,1094
3226.359963256751,1071
3228.0441446061795,1131
3229.7280563960758,1080
3231.411698948703,1073
3233.0950725863995,1115
3234.778177631587,1081
3236.461014406761,1103
3238.1435832345005,1120
3239.8258844374595,1122
3241.507918338374,1121
3243.1896852600576,1105
3244.8711855254023,1099
3246.552419457381,1093
3248.233387379042,1154
3249.914089613516,1130
3251.59452648401,1113
3253.274698313813,1127
3254.95460542629,1108
3256.6342481448855,1117
3258.313626793125,1117
3259.9927416946084,1086
3261.6715931730196,1039
3263.3501815521176,1073
3265.0285071557437,1032
3266.706570307815,1077
3268.3843713323286,1066
3270.0619105533615,1060
3271.739188295068,1092
3273.4162048816834,1134
3275.0929606375184,1093
3276.769455886966,1091
3278.445690954498,1124
3280.1216661646613,1100
3281.797381842087,1166
3283.4728383114807,1158
3285.1480358976296,1070
3286.8229749253996,1084
3288.4976557197333,1176
3290.172078605655,1140
3291.846243908266,1110
3293.5201519527463,1042
3295.193803064357,1067
3296.8671975684374,1101
3298.5403357904024,1100
3300.21321805575,1075
3301.8858446900567,1041
3303.558216018975,1140
3305.23033236824,1099
3306.9021940636603,1064
3308.57380143113,1045
3310.2451547966184,1099
3311.916254486174,1116
3313.5871008259246,1145
3315.2576941420766,1094
3316.9280347609147,1104
3318.5981230088046,1106
3320.2679592121895,1101
3321.9375436975924,1106
3323.606876791612,1094
3325.27595882093,1063
3326.944790112305,1075
3328.6133709925753,1145
3330.2817017886573,1115
3331.949782827547,1091
3333.617614436319,1075
3335.2851969421245,1078
3336.952530672199,1096
3338.619615953853,1142
3340.286453114475,1138
3341.9530424815357,1084
3343.619384382583,1119
3345.2854791452437,1124
3346.951327097224,1105
3348.6169285663073,1085
3350.2822838803577,1096
3351.947393367319,1135
3353.61225735521,1109
3355.2768761721345,1118
3356.9412501462693,1086
3358.605379605873,1118
3360.2692648792827,1078
3361.9329062949146,1107
3363.596304181263,1100
