CollectionTime,7/11/2024 1:20:38 PM
ExposureUsed,3
CalibratedSpectrum
-962.7078968117929,502
-959.9714848408522,511
-957.2358232597828,518
-954.5009119013725,507
-951.7667505983302,509
-949.0333391832855,555
-946.3006774887896,530
-943.5687653473143,529
-940.837602591253,538
-938.1071890529199,494
-935.3775245645503,553
-932.6486089583007,521
-929.9204420662485,544
-927.1930237203925,528
-924.4663537526524,520
-921.7404319948689,506
-919.0152582788041,504
-916.2908324361409,585
-913.5671542984834,550
-910.8442236973568,520
-908.1220404642074,508
-905.4006044304027,549
-902.679915427231,535
-899.959973285902,526
-897.2407778375464,517
-894.5223289132158,496
-891.8046263438832,506
-889.0876699604426,496
-886.3714595937089,519
-883.6559950744183,490
-880.9412762332282,488
-878.2273029007168,516
-875.5140749073835,508
-872.8015920836489,512
-870.0898542598545,528
-867.3788612662631,510
-864.6686129330585,530
-861.9591090903457,501
-859.2503495681506,499
-856.5423341964203,506
-853.8350628050229,502
-851.1285352237478,501
-848.4227512823054,486
-845.7177108103272,487
-843.0134136373656,474
-840.3098595928943,519
-837.6070485063082,533
-834.9049802069229,535
-832.2036545239757,496
-829.5030712866244,502
-826.8032303239481,528
-824.1041314649472,516
-821.4057745385428,529
-818.7081593735775,520
-816.0112857988148,526
-813.3151536429393,507
-810.6197627345566,532
-807.9251129021936,512
-805.2312039742981,535
-802.5380357792392,521
-799.8456081453069,532
-797.1539209007124,523
-794.462973873588,519
-791.772766891987,524
-789.083299783884,513
-786.3945723771743,537
-783.7065844996748,499
-781.0193359791231,479
-778.3328266431781,536
-775.6470563194197,535
-772.9620248353489,484
-770.2777320183878,511
-767.5941776958798,517
-764.9113616950891,564
-762.2292838432011,550
-759.5479439673222,526
-756.8673418944801,522
-754.1874774516235,515
-751.5083504656222,516
-748.8299607632671,503
-746.15230817127,538
-743.475392516264,538
-740.7992136248035,589
-738.1237713233636,516
-735.4490654383407,536
-732.7750957960521,562
-730.1018622227365,549
-727.4293645445534,548
-724.7576025875837,539
-722.0865761778291,503
-719.4162851412126,563
-716.7467293035781,583
-714.0779084906909,579
-711.409822528237,562
-708.7424712418238,546
-706.0758544569796,569
-703.4099719991541,583
-700.7448236937178,612
-698.0804093659622,593
-695.4167288411002,605
-692.7537819442656,583
-690.0915685005134,598
-687.4300883348199,582
-684.7693412720819,586
-682.1093271371178,576
-679.4500457546669,546
-676.7914969493897,569
-674.1336805458676,571
-671.4765963686034,548
-668.8202442420206,614
-666.1646239904642,598
-663.5097354382001,579
-660.8555784094151,577
-658.2021527282176,580
-655.5494582186366,597
-652.8974947046223,568
-650.2462620100463,600
-647.5957599587009,600
-644.9459883742998,608
-642.2969470804776,636
-639.6486359007902,610
-637.0010546587141,666
-634.3542031776476,611
-631.7080812809096,579
-629.0626887917401,572
-626.4180255333008,607
-623.7740913286734,636
-621.1308860008619,615
-618.4884093727904,643
-615.8466612673046,613
-613.2056415071715,598
-610.5653499150785,614
-607.9257863136347,611
-605.28695052537,636
-602.6488423727357,599
-600.0114616781036,615
-597.3748082637674,610
-594.7388819519412,633
-592.1036825647604,685
-589.4692099242818,747
-586.8354638524829,650
-584.2024441712624,635
-581.5701507024403,640
-578.9385832677575,641
-576.3077416888759,626
-573.6776257873787,681
-571.0482353847704,616
-568.4195703024757,613
-565.7916303618415,635
-563.164415384135,635
-560.5379251905453,637
-557.9121596021815,654
-555.2871184400748,641
-552.6628015251767,687
-550.0392086783606,689
-547.4163397204204,651
-544.794194472071,671
-542.1727727539491,684
-539.5520743866118,708
-536.9320991905377,737
-534.3128469861261,715
-531.6943175936979,756
-529.0765108334947,805
-526.4594265256793,781
-523.8430644903358,889
-521.2274245474689,955
-518.612506517005,1048
-515.9983102187913,1051
-513.3848354725959,1010
-510.77208209810846,1095
-508.16004991493924,1254
-505.5487387426199,1397
-502.9381484006032,1495
-500.3282787082628,1543
-497.71912948489364,1451
-495.1107005497117,1276
-492.5029917218539,1130
-489.8960028203786,1036
-487.28973366426493,922
-484.68418407241325,854
-482.07935386364494,822
-479.47524285670266,841
-476.87185087025,783
-474.2691777228715,788
-471.66722323307334,818
-469.0659872192821,821
-466.4654694998459,799
-463.86566989303384,794
-461.26658821703614,818
-458.66822428996414,804
-456.07057792985,829
-453.4736489546475,821
-450.877437182231,804
-448.28194243039627,756
-445.68716451686,766
-443.09310325926003,799
-440.49975847515555,807
-437.9071299820263,782
-435.31521759727354,764
-432.72402113821954,808
-430.13354042210767,838
-427.5437752661022,799
-424.95472548728867,833
-422.36639090267386,833
-419.7787713291855,890
-417.1918665836721,909
-414.60567648290385,915
-412.0202008435715,849
-409.4354394822874,854
-406.8513922155845,844
-404.26805885991723,852
-401.685439231661,881
-399.103533147112,872
-396.522340422488,832
-393.9418608739278,857
-391.3620943174908,892
-388.7830405691583,911
-386.2046994448317,807
-383.6270707603344,779
-381.05015433141045,743
-378.473949973725,683
-375.8984575028645,686
-373.32367673433623,618
-370.74960748356875,629
-368.1762495659117,612
-365.60360279663576,592
-363.03166699093265,522
-360.4604419639154,496
-357.8899275306178,476
-355.32012350599507,482
-352.7510297049233,460
-350.1826459421999,446
-347.61497203254316,456
-345.04800779059235,470
-342.4817530309082,468
-339.91620756797226,462
-337.35137121618743,459
-334.7872437898774,533
-332.22382510328725,550
-329.66111497058273,479
-327.09911320585127,442
-324.53781962310075,471
-321.9772340362607,478
-319.4173562591816,438
-316.8581861056348,443
-314.2997233893127,475
-311.7419679238294,439
-309.1849195227194,455
-306.62857799943856,474
-304.0729431673641,514
-301.51801483979375,518
-298.963792829947,506
-296.41027695096386,505
-293.85746701590574,589
-291.3053628377552,602
-288.7539642294155,532
-286.2032710037115,517
-283.65328297338897,535
-281.1039999511146,541
-278.5554217494762,597
-276.007548180983,567
-273.4603790580651,536
-270.9139141930734,510
-268.3681533982807,526
-265.8230964858798,560
-263.27874326798565,526
-260.7350935566336,551
-258.1921471637804,531
-255.6499039013039,511
-253.10836358100266,553
-250.56752601459698,570
-248.02739101372765,587
-245.48795838995704,588
-242.94922795476816,607
-240.41119951956557,581
-237.8738728956746,627
-235.33724789434166,636
-232.80132432673452,615
-230.2661020039418,584
-227.73158073697357,607
-225.19776033676033,614
-222.66464061415422,675
-220.1322213799284,627
-217.60050244477725,602
-215.06948361931552,572
-212.53916471408013,615
-210.00954553952818,641
-207.48062590603843,590
-204.9524056239104,633
-202.4248845033651,736
-199.8980623545441,693
-197.37193898751036,661
-194.84651421224817,706
-192.32178783866232,716
-189.79775967657952,691
-187.27442953574644,782
-184.7517972258321,836
-182.2298625564256,812
-179.7086253370378,783
-177.18808537710026,756
-174.66824248596583,714
-172.14909647290835,717
-169.6306471471229,703
-167.11289431772548,725
-164.59583779375328,810
-162.07947738416453,714
-159.5638128978386,717
-157.04884414357605,874
-154.53457093009854,891
-152.02099306604828,824
-149.50811035998936,725
-146.99592262040665,826
-144.48442965570587,800
-141.97363127421409,768
-139.46352728417958,784
-136.95411749377126,860
-134.44540171107985,844
-131.93737974411636,766
-129.43005140081357,921
-126.92341648902493,1014
-124.41747481652521,1119
-121.91222619101006,1301
-119.40767042009657,1830
-116.90380731132257,2054
-114.40063667214702,2275
-111.8981583099503,2274
-109.3963720320337,1665
-106.89527764561933,1403
-104.39487495785067,1349
-101.89516377579241,1896
-99.39614390642998,3209
-96.89781515667039,3549
-94.40017733334128,3244
-91.90323024319173,3382
-89.40697369289148,5836
-86.91140748903172,8031
-84.41653143812482,8254
-81.92234534660395,6437
-79.42884902082358,4675
-76.93604226705907,7727
-74.4439248915071,16845
-71.95249670028534,26410
-69.46175749943245,31671
-66.97170709490854,30076
-64.48234529259423,26792
-61.99367189829195,22077
-59.50568671772464,16760
-57.01838955653636,10810
-54.53178022029283,9594
-52.045858514480074,9924
-49.560624244506016,10518
-47.07607721569923,11082
-44.59221723330904,12168
-42.10904410250669,12092
-39.62655762838392,10731
-37.14475761595372,9483
-34.66364387015028,8467
-32.18321619582866,7850
-29.70347439776515,7965
-27.224418280657005,7604
-24.74604764912317,8490
-22.26836230770266,12712
-19.7913620608565,24676
-17.315046712966478,45043
-14.83941606833514,59850
-12.36446993118659,65038
-9.89020810566592,65038
-7.416630395839093,65038
-4.94373660569363,65038
-2.471526539137585,65038
-6.821210263296962E-13,65038
2.47084320796705,65038
4.941003281093458,65038
7.410480415786196,65038
9.879274808531363,65038
12.347386655893956,65038
14.814816154518212,65038
17.28156350112681,65038
19.74762889252179,65038
22.21301252558385,65038
24.67771459727237,19032
27.141735304626195,3652
29.605074844762612,2436
32.06773341487792,2825
34.52971121224755,2943
36.99100843422559,2703
39.45162527824516,1982
41.91156194181792,1713
44.370818622535126,1692
46.82939551806646,1280
49.287292826160524,1360
51.74451074464503,1829
54.201049471426245,2286
56.65690920448981,1962
59.112090141899785,1414
61.56659248179983,1266
64.02041642241159,1178
66.4735621620365,1185
68.92602989905402,1096
71.37781983192338,1189
73.82893215918205,1291
76.27936707944684,1348
78.72912479141326,1200
81.17820549385567,1243
83.62660938562783,1509
86.07433666566146,1413
88.5213875329681,1005
90.96776218663751,924
93.41346082583925,956
95.85848364982041,1084
98.30283085790859,1255
100.7465026495089,1299
103.18949922410604,1204
105.63182078126385,1084
108.07346752062438,1003
110.51443964190923,814
112.95473734491827,794
115.39436082953114,871
117.83331029570547,865
120.27158594347827,910
122.7091879729652,1058
125.1461165843615,959
127.58237197794062,840
130.01795435405518,865
132.4528639131364,904
134.88710085569494,924
137.32066538231982,814
139.75355769367923,897
142.1857779905207,900
144.61732647366978,823
147.04820334403132,765
149.47840880258934,764
151.90794305040674,836
154.33680628862487,989
156.76499871846443,1117
159.19252054122433,1184
161.61937195828352,1305
164.04555317109896,1417
166.47106438120693,1528
168.89590579022217,1682
171.320077599839,1770
173.7435800118302,1836
176.16641322804742,1964
178.58857745042144,1989
181.01007288096173,2148
183.43089972175687,2052
185.85105817497413,2128
188.27054844285988,2088
190.6893707277394,2060
193.10752523201643,2074
195.5250121581745,2169
197.9418317087751,2149
200.3579840864594,2163
202.7734694939469,2179
205.18828813403627,2211
207.6024402096051,2222
210.01592592360964,2362
212.42874547908548,2393
214.84089907914665,2385
217.2523869269868,2309
219.66320922587727,2322
222.0733661791695,2223
224.48285799029293,2269
226.8916848627572,2220
229.29984700014882,2354
231.7073446061355,2371
234.11417788446204,2324
236.520347038953,2381
238.92585227351185,2355
241.33069379212054,2403
243.73487179884035,2449
246.1383864978112,2501
248.541238093252,2603
250.9434267894609,2562
253.34495279081432,2532
255.74581630176783,2488
258.1460175268563,2529
260.54555667069314,2562
262.9444339379703,2578
265.3426495334594,2522
267.7402036620107,2485
270.1370965285529,2490
272.53332833809407,2375
274.9288992957214,2348
277.32380960660055,2286
279.718059475976,2342
282.1116491091717,2333
284.5045787115897,2315
286.89684848871195,2217
289.2884586460981,2280
291.67940938938807,2289
294.0697009242996,2225
296.4593334566299,2350
298.84830719225477,2202
301.23662233712923,2239
303.6242790972866,2160
306.01127767884,2233
308.39761828798066,2180
310.78330113097934,2137
313.16832641418534,2162
315.5526943440269,2092
317.9364051270112,2082
320.3194589697242,2096
322.70185607883093,2167
325.0835966610754,2077
327.4646809232805,2026
329.8451090723478,2003
332.2248813152577,1943
334.6039978590701,1979
336.9824589109231,1986
339.36026467803447,1965
341.7374153677,1951
344.113911187295,1911
346.48975234427337,1930
348.8649390461686,2002
351.2394715005918,1962
353.61334991523415,1947
355.9865744978655,1917
358.35914545633375,1860
360.73106299856715,1915
363.10232733257146,1944
365.47293866643247,1914
367.84289720831396,1876
370.2122031664593,1904
372.5808567491905,1811
374.9488581649083,1777
377.31620762209275,1827
379.6829053293021,1803
382.0489514951745,1823
384.4143463284262,1873
386.7790900378528,1818
389.14318283232853,1782
391.50662492080653,1783
393.86941651231916,1874
396.23155781597745,1764
398.5930490409713,1824
400.9538903965696,1800
403.3140820921202,1818
405.6736243370498,1847
408.03251734086336,1762
410.3907613131465,1745
412.74835646356166,1689
415.10530300185144,1746
417.4616011378372,1727
419.81725108141893,1747
422.1722530425758,1741
424.5266072313656,1796
426.880313857925,1718
429.2333731324701,1733
431.58578526529516,1734
433.9375504667738,1759
436.2886689473588,1757
438.63914091758113,1651
440.9889665880513,1649
443.33814616945835,1682
445.68667987257015,1610
448.03456790823395,1708
450.3818104873759,1650
452.72840782100013,1669
455.07436012019105,1658
457.41966759611057,1686
459.7643304600007,1690
462.10834892318155,1683
464.4517231970525,1706
466.79445349309174,1669
469.1365400228566,1673
471.4779829979826,1759
473.81878263018564,1746
476.15893913125876,1664
478.4984527130747,1727
480.8373235875855,1774
483.17555196682144,1788
485.5131380628919,1874
487.8500820879857,1924
490.1863842543697,1964
492.52204477439034,2123
494.8570638604725,2316
497.1914417251204,2610
499.52517858091653,3019
501.85827464052306,3117
504.19073011668036,3288
506.5225452222086,3309
508.85372017000566,3259
511.18425517304956,3172
513.514150444396,3141
515.8434061971808,3530
518.1720226446176,4191
520.4999999999999,4326
522.8273384766991,4111
525.1540382881666,3815
527.480099647932,3410
529.8055227696037,2694
532.1303078668694,2297
534.454455153496,1952
536.777964843328,1806
539.1008371502907,1819
541.4230722883866,1742
543.744670471698,1747
546.0656319143858,1769
548.3859568306899,1796
550.7056454349294,1760
553.0246979415016,1676
555.3431145648834,1713
557.6608955196306,1728
559.978041020377,1645
562.2945512818363,1703
564.6104265188006,1579
566.9256669461412,1635
569.2402727788082,1687
571.5542442318302,1641
573.8675815203156,1738
576.1802848594508,1730
578.4923544645015,1751
580.8037905508126,1736
583.114593333807,1763
585.4247630289875,1723
587.7342998519354,1767
590.0432040183106,1677
592.3514757438526,1722
594.6591152443794,1723
596.9661227357875,1707
599.2724984340531,1733
601.578242555231,1731
603.8833553154542,1765
606.1878369309362,1719
608.4916876179676,1656
610.7949075929192,1741
613.0974970722403,1676
615.3994562724587,1734
617.7007854101818,1668
620.0014847020951,1738
622.3015543649641,1733
624.6009946156324,1802
626.8998056710224,1720
629.1979877481361,1741
631.4955410640538,1794
633.7924658359349,1745
636.0887622810175,1780
638.3844306166192,1762
640.6794710601358,1720
642.9738838290426,1796
645.2676691408932,1726
647.5608272133207,1731
649.853358264037,1801
652.1452625108324,1822
654.4365401715764,1832
656.7271914642178,1843
659.0172166067838,1770
661.3066158173809,1731
663.5953893141935,1814
665.8835373154867,1788
668.1710600396028,1762
670.4579577049639,1774
672.7442305300709,1794
675.0298787335033,1766
677.3149025339197,1754
679.599302150058,1750
681.8830778007342,1720
684.1662297048437,1764
686.4487580813608,1814
688.7306631493387,1722
691.0119451279091,1731
693.2926042362834,1727
695.5726406937516,1775
697.8520547196814,1789
700.1308465335215,1714
702.4090163547982,1718
704.6865644031171,1762
706.9634908981619,1721
709.2397960596965,1766
711.5154801075631,1806
713.7905432616823,1752
716.0649857420548,1761
718.3388077687592,1749
720.612009561953,1788
722.8845913418733,1784
725.1565533288352,1763
727.427895743234,1798
729.6986188055427,1801
731.9687227363137,1780
734.238207756178,1817
736.5070740858458,1772
738.7753219461066,1767
741.0429515578281,1760
743.3099631419569,1738
745.5763569195191,1731
747.8421331116193,1805
750.1072919394409,1737
752.3718336242467,1728
754.6357583873777,1805
756.8990664502545,1795
759.1617580343765,1796
761.423833361321,1739
763.6852926527457,1808
765.9461361303862,1778
768.206364016058,1827
770.4659765316536,1769
772.7249738991469,1781
774.9833563405886,1846
777.2411240781092,1709
779.4982773339183,1820
781.7548163303044,1765
784.010741289634,1872
786.2660524343538,1892
788.5207499869881,1774
790.7748341701416,1736
793.0283052064964,1834
795.2811633188143,1862
797.5334087299362,1820
799.7850416627813,1811
802.0360623403484,1817
804.2864709857143,1835
806.5362678220353,1854
808.7854530725468,1794
811.0340269605625,1838
813.2819897094754,1802
815.5293415427581,1834
817.77608268396,1777
820.0222133567116,1785
822.2677337847211,1762
824.5126441917765,1810
826.7569448017433,1825
829.0006358385675,1828
831.2437175262731,1816
833.4861900889629,1805
835.7280537508192,1740
837.9693087361026,1817
840.2099552691533,1869
842.4499935743896,1794
844.689423876309,1774
846.9282463994886,1797
849.1664613685833,1843
851.4040690083276,1866
853.6410695435349,1785
855.877463199097,1842
858.1132501999847,1791
860.3484307712487,1796
862.5830051380175,1825
864.8169735254988,1786
867.0503361589791,1866
869.2830932638243,1873
871.5152450654786,1846
873.7467917894654,1828
875.9777336613873,1832
878.2080709069252,1807
880.4378037518389,1813
882.666932421968,1870
884.8954571432301,1848
887.1233781416219,1919
889.3506956432192,1893
891.5774098741766,1890
893.803521060728,1868
896.0290294291852,1857
898.2539352059397,1883
900.4782386174619,1858
902.7019398903011,1847
904.925039251085,1882
907.147536926521,1893
909.3694331433943,1847
911.59072812857,1877
913.8114221089921,1838
916.0315153116827,1856
918.2510079637437,1826
920.4699002923547,1815
922.6881925247761,1821
924.905884888345,1772
927.1229776104793,1721
929.3394709186747,1814
931.555365040506,1776
933.7706602036275,1788
935.9853566357709,1775
938.1994545647489,1821
940.4129542184515,1855
942.6258558248488,1753
944.8381596119883,1775
947.0498658079974,1792
949.2609746410825,1804
951.4714863395287,1728
953.6814011316998,1791
955.8907192460387,1806
958.0994409110671,1672
960.3075663553858,1669
962.5150958076741,1756
964.7220294966913,1701
966.928367651274,1776
969.1341105003388,1701
971.3392582728806,1742
973.5438111979742,1649
975.747769504772,1669
977.9511334225061,1662
980.153903180487,1655
982.3560790081052,1683
984.5576611348289,1650
986.7586497902058,1706
988.9590452038618,1616
991.158847605503,1596
993.3580572249133,1661
995.5566742919558,1684
997.7546990365728,1595
999.952131688785,1621
1002.1489724786926,1584
1004.3452216364743,1511
1006.5408793923874,1537
1008.7359459767691,1514
1010.9304216200343,1483
1013.1243065526781,1468
1015.3176010052733,1510
1017.510305208472,1511
1019.7024193930064,1509
1021.8939437896848,1503
1024.0848786293977,1508
1026.2752241431122,1470
1028.4649805618747,1473
1030.6541481168115,1423
1032.842727039127,1486
1035.0307175601051,1431
1037.2181199111074,1394
1039.4049343235752,1444
1041.591161029029,1423
1043.7768002590683,1432
1045.9618522453698,1394
1048.1463172196918,1489
1050.3301954138697,1462
1052.513487059818,1473
1054.69619238953,1386
1056.8783116350783,1396
1059.0598450286152,1473
1061.2407928023704,1438
1063.4211551886528,1378
1065.6009324198508,1414
1067.780124728432,1398
1069.9587323469414,1444
1072.1367555080046,1389
1074.314194444325,1440
1076.4910493886855,1366
1078.667320573947,1364
1080.843008233051,1387
1083.0181125990161,1420
1085.1926339049414,1356
1087.3665723840027,1373
1089.5399282694575,1368
1091.7127017946405,1348
1093.8848931929647,1386
1096.0565026979243,1354
1098.2275305430899,1282
1100.3979769621128,1321
1102.567842188722,1331
1104.737126456726,1340
1106.9058300000124,1284
1109.0739530525475,1363
1111.2414958483764,1338
1113.4084586216231,1320
1115.5748416064907,1396
1117.7406450372605,1290
1119.9058691482942,1349
1122.0705141740304,1320
1124.2345803489884,1348
1126.3980679077658,1346
1128.5609770850388,1318
1130.7233081155623,1336
1132.8850612341707,1366
1135.0462366757774,1290
1137.2068346753745,1417
1139.3668554680326,1322
1141.526299288901,1318
1143.68516637321,1305
1145.8434569562655,1283
1148.001171273455,1326
1150.158309560244,1331
1152.3148720521767,1273
1154.470858984876,1350
1156.626270594044,1331
1158.7811071154629,1326
1160.9353687849912,1351
1163.089055838569,1334
1165.242168512213,1306
1167.3947070420209,1321
1169.5466716641677,1317
1171.6980626149075,1346
1173.8488801305748,1304
1175.9991244475814,1252
1178.1487958024186,1267
1180.2978944316555,1290
1182.4464205719428,1292
1184.5943744600072,1270
1186.7417563326567,1245
1188.8885664267755,1355
1191.0348049793297,1249
1193.1804722273619,1279
1195.325568407995,1301
1197.4700937584303,1248
1199.614048515948,1307
1201.7574329179074,1245
1203.900247201746,1283
1206.042491604982,1300
1208.1841663652099,1334
1210.3252717201053,1330
1212.465807907422,1308
1214.6057751649923,1281
1216.7451737307279,1321
1218.8840038426192,1254
1221.0222657387353,1328
1223.1599596572241,1396
1225.2970858363137,1304
1227.4336445143094,1329
1229.5696359295966,1296
1231.705060320639,1329
1233.8399179259786,1325
1235.9742089842384,1289
1238.107933734118,1316
1240.2410924143974,1327
1242.373685263935,1346
1244.5057125216676,1298
1246.6371744266116,1298
1248.7680712178621,1362
1250.898403134593,1332
1253.028170416058,1263
1255.1573733015875,1315
1257.2860120305932,1347
1259.4140868425648,1330
1261.54159797707,1347
1263.6685456737569,1358
1265.7949301723515,1385
1267.9207517126597,1353
1270.046010534565,1370
1272.1707068780306,1343
1274.2948409830983,1375
1276.4184130898889,1386
1278.541423438603,1327
1280.6638722695184,1415
1282.785759822993,1379
1284.9070863394636,1400
1287.0278520594447,1375
1289.1480572235314,1405
1291.2677020723963,1349
1293.3867868467923,1396
1295.5053117875495,1380
1297.623277135579,1423
1299.740683131868,1393
1301.8575300174857,1407
1303.973818033578,1391
1306.0895474213703,1453
1308.2047184221678,1422
1310.3193312773528,1389
1312.4333862283888,1462
1314.5468835168163,1435
1316.659823384255,1386
1318.7722060724045,1433
1320.8840318230418,1448
1322.9953008780249,1474
1325.1060134792888,1431
1327.2161698688478,1441
1329.3257702887959,1401
1331.4348149813054,1409
1333.5433041886276,1418
1335.6512381530933,1429
1337.7586171171101,1379
1339.8654413231675,1442
1341.9717110138317,1439
1344.0774264317488,1390
1346.1825878196432,1383
1348.2871954203192,1375
1350.3912494766587,1410
1352.4947502316231,1380
1354.5976979282532,1415
1356.7000928096686,1358
1358.8019351190665,1427
1360.9032250997243,1437
1363.0039629949988,1449
1365.1041490483235,1418
1367.2037835032133,1394
1369.3028666032606,1382
1371.401398592137,1397
1373.4993797135926,1424
1375.5968102114575,1388
1377.6936903296396,1377
1379.7900203121262,1405
1381.8858004029835,1371
1383.9810308463561,1437
1386.075711886469,1461
1388.1698437676241,1400
1390.2634267342032,1413
1392.356461030667,1424
1394.4489469015557,1354
1396.5408845914872,1434
1398.6322743451592,1441
1400.7231164073469,1473
1402.813411022907,1413
1404.903158436773,1463
1406.9923588939578,1455
1409.0810126395531,1468
1411.1691199187303,1462
1413.2566809767386,1427
1415.343696058907,1484
1417.4301654106425,1499
1419.5160892774315,1432
1421.6014679048399,1471
1423.6863015385125,1463
1425.7705904241707,1466
1427.8543348076178,1473
1429.9375349347342,1474
1432.0201910514802,1553
1434.102303403894,1556
1436.1838722380944,1545
1438.2648978002767,1525
1440.3453803367174,1593
1442.4253200937692,1535
1444.5047173178677,1527
1446.5835722555234,1571
1448.6618851533285,1543
1450.739656257952,1626
1452.8168858161434,1598
1454.8935740747306,1642
1456.96972128062,1630
1459.045327680797,1658
1461.120393522327,1646
1463.1949190523528,1663
1465.2689045180973,1669
1467.3423501668608,1725
1469.415256246024,1761
1471.4876230030463,1758
1473.559450685465,1801
1475.6307395408976,1776
1477.7014898170391,1814
1479.771701761665,1783
1481.8413756226287,1765
1483.9105116478618,1826
1485.9791100853772,1851
1488.0471711832643,1883
1490.1146951896926,1912
1492.1816823529098,1829
1494.2481329212433,1795
1496.3140471430984,1907
1498.3794252669609,1842
1500.4442675413939,1952
1502.5085742150404,1972
1504.572345536622,2017
1506.6355817549388,1912
1508.6982831188702,1983
1510.7604498773744,1966
1512.8220822794883,1968
1514.8831805743293,1949
1516.9437450110909,2012
1519.003775839048,2031
1521.0632733075522,1985
1523.1222376660367,2024
1525.1806691640113,2061
1527.2385680510652,2039
1529.2959345768668,2032
1531.3527689911643,2062
1533.4090715437833,1997
1535.4648424846291,2033
1537.5200820636855,2089
1539.5747905310159,2124
1541.6289681367616,2122
1543.6826151311434,2067
1545.7357317644614,2184
1547.7883182870937,2166
1549.8403749494987,2252
1551.8919020022113,2300
1553.9428996958477,2162
1555.9933682811015,2228
1558.0433080087469,2194
1560.0927191296346,2279
1562.1416018946961,2300
1564.1899565549415,2373
1566.2377833614592,2336
1568.2850825654164,2318
1570.3318544180606,2357
1572.3780991707158,2308
1574.423817074788,2277
1576.4690083817595,2265
1578.5136733431923,2141
1580.5578122107272,2061
1582.601425236085,1999
1584.6445126710646,1945
1586.6870747675434,1946
1588.7291117774776,1849
1590.7706239529034,1803
1592.8116115459347,1850
1594.8520748087658,1769
1596.8920139936686,1675
1598.9314293529933,1677
1600.9703211391711,1707
1603.008689604711,1688
1605.0465350022005,1632
1607.0838575843068,1565
1609.1206576037753,1542
1611.1569353134305,1618
1613.1926909661765,1545
1615.2279248149953,1558
1617.2626371129481,1537
1619.2968281131757,1485
1621.3304980688963,1494
1623.3636472334088,1464
1625.39627586009,1470
1627.428384202396,1450
1629.459972513861,1504
1631.4910410480993,1422
1633.5215900588028,1408
1635.551619799744,1449
1637.5811305247717,1397
1639.6101224878166,1430
1641.6385959428862,1455
1643.6665511440683,1419
1645.693988345528,1376
1647.7209078015112,1365
1649.7473097663405,1383
1651.7731944944203,1425
1653.7985622402307,1340
1655.823413258333,1430
1657.847747803366,1396
1659.8715661300494,1385
1661.8948684931793,1393
1663.9176551476316,1352
1665.9399263483624,1391
1667.9616823504057,1373
1669.982923408873,1427
1672.0036497789574,1360
1674.0238617159293,1376
1676.043559475138,1413
1678.0627433120121,1416
1680.081413482059,1384
1682.0995702408654,1418
1684.117213844096,1395
1686.134344547495,1388
1688.1509626068864,1382
1690.1670682781705,1328
1692.182661817329,1364
1694.1977434804217,1324
1696.2123135235875,1378
1698.226372203043,1376
1700.2399197750851,1390
1702.2529564960905,1362
1704.2654826225112,1408
1706.277498410882,1383
1708.2890041178139,1332
1710.2999999999988,1374
1712.3104863142066,1363
1714.3204633172854,1408
1716.329931266163,1360
1718.3388904178469,1384
1720.3473410294214,1334
1722.3552833580516,1387
1724.3627176609807,1398
1726.3696441955308,1349
1728.3760632191033,1333
1730.3819749891782,1325
1732.3873797633146,1336
1734.3922777991502,1319
1736.3966693544012,1379
1738.4005546868639,1341
1740.4039340544127,1370
1742.406807715001,1285
1744.4091759266616,1333
1746.4110389475054,1328
1748.4123970357223,1347
1750.413250449582,1346
1752.4135994474318,1359
1754.4134442876993,1366
1756.4127852288902,1314
1758.4116225295893,1297
1760.4099564484595,1311
1762.407787244244,1336
1764.405115175764,1352
1766.4019405019203,1295
1768.3982634816916,1347
1770.3940843741357,1336
1772.3894034383907,1416
1774.3842209336717,1307
1776.378537119274,1329
1778.372352254571,1326
1780.3656665990156,1341
1782.3584804121397,1310
1784.3507939535534,1315
1786.3426074829463,1338
1788.3339212600863,1326
1790.3247355448211,1333
1792.3150505970766,1229
1794.3048666768573,1236
1796.2941840442477,1298
1798.2830029594106,1323
1800.2713236825884,1372
1802.2591464741004,1272
1804.2464715943465,1316
1806.2332993038058,1306
1808.2196298630352,1338
1810.2054635326708,1362
1812.190800573428,1276
1814.175641246101,1326
1816.1599858115628,1324
1818.1438345307652,1367
1820.127187664738,1335
1822.1100454745924,1303
1824.092408221516,1298
1826.0742761667766,1325
1828.055649571721,1305
1830.0365286977735,1294
1832.0169138064398,1288
1833.9968051593014,1285
1835.9762030180214,1290
1837.9551076443408,1258
1839.9335193000788,1295
1841.9114382471344,1252
1843.888864747485,1272
1845.8657990631878,1274
1847.842241456378,1304
1849.8181921892697,1306
1851.7936515241558,1299
1853.7686197234098,1261
1855.7430970494815,1234
1857.7170837649014,1310
1859.6905801322787,1281
1861.6635864143004,1333
1863.6361028737338,1284
1865.608129773424,1276
1867.5796673762961,1335
1869.5507159453537,1286
1871.521275743678,1298
1873.4913470344313,1333
1875.4609300808534,1324
1877.4300251462632,1324
1879.3986324940588,1229
1881.366752387717,1288
1883.3343850907936,1264
1885.3015308669228,1346
1887.268189979819,1360
1889.2343626932739,1339
1891.2000492711595,1327
1893.1652499774254,1363
1895.1299650761011,1334
1897.0941948312952,1318
1899.0579395071945,1300
1901.0211993680641,1278
1902.98397467825,1307
1904.9462657021745,1319
1906.9080727043415,1292
1908.869395949332,1291
1910.8302357018065,1338
1912.790592226504,1327
1914.7504657882428,1288
1916.7098566519212,1227
1918.6687650825133,1328
1920.6271913450764,1316
1922.5851357047422,1291
1924.5425984267245,1327
1926.499579776314,1326
1928.4560800188833,1327
1930.4120994198802,1280
1932.367638244833,1356
1934.32269675935,1311
1936.2772752291175,1287
1938.231373919899,1340
1940.1849930975404,1296
1942.1381330279637,1320
1944.0907939771696,1269
1946.0429762112412,1293
1947.9946799963363,1324
1949.9459055986945,1335
1951.896653284633,1326
1953.8469233205478,1309
1955.7967159729142,1322
1957.7460315082863,1354
1959.6948701932974,1332
1961.6432322946594,1268
1963.5911180791632,1245
1965.5385278136787,1297
1967.4854617651545,1348
1969.4319202006182,1329
1971.377903387176,1284
1973.3234115920136,1339
1975.268445082395,1251
1977.2130041256642,1283
1979.1570889892423,1318
1981.1006999406304,1297
1983.04383724741,1269
1984.986501177238,1228
1986.928691997853,1244
1988.8704099770712,1277
1990.811655382789,1326
1992.7524284829801,1339
1994.692729545698,1306
1996.6325588390755,1241
1998.5719166313224,1292
2000.5108031907307,1260
2002.4492187856677,1265
2004.387163684583,1232
2006.3246381560011,1296
2008.2616424685298,1249
2010.1981768908527,1281
2012.1342416917332,1262
2014.069837140014,1247
2016.0049635046162,1233
2017.9396210545406,1257
2019.8738100588666,1212
2021.8075307867502,1286
2023.740783507431,1286
2025.6735684902228,1234
2027.6058860045214,1251
2029.5377363198004,1310
2031.4691197056118,1314
2033.4000364315875,1260
2035.3304867674374,1256
2037.260470982952,1262
2039.189989347998,1289
2041.1190421325232,1295
2043.047629606554,1225
2044.9757520401945,1265
2046.9034097036288,1255
2048.8306028671195,1276
2050.7573318010086,1240
2052.683596775716,1226
2054.609398061742,1217
2056.5347359296647,1251
2058.4596106501403,1253
2060.384022493906,1218
2062.3079717317764,1229
2064.231458634646,1230
2066.1544834734873,1205
2068.077046519352,1278
2069.99914804337,1258
2071.9207883167524,1213
2073.8419676107865,1258
2075.7626861968406,1237
2077.6829443463607,1200
2079.6027423308715,1257
2081.522080421977,1224
2083.440958891362,1227
2085.359378010786,1252
2087.2773380520907,1229
2089.194839287196,1249
2091.111881988101,1257
2093.0284664268825,1230
2094.9445928756973,1199
2096.86026160678,1237
2098.775472892446,1262
2100.690227005088,1260
2102.604524217178,1318
2104.5183648012676,1285
2106.431749029985,1218
2108.34467717604,1234
2110.2571495122206,1262
2112.169166311393,1241
2114.080727846503,1239
2115.9918343905747,1294
2117.902486216711,1294
2119.8126835980956,1205
2121.722426807987,1249
2123.6317161197285,1231
2125.5405518067364,1250
2127.448934142509,1238
2129.356863400624,1265
2131.264339854737,1236
2133.1713637785815,1330
2135.077935445972,1297
2136.9840551308002,1243
2138.889723107037,1296
2140.7949396487334,1216
2142.699705030018,1267
2144.6040195250994,1271
2146.507883408264,1222
2148.4112969538774,1273
2150.3142604363848,1314
2152.2167741303097,1297
2154.1188383102535,1237
2156.0204532508997,1261
2157.9216192270064,1243
2159.822336513414,1320
2161.7226053850413,1257
2163.622426116884,1279
2165.5217989840185,1257
2167.4207242616,1280
2169.319202224862,1296
2171.2172331491165,1279
2173.1148173097563,1242
2175.0119549822507,1311
2176.90864644215,1303
2178.8048919650823,1276
2180.7006918267534,1315
2182.596046302952,1283
2184.4909556695407,1359
2186.3854202024645,1285
2188.279440177746,1319
2190.173015871487,1317
2192.066147559868,1242
2193.958835519149,1363
2195.851080025667,1327
2197.7428813558417,1294
2199.6342397861667,1318
2201.5251555932186,1338
2203.415629053651,1326
2205.3056604441986,1388
2207.19525004167,1309
2209.084398122958,1328
2210.9731049650327,1294
2212.861370844941,1387
2214.749196039812,1341
2216.636580826851,1351
2218.523525483344,1367
2220.410030286655,1343
2222.296095514226,1405
2224.1817214435805,1424
2226.066908352319,1373
2227.951656518121,1375
2229.835966218746,1336
2231.71983773203,1391
2233.6032713358913,1401
2235.486267308324,1377
2237.3688259274036,1400
2239.2509474712824,1393
2241.132632218193,1303
2243.013880446447,1366
2244.8946924344323,1396
2246.7750684606203,1350
2248.6550088035574,1368
2250.534513741871,1382
2252.413583554265,1397
2254.292218519526,1424
2256.170418916517,1356
2258.0481850241786,1421
2259.925517121534,1366
2261.8024154876825,1441
2263.678880401803,1333
2265.5549121431536,1349
2267.430510991071,1415
2269.305677224971,1393
2271.180411124348,1405
2273.0547129687766,1348
2274.9285830379076,1331
2276.8020216114737,1420
2278.6750289692845,1331
2280.5476053912294,1385
2282.4197511572766,1361
2284.2914665474727,1370
2286.162751841943,1484
2288.0336073208937,1445
2289.904033264608,1412
2291.774029953448,1434
2293.6435976678554,1400
2295.5127366883517,1368
2297.381447295534,1281
2299.2497297700825,1329
2301.1175843927526,1323
2302.9850114443825,1289
2304.852011205885,1251
2306.7185839582553,1241
2308.5847299825664,1207
2310.4504495599676,1193
2312.3157429716925,1142
2314.1806104990483,1106
2316.0450524234247,1200
2317.9090690262888,1123
2319.772660589186,1146
2321.635827393742,1157
2323.498569721661,1130
2325.3608878547248,1161
2327.2227820747967,1161
2329.0842526638157,1156
2330.945299903803,1138
2332.805924076857,1138
2334.6661254651535,1129
2336.525904350951,1092
2338.3852610165827,1107
2340.244195744464,1200
2342.102708817088,1166
2343.9608005170253,1161
2345.8184711269287,1166
2347.675720929526,1157
2349.532550207628,1130
2351.38895924412,1167
2353.24494832197,1145
2355.100517724223,1131
2356.955667734004,1153
2358.810398634514,1147
2360.664710709037,1193
2362.5186042409337,1173
2364.3720795136437,1186
2366.225136810686,1159
2368.0777764156583,1149
2369.929998612237,1146
2371.7818036841777,1121
2373.633191915315,1110
2375.484163589562,1141
2377.3347189909114,1146
2379.184858403434,1210
2381.03458211128,1186
2382.8838903986775,1144
2384.732783549936,1185
2386.5812618494406,1214
2388.4293255816588,1199
2390.2769750311327,1245
2392.1242104824883,1178
2393.971032220427,1160
2395.8174405297295,1202
2397.6634356952563,1219
2399.509018001947,1138
2401.3541877348193,1186
2403.1989451789705,1141
2405.043290619576,1148
2406.8872243418905,1199
2408.730746631247,1205
2410.5738577730594,1157
2412.4165580528183,1177
2414.258847756095,1128
2416.100727168537,1142
2417.9421965758734,1117
2419.783256263912,1175
2421.623906518538,1138
2423.4641476257157,1201
2425.303979871491,1178
2427.143403541984,1166
2428.9824189233977,1185
2430.821026302012,1144
2432.6592259641866,1199
2434.497018196361,1201
2436.33440328505,1205
2438.171381516851,1149
2440.00795317844,1192
2441.844118556569,1207
2443.6798779380724,1210
2445.5152316098606,1146
2447.3501798589255,1178
2449.1847229723357,1155
2451.0188612372403,1244
2452.8525949408663,1201
2454.6859243705203,1174
2456.518849813587,1209
2458.3513715575314,1172
2460.183489889895,1174
2462.015205098301,1206
2463.8465174704493,1204
2465.67742729412,1182
2467.5079348571717,1178
2469.338040447542,1183
2471.1677443532476,1127
2472.9970468623833,1198
2474.825948263123,1170
2476.6544488437207,1179
2478.482548892508,1206
2480.310248697896,1225
2482.137548548374,1198
2483.9644487325118,1139
2485.790949538956,1167
2487.617051256433,1207
2489.44275417375,1239
2491.26805857979,1183
2493.0929647635157,1238
2494.917473013971,1214
2496.741583620276,1209
2498.5652968716304,1189
2500.3886130573137,1246
2502.2115324666834,1158
2504.0340553891765,1216
2505.856182114308,1232
2507.6779129316733,1247
2509.499248130945,1259
2511.3201880018764,1210
2513.140732834298,1255
2514.9608829181198,1190
2516.780638543331,1196
2518.6,1210
2520.418967578273,1207
2522.237541568376,1170
2524.0557222606144,1196
2525.8735099453706,1229
2527.6909049131086,1193
2529.507907454368,1224
2531.32451785977,1217
2533.140736420014,1212
2534.9565634258774,1239
2536.771999168218,1283
2538.5870439379714,1275
2540.4016980261526,1308
2542.2159617238544,1289
2544.02983532225,1281
2545.8433191125914,1266
2547.656413386209,1275
2549.4691184345115,1324
2551.2814345489874,1299
2553.093362021204,1293
2554.904901142808,1260
2556.716052205523,1305
2558.526815501153,1362
2560.3371913215824,1299
2562.147179958771,1365
2563.956781704761,1328
2565.7659968516705,1341
2567.5748256916986,1345
2569.3832685171224,1370
2571.1913256202984,1346
2572.9989972936614,1386
2574.806283829725,1384
2576.613185521084,1377
2578.4197026604074,1399
2580.2258355404483,1392
2582.031584454035,1396
2583.836949694077,1362
2585.6419315535613,1380
2587.4465303255533,1453
2589.2507463032002,1416
2591.0545797797245,1392
2592.8580310484303,1357
2594.6611004026995,1420
2596.463788135992,1386
2598.266094541849,1375
2600.0680199138874,1399
2601.869564545807,1416
2603.670728731383,1341
2605.4715127644704,1370
2607.2719169390048,1346
2609.071941548998,1357
2610.8715868885433,1369
2612.670853251811,1363
2614.469740933052,1430
2616.268250226594,1402
2618.0663814268455,1369
2619.864134828292,1354
2621.6615107255006,1390
2623.458509413115,1407
2625.2551311858597,1331
2627.0513763385347,1314
2628.8472451660223,1338
2630.6427379632833,1287
2632.4378550253564,1348
2634.232596647359,1327
2636.026963124488,1350
2637.8209547520187,1348
2639.6145718253065,1340
2641.407814639785,1327
2643.200683490966,1306
2644.9931786744414,1288
2646.7853004858807,1336
2648.577049221034,1318
2650.3684251757277,1269
2652.1594286458712,1290
2653.9500599274484,1255
2655.740319316525,1268
2657.5302071092437,1273
2659.3197236018286,1220
2661.10886909058,1230
2662.8976438718782,1231
2664.686048242183,1250
2666.4740824980327,1229
2668.2617469360443,1217
2670.0490418529134,1217
2671.8359675454153,1286
2673.622524310403,1228
2675.408712444811,1262
2677.1945322456495,1227
2678.979984010009,1231
2680.76506803506,1199
2682.5497846180497,1208
2684.334134056306,1162
2686.1181166472343,1228
2687.9017326883213,1224
2689.6849824771293,1200
2691.4678663113013,1212
2693.2503844885596,1191
2695.032537306705,1207
2696.8143250636167,1225
2698.5957480572542,1212
2700.3768065856534,1203
2702.1575009469316,1207
2703.937831439283,1198
2705.717798360982,1182
2707.4974020103837,1212
2709.276642685917,1232
2711.055520686095,1219
2712.834036309506,1202
2714.612189854819,1217
2716.389981620782,1207
2718.1674119062204,1196
2719.944481010041,1104
2721.721189231226,1138
2723.4975368688415,1131
2725.273524222027,1149
2727.0491515900053,1174
2728.824419272075,1156
2730.5993275676146,1134
2732.3738767760838,1155
2734.148067197016,1145
2735.921899130031,1118
2737.6953728748194,1154
2739.468488731156,1198
2741.2412469988926,1116
2743.0136479779617,1194
2744.785691968372,1181
2746.5573792702116,1100
2748.3287101836504,1149
2750.099685008934,1140
2751.870304046388,1131
2753.640567596418,1117
2755.4104759595057,1124
2757.1800294362156,1155
2758.949228327187,1169
2760.7180729331412,1147
2762.486563554877,1156
2764.254700493272,1194
2766.022484049284,1218
2767.789914523947,1124
2769.5569922183786,1128
2771.3237174337705,1169
2773.090090471394,1089
2774.8561116326036,1137
2776.6217812188274,1146
2778.3870995315756,1102
2780.1520668724356,1145
2781.9166835430747,1152
2783.6809498452394,1128
2785.444866080754,1147
2787.2084325515225,1122
2788.971649559527,1110
2790.73451740683,1154
2792.4970363955713,1122
2794.2592068279705,1080
2796.0210290063264,1136
2797.7825032330147,1201
2799.543629810493,1187
2801.304409041296,1131
2803.0648412280366,1168
2804.8249266734088,1206
2806.5846656801846,1173
2808.344058551212,1206
2810.1031055894246,1136
2811.8618070978273,1220
2813.6201633795085,1204
2815.378174737636,1177
2817.1358414754536,1176
2818.893163896285,1154
2820.6501423035334,1132
2822.4067770006814,1136
2824.1630682912883,1182
2825.9190164789957,1150
2827.6746218675207,1115
2829.429884760661,1067
2831.184805462294,1219
2832.9393842763743,1165
2834.693621506936,1125
2836.4475174580916,1120
2838.201072434034,1175
2839.954286739034,1125
2841.707160677441,1109
2843.459694553685,1105
2845.2118886722724,1176
2846.96374333779,1188
2848.7152588549034,1215
2850.4664355283567,1168
2852.217273662973,1191
2853.9677735636546,1155
2855.7179355353833,1158
2857.4677598832186,1169
2859.217246912299,1162
2860.9663969278427,1149
2862.715210235146,1154
2864.4636871395846,1164
2866.211827946614,1174
2867.9596329617652,1142
2869.7071024906536,1164
2871.4542368389684,1165
2873.20103631248,1178
2874.947501217038,1178
2876.6936318585695,1144
2878.4394285430812,1159
2880.1848915766604,1188
2881.9300212654707,1121
2883.6748179157553,1165
2885.4192818338374,1138
2887.1634133261173,1157
2888.907212699077,1114
2890.6506802592744,1183
2892.393816313348,1195
2894.1366211680142,1188
2895.8790951300693,1207
2897.621238506388,1203
2899.363051603925,1155
2901.1045347297118,1185
2902.8456881908596,1161
2904.58651229456,1181
2906.327007348081,1151
2908.067173658772,1167
2909.8070115340597,1158
2911.5465212814497,1152
2913.285703208527,1198
2915.0245576229563,1164
2916.7630848324807,1124
2918.5012851449196,1174
2920.2391588681758,1175
2921.976706310227,1134
2923.7139277791334,1154
2925.4508235830313,1140
2927.187394030137,1166
2928.923639428745,1162
2930.6595600872306,1113
2932.395156314046,1203
2934.1304284177218,1185
2935.8653767068713,1135
2937.6000014901815,1112
2939.3343030764227,1187
2941.068281774442,1159
2942.8019378931644,1142
2944.5352717415976,1136
2946.2682836288236,1164
2948.0009738640065,1220
2949.7333427563885,1136
2951.465390615289,1152
2953.1971177501086,1146
2954.9285244703265,1199
2956.6596110855,1166
2958.3903779052657,1172
2960.1208252393385,1163
2961.8509533975125,1166
2963.5807626896617,1184
2965.3102534257378,1149
2967.0394259157715,1119
2968.768280469873,1139
2970.496817398232,1165
2972.2250370111146,1132
2973.952939618869,1115
2975.6805255319196,1166
2977.4077950607707,1177
2979.134748516006,1193
2980.861386208289,1194
2982.587708448359,1168
2984.313715547037,1198
2986.039407815222,1142
2987.764785563891,1086
2989.489849104102,1200
2991.2145987469908,1170
2992.9390348037705,1163
2994.6631575857346,1148
2996.3869674042576,1120
2998.1104645707887,1084
2999.83364939686,1143
3001.5565221940783,1119
3003.2790832741334,1109
3005.0013329487924,1130
3006.7232715298996,1130
3008.4448993293804,1129
3010.166216659239,1125
3011.887223831558,1087
3013.607921158498,1144
3015.3283089522993,1116
3017.0483875252826,1158
3018.7681571898443,1148
3020.4876182584626,1176
3022.2067710436927,1151
3023.9256158581707,1186
3025.644153014609,1143
3027.362382825801,1159
3029.0803056046193,1159
3030.797921664012,1114
3032.5152313170106,1111
3034.2322348767225,1120
3035.9489326563353,1104
3037.665324969115,1124
3039.3814121284063,1160
3041.097194447633,1118
3042.812672240299,1132
3044.5278458199855,1100
3046.2427155003525,1210
3047.9572815951406,1141
3049.671544418167,1111
3051.38550428333,1077
3053.0991615046073,1149
3054.812516396051,1125
3056.5255692717974,1138
3058.2383204460575,1126
3059.9507702331257,1138
3061.662918947372,1104
3063.3747669032446,1130
3065.0863144152736,1128
3066.7975617980674,1161
3068.508509366309,1149
3070.219157434767,1135
3071.9295063182844,1105
3073.639556331785,1099
3075.3493077902704,1114
3077.058761008821,1136
3078.7679163025964,1144
3080.476773986837,1134
3082.1853343768594,1136
3083.89359778806,1121
3085.6015645359153,1158
3087.3092349359786,1119
3089.016609303884,1145
3090.7236879553434,1149
3092.4304712061476,1112
3094.136959372166,1103
3095.843152769349,1146
3097.5490517137237,1144
3099.2546565213966,1143
3100.959967508554,1173
3102.66498499146,1137
3104.3697092864577,1169
3106.0741407099695,1178
3107.778279578498,1197
3109.482126208622,1112
3111.1856809170004,1110
3112.8889440203716,1152
3114.5919158355528,1168
3116.294596679439,1206
3117.996986869006,1151
3119.6990867213062,1119
3121.4008965534726,1183
3123.102416682717,1134
3124.803647426329,1141
3126.5045891016784,1193
3128.205242026213,1124
3129.90560651746,1143
3131.605682893025,1133
3133.3054714705922,1092
3135.0049725679282,1155
3136.7041865028714,1172
3138.4031135933465,1169
3140.101754157353,1161
3141.800108512971,1131
3143.498176978357,1156
3145.1959598717494,1138
3146.8934575114636,1098
3148.5906702158954,1162
3150.2875983035183,1174
3151.9842420928853,1145
3153.680601902627,1156
3155.376678051456,1114
3157.07247085816,1111
3158.767980641609,1169
3160.463207720748,1127
3162.158152414606,1180
3163.8528150422862,1173
3165.5471959229726,1107
3167.2412953759303,1161
3168.9351137204976,1151
3170.628651276098,1138
3172.3219083622307,1181
3174.014885298474,1151
3175.707582404485,1154
3177.4000000000005,1125
3179.092138404835,1178
3180.7839979388846,1152
3182.47557892212,1116
3184.166881674594,1138
3185.8579065164386,1146
3187.5486537678626,1131
3189.2391237491547,1178
3190.9293167806827,1120
3192.6192331828934,1112
3194.3088732763117,1141
3195.998237381542,1097
3197.687325819268,1115
3199.376138910251,1112
3201.064676975334,1089
3202.7529403354347,1097
3204.4409293115523,1070
3206.1286442247647,1160
3207.816085396229,1147
3209.5032531471825,1106
3211.190147798936,1112
3212.8767696728846,1104
3214.5631190905015,1107
3216.2491963733373,1134
3217.9350018430214,1169
3219.6205358212637,1087
3221.305798629851,1192
3222.990790590651,1140
3224.6755120256103,1110
3226.359963256751,1149
3228.0441446061795,1159
3229.7280563960758,1081
3231.411698948703,1070
3233.0950725863995,1124
3234.778177631587,1159
3236.461014406761,1127
3238.1435832345005,1140
3239.8258844374595,1101
3241.507918338374,1195
3243.1896852600576,1135
3244.8711855254023,1160
3246.552419457381,1100
3248.233387379042,1126
3249.914089613516,1145
3251.59452648401,1107
3253.274698313813,1162
3254.95460542629,1139
3256.6342481448855,1117
3258.313626793125,1123
3259.9927416946084,1099
3261.6715931730196,1067
3263.3501815521176,1118
3265.0285071557437,1132
3266.706570307815,1107
3268.3843713323286,1123
3270.0619105533615,1121
3271.739188295068,1082
3273.4162048816834,1109
3275.0929606375184,1123
3276.769455886966,1124
3278.445690954498,1172
3280.1216661646613,1153
3281.797381842087,1205
3283.4728383114807,1179
3285.1480358976296,1130
3286.8229749253996,1158
3288.4976557197333,1106
3290.172078605655,1121
3291.846243908266,1077
3293.5201519527463,1074
3295.193803064357,1114
3296.8671975684374,1104
3298.5403357904024,1164
3300.21321805575,1099
3301.8858446900567,1082
3303.558216018975,1103
3305.23033236824,1118
3306.9021940636603,1154
3308.57380143113,1098
3310.2451547966184,1095
3311.916254486174,1089
3313.5871008259246,1128
3315.2576941420766,1151
3316.9280347609147,1093
3318.5981230088046,1116
3320.2679592121895,1094
3321.9375436975924,1125
3323.606876791612,1136
3325.27595882093,1129
3326.944790112305,1061
3328.6133709925753,1119
3330.2817017886573,1112
3331.949782827547,1101
3333.617614436319,1135
3335.2851969421245,1168
3336.952530672199,1181
3338.619615953853,1175
3340.286453114475,1102
3341.9530424815357,1111
3343.619384382583,1091
3345.2854791452437,1095
3346.951327097224,1123
3348.6169285663073,1108
3350.2822838803577,1115
3351.947393367319,1073
3353.61225735521,1137
3355.2768761721345,1094
3356.9412501462693,1152
3358.605379605873,1111
3360.2692648792827,1106
3361.9329062949146,1114
3363.596304181263,1119
