CollectionTime,7/3/2024 2:49:25 PM
ExposureUsed,3
CalibratedSpectrum
-962.7078968117929,480
-959.9714848408522,462
-957.2358232597828,474
-954.5009119013725,464
-951.7667505983302,485
-949.0333391832855,468
-946.3006774887896,471
-943.5687653473143,472
-940.837602591253,487
-938.1071890529199,497
-935.3775245645503,480
-932.6486089583007,488
-929.9204420662485,496
-927.1930237203925,476
-924.4663537526524,514
-921.7404319948689,506
-919.0152582788041,513
-916.2908324361409,544
-913.5671542984834,467
-910.8442236973568,475
-908.1220404642074,453
-905.4006044304027,468
-902.679915427231,471
-899.959973285902,468
-897.2407778375464,472
-894.5223289132158,493
-891.8046263438832,474
-889.0876699604426,450
-886.3714595937089,473
-883.6559950744183,473
-880.9412762332282,459
-878.2273029007168,451
-875.5140749073835,453
-872.8015920836489,478
-870.0898542598545,454
-867.3788612662631,469
-864.6686129330585,476
-861.9591090903457,443
-859.2503495681506,461
-856.5423341964203,452
-853.8350628050229,475
-851.1285352237478,505
-848.4227512823054,472
-845.7177108103272,483
-843.0134136373656,482
-840.3098595928943,505
-837.6070485063082,530
-834.9049802069229,479
-832.2036545239757,477
-829.5030712866244,494
-826.8032303239481,507
-824.1041314649472,484
-821.4057745385428,492
-818.7081593735775,477
-816.0112857988148,464
-813.3151536429393,490
-810.6197627345566,516
-807.9251129021936,502
-805.2312039742981,490
-802.5380357792392,488
-799.8456081453069,478
-797.1539209007124,508
-794.462973873588,504
-791.772766891987,509
-789.083299783884,478
-786.3945723771743,501
-783.7065844996748,510
-781.0193359791231,503
-778.3328266431781,537
-775.6470563194197,513
-772.9620248353489,517
-770.2777320183878,497
-767.5941776958798,493
-764.9113616950891,504
-762.2292838432011,535
-759.5479439673222,488
-756.8673418944801,504
-754.1874774516235,535
-751.5083504656222,495
-748.8299607632671,468
-746.15230817127,521
-743.475392516264,543
-740.7992136248035,510
-738.1237713233636,495
-735.4490654383407,521
-732.7750957960521,516
-730.1018622227365,525
-727.4293645445534,529
-724.7576025875837,486
-722.0865761778291,500
-719.4162851412126,536
-716.7467293035781,529
-714.0779084906909,532
-711.409822528237,536
-708.7424712418238,509
-706.0758544569796,508
-703.4099719991541,552
-700.7448236937178,529
-698.0804093659622,520
-695.4167288411002,504
-692.7537819442656,507
-690.0915685005134,503
-687.4300883348199,524
-684.7693412720819,528
-682.1093271371178,502
-679.4500457546669,527
-676.7914969493897,503
-674.1336805458676,529
-671.4765963686034,519
-668.8202442420206,566
-666.1646239904642,570
-663.5097354382001,553
-660.8555784094151,525
-658.2021527282176,529
-655.5494582186366,531
-652.8974947046223,539
-650.2462620100463,532
-647.5957599587009,523
-644.9459883742998,528
-642.2969470804776,543
-639.6486359007902,572
-637.0010546587141,547
-634.3542031776476,589
-631.7080812809096,581
-629.0626887917401,557
-626.4180255333008,553
-623.7740913286734,550
-621.1308860008619,557
-618.4884093727904,581
-615.8466612673046,541
-613.2056415071715,573
-610.5653499150785,604
-607.9257863136347,580
-605.28695052537,574
-602.6488423727357,588
-600.0114616781036,559
-597.3748082637674,567
-594.7388819519412,578
-592.1036825647604,653
-589.4692099242818,663
-586.8354638524829,601
-584.2024441712624,583
-581.5701507024403,602
-578.9385832677575,589
-576.3077416888759,625
-573.6776257873787,584
-571.0482353847704,557
-568.4195703024757,594
-565.7916303618415,609
-563.164415384135,632
-560.5379251905453,625
-557.9121596021815,595
-555.2871184400748,577
-552.6628015251767,613
-550.0392086783606,635
-547.4163397204204,636
-544.794194472071,619
-542.1727727539491,682
-539.5520743866118,660
-536.9320991905377,693
-534.3128469861261,656
-531.6943175936979,733
-529.0765108334947,708
-526.4594265256793,798
-523.8430644903358,916
-521.2274245474689,1059
-518.612506517005,1154
-515.9983102187913,1125
-513.3848354725959,1292
-510.77208209810846,1469
-508.16004991493924,1684
-505.5487387426199,1688
-502.9381484006032,1592
-500.3282787082628,1452
-497.71912948489364,1247
-495.1107005497117,1043
-492.5029917218539,934
-489.8960028203786,799
-487.28973366426493,779
-484.68418407241325,748
-482.07935386364494,769
-479.47524285670266,732
-476.87185087025,703
-474.2691777228715,716
-471.66722323307334,728
-469.0659872192821,727
-466.4654694998459,748
-463.86566989303384,754
-461.26658821703614,751
-458.66822428996414,769
-456.07057792985,770
-453.4736489546475,759
-450.877437182231,736
-448.28194243039627,691
-445.68716451686,726
-443.09310325926003,730
-440.49975847515555,753
-437.9071299820263,723
-435.31521759727354,709
-432.72402113821954,754
-430.13354042210767,767
-427.5437752661022,775
-424.95472548728867,775
-422.36639090267386,758
-419.7787713291855,857
-417.1918665836721,809
-414.60567648290385,848
-412.0202008435715,826
-409.4354394822874,787
-406.8513922155845,818
-404.26805885991723,786
-401.685439231661,849
-399.103533147112,844
-396.522340422488,784
-393.9418608739278,806
-391.3620943174908,804
-388.7830405691583,758
-386.2046994448317,718
-383.6270707603344,702
-381.05015433141045,719
-378.473949973725,722
-375.8984575028645,687
-373.32367673433623,686
-370.74960748356875,660
-368.1762495659117,598
-365.60360279663576,599
-363.03166699093265,532
-360.4604419639154,555
-357.8899275306178,543
-355.32012350599507,531
-352.7510297049233,519
-350.1826459421999,508
-347.61497203254316,528
-345.04800779059235,528
-342.4817530309082,489
-339.91620756797226,515
-337.35137121618743,545
-334.7872437898774,609
-332.22382510328725,590
-329.66111497058273,545
-327.09911320585127,503
-324.53781962310075,533
-321.9772340362607,556
-319.4173562591816,515
-316.8581861056348,499
-314.2997233893127,511
-311.7419679238294,502
-309.1849195227194,517
-306.62857799943856,544
-304.0729431673641,622
-301.51801483979375,600
-298.963792829947,536
-296.41027695096386,571
-293.85746701590574,604
-291.3053628377552,616
-288.7539642294155,671
-286.2032710037115,602
-283.65328297338897,682
-281.1039999511146,687
-278.5554217494762,644
-276.007548180983,584
-273.4603790580651,649
-270.9139141930734,623
-268.3681533982807,615
-265.8230964858798,621
-263.27874326798565,614
-260.7350935566336,636
-258.1921471637804,711
-255.6499039013039,688
-253.10836358100266,707
-250.56752601459698,674
-248.02739101372765,734
-245.48795838995704,698
-242.94922795476816,735
-240.41119951956557,759
-237.8738728956746,777
-235.33724789434166,753
-232.80132432673452,705
-230.2661020039418,667
-227.73158073697357,832
-225.19776033676033,911
-222.66464061415422,911
-220.1322213799284,808
-217.60050244477725,684
-215.06948361931552,639
-212.53916471408013,785
-210.00954553952818,794
-207.48062590603843,734
-204.9524056239104,745
-202.4248845033651,868
-199.8980623545441,985
-197.37193898751036,941
-194.84651421224817,924
-192.32178783866232,868
-189.79775967657952,955
-187.27442953574644,1006
-184.7517972258321,1058
-182.2298625564256,924
-179.7086253370378,878
-177.18808537710026,824
-174.66824248596583,1031
-172.14909647290835,1088
-169.6306471471229,1011
-167.11289431772548,815
-164.59583779375328,896
-162.07947738416453,937
-159.5638128978386,1088
-157.04884414357605,1328
-154.53457093009854,1437
-152.02099306604828,1271
-149.50811035998936,954
-146.99592262040665,1059
-144.48442965570587,1484
-141.97363127421409,1777
-139.46352728417958,2198
-136.95411749377126,2312
-134.44540171107985,2019
-131.93737974411636,1318
-129.43005140081357,1272
-126.92341648902493,1378
-124.41747481652521,1943
-121.91222619101006,3067
-119.40767042009657,4576
-116.90380731132257,4504
-114.40063667214702,3627
-111.8981583099503,2203
-109.3963720320337,1668
-106.89527764561933,1937
-104.39487495785067,2826
-101.89516377579241,3995
-99.39614390642998,4644
-96.89781515667039,3909
-94.40017733334128,5017
-91.90323024319173,8696
-89.40697369289148,15292
-86.91140748903172,17693
-84.41653143812482,11018
-81.92234534660395,4740
-79.42884902082358,6639
-76.93604226705907,17318
-74.4439248915071,30104
-71.95249670028534,36629
-69.46175749943245,32399
-66.97170709490854,24922
-64.48234529259423,18484
-61.99367189829195,15208
-59.50568671772464,13829
-57.01838955653636,10622
-54.53178022029283,8983
-52.045858514480074,10383
-49.560624244506016,12920
-47.07607721569923,14246
-44.59221723330904,14188
-42.10904410250669,13276
-39.62655762838392,13946
-37.14475761595372,13748
-34.66364387015028,16043
-32.18321619582866,17023
-29.70347439776515,16970
-27.224418280657005,20907
-24.74604764912317,24536
-22.26836230770266,31768
-19.7913620608565,56275
-17.315046712966478,65040
-14.83941606833514,65040
-12.36446993118659,65040
-9.89020810566592,65040
-7.416630395839093,65040
-4.94373660569363,65040
-2.471526539137585,65040
-6.821210263296962E-13,65040
2.47084320796705,65040
4.941003281093458,65040
7.410480415786196,65040
9.879274808531363,65040
12.347386655893956,65040
14.814816154518212,65040
17.28156350112681,65040
19.74762889252179,65040
22.21301252558385,65040
24.67771459727237,21071
27.141735304626195,4502
29.605074844762612,3047
32.06773341487792,2940
34.52971121224755,3458
36.99100843422559,2687
39.45162527824516,1893
41.91156194181792,2078
44.370818622535126,2020
46.82939551806646,1689
49.287292826160524,1747
51.74451074464503,2231
54.201049471426245,2376
56.65690920448981,2105
59.112090141899785,1620
61.56659248179983,1415
64.02041642241159,1231
66.4735621620365,1298
68.92602989905402,1441
71.37781983192338,1781
73.82893215918205,1987
76.27936707944684,1771
78.72912479141326,1516
81.17820549385567,1735
83.62660938562783,1911
86.07433666566146,1463
88.5213875329681,1210
90.96776218663751,1166
93.41346082583925,1131
95.85848364982041,1288
98.30283085790859,1516
100.7465026495089,1588
103.18949922410604,1186
105.63182078126385,1376
108.07346752062438,1338
110.51443964190923,1102
112.95473734491827,1163
115.39436082953114,1131
117.83331029570547,1075
120.27158594347827,1118
122.7091879729652,1118
125.1461165843615,1211
127.58237197794062,1125
130.01795435405518,1048
132.4528639131364,1152
134.88710085569494,1128
137.32066538231982,1145
139.75355769367923,1040
142.1857779905207,1011
144.61732647366978,1090
147.04820334403132,1065
149.47840880258934,1080
151.90794305040674,1033
154.33680628862487,1144
156.76499871846443,1240
159.19252054122433,1318
161.61937195828352,1379
164.04555317109896,1394
166.47106438120693,1432
168.89590579022217,1577
171.320077599839,1739
173.7435800118302,1867
176.16641322804742,1856
178.58857745042144,1854
181.01007288096173,2065
183.43089972175687,2075
185.85105817497413,1836
188.27054844285988,2043
190.6893707277394,2014
193.10752523201643,2132
195.5250121581745,2106
197.9418317087751,2065
200.3579840864594,2071
202.7734694939469,2070
205.18828813403627,2121
207.6024402096051,2193
210.01592592360964,2275
212.42874547908548,2220
214.84089907914665,2176
217.2523869269868,2132
219.66320922587727,2091
222.0733661791695,2233
224.48285799029293,2170
226.8916848627572,2266
229.29984700014882,2199
231.7073446061355,2210
234.11417788446204,2190
236.520347038953,2153
238.92585227351185,2197
241.33069379212054,2217
243.73487179884035,2198
246.1383864978112,2335
248.541238093252,2256
250.9434267894609,2212
253.34495279081432,2158
255.74581630176783,2197
258.1460175268563,2197
260.54555667069314,2207
262.9444339379703,2144
265.3426495334594,2080
267.7402036620107,2294
270.1370965285529,2251
272.53332833809407,2217
274.9288992957214,2237
277.32380960660055,2171
279.718059475976,2178
282.1116491091717,2234
284.5045787115897,2212
286.89684848871195,2202
289.2884586460981,2147
291.67940938938807,2154
294.0697009242996,2206
296.4593334566299,2231
298.84830719225477,2188
301.23662233712923,2245
303.6242790972866,2250
306.01127767884,2124
308.39761828798066,2118
310.78330113097934,2126
313.16832641418534,2051
315.5526943440269,2081
317.9364051270112,2017
320.3194589697242,2047
322.70185607883093,2101
325.0835966610754,2109
327.4646809232805,1987
329.8451090723478,1893
332.2248813152577,1967
334.6039978590701,1939
336.9824589109231,1980
339.36026467803447,1987
341.7374153677,1956
344.113911187295,1854
346.48975234427337,1854
348.8649390461686,1942
351.2394715005918,1858
353.61334991523415,1935
355.9865744978655,1923
358.35914545633375,1890
360.73106299856715,1912
363.10232733257146,1932
365.47293866643247,1853
367.84289720831396,1865
370.2122031664593,1897
372.5808567491905,1840
374.9488581649083,1816
377.31620762209275,1747
379.6829053293021,1744
382.0489514951745,1780
384.4143463284262,1825
386.7790900378528,1755
389.14318283232853,1788
391.50662492080653,1825
393.86941651231916,1767
396.23155781597745,1832
398.5930490409713,1835
400.9538903965696,1799
403.3140820921202,1794
405.6736243370498,1741
408.03251734086336,1797
410.3907613131465,1756
412.74835646356166,1717
415.10530300185144,1764
417.4616011378372,1709
419.81725108141893,1749
422.1722530425758,1794
424.5266072313656,1765
426.880313857925,1742
429.2333731324701,1704
431.58578526529516,1747
433.9375504667738,1771
436.2886689473588,1713
438.63914091758113,1668
440.9889665880513,1791
443.33814616945835,1753
445.68667987257015,1684
448.03456790823395,1748
450.3818104873759,1696
452.72840782100013,1698
455.07436012019105,1659
457.41966759611057,1663
459.7643304600007,1749
462.10834892318155,1698
464.4517231970525,1649
466.79445349309174,1709
469.1365400228566,1707
471.4779829979826,1636
473.81878263018564,1682
476.15893913125876,1668
478.4984527130747,1644
480.8373235875855,1707
483.17555196682144,1804
485.5131380628919,1850
487.8500820879857,1895
490.1863842543697,1894
492.52204477439034,1977
494.8570638604725,2141
497.1914417251204,2342
499.52517858091653,2721
501.85827464052306,3182
504.19073011668036,3882
506.5225452222086,4496
508.85372017000566,4520
511.18425517304956,4707
513.514150444396,4878
515.8434061971808,5555
518.1720226446176,6538
520.4999999999999,6391
522.8273384766991,5780
525.1540382881666,4847
527.480099647932,4181
529.8055227696037,3248
532.1303078668694,2666
534.454455153496,2187
536.777964843328,2032
539.1008371502907,1940
541.4230722883866,1891
543.744670471698,1913
546.0656319143858,1818
548.3859568306899,1879
550.7056454349294,1822
553.0246979415016,1862
555.3431145648834,1811
557.6608955196306,1809
559.978041020377,1748
562.2945512818363,1676
564.6104265188006,1695
566.9256669461412,1727
569.2402727788082,1746
571.5542442318302,1699
573.8675815203156,1740
576.1802848594508,1761
578.4923544645015,1777
580.8037905508126,1765
583.114593333807,1807
585.4247630289875,1729
587.7342998519354,1765
590.0432040183106,1805
592.3514757438526,1717
594.6591152443794,1724
596.9661227357875,1734
599.2724984340531,1737
601.578242555231,1741
603.8833553154542,1763
606.1878369309362,1843
608.4916876179676,1740
610.7949075929192,1744
613.0974970722403,1756
615.3994562724587,1808
617.7007854101818,1706
620.0014847020951,1680
622.3015543649641,1735
624.6009946156324,1735
626.8998056710224,1770
629.1979877481361,1759
631.4955410640538,1812
633.7924658359349,1756
636.0887622810175,1761
638.3844306166192,1787
640.6794710601358,1759
642.9738838290426,1777
645.2676691408932,1755
647.5608272133207,1757
649.853358264037,1749
652.1452625108324,1812
654.4365401715764,1793
656.7271914642178,1802
659.0172166067838,1783
661.3066158173809,1831
663.5953893141935,1791
665.8835373154867,1812
668.1710600396028,1757
670.4579577049639,1802
672.7442305300709,1795
675.0298787335033,1756
677.3149025339197,1764
679.599302150058,1797
681.8830778007342,1792
684.1662297048437,1784
686.4487580813608,1776
688.7306631493387,1741
691.0119451279091,1786
693.2926042362834,1772
695.5726406937516,1764
697.8520547196814,1805
700.1308465335215,1774
702.4090163547982,1761
704.6865644031171,1787
706.9634908981619,1797
709.2397960596965,1678
711.5154801075631,1780
713.7905432616823,1783
716.0649857420548,1729
718.3388077687592,1822
720.612009561953,1788
722.8845913418733,1824
725.1565533288352,1767
727.427895743234,1815
729.6986188055427,1817
731.9687227363137,1815
734.238207756178,1855
736.5070740858458,1809
738.7753219461066,1746
741.0429515578281,1740
743.3099631419569,1755
745.5763569195191,1764
747.8421331116193,1747
750.1072919394409,1794
752.3718336242467,1754
754.6357583873777,1813
756.8990664502545,1758
759.1617580343765,1819
761.423833361321,1712
763.6852926527457,1748
765.9461361303862,1796
768.206364016058,1788
770.4659765316536,1850
772.7249738991469,1775
774.9833563405886,1817
777.2411240781092,1749
779.4982773339183,1731
781.7548163303044,1779
784.010741289634,1814
786.2660524343538,1907
788.5207499869881,1876
790.7748341701416,1826
793.0283052064964,1874
795.2811633188143,1869
797.5334087299362,1858
799.7850416627813,1862
802.0360623403484,1835
804.2864709857143,1864
806.5362678220353,1817
808.7854530725468,1816
811.0340269605625,1876
813.2819897094754,1844
815.5293415427581,1843
817.77608268396,1827
820.0222133567116,1789
822.2677337847211,1767
824.5126441917765,1807
826.7569448017433,1830
829.0006358385675,1760
831.2437175262731,1704
833.4861900889629,1749
835.7280537508192,1764
837.9693087361026,1727
840.2099552691533,1827
842.4499935743896,1820
844.689423876309,1826
846.9282463994886,1879
849.1664613685833,1815
851.4040690083276,1842
853.6410695435349,1901
855.877463199097,1819
858.1132501999847,1786
860.3484307712487,1773
862.5830051380175,1803
864.8169735254988,1717
867.0503361589791,1790
869.2830932638243,1801
871.5152450654786,1748
873.7467917894654,1854
875.9777336613873,1779
878.2080709069252,1842
880.4378037518389,1876
882.666932421968,1801
884.8954571432301,1800
887.1233781416219,1842
889.3506956432192,1781
891.5774098741766,1782
893.803521060728,1848
896.0290294291852,1747
898.2539352059397,1755
900.4782386174619,1713
902.7019398903011,1836
904.925039251085,1831
907.147536926521,1804
909.3694331433943,1840
911.59072812857,1861
913.8114221089921,1847
916.0315153116827,1821
918.2510079637437,1901
920.4699002923547,1889
922.6881925247761,1771
924.905884888345,1819
927.1229776104793,1872
929.3394709186747,1875
931.555365040506,1826
933.7706602036275,1740
935.9853566357709,1875
938.1994545647489,1864
940.4129542184515,1868
942.6258558248488,1916
944.8381596119883,1850
947.0498658079974,1821
949.2609746410825,1889
951.4714863395287,1892
953.6814011316998,1768
955.8907192460387,1834
958.0994409110671,1883
960.3075663553858,1847
962.5150958076741,1834
964.7220294966913,1898
966.928367651274,1810
969.1341105003388,1747
971.3392582728806,1762
973.5438111979742,1756
975.747769504772,1716
977.9511334225061,1661
980.153903180487,1689
982.3560790081052,1742
984.5576611348289,1696
986.7586497902058,1691
988.9590452038618,1701
991.158847605503,1662
993.3580572249133,1674
995.5566742919558,1636
997.7546990365728,1634
999.952131688785,1580
1002.1489724786926,1574
1004.3452216364743,1525
1006.5408793923874,1546
1008.7359459767691,1543
1010.9304216200343,1582
1013.1243065526781,1519
1015.3176010052733,1509
1017.510305208472,1520
1019.7024193930064,1443
1021.8939437896848,1385
1024.0848786293977,1419
1026.2752241431122,1442
1028.4649805618747,1432
1030.6541481168115,1516
1032.842727039127,1399
1035.0307175601051,1454
1037.2181199111074,1378
1039.4049343235752,1386
1041.591161029029,1374
1043.7768002590683,1337
1045.9618522453698,1359
1048.1463172196918,1319
1050.3301954138697,1354
1052.513487059818,1342
1054.69619238953,1345
1056.8783116350783,1344
1059.0598450286152,1427
1061.2407928023704,1388
1063.4211551886528,1331
1065.6009324198508,1335
1067.780124728432,1371
1069.9587323469414,1373
1072.1367555080046,1389
1074.314194444325,1339
1076.4910493886855,1328
1078.667320573947,1291
1080.843008233051,1331
1083.0181125990161,1256
1085.1926339049414,1316
1087.3665723840027,1360
1089.5399282694575,1356
1091.7127017946405,1289
1093.8848931929647,1323
1096.0565026979243,1310
1098.2275305430899,1347
1100.3979769621128,1253
1102.567842188722,1322
1104.737126456726,1235
1106.9058300000124,1283
1109.0739530525475,1321
1111.2414958483764,1218
1113.4084586216231,1255
1115.5748416064907,1235
1117.7406450372605,1252
1119.9058691482942,1294
1122.0705141740304,1267
1124.2345803489884,1285
1126.3980679077658,1282
1128.5609770850388,1241
1130.7233081155623,1215
1132.8850612341707,1195
1135.0462366757774,1252
1137.2068346753745,1237
1139.3668554680326,1254
1141.526299288901,1204
1143.68516637321,1211
1145.8434569562655,1223
1148.001171273455,1193
1150.158309560244,1270
1152.3148720521767,1192
1154.470858984876,1272
1156.626270594044,1257
1158.7811071154629,1227
1160.9353687849912,1234
1163.089055838569,1245
1165.242168512213,1170
1167.3947070420209,1239
1169.5466716641677,1260
1171.6980626149075,1232
1173.8488801305748,1283
1175.9991244475814,1183
1178.1487958024186,1226
1180.2978944316555,1235
1182.4464205719428,1222
1184.5943744600072,1210
1186.7417563326567,1195
1188.8885664267755,1188
1191.0348049793297,1245
1193.1804722273619,1233
1195.325568407995,1196
1197.4700937584303,1236
1199.614048515948,1207
1201.7574329179074,1179
1203.900247201746,1284
1206.042491604982,1215
1208.1841663652099,1228
1210.3252717201053,1240
1212.465807907422,1181
1214.6057751649923,1240
1216.7451737307279,1230
1218.8840038426192,1215
1221.0222657387353,1243
1223.1599596572241,1273
1225.2970858363137,1204
1227.4336445143094,1218
1229.5696359295966,1214
1231.705060320639,1203
1233.8399179259786,1251
1235.9742089842384,1218
1238.107933734118,1212
1240.2410924143974,1171
1242.373685263935,1199
1244.5057125216676,1208
1246.6371744266116,1164
1248.7680712178621,1252
1250.898403134593,1173
1253.028170416058,1253
1255.1573733015875,1185
1257.2860120305932,1206
1259.4140868425648,1217
1261.54159797707,1197
1263.6685456737569,1160
1265.7949301723515,1219
1267.9207517126597,1227
1270.046010534565,1179
1272.1707068780306,1172
1274.2948409830983,1130
1276.4184130898889,1276
1278.541423438603,1237
1280.6638722695184,1233
1282.785759822993,1201
1284.9070863394636,1231
1287.0278520594447,1257
1289.1480572235314,1199
1291.2677020723963,1200
1293.3867868467923,1266
1295.5053117875495,1238
1297.623277135579,1225
1299.740683131868,1251
1301.8575300174857,1222
1303.973818033578,1209
1306.0895474213703,1248
1308.2047184221678,1158
1310.3193312773528,1193
1312.4333862283888,1243
1314.5468835168163,1276
1316.659823384255,1244
1318.7722060724045,1213
1320.8840318230418,1192
1322.9953008780249,1225
1325.1060134792888,1218
1327.2161698688478,1252
1329.3257702887959,1222
1331.4348149813054,1195
1333.5433041886276,1242
1335.6512381530933,1208
1337.7586171171101,1256
1339.8654413231675,1217
1341.9717110138317,1202
1344.0774264317488,1234
1346.1825878196432,1207
1348.2871954203192,1206
1350.3912494766587,1218
1352.4947502316231,1289
1354.5976979282532,1264
1356.7000928096686,1217
1358.8019351190665,1209
1360.9032250997243,1241
1363.0039629949988,1241
1365.1041490483235,1189
1367.2037835032133,1228
1369.3028666032606,1192
1371.401398592137,1263
1373.4993797135926,1276
1375.5968102114575,1288
1377.6936903296396,1224
1379.7900203121262,1281
1381.8858004029835,1288
1383.9810308463561,1298
1386.075711886469,1221
1388.1698437676241,1251
1390.2634267342032,1249
1392.356461030667,1255
1394.4489469015557,1236
1396.5408845914872,1274
1398.6322743451592,1220
1400.7231164073469,1303
1402.813411022907,1247
1404.903158436773,1260
1406.9923588939578,1286
1409.0810126395531,1269
1411.1691199187303,1266
1413.2566809767386,1273
1415.343696058907,1240
1417.4301654106425,1250
1419.5160892774315,1281
1421.6014679048399,1235
1423.6863015385125,1222
1425.7705904241707,1251
1427.8543348076178,1238
1429.9375349347342,1257
1432.0201910514802,1303
1434.102303403894,1265
1436.1838722380944,1316
1438.2648978002767,1265
1440.3453803367174,1229
1442.4253200937692,1283
1444.5047173178677,1332
1446.5835722555234,1264
1448.6618851533285,1328
1450.739656257952,1278
1452.8168858161434,1272
1454.8935740747306,1289
1456.96972128062,1276
1459.045327680797,1245
1461.120393522327,1288
1463.1949190523528,1316
1465.2689045180973,1318
1467.3423501668608,1332
1469.415256246024,1257
1471.4876230030463,1260
1473.559450685465,1282
1475.6307395408976,1284
1477.7014898170391,1305
1479.771701761665,1322
1481.8413756226287,1339
1483.9105116478618,1328
1485.9791100853772,1238
1488.0471711832643,1254
1490.1146951896926,1278
1492.1816823529098,1273
1494.2481329212433,1314
1496.3140471430984,1306
1498.3794252669609,1273
1500.4442675413939,1271
1502.5085742150404,1295
1504.572345536622,1296
1506.6355817549388,1325
1508.6982831188702,1304
1510.7604498773744,1293
1512.8220822794883,1329
1514.8831805743293,1291
1516.9437450110909,1274
1519.003775839048,1290
1521.0632733075522,1254
1523.1222376660367,1292
1525.1806691640113,1295
1527.2385680510652,1255
1529.2959345768668,1281
1531.3527689911643,1225
1533.4090715437833,1306
1535.4648424846291,1233
1537.5200820636855,1273
1539.5747905310159,1332
1541.6289681367616,1357
1543.6826151311434,1261
1545.7357317644614,1339
1547.7883182870937,1314
1549.8403749494987,1340
1551.8919020022113,1272
1553.9428996958477,1276
1555.9933682811015,1282
1558.0433080087469,1328
1560.0927191296346,1312
1562.1416018946961,1321
1564.1899565549415,1335
1566.2377833614592,1306
1568.2850825654164,1262
1570.3318544180606,1287
1572.3780991707158,1268
1574.423817074788,1303
1576.4690083817595,1313
1578.5136733431923,1260
1580.5578122107272,1287
1582.601425236085,1319
1584.6445126710646,1303
1586.6870747675434,1305
1588.7291117774776,1320
1590.7706239529034,1319
1592.8116115459347,1252
1594.8520748087658,1291
1596.8920139936686,1262
1598.9314293529933,1311
1600.9703211391711,1320
1603.008689604711,1227
1605.0465350022005,1250
1607.0838575843068,1249
1609.1206576037753,1308
1611.1569353134305,1295
1613.1926909661765,1269
1615.2279248149953,1322
1617.2626371129481,1260
1619.2968281131757,1317
1621.3304980688963,1276
1623.3636472334088,1321
1625.39627586009,1263
1627.428384202396,1243
1629.459972513861,1318
1631.4910410480993,1272
1633.5215900588028,1331
1635.551619799744,1269
1637.5811305247717,1300
1639.6101224878166,1269
1641.6385959428862,1288
1643.6665511440683,1269
1645.693988345528,1314
1647.7209078015112,1279
1649.7473097663405,1259
1651.7731944944203,1262
1653.7985622402307,1288
1655.823413258333,1280
1657.847747803366,1319
1659.8715661300494,1250
1661.8948684931793,1263
1663.9176551476316,1237
1665.9399263483624,1277
1667.9616823504057,1242
1669.982923408873,1303
1672.0036497789574,1282
1674.0238617159293,1289
1676.043559475138,1281
1678.0627433120121,1312
1680.081413482059,1256
1682.0995702408654,1266
1684.117213844096,1305
1686.134344547495,1277
1688.1509626068864,1272
1690.1670682781705,1276
1692.182661817329,1254
1694.1977434804217,1246
1696.2123135235875,1250
1698.226372203043,1277
1700.2399197750851,1257
1702.2529564960905,1254
1704.2654826225112,1312
1706.277498410882,1264
1708.2890041178139,1260
1710.2999999999988,1240
1712.3104863142066,1263
1714.3204633172854,1260
1716.329931266163,1258
1718.3388904178469,1265
1720.3473410294214,1305
1722.3552833580516,1252
1724.3627176609807,1270
1726.3696441955308,1272
1728.3760632191033,1307
1730.3819749891782,1280
1732.3873797633146,1278
1734.3922777991502,1293
1736.3966693544012,1308
1738.4005546868639,1298
1740.4039340544127,1343
1742.406807715001,1266
1744.4091759266616,1256
1746.4110389475054,1238
1748.4123970357223,1287
1750.413250449582,1244
1752.4135994474318,1230
1754.4134442876993,1276
1756.4127852288902,1249
1758.4116225295893,1291
1760.4099564484595,1273
1762.407787244244,1287
1764.405115175764,1315
1766.4019405019203,1309
1768.3982634816916,1269
1770.3940843741357,1294
1772.3894034383907,1280
1774.3842209336717,1246
1776.378537119274,1260
1778.372352254571,1292
1780.3656665990156,1296
1782.3584804121397,1298
1784.3507939535534,1326
1786.3426074829463,1257
1788.3339212600863,1241
1790.3247355448211,1280
1792.3150505970766,1268
1794.3048666768573,1333
1796.2941840442477,1336
1798.2830029594106,1310
1800.2713236825884,1286
1802.2591464741004,1254
1804.2464715943465,1266
1806.2332993038058,1275
1808.2196298630352,1279
1810.2054635326708,1249
1812.190800573428,1281
1814.175641246101,1304
1816.1599858115628,1306
1818.1438345307652,1336
1820.127187664738,1306
1822.1100454745924,1283
1824.092408221516,1264
1826.0742761667766,1223
1828.055649571721,1240
1830.0365286977735,1306
1832.0169138064398,1224
1833.9968051593014,1261
1835.9762030180214,1293
1837.9551076443408,1270
1839.9335193000788,1280
1841.9114382471344,1255
1843.888864747485,1328
1845.8657990631878,1281
1847.842241456378,1233
1849.8181921892697,1248
1851.7936515241558,1256
1853.7686197234098,1276
1855.7430970494815,1250
1857.7170837649014,1269
1859.6905801322787,1242
1861.6635864143004,1225
1863.6361028737338,1265
1865.608129773424,1226
1867.5796673762961,1255
1869.5507159453537,1282
1871.521275743678,1263
1873.4913470344313,1271
1875.4609300808534,1235
1877.4300251462632,1254
1879.3986324940588,1255
1881.366752387717,1255
1883.3343850907936,1223
1885.3015308669228,1294
1887.268189979819,1238
1889.2343626932739,1315
1891.2000492711595,1287
1893.1652499774254,1261
1895.1299650761011,1246
1897.0941948312952,1269
1899.0579395071945,1260
1901.0211993680641,1291
1902.98397467825,1266
1904.9462657021745,1250
1906.9080727043415,1278
1908.869395949332,1307
1910.8302357018065,1267
1912.790592226504,1213
1914.7504657882428,1250
1916.7098566519212,1245
1918.6687650825133,1230
1920.6271913450764,1262
1922.5851357047422,1247
1924.5425984267245,1266
1926.499579776314,1229
1928.4560800188833,1267
1930.4120994198802,1271
1932.367638244833,1302
1934.32269675935,1280
1936.2772752291175,1320
1938.231373919899,1306
1940.1849930975404,1269
1942.1381330279637,1276
1944.0907939771696,1258
1946.0429762112412,1321
1947.9946799963363,1266
1949.9459055986945,1267
1951.896653284633,1208
1953.8469233205478,1239
1955.7967159729142,1278
1957.7460315082863,1266
1959.6948701932974,1281
1961.6432322946594,1303
1963.5911180791632,1275
1965.5385278136787,1210
1967.4854617651545,1313
1969.4319202006182,1234
1971.377903387176,1296
1973.3234115920136,1284
1975.268445082395,1274
1977.2130041256642,1265
1979.1570889892423,1303
1981.1006999406304,1278
1983.04383724741,1269
1984.986501177238,1250
1986.928691997853,1292
1988.8704099770712,1276
1990.811655382789,1303
1992.7524284829801,1326
1994.692729545698,1289
1996.6325588390755,1313
1998.5719166313224,1288
2000.5108031907307,1301
2002.4492187856677,1288
2004.387163684583,1238
2006.3246381560011,1282
2008.2616424685298,1250
2010.1981768908527,1290
2012.1342416917332,1218
2014.069837140014,1275
2016.0049635046162,1307
2017.9396210545406,1276
2019.8738100588666,1288
2021.8075307867502,1229
2023.740783507431,1256
2025.6735684902228,1224
2027.6058860045214,1287
2029.5377363198004,1241
2031.4691197056118,1284
2033.4000364315875,1239
2035.3304867674374,1253
2037.260470982952,1240
2039.189989347998,1231
2041.1190421325232,1275
2043.047629606554,1261
2044.9757520401945,1300
2046.9034097036288,1231
2048.8306028671195,1245
2050.7573318010086,1291
2052.683596775716,1262
2054.609398061742,1267
2056.5347359296647,1266
2058.4596106501403,1259
2060.384022493906,1311
2062.3079717317764,1231
2064.231458634646,1248
2066.1544834734873,1239
2068.077046519352,1247
2069.99914804337,1258
2071.9207883167524,1280
2073.8419676107865,1286
2075.7626861968406,1263
2077.6829443463607,1234
2079.6027423308715,1277
2081.522080421977,1275
2083.440958891362,1230
2085.359378010786,1248
2087.2773380520907,1290
2089.194839287196,1303
2091.111881988101,1215
2093.0284664268825,1193
2094.9445928756973,1259
2096.86026160678,1244
2098.775472892446,1305
2100.690227005088,1278
2102.604524217178,1229
2104.5183648012676,1321
2106.431749029985,1308
2108.34467717604,1300
2110.2571495122206,1306
2112.169166311393,1289
2114.080727846503,1270
2115.9918343905747,1242
2117.902486216711,1304
2119.8126835980956,1280
2121.722426807987,1265
2123.6317161197285,1248
2125.5405518067364,1250
2127.448934142509,1283
2129.356863400624,1283
2131.264339854737,1299
2133.1713637785815,1245
2135.077935445972,1338
2136.9840551308002,1310
2138.889723107037,1268
2140.7949396487334,1335
2142.699705030018,1272
2144.6040195250994,1284
2146.507883408264,1276
2148.4112969538774,1322
2150.3142604363848,1281
2152.2167741303097,1307
2154.1188383102535,1262
2156.0204532508997,1268
2157.9216192270064,1324
2159.822336513414,1291
2161.7226053850413,1282
2163.622426116884,1248
2165.5217989840185,1348
2167.4207242616,1300
2169.319202224862,1306
2171.2172331491165,1207
2173.1148173097563,1212
2175.0119549822507,1258
2176.90864644215,1302
2178.8048919650823,1273
2180.7006918267534,1296
2182.596046302952,1339
2184.4909556695407,1289
2186.3854202024645,1279
2188.279440177746,1265
2190.173015871487,1306
2192.066147559868,1307
2193.958835519149,1283
2195.851080025667,1303
2197.7428813558417,1304
2199.6342397861667,1286
2201.5251555932186,1271
2203.415629053651,1250
2205.3056604441986,1273
2207.19525004167,1265
2209.084398122958,1326
2210.9731049650327,1319
2212.861370844941,1281
2214.749196039812,1304
2216.636580826851,1368
2218.523525483344,1284
2220.410030286655,1344
2222.296095514226,1329
2224.1817214435805,1324
2226.066908352319,1377
2227.951656518121,1276
2229.835966218746,1323
2231.71983773203,1327
2233.6032713358913,1303
2235.486267308324,1277
2237.3688259274036,1327
2239.2509474712824,1313
2241.132632218193,1295
2243.013880446447,1276
2244.8946924344323,1314
2246.7750684606203,1274
2248.6550088035574,1331
2250.534513741871,1320
2252.413583554265,1279
2254.292218519526,1331
2256.170418916517,1325
2258.0481850241786,1311
2259.925517121534,1329
2261.8024154876825,1299
2263.678880401803,1304
2265.5549121431536,1323
2267.430510991071,1318
2269.305677224971,1339
2271.180411124348,1354
2273.0547129687766,1284
2274.9285830379076,1303
2276.8020216114737,1339
2278.6750289692845,1300
2280.5476053912294,1323
2282.4197511572766,1285
2284.2914665474727,1318
2286.162751841943,1371
2288.0336073208937,1327
2289.904033264608,1341
2291.774029953448,1324
2293.6435976678554,1365
2295.5127366883517,1313
2297.381447295534,1304
2299.2497297700825,1247
2301.1175843927526,1253
2302.9850114443825,1209
2304.852011205885,1180
2306.7185839582553,1168
2308.5847299825664,1198
2310.4504495599676,1151
2312.3157429716925,1150
2314.1806104990483,1186
2316.0450524234247,1204
2317.9090690262888,1146
2319.772660589186,1131
2321.635827393742,1173
2323.498569721661,1131
2325.3608878547248,1140
2327.2227820747967,1184
2329.0842526638157,1160
2330.945299903803,1132
2332.805924076857,1125
2334.6661254651535,1104
2336.525904350951,1120
2338.3852610165827,1191
2340.244195744464,1128
2342.102708817088,1147
2343.9608005170253,1180
2345.8184711269287,1180
2347.675720929526,1142
2349.532550207628,1160
2351.38895924412,1177
2353.24494832197,1180
2355.100517724223,1138
2356.955667734004,1166
2358.810398634514,1147
2360.664710709037,1123
2362.5186042409337,1136
2364.3720795136437,1136
2366.225136810686,1151
2368.0777764156583,1150
2369.929998612237,1157
2371.7818036841777,1167
2373.633191915315,1147
2375.484163589562,1145
2377.3347189909114,1181
2379.184858403434,1136
2381.03458211128,1159
2382.8838903986775,1127
2384.732783549936,1126
2386.5812618494406,1110
2388.4293255816588,1112
2390.2769750311327,1180
2392.1242104824883,1131
2393.971032220427,1147
2395.8174405297295,1197
2397.6634356952563,1175
2399.509018001947,1147
2401.3541877348193,1157
2403.1989451789705,1143
2405.043290619576,1201
2406.8872243418905,1142
2408.730746631247,1120
2410.5738577730594,1154
2412.4165580528183,1156
2414.258847756095,1151
2416.100727168537,1157
2417.9421965758734,1184
2419.783256263912,1163
2421.623906518538,1129
2423.4641476257157,1119
2425.303979871491,1118
2427.143403541984,1116
2428.9824189233977,1103
2430.821026302012,1172
2432.6592259641866,1151
2434.497018196361,1166
2436.33440328505,1146
2438.171381516851,1155
2440.00795317844,1224
2441.844118556569,1188
2443.6798779380724,1143
2445.5152316098606,1230
2447.3501798589255,1162
2449.1847229723357,1160
2451.0188612372403,1136
2452.8525949408663,1148
2454.6859243705203,1160
2456.518849813587,1124
2458.3513715575314,1162
2460.183489889895,1160
2462.015205098301,1120
2463.8465174704493,1122
2465.67742729412,1118
2467.5079348571717,1145
2469.338040447542,1107
2471.1677443532476,1151
2472.9970468623833,1132
2474.825948263123,1172
2476.6544488437207,1144
2478.482548892508,1113
2480.310248697896,1144
2482.137548548374,1147
2483.9644487325118,1097
2485.790949538956,1130
2487.617051256433,1123
2489.44275417375,1119
2491.26805857979,1121
2493.0929647635157,1157
2494.917473013971,1123
2496.741583620276,1108
2498.5652968716304,1138
2500.3886130573137,1182
2502.2115324666834,1140
2504.0340553891765,1155
2505.856182114308,1238
2507.6779129316733,1167
2509.499248130945,1153
2511.3201880018764,1153
2513.140732834298,1140
2514.9608829181198,1142
2516.780638543331,1130
2518.6,1164
2520.418967578273,1111
2522.237541568376,1155
2524.0557222606144,1176
2525.8735099453706,1115
2527.6909049131086,1153
2529.507907454368,1092
2531.32451785977,1127
2533.140736420014,1170
2534.9565634258774,1201
2536.771999168218,1158
2538.5870439379714,1104
2540.4016980261526,1120
2542.2159617238544,1155
2544.02983532225,1104
2545.8433191125914,1139
2547.656413386209,1146
2549.4691184345115,1143
2551.2814345489874,1162
2553.093362021204,1144
2554.904901142808,1162
2556.716052205523,1124
2558.526815501153,1142
2560.3371913215824,1141
2562.147179958771,1128
2563.956781704761,1128
2565.7659968516705,1084
2567.5748256916986,1118
2569.3832685171224,1157
2571.1913256202984,1106
2572.9989972936614,1089
2574.806283829725,1159
2576.613185521084,1091
2578.4197026604074,1151
2580.2258355404483,1097
2582.031584454035,1173
2583.836949694077,1163
2585.6419315535613,1179
2587.4465303255533,1144
2589.2507463032002,1146
2591.0545797797245,1121
2592.8580310484303,1144
2594.6611004026995,1139
2596.463788135992,1136
2598.266094541849,1158
2600.0680199138874,1151
2601.869564545807,1134
2603.670728731383,1132
2605.4715127644704,1104
2607.2719169390048,1124
2609.071941548998,1116
2610.8715868885433,1158
2612.670853251811,1146
2614.469740933052,1107
2616.268250226594,1117
2618.0663814268455,1152
2619.864134828292,1147
2621.6615107255006,1159
2623.458509413115,1160
2625.2551311858597,1108
2627.0513763385347,1192
2628.8472451660223,1114
2630.6427379632833,1104
2632.4378550253564,1085
2634.232596647359,1143
2636.026963124488,1120
2637.8209547520187,1148
2639.6145718253065,1109
2641.407814639785,1118
2643.200683490966,1159
2644.9931786744414,1111
2646.7853004858807,1146
2648.577049221034,1143
2650.3684251757277,1161
2652.1594286458712,1138
2653.9500599274484,1131
2655.740319316525,1121
2657.5302071092437,1120
2659.3197236018286,1144
2661.10886909058,1135
2662.8976438718782,1148
2664.686048242183,1150
2666.4740824980327,1095
2668.2617469360443,1170
2670.0490418529134,1163
2671.8359675454153,1144
2673.622524310403,1143
2675.408712444811,1158
2677.1945322456495,1128
2678.979984010009,1187
2680.76506803506,1165
2682.5497846180497,1150
2684.334134056306,1126
2686.1181166472343,1148
2687.9017326883213,1116
2689.6849824771293,1172
2691.4678663113013,1109
2693.2503844885596,1125
2695.032537306705,1184
2696.8143250636167,1133
2698.5957480572542,1143
2700.3768065856534,1138
2702.1575009469316,1172
2703.937831439283,1080
2705.717798360982,1123
2707.4974020103837,1126
2709.276642685917,1132
2711.055520686095,1124
2712.834036309506,1117
2714.612189854819,1122
2716.389981620782,1207
2718.1674119062204,1148
2719.944481010041,1104
2721.721189231226,1122
2723.4975368688415,1147
2725.273524222027,1136
2727.0491515900053,1084
2728.824419272075,1104
2730.5993275676146,1145
2732.3738767760838,1150
2734.148067197016,1139
2735.921899130031,1172
2737.6953728748194,1121
2739.468488731156,1194
2741.2412469988926,1148
2743.0136479779617,1150
2744.785691968372,1155
2746.5573792702116,1126
2748.3287101836504,1140
2750.099685008934,1147
2751.870304046388,1102
2753.640567596418,1118
2755.4104759595057,1146
2757.1800294362156,1154
2758.949228327187,1171
2760.7180729331412,1068
2762.486563554877,1136
2764.254700493272,1098
2766.022484049284,1104
2767.789914523947,1136
2769.5569922183786,1155
2771.3237174337705,1117
2773.090090471394,1179
2774.8561116326036,1135
2776.6217812188274,1128
2778.3870995315756,1165
2780.1520668724356,1121
2781.9166835430747,1072
2783.6809498452394,1131
2785.444866080754,1135
2787.2084325515225,1150
2788.971649559527,1160
2790.73451740683,1116
2792.4970363955713,1108
2794.2592068279705,1155
2796.0210290063264,1136
2797.7825032330147,1129
2799.543629810493,1127
2801.304409041296,1168
2803.0648412280366,1170
2804.8249266734088,1156
2806.5846656801846,1134
2808.344058551212,1116
2810.1031055894246,1162
2811.8618070978273,1108
2813.6201633795085,1179
2815.378174737636,1131
2817.1358414754536,1134
2818.893163896285,1136
2820.6501423035334,1165
2822.4067770006814,1146
2824.1630682912883,1148
2825.9190164789957,1139
2827.6746218675207,1135
2829.429884760661,1151
2831.184805462294,1153
2832.9393842763743,1182
2834.693621506936,1132
2836.4475174580916,1173
2838.201072434034,1148
2839.954286739034,1175
2841.707160677441,1180
2843.459694553685,1080
2845.2118886722724,1147
2846.96374333779,1152
2848.7152588549034,1119
2850.4664355283567,1143
2852.217273662973,1144
2853.9677735636546,1150
2855.7179355353833,1135
2857.4677598832186,1188
2859.217246912299,1090
2860.9663969278427,1161
2862.715210235146,1143
2864.4636871395846,1135
2866.211827946614,1166
2867.9596329617652,1111
2869.7071024906536,1086
2871.4542368389684,1133
2873.20103631248,1141
2874.947501217038,1136
2876.6936318585695,1146
2878.4394285430812,1143
2880.1848915766604,1172
2881.9300212654707,1151
2883.6748179157553,1156
2885.4192818338374,1084
2887.1634133261173,1130
2888.907212699077,1160
2890.6506802592744,1145
2892.393816313348,1191
2894.1366211680142,1145
2895.8790951300693,1154
2897.621238506388,1102
2899.363051603925,1175
2901.1045347297118,1185
2902.8456881908596,1146
2904.58651229456,1111
2906.327007348081,1134
2908.067173658772,1142
2909.8070115340597,1156
2911.5465212814497,1162
2913.285703208527,1199
2915.0245576229563,1147
2916.7630848324807,1147
2918.5012851449196,1118
2920.2391588681758,1082
2921.976706310227,1141
2923.7139277791334,1117
2925.4508235830313,1171
2927.187394030137,1127
2928.923639428745,1115
2930.6595600872306,1157
2932.395156314046,1138
2934.1304284177218,1148
2935.8653767068713,1165
2937.6000014901815,1129
2939.3343030764227,1138
2941.068281774442,1114
2942.8019378931644,1210
2944.5352717415976,1130
2946.2682836288236,1141
2948.0009738640065,1182
2949.7333427563885,1156
2951.465390615289,1181
2953.1971177501086,1179
2954.9285244703265,1170
2956.6596110855,1215
2958.3903779052657,1175
2960.1208252393385,1183
2961.8509533975125,1177
2963.5807626896617,1175
2965.3102534257378,1137
2967.0394259157715,1148
2968.768280469873,1117
2970.496817398232,1151
2972.2250370111146,1135
2973.952939618869,1107
2975.6805255319196,1192
2977.4077950607707,1176
2979.134748516006,1175
2980.861386208289,1166
2982.587708448359,1178
2984.313715547037,1157
2986.039407815222,1134
2987.764785563891,1114
2989.489849104102,1101
2991.2145987469908,1112
2992.9390348037705,1125
2994.6631575857346,1140
2996.3869674042576,1172
2998.1104645707887,1173
2999.83364939686,1187
3001.5565221940783,1136
3003.2790832741334,1112
3005.0013329487924,1132
3006.7232715298996,1126
3008.4448993293804,1109
3010.166216659239,1163
3011.887223831558,1122
3013.607921158498,1175
3015.3283089522993,1082
3017.0483875252826,1102
3018.7681571898443,1081
3020.4876182584626,1102
3022.2067710436927,1146
3023.9256158581707,1219
3025.644153014609,1108
3027.362382825801,1152
3029.0803056046193,1154
3030.797921664012,1137
3032.5152313170106,1158
3034.2322348767225,1097
3035.9489326563353,1125
3037.665324969115,1134
3039.3814121284063,1128
3041.097194447633,1096
3042.812672240299,1125
3044.5278458199855,1198
3046.2427155003525,1140
3047.9572815951406,1167
3049.671544418167,1139
3051.38550428333,1155
3053.0991615046073,1160
3054.812516396051,1145
3056.5255692717974,1174
3058.2383204460575,1178
3059.9507702331257,1138
3061.662918947372,1106
3063.3747669032446,1164
3065.0863144152736,1205
3066.7975617980674,1131
3068.508509366309,1113
3070.219157434767,1169
3071.9295063182844,1090
3073.639556331785,1173
3075.3493077902704,1145
3077.058761008821,1149
3078.7679163025964,1087
3080.476773986837,1140
3082.1853343768594,1165
3083.89359778806,1120
3085.6015645359153,1124
3087.3092349359786,1176
3089.016609303884,1107
3090.7236879553434,1122
3092.4304712061476,1124
3094.136959372166,1179
3095.843152769349,1126
3097.5490517137237,1112
3099.2546565213966,1119
3100.959967508554,1122
3102.66498499146,1147
3104.3697092864577,1138
3106.0741407099695,1129
3107.778279578498,1092
3109.482126208622,1123
3111.1856809170004,1114
3112.8889440203716,1178
3114.5919158355528,1144
3116.294596679439,1141
3117.996986869006,1135
3119.6990867213062,1142
3121.4008965534726,1147
3123.102416682717,1164
3124.803647426329,1123
3126.5045891016784,1136
3128.205242026213,1139
3129.90560651746,1101
3131.605682893025,1104
3133.3054714705922,1119
3135.0049725679282,1167
3136.7041865028714,1135
3138.4031135933465,1117
3140.101754157353,1127
3141.800108512971,1140
3143.498176978357,1135
3145.1959598717494,1082
3146.8934575114636,1113
3148.5906702158954,1099
3150.2875983035183,1137
3151.9842420928853,1127
3153.680601902627,1128
3155.376678051456,1150
3157.07247085816,1097
3158.767980641609,1142
3160.463207720748,1132
3162.158152414606,1171
3163.8528150422862,1109
3165.5471959229726,1117
3167.2412953759303,1142
3168.9351137204976,1148
3170.628651276098,1118
3172.3219083622307,1125
3174.014885298474,1158
3175.707582404485,1135
3177.4000000000005,1186
3179.092138404835,1184
3180.7839979388846,1195
3182.47557892212,1140
3184.166881674594,1134
3185.8579065164386,1174
3187.5486537678626,1175
3189.2391237491547,1141
3190.9293167806827,1124
3192.6192331828934,1090
3194.3088732763117,1090
3195.998237381542,1079
3197.687325819268,1119
3199.376138910251,1142
3201.064676975334,1129
3202.7529403354347,1114
3204.4409293115523,1141
3206.1286442247647,1094
3207.816085396229,1118
3209.5032531471825,1133
3211.190147798936,1147
3212.8767696728846,1118
3214.5631190905015,1135
3216.2491963733373,1154
3217.9350018430214,1115
3219.6205358212637,1082
3221.305798629851,1059
3222.990790590651,1097
3224.6755120256103,1148
3226.359963256751,1107
3228.0441446061795,1095
3229.7280563960758,1134
3231.411698948703,1108
3233.0950725863995,1214
3234.778177631587,1146
3236.461014406761,1163
3238.1435832345005,1145
3239.8258844374595,1109
3241.507918338374,1112
3243.1896852600576,1111
3244.8711855254023,1121
3246.552419457381,1123
3248.233387379042,1126
3249.914089613516,1126
3251.59452648401,1138
3253.274698313813,1125
3254.95460542629,1117
3256.6342481448855,1120
3258.313626793125,1075
3259.9927416946084,1155
3261.6715931730196,1151
3263.3501815521176,1094
3265.0285071557437,1135
3266.706570307815,1121
3268.3843713323286,1085
3270.0619105533615,1070
3271.739188295068,1067
3273.4162048816834,1082
3275.0929606375184,1093
3276.769455886966,1154
3278.445690954498,1152
3280.1216661646613,1165
3281.797381842087,1139
3283.4728383114807,1091
3285.1480358976296,1067
3286.8229749253996,1135
3288.4976557197333,1130
3290.172078605655,1114
3291.846243908266,1076
3293.5201519527463,1112
3295.193803064357,1099
3296.8671975684374,1079
3298.5403357904024,1102
3300.21321805575,1110
3301.8858446900567,1159
3303.558216018975,1112
3305.23033236824,1119
3306.9021940636603,1088
3308.57380143113,1149
3310.2451547966184,1112
3311.916254486174,1107
3313.5871008259246,1097
3315.2576941420766,1163
3316.9280347609147,1140
3318.5981230088046,1110
3320.2679592121895,1105
3321.9375436975924,1087
3323.606876791612,1131
3325.27595882093,1138
3326.944790112305,1141
3328.6133709925753,1157
3330.2817017886573,1124
3331.949782827547,1124
3333.617614436319,1098
3335.2851969421245,1106
3336.952530672199,1109
3338.619615953853,1101
3340.286453114475,1147
3341.9530424815357,1086
3343.619384382583,1143
3345.2854791452437,1175
3346.951327097224,1145
3348.6169285663073,1141
3350.2822838803577,1120
3351.947393367319,1093
3353.61225735521,1170
3355.2768761721345,1141
3356.9412501462693,1138
3358.605379605873,1154
3360.2692648792827,1124
3361.9329062949146,1106
3363.596304181263,1092
