CollectionTime,7/3/2024 2:48:42 PM
ExposureUsed,3
CalibratedSpectrum
-962.7078968117929,457
-959.9714848408522,481
-957.2358232597828,478
-954.5009119013725,460
-951.7667505983302,469
-949.0333391832855,480
-946.3006774887896,488
-943.5687653473143,497
-940.837602591253,466
-938.1071890529199,501
-935.3775245645503,484
-932.6486089583007,478
-929.9204420662485,491
-927.1930237203925,474
-924.4663537526524,484
-921.7404319948689,483
-919.0152582788041,478
-916.2908324361409,532
-913.5671542984834,473
-910.8442236973568,474
-908.1220404642074,463
-905.4006044304027,492
-902.679915427231,515
-899.959973285902,475
-897.2407778375464,463
-894.5223289132158,470
-891.8046263438832,476
-889.0876699604426,477
-886.3714595937089,467
-883.6559950744183,468
-880.9412762332282,423
-878.2273029007168,466
-875.5140749073835,467
-872.8015920836489,493
-870.0898542598545,476
-867.3788612662631,459
-864.6686129330585,468
-861.9591090903457,459
-859.2503495681506,451
-856.5423341964203,491
-853.8350628050229,472
-851.1285352237478,481
-848.4227512823054,463
-845.7177108103272,480
-843.0134136373656,476
-840.3098595928943,495
-837.6070485063082,516
-834.9049802069229,507
-832.2036545239757,482
-829.5030712866244,507
-826.8032303239481,492
-824.1041314649472,484
-821.4057745385428,499
-818.7081593735775,470
-816.0112857988148,456
-813.3151536429393,508
-810.6197627345566,515
-807.9251129021936,496
-805.2312039742981,514
-802.5380357792392,481
-799.8456081453069,484
-797.1539209007124,495
-794.462973873588,507
-791.772766891987,503
-789.083299783884,499
-786.3945723771743,486
-783.7065844996748,457
-781.0193359791231,480
-778.3328266431781,476
-775.6470563194197,476
-772.9620248353489,465
-770.2777320183878,488
-767.5941776958798,496
-764.9113616950891,519
-762.2292838432011,551
-759.5479439673222,495
-756.8673418944801,487
-754.1874774516235,497
-751.5083504656222,502
-748.8299607632671,515
-746.15230817127,533
-743.475392516264,542
-740.7992136248035,503
-738.1237713233636,508
-735.4490654383407,532
-732.7750957960521,508
-730.1018622227365,514
-727.4293645445534,525
-724.7576025875837,516
-722.0865761778291,487
-719.4162851412126,527
-716.7467293035781,536
-714.0779084906909,522
-711.409822528237,567
-708.7424712418238,522
-706.0758544569796,531
-703.4099719991541,530
-700.7448236937178,556
-698.0804093659622,552
-695.4167288411002,528
-692.7537819442656,508
-690.0915685005134,501
-687.4300883348199,510
-684.7693412720819,524
-682.1093271371178,520
-679.4500457546669,507
-676.7914969493897,519
-674.1336805458676,539
-671.4765963686034,543
-668.8202442420206,535
-666.1646239904642,549
-663.5097354382001,549
-660.8555784094151,518
-658.2021527282176,543
-655.5494582186366,536
-652.8974947046223,531
-650.2462620100463,535
-647.5957599587009,552
-644.9459883742998,582
-642.2969470804776,566
-639.6486359007902,572
-637.0010546587141,574
-634.3542031776476,571
-631.7080812809096,592
-629.0626887917401,582
-626.4180255333008,574
-623.7740913286734,578
-621.1308860008619,624
-618.4884093727904,564
-615.8466612673046,552
-613.2056415071715,548
-610.5653499150785,589
-607.9257863136347,613
-605.28695052537,603
-602.6488423727357,588
-600.0114616781036,553
-597.3748082637674,593
-594.7388819519412,599
-592.1036825647604,656
-589.4692099242818,670
-586.8354638524829,625
-584.2024441712624,601
-581.5701507024403,601
-578.9385832677575,611
-576.3077416888759,631
-573.6776257873787,592
-571.0482353847704,577
-568.4195703024757,601
-565.7916303618415,614
-563.164415384135,635
-560.5379251905453,609
-557.9121596021815,599
-555.2871184400748,598
-552.6628015251767,638
-550.0392086783606,616
-547.4163397204204,615
-544.794194472071,627
-542.1727727539491,655
-539.5520743866118,694
-536.9320991905377,700
-534.3128469861261,703
-531.6943175936979,676
-529.0765108334947,746
-526.4594265256793,843
-523.8430644903358,909
-521.2274245474689,1058
-518.612506517005,1160
-515.9983102187913,1185
-513.3848354725959,1371
-510.77208209810846,1457
-508.16004991493924,1669
-505.5487387426199,1735
-502.9381484006032,1573
-500.3282787082628,1349
-497.71912948489364,1141
-495.1107005497117,996
-492.5029917218539,861
-489.8960028203786,781
-487.28973366426493,720
-484.68418407241325,762
-482.07935386364494,767
-479.47524285670266,710
-476.87185087025,682
-474.2691777228715,727
-471.66722323307334,701
-469.0659872192821,714
-466.4654694998459,759
-463.86566989303384,793
-461.26658821703614,746
-458.66822428996414,747
-456.07057792985,719
-453.4736489546475,727
-450.877437182231,715
-448.28194243039627,692
-445.68716451686,702
-443.09310325926003,712
-440.49975847515555,686
-437.9071299820263,711
-435.31521759727354,716
-432.72402113821954,734
-430.13354042210767,758
-427.5437752661022,756
-424.95472548728867,777
-422.36639090267386,758
-419.7787713291855,823
-417.1918665836721,878
-414.60567648290385,843
-412.0202008435715,774
-409.4354394822874,788
-406.8513922155845,811
-404.26805885991723,837
-401.685439231661,849
-399.103533147112,853
-396.522340422488,787
-393.9418608739278,784
-391.3620943174908,793
-388.7830405691583,815
-386.2046994448317,752
-383.6270707603344,757
-381.05015433141045,744
-378.473949973725,734
-375.8984575028645,727
-373.32367673433623,678
-370.74960748356875,669
-368.1762495659117,660
-365.60360279663576,566
-363.03166699093265,569
-360.4604419639154,554
-357.8899275306178,519
-355.32012350599507,528
-352.7510297049233,491
-350.1826459421999,499
-347.61497203254316,489
-345.04800779059235,467
-342.4817530309082,509
-339.91620756797226,590
-337.35137121618743,589
-334.7872437898774,604
-332.22382510328725,570
-329.66111497058273,502
-327.09911320585127,523
-324.53781962310075,512
-321.9772340362607,544
-319.4173562591816,551
-316.8581861056348,509
-314.2997233893127,505
-311.7419679238294,523
-309.1849195227194,539
-306.62857799943856,615
-304.0729431673641,638
-301.51801483979375,593
-298.963792829947,555
-296.41027695096386,545
-293.85746701590574,570
-291.3053628377552,607
-288.7539642294155,697
-286.2032710037115,631
-283.65328297338897,617
-281.1039999511146,688
-278.5554217494762,660
-276.007548180983,602
-273.4603790580651,580
-270.9139141930734,609
-268.3681533982807,567
-265.8230964858798,621
-263.27874326798565,633
-260.7350935566336,623
-258.1921471637804,635
-255.6499039013039,672
-253.10836358100266,700
-250.56752601459698,595
-248.02739101372765,705
-245.48795838995704,783
-242.94922795476816,718
-240.41119951956557,656
-237.8738728956746,733
-235.33724789434166,797
-232.80132432673452,743
-230.2661020039418,713
-227.73158073697357,768
-225.19776033676033,814
-222.66464061415422,914
-220.1322213799284,753
-217.60050244477725,700
-215.06948361931552,664
-212.53916471408013,800
-210.00954553952818,870
-207.48062590603843,790
-204.9524056239104,788
-202.4248845033651,961
-199.8980623545441,923
-197.37193898751036,933
-194.84651421224817,873
-192.32178783866232,875
-189.79775967657952,983
-187.27442953574644,1086
-184.7517972258321,1145
-182.2298625564256,1009
-179.7086253370378,946
-177.18808537710026,822
-174.66824248596583,919
-172.14909647290835,1036
-169.6306471471229,1021
-167.11289431772548,898
-164.59583779375328,929
-162.07947738416453,985
-159.5638128978386,1226
-157.04884414357605,1532
-154.53457093009854,1673
-152.02099306604828,1319
-149.50811035998936,939
-146.99592262040665,1085
-144.48442965570587,1415
-141.97363127421409,1819
-139.46352728417958,2246
-136.95411749377126,2220
-134.44540171107985,1876
-131.93737974411636,1237
-129.43005140081357,1205
-126.92341648902493,1440
-124.41747481652521,2098
-121.91222619101006,3450
-119.40767042009657,4627
-116.90380731132257,4678
-114.40063667214702,3517
-111.8981583099503,2208
-109.3963720320337,1741
-106.89527764561933,1892
-104.39487495785067,3060
-101.89516377579241,4134
-99.39614390642998,4694
-96.89781515667039,3852
-94.40017733334128,5005
-91.90323024319173,9009
-89.40697369289148,15606
-86.91140748903172,17698
-84.41653143812482,10515
-81.92234534660395,4819
-79.42884902082358,6864
-76.93604226705907,18237
-74.4439248915071,31227
-71.95249670028534,38069
-69.46175749943245,33606
-66.97170709490854,25353
-64.48234529259423,18368
-61.99367189829195,14818
-59.50568671772464,12775
-57.01838955653636,10250
-54.53178022029283,8764
-52.045858514480074,8744
-49.560624244506016,9259
-47.07607721569923,9902
-44.59221723330904,9769
-42.10904410250669,10479
-39.62655762838392,10723
-37.14475761595372,10957
-34.66364387015028,12541
-32.18321619582866,12129
-29.70347439776515,12081
-27.224418280657005,15447
-24.74604764912317,20189
-22.26836230770266,30854
-19.7913620608565,59462
-17.315046712966478,65039
-14.83941606833514,65039
-12.36446993118659,65039
-9.89020810566592,65039
-7.416630395839093,65039
-4.94373660569363,65039
-2.471526539137585,65039
-6.821210263296962E-13,65039
2.47084320796705,65039
4.941003281093458,65039
7.410480415786196,65039
9.879274808531363,65039
12.347386655893956,65039
14.814816154518212,65039
17.28156350112681,65039
19.74762889252179,65039
22.21301252558385,65039
24.67771459727237,21345
27.141735304626195,4441
29.605074844762612,3224
32.06773341487792,2886
34.52971121224755,2734
36.99100843422559,2500
39.45162527824516,2304
41.91156194181792,2173
44.370818622535126,2068
46.82939551806646,1834
49.287292826160524,1962
51.74451074464503,2443
54.201049471426245,2740
56.65690920448981,2231
59.112090141899785,1467
61.56659248179983,1376
64.02041642241159,1337
66.4735621620365,1372
68.92602989905402,1499
71.37781983192338,1732
73.82893215918205,1801
76.27936707944684,1586
78.72912479141326,1549
81.17820549385567,1824
83.62660938562783,1859
86.07433666566146,1399
88.5213875329681,1167
90.96776218663751,1187
93.41346082583925,1066
95.85848364982041,1181
98.30283085790859,1516
100.7465026495089,1687
103.18949922410604,1223
105.63182078126385,1299
108.07346752062438,1218
110.51443964190923,1047
112.95473734491827,1123
115.39436082953114,1219
117.83331029570547,1168
120.27158594347827,1124
122.7091879729652,1230
125.1461165843615,1185
127.58237197794062,1114
130.01795435405518,983
132.4528639131364,977
134.88710085569494,991
137.32066538231982,1005
139.75355769367923,979
142.1857779905207,1002
144.61732647366978,1026
147.04820334403132,959
149.47840880258934,1001
151.90794305040674,1002
154.33680628862487,1081
156.76499871846443,1269
159.19252054122433,1328
161.61937195828352,1431
164.04555317109896,1494
166.47106438120693,1470
168.89590579022217,1615
171.320077599839,1675
173.7435800118302,1814
176.16641322804742,1824
178.58857745042144,1824
181.01007288096173,2016
183.43089972175687,1974
185.85105817497413,1968
188.27054844285988,2026
190.6893707277394,2033
193.10752523201643,2058
195.5250121581745,2059
197.9418317087751,2032
200.3579840864594,2030
202.7734694939469,2040
205.18828813403627,2089
207.6024402096051,2154
210.01592592360964,2262
212.42874547908548,2187
214.84089907914665,2240
217.2523869269868,2141
219.66320922587727,2087
222.0733661791695,2149
224.48285799029293,2081
226.8916848627572,2095
229.29984700014882,2182
231.7073446061355,2143
234.11417788446204,2096
236.520347038953,2151
238.92585227351185,2204
241.33069379212054,2136
243.73487179884035,2187
246.1383864978112,2179
248.541238093252,2191
250.9434267894609,2241
253.34495279081432,2163
255.74581630176783,2147
258.1460175268563,2136
260.54555667069314,2137
262.9444339379703,2003
265.3426495334594,2109
267.7402036620107,2314
270.1370965285529,2318
272.53332833809407,2243
274.9288992957214,2068
277.32380960660055,2144
279.718059475976,2187
282.1116491091717,2210
284.5045787115897,2225
286.89684848871195,2130
289.2884586460981,2126
291.67940938938807,2155
294.0697009242996,2168
296.4593334566299,2245
298.84830719225477,2165
301.23662233712923,2251
303.6242790972866,2237
306.01127767884,2181
308.39761828798066,2182
310.78330113097934,2164
313.16832641418534,2092
315.5526943440269,2069
317.9364051270112,2041
320.3194589697242,2137
322.70185607883093,2010
325.0835966610754,2048
327.4646809232805,1953
329.8451090723478,1969
332.2248813152577,1953
334.6039978590701,1936
336.9824589109231,1957
339.36026467803447,1908
341.7374153677,1883
344.113911187295,1952
346.48975234427337,1913
348.8649390461686,1896
351.2394715005918,1937
353.61334991523415,1949
355.9865744978655,1862
358.35914545633375,1899
360.73106299856715,1888
363.10232733257146,1858
365.47293866643247,1857
367.84289720831396,1889
370.2122031664593,1844
372.5808567491905,1865
374.9488581649083,1811
377.31620762209275,1827
379.6829053293021,1734
382.0489514951745,1825
384.4143463284262,1769
386.7790900378528,1745
389.14318283232853,1739
391.50662492080653,1807
393.86941651231916,1805
396.23155781597745,1749
398.5930490409713,1791
400.9538903965696,1749
403.3140820921202,1772
405.6736243370498,1746
408.03251734086336,1726
410.3907613131465,1701
412.74835646356166,1671
415.10530300185144,1745
417.4616011378372,1652
419.81725108141893,1711
422.1722530425758,1761
424.5266072313656,1715
426.880313857925,1757
429.2333731324701,1732
431.58578526529516,1714
433.9375504667738,1681
436.2886689473588,1715
438.63914091758113,1650
440.9889665880513,1675
443.33814616945835,1672
445.68667987257015,1649
448.03456790823395,1637
450.3818104873759,1606
452.72840782100013,1666
455.07436012019105,1667
457.41966759611057,1664
459.7643304600007,1639
462.10834892318155,1639
464.4517231970525,1671
466.79445349309174,1669
469.1365400228566,1685
471.4779829979826,1573
473.81878263018564,1655
476.15893913125876,1668
478.4984527130747,1687
480.8373235875855,1755
483.17555196682144,1739
485.5131380628919,1736
487.8500820879857,1820
490.1863842543697,1952
492.52204477439034,2030
494.8570638604725,2060
497.1914417251204,2269
499.52517858091653,2613
501.85827464052306,3066
504.19073011668036,3805
506.5225452222086,4331
508.85372017000566,4654
511.18425517304956,4872
513.514150444396,4944
515.8434061971808,5671
518.1720226446176,6630
520.4999999999999,6517
522.8273384766991,5673
525.1540382881666,4936
527.480099647932,4096
529.8055227696037,3228
532.1303078668694,2554
534.454455153496,2184
536.777964843328,2029
539.1008371502907,1895
541.4230722883866,1852
543.744670471698,1854
546.0656319143858,1839
548.3859568306899,1861
550.7056454349294,1870
553.0246979415016,1798
555.3431145648834,1744
557.6608955196306,1780
559.978041020377,1707
562.2945512818363,1657
564.6104265188006,1678
566.9256669461412,1673
569.2402727788082,1696
571.5542442318302,1715
573.8675815203156,1740
576.1802848594508,1720
578.4923544645015,1732
580.8037905508126,1696
583.114593333807,1746
585.4247630289875,1753
587.7342998519354,1727
590.0432040183106,1713
592.3514757438526,1727
594.6591152443794,1702
596.9661227357875,1760
599.2724984340531,1722
601.578242555231,1719
603.8833553154542,1662
606.1878369309362,1788
608.4916876179676,1782
610.7949075929192,1809
613.0974970722403,1778
615.3994562724587,1713
617.7007854101818,1703
620.0014847020951,1705
622.3015543649641,1752
624.6009946156324,1778
626.8998056710224,1766
629.1979877481361,1688
631.4955410640538,1715
633.7924658359349,1725
636.0887622810175,1755
638.3844306166192,1691
640.6794710601358,1764
642.9738838290426,1847
645.2676691408932,1802
647.5608272133207,1858
649.853358264037,1822
652.1452625108324,1787
654.4365401715764,1842
656.7271914642178,1793
659.0172166067838,1774
661.3066158173809,1744
663.5953893141935,1798
665.8835373154867,1792
668.1710600396028,1790
670.4579577049639,1742
672.7442305300709,1767
675.0298787335033,1790
677.3149025339197,1808
679.599302150058,1828
681.8830778007342,1728
684.1662297048437,1740
686.4487580813608,1701
688.7306631493387,1775
691.0119451279091,1821
693.2926042362834,1794
695.5726406937516,1776
697.8520547196814,1783
700.1308465335215,1821
702.4090163547982,1751
704.6865644031171,1778
706.9634908981619,1772
709.2397960596965,1813
711.5154801075631,1832
713.7905432616823,1845
716.0649857420548,1770
718.3388077687592,1687
720.612009561953,1776
722.8845913418733,1793
725.1565533288352,1831
727.427895743234,1768
729.6986188055427,1865
731.9687227363137,1778
734.238207756178,1782
736.5070740858458,1777
738.7753219461066,1768
741.0429515578281,1811
743.3099631419569,1745
745.5763569195191,1745
747.8421331116193,1755
750.1072919394409,1783
752.3718336242467,1795
754.6357583873777,1769
756.8990664502545,1766
759.1617580343765,1771
761.423833361321,1712
763.6852926527457,1758
765.9461361303862,1764
768.206364016058,1786
770.4659765316536,1857
772.7249738991469,1766
774.9833563405886,1734
777.2411240781092,1764
779.4982773339183,1795
781.7548163303044,1761
784.010741289634,1832
786.2660524343538,1932
788.5207499869881,1894
790.7748341701416,1840
793.0283052064964,1789
795.2811633188143,1860
797.5334087299362,1903
799.7850416627813,1816
802.0360623403484,1850
804.2864709857143,1853
806.5362678220353,1935
808.7854530725468,1897
811.0340269605625,1822
813.2819897094754,1802
815.5293415427581,1767
817.77608268396,1843
820.0222133567116,1863
822.2677337847211,1850
824.5126441917765,1805
826.7569448017433,1794
829.0006358385675,1735
831.2437175262731,1778
833.4861900889629,1716
835.7280537508192,1723
837.9693087361026,1815
840.2099552691533,1789
842.4499935743896,1771
844.689423876309,1797
846.9282463994886,1826
849.1664613685833,1830
851.4040690083276,1874
853.6410695435349,1827
855.877463199097,1845
858.1132501999847,1721
860.3484307712487,1739
862.5830051380175,1808
864.8169735254988,1853
867.0503361589791,1839
869.2830932638243,1776
871.5152450654786,1834
873.7467917894654,1810
875.9777336613873,1862
878.2080709069252,1828
880.4378037518389,1778
882.666932421968,1846
884.8954571432301,1805
887.1233781416219,1848
889.3506956432192,1759
891.5774098741766,1797
893.803521060728,1805
896.0290294291852,1762
898.2539352059397,1783
900.4782386174619,1797
902.7019398903011,1798
904.925039251085,1820
907.147536926521,1725
909.3694331433943,1781
911.59072812857,1838
913.8114221089921,1755
916.0315153116827,1805
918.2510079637437,1800
920.4699002923547,1775
922.6881925247761,1874
924.905884888345,1876
927.1229776104793,1839
929.3394709186747,1861
931.555365040506,1853
933.7706602036275,1827
935.9853566357709,1833
938.1994545647489,1880
940.4129542184515,1848
942.6258558248488,1917
944.8381596119883,1823
947.0498658079974,1819
949.2609746410825,1906
951.4714863395287,1898
953.6814011316998,1839
955.8907192460387,1841
958.0994409110671,1796
960.3075663553858,1861
962.5150958076741,1860
964.7220294966913,1888
966.928367651274,1781
969.1341105003388,1722
971.3392582728806,1699
973.5438111979742,1677
975.747769504772,1742
977.9511334225061,1774
980.153903180487,1748
982.3560790081052,1739
984.5576611348289,1732
986.7586497902058,1719
988.9590452038618,1693
991.158847605503,1731
993.3580572249133,1668
995.5566742919558,1648
997.7546990365728,1636
999.952131688785,1553
1002.1489724786926,1609
1004.3452216364743,1465
1006.5408793923874,1507
1008.7359459767691,1519
1010.9304216200343,1447
1013.1243065526781,1481
1015.3176010052733,1504
1017.510305208472,1427
1019.7024193930064,1419
1021.8939437896848,1397
1024.0848786293977,1406
1026.2752241431122,1441
1028.4649805618747,1419
1030.6541481168115,1474
1032.842727039127,1401
1035.0307175601051,1400
1037.2181199111074,1400
1039.4049343235752,1393
1041.591161029029,1400
1043.7768002590683,1359
1045.9618522453698,1358
1048.1463172196918,1349
1050.3301954138697,1283
1052.513487059818,1331
1054.69619238953,1344
1056.8783116350783,1368
1059.0598450286152,1362
1061.2407928023704,1336
1063.4211551886528,1314
1065.6009324198508,1336
1067.780124728432,1327
1069.9587323469414,1308
1072.1367555080046,1328
1074.314194444325,1313
1076.4910493886855,1360
1078.667320573947,1354
1080.843008233051,1294
1083.0181125990161,1335
1085.1926339049414,1319
1087.3665723840027,1275
1089.5399282694575,1314
1091.7127017946405,1273
1093.8848931929647,1328
1096.0565026979243,1279
1098.2275305430899,1305
1100.3979769621128,1247
1102.567842188722,1283
1104.737126456726,1269
1106.9058300000124,1241
1109.0739530525475,1279
1111.2414958483764,1285
1113.4084586216231,1233
1115.5748416064907,1267
1117.7406450372605,1226
1119.9058691482942,1267
1122.0705141740304,1267
1124.2345803489884,1282
1126.3980679077658,1260
1128.5609770850388,1230
1130.7233081155623,1253
1132.8850612341707,1268
1135.0462366757774,1255
1137.2068346753745,1260
1139.3668554680326,1270
1141.526299288901,1227
1143.68516637321,1225
1145.8434569562655,1251
1148.001171273455,1234
1150.158309560244,1274
1152.3148720521767,1237
1154.470858984876,1256
1156.626270594044,1218
1158.7811071154629,1209
1160.9353687849912,1255
1163.089055838569,1236
1165.242168512213,1187
1167.3947070420209,1218
1169.5466716641677,1222
1171.6980626149075,1240
1173.8488801305748,1192
1175.9991244475814,1232
1178.1487958024186,1229
1180.2978944316555,1206
1182.4464205719428,1215
1184.5943744600072,1243
1186.7417563326567,1160
1188.8885664267755,1146
1191.0348049793297,1181
1193.1804722273619,1190
1195.325568407995,1206
1197.4700937584303,1230
1199.614048515948,1195
1201.7574329179074,1203
1203.900247201746,1210
1206.042491604982,1173
1208.1841663652099,1185
1210.3252717201053,1196
1212.465807907422,1202
1214.6057751649923,1194
1216.7451737307279,1212
1218.8840038426192,1209
1221.0222657387353,1187
1223.1599596572241,1183
1225.2970858363137,1234
1227.4336445143094,1231
1229.5696359295966,1209
1231.705060320639,1148
1233.8399179259786,1205
1235.9742089842384,1204
1238.107933734118,1240
1240.2410924143974,1178
1242.373685263935,1246
1244.5057125216676,1222
1246.6371744266116,1214
1248.7680712178621,1233
1250.898403134593,1267
1253.028170416058,1197
1255.1573733015875,1204
1257.2860120305932,1221
1259.4140868425648,1225
1261.54159797707,1166
1263.6685456737569,1229
1265.7949301723515,1261
1267.9207517126597,1212
1270.046010534565,1184
1272.1707068780306,1236
1274.2948409830983,1214
1276.4184130898889,1211
1278.541423438603,1185
1280.6638722695184,1188
1282.785759822993,1176
1284.9070863394636,1203
1287.0278520594447,1185
1289.1480572235314,1211
1291.2677020723963,1224
1293.3867868467923,1267
1295.5053117875495,1207
1297.623277135579,1275
1299.740683131868,1199
1301.8575300174857,1226
1303.973818033578,1234
1306.0895474213703,1195
1308.2047184221678,1250
1310.3193312773528,1187
1312.4333862283888,1218
1314.5468835168163,1240
1316.659823384255,1258
1318.7722060724045,1244
1320.8840318230418,1246
1322.9953008780249,1200
1325.1060134792888,1207
1327.2161698688478,1244
1329.3257702887959,1244
1331.4348149813054,1231
1333.5433041886276,1215
1335.6512381530933,1271
1337.7586171171101,1200
1339.8654413231675,1198
1341.9717110138317,1242
1344.0774264317488,1253
1346.1825878196432,1248
1348.2871954203192,1212
1350.3912494766587,1262
1352.4947502316231,1255
1354.5976979282532,1239
1356.7000928096686,1178
1358.8019351190665,1225
1360.9032250997243,1235
1363.0039629949988,1237
1365.1041490483235,1231
1367.2037835032133,1225
1369.3028666032606,1226
1371.401398592137,1231
1373.4993797135926,1204
1375.5968102114575,1259
1377.6936903296396,1247
1379.7900203121262,1276
1381.8858004029835,1235
1383.9810308463561,1247
1386.075711886469,1206
1388.1698437676241,1236
1390.2634267342032,1251
1392.356461030667,1254
1394.4489469015557,1250
1396.5408845914872,1227
1398.6322743451592,1222
1400.7231164073469,1257
1402.813411022907,1287
1404.903158436773,1244
1406.9923588939578,1242
1409.0810126395531,1212
1411.1691199187303,1255
1413.2566809767386,1203
1415.343696058907,1263
1417.4301654106425,1244
1419.5160892774315,1263
1421.6014679048399,1262
1423.6863015385125,1289
1425.7705904241707,1257
1427.8543348076178,1254
1429.9375349347342,1318
1432.0201910514802,1298
1434.102303403894,1245
1436.1838722380944,1278
1438.2648978002767,1295
1440.3453803367174,1228
1442.4253200937692,1280
1444.5047173178677,1247
1446.5835722555234,1260
1448.6618851533285,1257
1450.739656257952,1297
1452.8168858161434,1283
1454.8935740747306,1257
1456.96972128062,1312
1459.045327680797,1303
1461.120393522327,1273
1463.1949190523528,1200
1465.2689045180973,1286
1467.3423501668608,1250
1469.415256246024,1335
1471.4876230030463,1304
1473.559450685465,1280
1475.6307395408976,1244
1477.7014898170391,1273
1479.771701761665,1234
1481.8413756226287,1273
1483.9105116478618,1335
1485.9791100853772,1253
1488.0471711832643,1312
1490.1146951896926,1268
1492.1816823529098,1276
1494.2481329212433,1267
1496.3140471430984,1269
1498.3794252669609,1266
1500.4442675413939,1224
1502.5085742150404,1333
1504.572345536622,1315
1506.6355817549388,1320
1508.6982831188702,1305
1510.7604498773744,1292
1512.8220822794883,1331
1514.8831805743293,1257
1516.9437450110909,1292
1519.003775839048,1223
1521.0632733075522,1262
1523.1222376660367,1332
1525.1806691640113,1271
1527.2385680510652,1210
1529.2959345768668,1244
1531.3527689911643,1260
1533.4090715437833,1259
1535.4648424846291,1321
1537.5200820636855,1329
1539.5747905310159,1280
1541.6289681367616,1304
1543.6826151311434,1317
1545.7357317644614,1279
1547.7883182870937,1339
1549.8403749494987,1323
1551.8919020022113,1283
1553.9428996958477,1323
1555.9933682811015,1308
1558.0433080087469,1386
1560.0927191296346,1298
1562.1416018946961,1307
1564.1899565549415,1274
1566.2377833614592,1316
1568.2850825654164,1343
1570.3318544180606,1264
1572.3780991707158,1272
1574.423817074788,1350
1576.4690083817595,1291
1578.5136733431923,1334
1580.5578122107272,1286
1582.601425236085,1297
1584.6445126710646,1318
1586.6870747675434,1301
1588.7291117774776,1283
1590.7706239529034,1269
1592.8116115459347,1300
1594.8520748087658,1317
1596.8920139936686,1325
1598.9314293529933,1298
1600.9703211391711,1268
1603.008689604711,1339
1605.0465350022005,1302
1607.0838575843068,1279
1609.1206576037753,1257
1611.1569353134305,1313
1613.1926909661765,1275
1615.2279248149953,1327
1617.2626371129481,1279
1619.2968281131757,1268
1621.3304980688963,1225
1623.3636472334088,1291
1625.39627586009,1283
1627.428384202396,1294
1629.459972513861,1332
1631.4910410480993,1329
1633.5215900588028,1305
1635.551619799744,1269
1637.5811305247717,1313
1639.6101224878166,1230
1641.6385959428862,1260
1643.6665511440683,1238
1645.693988345528,1237
1647.7209078015112,1237
1649.7473097663405,1244
1651.7731944944203,1245
1653.7985622402307,1276
1655.823413258333,1246
1657.847747803366,1208
1659.8715661300494,1263
1661.8948684931793,1251
1663.9176551476316,1264
1665.9399263483624,1279
1667.9616823504057,1311
1669.982923408873,1300
1672.0036497789574,1306
1674.0238617159293,1278
1676.043559475138,1275
1678.0627433120121,1263
1680.081413482059,1261
1682.0995702408654,1294
1684.117213844096,1260
1686.134344547495,1321
1688.1509626068864,1349
1690.1670682781705,1282
1692.182661817329,1329
1694.1977434804217,1282
1696.2123135235875,1287
1698.226372203043,1291
1700.2399197750851,1320
1702.2529564960905,1284
1704.2654826225112,1369
1706.277498410882,1299
1708.2890041178139,1327
1710.2999999999988,1249
1712.3104863142066,1264
1714.3204633172854,1244
1716.329931266163,1308
1718.3388904178469,1307
1720.3473410294214,1309
1722.3552833580516,1275
1724.3627176609807,1293
1726.3696441955308,1319
1728.3760632191033,1323
1730.3819749891782,1282
1732.3873797633146,1271
1734.3922777991502,1270
1736.3966693544012,1246
1738.4005546868639,1307
1740.4039340544127,1311
1742.406807715001,1356
1744.4091759266616,1318
1746.4110389475054,1316
1748.4123970357223,1309
1750.413250449582,1306
1752.4135994474318,1279
1754.4134442876993,1291
1756.4127852288902,1317
1758.4116225295893,1309
1760.4099564484595,1282
1762.407787244244,1276
1764.405115175764,1327
1766.4019405019203,1280
1768.3982634816916,1317
1770.3940843741357,1289
1772.3894034383907,1316
1774.3842209336717,1317
1776.378537119274,1280
1778.372352254571,1304
1780.3656665990156,1315
1782.3584804121397,1236
1784.3507939535534,1240
1786.3426074829463,1278
1788.3339212600863,1283
1790.3247355448211,1252
1792.3150505970766,1312
1794.3048666768573,1317
1796.2941840442477,1284
1798.2830029594106,1346
1800.2713236825884,1291
1802.2591464741004,1278
1804.2464715943465,1375
1806.2332993038058,1295
1808.2196298630352,1308
1810.2054635326708,1336
1812.190800573428,1275
1814.175641246101,1315
1816.1599858115628,1272
1818.1438345307652,1277
1820.127187664738,1282
1822.1100454745924,1317
1824.092408221516,1264
1826.0742761667766,1308
1828.055649571721,1313
1830.0365286977735,1278
1832.0169138064398,1286
1833.9968051593014,1324
1835.9762030180214,1321
1837.9551076443408,1308
1839.9335193000788,1328
1841.9114382471344,1282
1843.888864747485,1258
1845.8657990631878,1266
1847.842241456378,1240
1849.8181921892697,1250
1851.7936515241558,1291
1853.7686197234098,1274
1855.7430970494815,1238
1857.7170837649014,1241
1859.6905801322787,1302
1861.6635864143004,1271
1863.6361028737338,1287
1865.608129773424,1321
1867.5796673762961,1255
1869.5507159453537,1262
1871.521275743678,1296
1873.4913470344313,1281
1875.4609300808534,1236
1877.4300251462632,1328
1879.3986324940588,1315
1881.366752387717,1347
1883.3343850907936,1315
1885.3015308669228,1252
1887.268189979819,1302
1889.2343626932739,1303
1891.2000492711595,1253
1893.1652499774254,1246
1895.1299650761011,1251
1897.0941948312952,1271
1899.0579395071945,1248
1901.0211993680641,1343
1902.98397467825,1255
1904.9462657021745,1298
1906.9080727043415,1327
1908.869395949332,1257
1910.8302357018065,1315
1912.790592226504,1256
1914.7504657882428,1226
1916.7098566519212,1187
1918.6687650825133,1216
1920.6271913450764,1257
1922.5851357047422,1316
1924.5425984267245,1313
1926.499579776314,1251
1928.4560800188833,1288
1930.4120994198802,1316
1932.367638244833,1320
1934.32269675935,1350
1936.2772752291175,1290
1938.231373919899,1343
1940.1849930975404,1284
1942.1381330279637,1298
1944.0907939771696,1262
1946.0429762112412,1272
1947.9946799963363,1318
1949.9459055986945,1315
1951.896653284633,1245
1953.8469233205478,1254
1955.7967159729142,1273
1957.7460315082863,1235
1959.6948701932974,1245
1961.6432322946594,1293
1963.5911180791632,1265
1965.5385278136787,1231
1967.4854617651545,1250
1969.4319202006182,1288
1971.377903387176,1294
1973.3234115920136,1308
1975.268445082395,1305
1977.2130041256642,1290
1979.1570889892423,1284
1981.1006999406304,1212
1983.04383724741,1293
1984.986501177238,1257
1986.928691997853,1238
1988.8704099770712,1271
1990.811655382789,1271
1992.7524284829801,1265
1994.692729545698,1328
1996.6325588390755,1262
1998.5719166313224,1301
2000.5108031907307,1336
2002.4492187856677,1299
2004.387163684583,1275
2006.3246381560011,1264
2008.2616424685298,1290
2010.1981768908527,1255
2012.1342416917332,1265
2014.069837140014,1291
2016.0049635046162,1283
2017.9396210545406,1285
2019.8738100588666,1238
2021.8075307867502,1274
2023.740783507431,1262
2025.6735684902228,1246
2027.6058860045214,1259
2029.5377363198004,1275
2031.4691197056118,1289
2033.4000364315875,1278
2035.3304867674374,1254
2037.260470982952,1258
2039.189989347998,1288
2041.1190421325232,1288
2043.047629606554,1280
2044.9757520401945,1293
2046.9034097036288,1248
2048.8306028671195,1266
2050.7573318010086,1253
2052.683596775716,1317
2054.609398061742,1252
2056.5347359296647,1234
2058.4596106501403,1246
2060.384022493906,1218
2062.3079717317764,1214
2064.231458634646,1293
2066.1544834734873,1279
2068.077046519352,1254
2069.99914804337,1255
2071.9207883167524,1265
2073.8419676107865,1291
2075.7626861968406,1303
2077.6829443463607,1253
2079.6027423308715,1283
2081.522080421977,1271
2083.440958891362,1271
2085.359378010786,1279
2087.2773380520907,1231
2089.194839287196,1290
2091.111881988101,1278
2093.0284664268825,1227
2094.9445928756973,1282
2096.86026160678,1261
2098.775472892446,1273
2100.690227005088,1301
2102.604524217178,1285
2104.5183648012676,1251
2106.431749029985,1252
2108.34467717604,1193
2110.2571495122206,1276
2112.169166311393,1242
2114.080727846503,1275
2115.9918343905747,1204
2117.902486216711,1266
2119.8126835980956,1276
2121.722426807987,1231
2123.6317161197285,1300
2125.5405518067364,1268
2127.448934142509,1280
2129.356863400624,1314
2131.264339854737,1272
2133.1713637785815,1305
2135.077935445972,1283
2136.9840551308002,1242
2138.889723107037,1337
2140.7949396487334,1275
2142.699705030018,1231
2144.6040195250994,1231
2146.507883408264,1307
2148.4112969538774,1263
2150.3142604363848,1276
2152.2167741303097,1269
2154.1188383102535,1267
2156.0204532508997,1315
2157.9216192270064,1300
2159.822336513414,1267
2161.7226053850413,1316
2163.622426116884,1262
2165.5217989840185,1231
2167.4207242616,1270
2169.319202224862,1299
2171.2172331491165,1298
2173.1148173097563,1295
2175.0119549822507,1273
2176.90864644215,1272
2178.8048919650823,1250
2180.7006918267534,1270
2182.596046302952,1283
2184.4909556695407,1226
2186.3854202024645,1240
2188.279440177746,1244
2190.173015871487,1285
2192.066147559868,1285
2193.958835519149,1300
2195.851080025667,1295
2197.7428813558417,1239
2199.6342397861667,1301
2201.5251555932186,1243
2203.415629053651,1260
2205.3056604441986,1263
2207.19525004167,1258
2209.084398122958,1265
2210.9731049650327,1274
2212.861370844941,1288
2214.749196039812,1338
2216.636580826851,1317
2218.523525483344,1305
2220.410030286655,1331
2222.296095514226,1289
2224.1817214435805,1346
2226.066908352319,1311
2227.951656518121,1285
2229.835966218746,1259
2231.71983773203,1313
2233.6032713358913,1241
2235.486267308324,1255
2237.3688259274036,1320
2239.2509474712824,1279
2241.132632218193,1256
2243.013880446447,1320
2244.8946924344323,1274
2246.7750684606203,1302
2248.6550088035574,1354
2250.534513741871,1325
2252.413583554265,1253
2254.292218519526,1292
2256.170418916517,1286
2258.0481850241786,1317
2259.925517121534,1304
2261.8024154876825,1262
2263.678880401803,1357
2265.5549121431536,1316
2267.430510991071,1273
2269.305677224971,1280
2271.180411124348,1319
2273.0547129687766,1332
2274.9285830379076,1281
2276.8020216114737,1292
2278.6750289692845,1279
2280.5476053912294,1262
2282.4197511572766,1297
2284.2914665474727,1315
2286.162751841943,1327
2288.0336073208937,1353
2289.904033264608,1351
2291.774029953448,1359
2293.6435976678554,1330
2295.5127366883517,1323
2297.381447295534,1315
2299.2497297700825,1347
2301.1175843927526,1266
2302.9850114443825,1243
2304.852011205885,1196
2306.7185839582553,1240
2308.5847299825664,1222
2310.4504495599676,1197
2312.3157429716925,1137
2314.1806104990483,1143
2316.0450524234247,1120
2317.9090690262888,1135
2319.772660589186,1144
2321.635827393742,1197
2323.498569721661,1141
2325.3608878547248,1139
2327.2227820747967,1108
2329.0842526638157,1123
2330.945299903803,1118
2332.805924076857,1103
2334.6661254651535,1123
2336.525904350951,1139
2338.3852610165827,1161
2340.244195744464,1180
2342.102708817088,1098
2343.9608005170253,1092
2345.8184711269287,1116
2347.675720929526,1161
2349.532550207628,1180
2351.38895924412,1141
2353.24494832197,1178
2355.100517724223,1185
2356.955667734004,1094
2358.810398634514,1135
2360.664710709037,1168
2362.5186042409337,1096
2364.3720795136437,1172
2366.225136810686,1120
2368.0777764156583,1139
2369.929998612237,1162
2371.7818036841777,1140
2373.633191915315,1155
2375.484163589562,1102
2377.3347189909114,1123
2379.184858403434,1115
2381.03458211128,1168
2382.8838903986775,1130
2384.732783549936,1162
2386.5812618494406,1144
2388.4293255816588,1118
2390.2769750311327,1122
2392.1242104824883,1161
2393.971032220427,1091
2395.8174405297295,1117
2397.6634356952563,1162
2399.509018001947,1112
2401.3541877348193,1156
2403.1989451789705,1141
2405.043290619576,1121
2406.8872243418905,1104
2408.730746631247,1140
2410.5738577730594,1118
2412.4165580528183,1095
2414.258847756095,1107
2416.100727168537,1132
2417.9421965758734,1139
2419.783256263912,1129
2421.623906518538,1158
2423.4641476257157,1096
2425.303979871491,1149
2427.143403541984,1179
2428.9824189233977,1182
2430.821026302012,1143
2432.6592259641866,1157
2434.497018196361,1149
2436.33440328505,1105
2438.171381516851,1141
2440.00795317844,1166
2441.844118556569,1227
2443.6798779380724,1144
2445.5152316098606,1160
2447.3501798589255,1179
2449.1847229723357,1138
2451.0188612372403,1166
2452.8525949408663,1172
2454.6859243705203,1105
2456.518849813587,1132
2458.3513715575314,1113
2460.183489889895,1183
2462.015205098301,1191
2463.8465174704493,1087
2465.67742729412,1144
2467.5079348571717,1171
2469.338040447542,1122
2471.1677443532476,1145
2472.9970468623833,1097
2474.825948263123,1083
2476.6544488437207,1111
2478.482548892508,1106
2480.310248697896,1116
2482.137548548374,1135
2483.9644487325118,1182
2485.790949538956,1148
2487.617051256433,1125
2489.44275417375,1179
2491.26805857979,1145
2493.0929647635157,1109
2494.917473013971,1117
2496.741583620276,1102
2498.5652968716304,1154
2500.3886130573137,1133
2502.2115324666834,1116
2504.0340553891765,1118
2505.856182114308,1131
2507.6779129316733,1127
2509.499248130945,1162
2511.3201880018764,1170
2513.140732834298,1108
2514.9608829181198,1153
2516.780638543331,1100
2518.6,1144
2520.418967578273,1092
2522.237541568376,1135
2524.0557222606144,1103
2525.8735099453706,1100
2527.6909049131086,1114
2529.507907454368,1164
2531.32451785977,1129
2533.140736420014,1105
2534.9565634258774,1104
2536.771999168218,1103
2538.5870439379714,1129
2540.4016980261526,1071
2542.2159617238544,1126
2544.02983532225,1136
2545.8433191125914,1172
2547.656413386209,1191
2549.4691184345115,1145
2551.2814345489874,1153
2553.093362021204,1143
2554.904901142808,1112
2556.716052205523,1090
2558.526815501153,1126
2560.3371913215824,1113
2562.147179958771,1105
2563.956781704761,1083
2565.7659968516705,1128
2567.5748256916986,1132
2569.3832685171224,1097
2571.1913256202984,1079
2572.9989972936614,1145
2574.806283829725,1126
2576.613185521084,1181
2578.4197026604074,1097
2580.2258355404483,1145
2582.031584454035,1136
2583.836949694077,1155
2585.6419315535613,1129
2587.4465303255533,1097
2589.2507463032002,1143
2591.0545797797245,1163
2592.8580310484303,1144
2594.6611004026995,1117
2596.463788135992,1134
2598.266094541849,1079
2600.0680199138874,1152
2601.869564545807,1123
2603.670728731383,1103
2605.4715127644704,1150
2607.2719169390048,1141
2609.071941548998,1127
2610.8715868885433,1125
2612.670853251811,1126
2614.469740933052,1174
2616.268250226594,1116
2618.0663814268455,1109
2619.864134828292,1139
2621.6615107255006,1146
2623.458509413115,1135
2625.2551311858597,1110
2627.0513763385347,1132
2628.8472451660223,1106
2630.6427379632833,1111
2632.4378550253564,1120
2634.232596647359,1130
2636.026963124488,1111
2637.8209547520187,1121
2639.6145718253065,1105
2641.407814639785,1120
2643.200683490966,1129
2644.9931786744414,1143
2646.7853004858807,1156
2648.577049221034,1169
2650.3684251757277,1193
2652.1594286458712,1143
2653.9500599274484,1151
2655.740319316525,1131
2657.5302071092437,1142
2659.3197236018286,1087
2661.10886909058,1162
2662.8976438718782,1168
2664.686048242183,1112
2666.4740824980327,1161
2668.2617469360443,1168
2670.0490418529134,1123
2671.8359675454153,1092
2673.622524310403,1141
2675.408712444811,1111
2677.1945322456495,1150
2678.979984010009,1142
2680.76506803506,1137
2682.5497846180497,1134
2684.334134056306,1127
2686.1181166472343,1158
2687.9017326883213,1130
2689.6849824771293,1115
2691.4678663113013,1096
2693.2503844885596,1116
2695.032537306705,1163
2696.8143250636167,1111
2698.5957480572542,1098
2700.3768065856534,1116
2702.1575009469316,1126
2703.937831439283,1122
2705.717798360982,1133
2707.4974020103837,1140
2709.276642685917,1075
2711.055520686095,1102
2712.834036309506,1120
2714.612189854819,1054
2716.389981620782,1116
2718.1674119062204,1111
2719.944481010041,1155
2721.721189231226,1127
2723.4975368688415,1132
2725.273524222027,1132
2727.0491515900053,1122
2728.824419272075,1128
2730.5993275676146,1101
2732.3738767760838,1145
2734.148067197016,1146
2735.921899130031,1086
2737.6953728748194,1090
2739.468488731156,1136
2741.2412469988926,1108
2743.0136479779617,1122
2744.785691968372,1140
2746.5573792702116,1110
2748.3287101836504,1097
2750.099685008934,1155
2751.870304046388,1073
2753.640567596418,1107
2755.4104759595057,1162
2757.1800294362156,1097
2758.949228327187,1161
2760.7180729331412,1108
2762.486563554877,1151
2764.254700493272,1119
2766.022484049284,1125
2767.789914523947,1111
2769.5569922183786,1149
2771.3237174337705,1109
2773.090090471394,1127
2774.8561116326036,1082
2776.6217812188274,1111
2778.3870995315756,1133
2780.1520668724356,1147
2781.9166835430747,1127
2783.6809498452394,1069
2785.444866080754,1163
2787.2084325515225,1135
2788.971649559527,1113
2790.73451740683,1145
2792.4970363955713,1124
2794.2592068279705,1134
2796.0210290063264,1097
2797.7825032330147,1122
2799.543629810493,1116
2801.304409041296,1182
2803.0648412280366,1110
2804.8249266734088,1078
2806.5846656801846,1119
2808.344058551212,1094
2810.1031055894246,1072
2811.8618070978273,1101
2813.6201633795085,1151
2815.378174737636,1165
2817.1358414754536,1163
2818.893163896285,1203
2820.6501423035334,1141
2822.4067770006814,1105
2824.1630682912883,1178
2825.9190164789957,1101
2827.6746218675207,1132
2829.429884760661,1130
2831.184805462294,1135
2832.9393842763743,1198
2834.693621506936,1145
2836.4475174580916,1137
2838.201072434034,1180
2839.954286739034,1099
2841.707160677441,1162
2843.459694553685,1156
2845.2118886722724,1144
2846.96374333779,1124
2848.7152588549034,1139
2850.4664355283567,1101
2852.217273662973,1148
2853.9677735636546,1091
2855.7179355353833,1109
2857.4677598832186,1160
2859.217246912299,1173
2860.9663969278427,1124
2862.715210235146,1124
2864.4636871395846,1072
2866.211827946614,1155
2867.9596329617652,1109
2869.7071024906536,1167
2871.4542368389684,1141
2873.20103631248,1128
2874.947501217038,1105
2876.6936318585695,1165
2878.4394285430812,1192
2880.1848915766604,1168
2881.9300212654707,1138
2883.6748179157553,1136
2885.4192818338374,1135
2887.1634133261173,1146
2888.907212699077,1136
2890.6506802592744,1170
2892.393816313348,1132
2894.1366211680142,1154
2895.8790951300693,1143
2897.621238506388,1106
2899.363051603925,1117
2901.1045347297118,1183
2902.8456881908596,1132
2904.58651229456,1123
2906.327007348081,1070
2908.067173658772,1153
2909.8070115340597,1116
2911.5465212814497,1110
2913.285703208527,1150
2915.0245576229563,1058
2916.7630848324807,1085
2918.5012851449196,1133
2920.2391588681758,1140
2921.976706310227,1113
2923.7139277791334,1085
2925.4508235830313,1159
2927.187394030137,1132
2928.923639428745,1125
2930.6595600872306,1169
2932.395156314046,1154
2934.1304284177218,1155
2935.8653767068713,1141
2937.6000014901815,1157
2939.3343030764227,1145
2941.068281774442,1170
2942.8019378931644,1172
2944.5352717415976,1191
2946.2682836288236,1128
2948.0009738640065,1147
2949.7333427563885,1151
2951.465390615289,1150
2953.1971177501086,1156
2954.9285244703265,1110
2956.6596110855,1207
2958.3903779052657,1136
2960.1208252393385,1075
2961.8509533975125,1103
2963.5807626896617,1150
2965.3102534257378,1151
2967.0394259157715,1137
2968.768280469873,1130
2970.496817398232,1101
2972.2250370111146,1108
2973.952939618869,1090
2975.6805255319196,1189
2977.4077950607707,1179
2979.134748516006,1164
2980.861386208289,1178
2982.587708448359,1196
2984.313715547037,1196
2986.039407815222,1166
2987.764785563891,1145
2989.489849104102,1141
2991.2145987469908,1215
2992.9390348037705,1128
2994.6631575857346,1119
2996.3869674042576,1152
2998.1104645707887,1124
2999.83364939686,1164
3001.5565221940783,1153
3003.2790832741334,1110
3005.0013329487924,1149
3006.7232715298996,1125
3008.4448993293804,1077
3010.166216659239,1079
3011.887223831558,1095
3013.607921158498,1119
3015.3283089522993,1122
3017.0483875252826,1135
3018.7681571898443,1107
3020.4876182584626,1167
3022.2067710436927,1174
3023.9256158581707,1140
3025.644153014609,1122
3027.362382825801,1146
3029.0803056046193,1131
3030.797921664012,1169
3032.5152313170106,1120
3034.2322348767225,1107
3035.9489326563353,1109
3037.665324969115,1131
3039.3814121284063,1116
3041.097194447633,1108
3042.812672240299,1110
3044.5278458199855,1095
3046.2427155003525,1143
3047.9572815951406,1151
3049.671544418167,1143
3051.38550428333,1114
3053.0991615046073,1120
3054.812516396051,1079
3056.5255692717974,1123
3058.2383204460575,1139
3059.9507702331257,1145
3061.662918947372,1085
3063.3747669032446,1143
3065.0863144152736,1120
3066.7975617980674,1117
3068.508509366309,1129
3070.219157434767,1135
3071.9295063182844,1138
3073.639556331785,1081
3075.3493077902704,1100
3077.058761008821,1127
3078.7679163025964,1096
3080.476773986837,1081
3082.1853343768594,1100
3083.89359778806,1084
3085.6015645359153,1122
3087.3092349359786,1138
3089.016609303884,1112
3090.7236879553434,1140
3092.4304712061476,1096
3094.136959372166,1154
3095.843152769349,1113
3097.5490517137237,1111
3099.2546565213966,1113
3100.959967508554,1108
3102.66498499146,1063
3104.3697092864577,1110
3106.0741407099695,1156
3107.778279578498,1134
3109.482126208622,1111
3111.1856809170004,1115
3112.8889440203716,1115
3114.5919158355528,1136
3116.294596679439,1098
3117.996986869006,1158
3119.6990867213062,1103
3121.4008965534726,1152
3123.102416682717,1125
3124.803647426329,1131
3126.5045891016784,1095
3128.205242026213,1114
3129.90560651746,1100
3131.605682893025,1060
3133.3054714705922,1138
3135.0049725679282,1101
3136.7041865028714,1072
3138.4031135933465,1134
3140.101754157353,1144
3141.800108512971,1141
3143.498176978357,1140
3145.1959598717494,1114
3146.8934575114636,1124
3148.5906702158954,1134
3150.2875983035183,1076
3151.9842420928853,1128
3153.680601902627,1135
3155.376678051456,1134
3157.07247085816,1159
3158.767980641609,1133
3160.463207720748,1145
3162.158152414606,1111
3163.8528150422862,1133
3165.5471959229726,1155
3167.2412953759303,1180
3168.9351137204976,1160
3170.628651276098,1113
3172.3219083622307,1151
3174.014885298474,1159
3175.707582404485,1116
3177.4000000000005,1099
3179.092138404835,1137
3180.7839979388846,1167
3182.47557892212,1138
3184.166881674594,1149
3185.8579065164386,1078
3187.5486537678626,1189
3189.2391237491547,1130
3190.9293167806827,1070
3192.6192331828934,1130
3194.3088732763117,1132
3195.998237381542,1135
3197.687325819268,1100
3199.376138910251,1106
3201.064676975334,1111
3202.7529403354347,1059
3204.4409293115523,1157
3206.1286442247647,1103
3207.816085396229,1091
3209.5032531471825,1089
3211.190147798936,1072
3212.8767696728846,1062
3214.5631190905015,1154
3216.2491963733373,1092
3217.9350018430214,1085
3219.6205358212637,1069
3221.305798629851,1141
3222.990790590651,1048
3224.6755120256103,1153
3226.359963256751,1078
3228.0441446061795,1104
3229.7280563960758,1112
3231.411698948703,1090
3233.0950725863995,1134
3234.778177631587,1156
3236.461014406761,1111
3238.1435832345005,1105
3239.8258844374595,1082
3241.507918338374,1122
3243.1896852600576,1118
3244.8711855254023,1097
3246.552419457381,1168
3248.233387379042,1123
3249.914089613516,1126
3251.59452648401,1167
3253.274698313813,1130
3254.95460542629,1132
3256.6342481448855,1151
3258.313626793125,1116
3259.9927416946084,1112
3261.6715931730196,1117
3263.3501815521176,1146
3265.0285071557437,1076
3266.706570307815,1066
3268.3843713323286,1108
3270.0619105533615,1044
3271.739188295068,1119
3273.4162048816834,1085
3275.0929606375184,1131
3276.769455886966,1121
3278.445690954498,1105
3280.1216661646613,1156
3281.797381842087,1124
3283.4728383114807,1129
3285.1480358976296,1125
3286.8229749253996,1082
3288.4976557197333,1139
3290.172078605655,1103
3291.846243908266,1116
3293.5201519527463,1112
3295.193803064357,1095
3296.8671975684374,1090
3298.5403357904024,1097
3300.21321805575,1067
3301.8858446900567,1149
3303.558216018975,1093
3305.23033236824,1120
3306.9021940636603,1103
3308.57380143113,1068
3310.2451547966184,1113
3311.916254486174,1140
3313.5871008259246,1098
3315.2576941420766,1119
3316.9280347609147,1111
3318.5981230088046,1140
3320.2679592121895,1144
3321.9375436975924,1075
3323.606876791612,1098
3325.27595882093,1072
3326.944790112305,1107
3328.6133709925753,1129
3330.2817017886573,1097
3331.949782827547,1112
3333.617614436319,1090
3335.2851969421245,1117
3336.952530672199,1153
3338.619615953853,1112
3340.286453114475,1155
3341.9530424815357,1102
3343.619384382583,1156
3345.2854791452437,1140
3346.951327097224,1145
3348.6169285663073,1118
3350.2822838803577,1116
3351.947393367319,1097
3353.61225735521,1113
3355.2768761721345,1129
3356.9412501462693,1132
3358.605379605873,1097
3360.2692648792827,1106
3361.9329062949146,1101
3363.596304181263,1096
