CollectionTime,7/3/2024 2:48:03 PM
ExposureUsed,3
CalibratedSpectrum
-962.7078968117929,464
-959.9714848408522,486
-957.2358232597828,487
-954.5009119013725,479
-951.7667505983302,485
-949.0333391832855,484
-946.3006774887896,459
-943.5687653473143,496
-940.837602591253,479
-938.1071890529199,516
-935.3775245645503,491
-932.6486089583007,472
-929.9204420662485,496
-927.1930237203925,496
-924.4663537526524,485
-921.7404319948689,478
-919.0152582788041,509
-916.2908324361409,545
-913.5671542984834,495
-910.8442236973568,475
-908.1220404642074,476
-905.4006044304027,518
-902.679915427231,451
-899.959973285902,457
-897.2407778375464,486
-894.5223289132158,480
-891.8046263438832,478
-889.0876699604426,465
-886.3714595937089,478
-883.6559950744183,488
-880.9412762332282,479
-878.2273029007168,483
-875.5140749073835,503
-872.8015920836489,485
-870.0898542598545,491
-867.3788612662631,476
-864.6686129330585,486
-861.9591090903457,502
-859.2503495681506,468
-856.5423341964203,476
-853.8350628050229,490
-851.1285352237478,465
-848.4227512823054,472
-845.7177108103272,505
-843.0134136373656,487
-840.3098595928943,496
-837.6070485063082,482
-834.9049802069229,477
-832.2036545239757,492
-829.5030712866244,474
-826.8032303239481,495
-824.1041314649472,471
-821.4057745385428,486
-818.7081593735775,474
-816.0112857988148,478
-813.3151536429393,501
-810.6197627345566,515
-807.9251129021936,521
-805.2312039742981,483
-802.5380357792392,493
-799.8456081453069,500
-797.1539209007124,508
-794.462973873588,495
-791.772766891987,505
-789.083299783884,499
-786.3945723771743,476
-783.7065844996748,487
-781.0193359791231,444
-778.3328266431781,494
-775.6470563194197,508
-772.9620248353489,497
-770.2777320183878,523
-767.5941776958798,531
-764.9113616950891,517
-762.2292838432011,495
-759.5479439673222,498
-756.8673418944801,492
-754.1874774516235,543
-751.5083504656222,546
-748.8299607632671,516
-746.15230817127,512
-743.475392516264,532
-740.7992136248035,517
-738.1237713233636,502
-735.4490654383407,528
-732.7750957960521,533
-730.1018622227365,529
-727.4293645445534,521
-724.7576025875837,475
-722.0865761778291,501
-719.4162851412126,526
-716.7467293035781,532
-714.0779084906909,527
-711.409822528237,579
-708.7424712418238,529
-706.0758544569796,545
-703.4099719991541,541
-700.7448236937178,552
-698.0804093659622,525
-695.4167288411002,532
-692.7537819442656,507
-690.0915685005134,503
-687.4300883348199,512
-684.7693412720819,512
-682.1093271371178,504
-679.4500457546669,542
-676.7914969493897,548
-674.1336805458676,534
-671.4765963686034,536
-668.8202442420206,584
-666.1646239904642,551
-663.5097354382001,566
-660.8555784094151,545
-658.2021527282176,549
-655.5494582186366,546
-652.8974947046223,547
-650.2462620100463,537
-647.5957599587009,547
-644.9459883742998,575
-642.2969470804776,576
-639.6486359007902,591
-637.0010546587141,575
-634.3542031776476,573
-631.7080812809096,599
-629.0626887917401,583
-626.4180255333008,580
-623.7740913286734,609
-621.1308860008619,568
-618.4884093727904,577
-615.8466612673046,563
-613.2056415071715,573
-610.5653499150785,576
-607.9257863136347,569
-605.28695052537,588
-602.6488423727357,594
-600.0114616781036,553
-597.3748082637674,564
-594.7388819519412,604
-592.1036825647604,682
-589.4692099242818,680
-586.8354638524829,581
-584.2024441712624,633
-581.5701507024403,619
-578.9385832677575,575
-576.3077416888759,619
-573.6776257873787,641
-571.0482353847704,585
-568.4195703024757,610
-565.7916303618415,602
-563.164415384135,632
-560.5379251905453,608
-557.9121596021815,619
-555.2871184400748,620
-552.6628015251767,614
-550.0392086783606,615
-547.4163397204204,639
-544.794194472071,658
-542.1727727539491,648
-539.5520743866118,703
-536.9320991905377,692
-534.3128469861261,669
-531.6943175936979,729
-529.0765108334947,772
-526.4594265256793,767
-523.8430644903358,952
-521.2274245474689,1120
-518.612506517005,1218
-515.9983102187913,1248
-513.3848354725959,1320
-510.77208209810846,1500
-508.16004991493924,1676
-505.5487387426199,1781
-502.9381484006032,1634
-500.3282787082628,1433
-497.71912948489364,1191
-495.1107005497117,1007
-492.5029917218539,900
-489.8960028203786,842
-487.28973366426493,748
-484.68418407241325,718
-482.07935386364494,749
-479.47524285670266,712
-476.87185087025,717
-474.2691777228715,754
-471.66722323307334,775
-469.0659872192821,743
-466.4654694998459,809
-463.86566989303384,744
-461.26658821703614,723
-458.66822428996414,765
-456.07057792985,772
-453.4736489546475,754
-450.877437182231,726
-448.28194243039627,706
-445.68716451686,710
-443.09310325926003,725
-440.49975847515555,744
-437.9071299820263,703
-435.31521759727354,704
-432.72402113821954,745
-430.13354042210767,748
-427.5437752661022,767
-424.95472548728867,788
-422.36639090267386,811
-419.7787713291855,798
-417.1918665836721,828
-414.60567648290385,809
-412.0202008435715,797
-409.4354394822874,822
-406.8513922155845,795
-404.26805885991723,825
-401.685439231661,832
-399.103533147112,845
-396.522340422488,789
-393.9418608739278,826
-391.3620943174908,793
-388.7830405691583,815
-386.2046994448317,780
-383.6270707603344,744
-381.05015433141045,740
-378.473949973725,719
-375.8984575028645,690
-373.32367673433623,724
-370.74960748356875,683
-368.1762495659117,637
-365.60360279663576,591
-363.03166699093265,547
-360.4604419639154,575
-357.8899275306178,537
-355.32012350599507,537
-352.7510297049233,529
-350.1826459421999,508
-347.61497203254316,526
-345.04800779059235,495
-342.4817530309082,540
-339.91620756797226,598
-337.35137121618743,603
-334.7872437898774,615
-332.22382510328725,561
-329.66111497058273,543
-327.09911320585127,538
-324.53781962310075,560
-321.9772340362607,571
-319.4173562591816,545
-316.8581861056348,524
-314.2997233893127,518
-311.7419679238294,542
-309.1849195227194,556
-306.62857799943856,610
-304.0729431673641,650
-301.51801483979375,606
-298.963792829947,572
-296.41027695096386,577
-293.85746701590574,573
-291.3053628377552,648
-288.7539642294155,736
-286.2032710037115,612
-283.65328297338897,602
-281.1039999511146,720
-278.5554217494762,688
-276.007548180983,584
-273.4603790580651,570
-270.9139141930734,626
-268.3681533982807,626
-265.8230964858798,654
-263.27874326798565,642
-260.7350935566336,620
-258.1921471637804,687
-255.6499039013039,678
-253.10836358100266,670
-250.56752601459698,631
-248.02739101372765,731
-245.48795838995704,786
-242.94922795476816,721
-240.41119951956557,700
-237.8738728956746,790
-235.33724789434166,777
-232.80132432673452,741
-230.2661020039418,704
-227.73158073697357,763
-225.19776033676033,884
-222.66464061415422,897
-220.1322213799284,788
-217.60050244477725,767
-215.06948361931552,718
-212.53916471408013,824
-210.00954553952818,933
-207.48062590603843,863
-204.9524056239104,752
-202.4248845033651,903
-199.8980623545441,963
-197.37193898751036,969
-194.84651421224817,874
-192.32178783866232,874
-189.79775967657952,981
-187.27442953574644,988
-184.7517972258321,1111
-182.2298625564256,996
-179.7086253370378,955
-177.18808537710026,909
-174.66824248596583,982
-172.14909647290835,1101
-169.6306471471229,1000
-167.11289431772548,901
-164.59583779375328,983
-162.07947738416453,971
-159.5638128978386,1210
-157.04884414357605,1497
-154.53457093009854,1638
-152.02099306604828,1290
-149.50811035998936,1028
-146.99592262040665,1128
-144.48442965570587,1508
-141.97363127421409,1929
-139.46352728417958,2187
-136.95411749377126,2292
-134.44540171107985,1812
-131.93737974411636,1268
-129.43005140081357,1245
-126.92341648902493,1478
-124.41747481652521,2206
-121.91222619101006,3562
-119.40767042009657,4839
-116.90380731132257,4915
-114.40063667214702,3735
-111.8981583099503,2316
-109.3963720320337,1707
-106.89527764561933,1930
-104.39487495785067,2972
-101.89516377579241,4271
-99.39614390642998,4825
-96.89781515667039,4034
-94.40017733334128,5075
-91.90323024319173,8895
-89.40697369289148,15541
-86.91140748903172,18210
-84.41653143812482,11071
-81.92234534660395,5064
-79.42884902082358,6655
-76.93604226705907,18204
-74.4439248915071,31733
-71.95249670028534,39660
-69.46175749943245,35813
-66.97170709490854,27767
-64.48234529259423,20040
-61.99367189829195,16069
-59.50568671772464,13947
-57.01838955653636,10845
-54.53178022029283,9169
-52.045858514480074,9166
-49.560624244506016,9627
-47.07607721569923,10307
-44.59221723330904,10971
-42.10904410250669,11885
-39.62655762838392,12120
-37.14475761595372,11974
-34.66364387015028,13193
-32.18321619582866,12810
-29.70347439776515,12609
-27.224418280657005,16805
-24.74604764912317,21022
-22.26836230770266,31308
-19.7913620608565,61301
-17.315046712966478,65040
-14.83941606833514,65040
-12.36446993118659,65040
-9.89020810566592,65040
-7.416630395839093,65040
-4.94373660569363,65040
-2.471526539137585,65040
-6.821210263296962E-13,65040
2.47084320796705,65040
4.941003281093458,65040
7.410480415786196,65040
9.879274808531363,65040
12.347386655893956,65040
14.814816154518212,65040
17.28156350112681,65040
19.74762889252179,65040
22.21301252558385,65040
24.67771459727237,21902
27.141735304626195,4966
29.605074844762612,3887
32.06773341487792,2988
34.52971121224755,2879
36.99100843422559,2853
39.45162527824516,2415
41.91156194181792,2263
44.370818622535126,2034
46.82939551806646,2030
49.287292826160524,2140
51.74451074464503,2671
54.201049471426245,2829
56.65690920448981,2278
59.112090141899785,1704
61.56659248179983,1385
64.02041642241159,1417
66.4735621620365,1443
68.92602989905402,1481
71.37781983192338,1824
73.82893215918205,1928
76.27936707944684,1664
78.72912479141326,1703
81.17820549385567,1944
83.62660938562783,1970
86.07433666566146,1546
88.5213875329681,1248
90.96776218663751,1267
93.41346082583925,1191
95.85848364982041,1244
98.30283085790859,1664
100.7465026495089,1766
103.18949922410604,1309
105.63182078126385,1268
108.07346752062438,1292
110.51443964190923,1072
112.95473734491827,1152
115.39436082953114,1290
117.83331029570547,1224
120.27158594347827,1242
122.7091879729652,1257
125.1461165843615,1247
127.58237197794062,1168
130.01795435405518,1036
132.4528639131364,1030
134.88710085569494,1078
137.32066538231982,1100
139.75355769367923,1061
142.1857779905207,1061
144.61732647366978,1046
147.04820334403132,1064
149.47840880258934,1089
151.90794305040674,1159
154.33680628862487,1169
156.76499871846443,1345
159.19252054122433,1412
161.61937195828352,1432
164.04555317109896,1448
166.47106438120693,1600
168.89590579022217,1707
171.320077599839,1784
173.7435800118302,1925
176.16641322804742,1858
178.58857745042144,1968
181.01007288096173,2066
183.43089972175687,2071
185.85105817497413,1927
188.27054844285988,1954
190.6893707277394,2007
193.10752523201643,1998
195.5250121581745,2174
197.9418317087751,2082
200.3579840864594,2146
202.7734694939469,2183
205.18828813403627,2142
207.6024402096051,2259
210.01592592360964,2289
212.42874547908548,2225
214.84089907914665,2255
217.2523869269868,2114
219.66320922587727,2111
222.0733661791695,2144
224.48285799029293,2132
226.8916848627572,2131
229.29984700014882,2209
231.7073446061355,2319
234.11417788446204,2167
236.520347038953,2185
238.92585227351185,2173
241.33069379212054,2153
243.73487179884035,2210
246.1383864978112,2311
248.541238093252,2220
250.9434267894609,2205
253.34495279081432,2188
255.74581630176783,2175
258.1460175268563,2137
260.54555667069314,2129
262.9444339379703,2178
265.3426495334594,2130
267.7402036620107,2309
270.1370965285529,2308
272.53332833809407,2248
274.9288992957214,2186
277.32380960660055,2208
279.718059475976,2155
282.1116491091717,2268
284.5045787115897,2243
286.89684848871195,2178
289.2884586460981,2254
291.67940938938807,2221
294.0697009242996,2214
296.4593334566299,2348
298.84830719225477,2229
301.23662233712923,2166
303.6242790972866,2219
306.01127767884,2267
308.39761828798066,2103
310.78330113097934,2085
313.16832641418534,2034
315.5526943440269,2056
317.9364051270112,2135
320.3194589697242,2105
322.70185607883093,2041
325.0835966610754,2064
327.4646809232805,1996
329.8451090723478,1916
332.2248813152577,1961
334.6039978590701,1960
336.9824589109231,1907
339.36026467803447,1989
341.7374153677,1997
344.113911187295,1834
346.48975234427337,1950
348.8649390461686,1982
351.2394715005918,1983
353.61334991523415,1908
355.9865744978655,1889
358.35914545633375,1947
360.73106299856715,1962
363.10232733257146,1960
365.47293866643247,1896
367.84289720831396,1841
370.2122031664593,1874
372.5808567491905,1878
374.9488581649083,1773
377.31620762209275,1729
379.6829053293021,1853
382.0489514951745,1856
384.4143463284262,1782
386.7790900378528,1730
389.14318283232853,1732
391.50662492080653,1816
393.86941651231916,1688
396.23155781597745,1748
398.5930490409713,1846
400.9538903965696,1807
403.3140820921202,1758
405.6736243370498,1786
408.03251734086336,1724
410.3907613131465,1746
412.74835646356166,1742
415.10530300185144,1751
417.4616011378372,1760
419.81725108141893,1765
422.1722530425758,1750
424.5266072313656,1755
426.880313857925,1792
429.2333731324701,1811
431.58578526529516,1761
433.9375504667738,1692
436.2886689473588,1750
438.63914091758113,1718
440.9889665880513,1707
443.33814616945835,1735
445.68667987257015,1595
448.03456790823395,1608
450.3818104873759,1680
452.72840782100013,1663
455.07436012019105,1638
457.41966759611057,1639
459.7643304600007,1666
462.10834892318155,1646
464.4517231970525,1690
466.79445349309174,1552
469.1365400228566,1709
471.4779829979826,1703
473.81878263018564,1634
476.15893913125876,1761
478.4984527130747,1764
480.8373235875855,1732
483.17555196682144,1735
485.5131380628919,1803
487.8500820879857,1879
490.1863842543697,1916
492.52204477439034,1995
494.8570638604725,2138
497.1914417251204,2408
499.52517858091653,2607
501.85827464052306,3203
504.19073011668036,3843
506.5225452222086,4465
508.85372017000566,4685
511.18425517304956,4935
513.514150444396,4960
515.8434061971808,5695
518.1720226446176,6715
520.4999999999999,6573
522.8273384766991,5831
525.1540382881666,5101
527.480099647932,4290
529.8055227696037,3395
532.1303078668694,2745
534.454455153496,2162
536.777964843328,2087
539.1008371502907,1971
541.4230722883866,1829
543.744670471698,1931
546.0656319143858,1947
548.3859568306899,1849
550.7056454349294,1900
553.0246979415016,1842
555.3431145648834,1828
557.6608955196306,1771
559.978041020377,1756
562.2945512818363,1698
564.6104265188006,1660
566.9256669461412,1732
569.2402727788082,1735
571.5542442318302,1778
573.8675815203156,1722
576.1802848594508,1770
578.4923544645015,1775
580.8037905508126,1780
583.114593333807,1782
585.4247630289875,1772
587.7342998519354,1782
590.0432040183106,1742
592.3514757438526,1755
594.6591152443794,1765
596.9661227357875,1809
599.2724984340531,1757
601.578242555231,1716
603.8833553154542,1741
606.1878369309362,1759
608.4916876179676,1825
610.7949075929192,1726
613.0974970722403,1789
615.3994562724587,1738
617.7007854101818,1714
620.0014847020951,1717
622.3015543649641,1790
624.6009946156324,1769
626.8998056710224,1810
629.1979877481361,1761
631.4955410640538,1780
633.7924658359349,1817
636.0887622810175,1780
638.3844306166192,1756
640.6794710601358,1748
642.9738838290426,1738
645.2676691408932,1723
647.5608272133207,1729
649.853358264037,1780
652.1452625108324,1850
654.4365401715764,1813
656.7271914642178,1905
659.0172166067838,1790
661.3066158173809,1783
663.5953893141935,1776
665.8835373154867,1782
668.1710600396028,1802
670.4579577049639,1748
672.7442305300709,1842
675.0298787335033,1692
677.3149025339197,1751
679.599302150058,1813
681.8830778007342,1729
684.1662297048437,1710
686.4487580813608,1833
688.7306631493387,1777
691.0119451279091,1858
693.2926042362834,1768
695.5726406937516,1785
697.8520547196814,1770
700.1308465335215,1793
702.4090163547982,1775
704.6865644031171,1674
706.9634908981619,1731
709.2397960596965,1708
711.5154801075631,1782
713.7905432616823,1800
716.0649857420548,1832
718.3388077687592,1739
720.612009561953,1808
722.8845913418733,1784
725.1565533288352,1749
727.427895743234,1828
729.6986188055427,1890
731.9687227363137,1751
734.238207756178,1716
736.5070740858458,1804
738.7753219461066,1794
741.0429515578281,1754
743.3099631419569,1762
745.5763569195191,1800
747.8421331116193,1762
750.1072919394409,1821
752.3718336242467,1744
754.6357583873777,1750
756.8990664502545,1738
759.1617580343765,1812
761.423833361321,1743
763.6852926527457,1805
765.9461361303862,1747
768.206364016058,1886
770.4659765316536,1774
772.7249738991469,1806
774.9833563405886,1751
777.2411240781092,1791
779.4982773339183,1780
781.7548163303044,1780
784.010741289634,1804
786.2660524343538,1938
788.5207499869881,1883
790.7748341701416,1860
793.0283052064964,1804
795.2811633188143,1882
797.5334087299362,1803
799.7850416627813,1846
802.0360623403484,1777
804.2864709857143,1892
806.5362678220353,1900
808.7854530725468,1846
811.0340269605625,1893
813.2819897094754,1752
815.5293415427581,1803
817.77608268396,1819
820.0222133567116,1857
822.2677337847211,1866
824.5126441917765,1802
826.7569448017433,1780
829.0006358385675,1800
831.2437175262731,1787
833.4861900889629,1814
835.7280537508192,1734
837.9693087361026,1744
840.2099552691533,1789
842.4499935743896,1774
844.689423876309,1824
846.9282463994886,1842
849.1664613685833,1920
851.4040690083276,1836
853.6410695435349,1861
855.877463199097,1792
858.1132501999847,1782
860.3484307712487,1796
862.5830051380175,1797
864.8169735254988,1829
867.0503361589791,1871
869.2830932638243,1891
871.5152450654786,1852
873.7467917894654,1825
875.9777336613873,1770
878.2080709069252,1848
880.4378037518389,1826
882.666932421968,1833
884.8954571432301,1819
887.1233781416219,1897
889.3506956432192,1812
891.5774098741766,1875
893.803521060728,1774
896.0290294291852,1821
898.2539352059397,1778
900.4782386174619,1798
902.7019398903011,1737
904.925039251085,1759
907.147536926521,1795
909.3694331433943,1794
911.59072812857,1957
913.8114221089921,1781
916.0315153116827,1775
918.2510079637437,1868
920.4699002923547,1836
922.6881925247761,1797
924.905884888345,1853
927.1229776104793,1839
929.3394709186747,1901
931.555365040506,1832
933.7706602036275,1844
935.9853566357709,1858
938.1994545647489,1868
940.4129542184515,1961
942.6258558248488,1822
944.8381596119883,1855
947.0498658079974,1866
949.2609746410825,1886
951.4714863395287,1865
953.6814011316998,1817
955.8907192460387,1860
958.0994409110671,1796
960.3075663553858,1824
962.5150958076741,1848
964.7220294966913,1890
966.928367651274,1821
969.1341105003388,1837
971.3392582728806,1793
973.5438111979742,1771
975.747769504772,1691
977.9511334225061,1711
980.153903180487,1709
982.3560790081052,1769
984.5576611348289,1708
986.7586497902058,1734
988.9590452038618,1711
991.158847605503,1679
993.3580572249133,1720
995.5566742919558,1679
997.7546990365728,1614
999.952131688785,1586
1002.1489724786926,1580
1004.3452216364743,1575
1006.5408793923874,1538
1008.7359459767691,1560
1010.9304216200343,1538
1013.1243065526781,1571
1015.3176010052733,1519
1017.510305208472,1517
1019.7024193930064,1499
1021.8939437896848,1457
1024.0848786293977,1440
1026.2752241431122,1463
1028.4649805618747,1484
1030.6541481168115,1408
1032.842727039127,1429
1035.0307175601051,1446
1037.2181199111074,1403
1039.4049343235752,1346
1041.591161029029,1357
1043.7768002590683,1316
1045.9618522453698,1379
1048.1463172196918,1302
1050.3301954138697,1355
1052.513487059818,1375
1054.69619238953,1365
1056.8783116350783,1334
1059.0598450286152,1434
1061.2407928023704,1374
1063.4211551886528,1368
1065.6009324198508,1385
1067.780124728432,1384
1069.9587323469414,1302
1072.1367555080046,1359
1074.314194444325,1339
1076.4910493886855,1342
1078.667320573947,1326
1080.843008233051,1318
1083.0181125990161,1345
1085.1926339049414,1358
1087.3665723840027,1289
1089.5399282694575,1337
1091.7127017946405,1326
1093.8848931929647,1288
1096.0565026979243,1280
1098.2275305430899,1279
1100.3979769621128,1290
1102.567842188722,1256
1104.737126456726,1273
1106.9058300000124,1252
1109.0739530525475,1268
1111.2414958483764,1304
1113.4084586216231,1319
1115.5748416064907,1242
1117.7406450372605,1269
1119.9058691482942,1294
1122.0705141740304,1239
1124.2345803489884,1296
1126.3980679077658,1234
1128.5609770850388,1306
1130.7233081155623,1280
1132.8850612341707,1271
1135.0462366757774,1284
1137.2068346753745,1245
1139.3668554680326,1212
1141.526299288901,1282
1143.68516637321,1288
1145.8434569562655,1260
1148.001171273455,1246
1150.158309560244,1251
1152.3148720521767,1219
1154.470858984876,1299
1156.626270594044,1228
1158.7811071154629,1271
1160.9353687849912,1245
1163.089055838569,1304
1165.242168512213,1268
1167.3947070420209,1271
1169.5466716641677,1320
1171.6980626149075,1192
1173.8488801305748,1227
1175.9991244475814,1243
1178.1487958024186,1187
1180.2978944316555,1207
1182.4464205719428,1192
1184.5943744600072,1227
1186.7417563326567,1224
1188.8885664267755,1226
1191.0348049793297,1227
1193.1804722273619,1223
1195.325568407995,1219
1197.4700937584303,1216
1199.614048515948,1251
1201.7574329179074,1237
1203.900247201746,1261
1206.042491604982,1201
1208.1841663652099,1256
1210.3252717201053,1219
1212.465807907422,1209
1214.6057751649923,1214
1216.7451737307279,1224
1218.8840038426192,1233
1221.0222657387353,1229
1223.1599596572241,1208
1225.2970858363137,1216
1227.4336445143094,1213
1229.5696359295966,1233
1231.705060320639,1242
1233.8399179259786,1223
1235.9742089842384,1245
1238.107933734118,1228
1240.2410924143974,1231
1242.373685263935,1219
1244.5057125216676,1199
1246.6371744266116,1223
1248.7680712178621,1261
1250.898403134593,1240
1253.028170416058,1234
1255.1573733015875,1212
1257.2860120305932,1210
1259.4140868425648,1253
1261.54159797707,1176
1263.6685456737569,1238
1265.7949301723515,1214
1267.9207517126597,1244
1270.046010534565,1193
1272.1707068780306,1209
1274.2948409830983,1268
1276.4184130898889,1207
1278.541423438603,1230
1280.6638722695184,1207
1282.785759822993,1231
1284.9070863394636,1234
1287.0278520594447,1229
1289.1480572235314,1249
1291.2677020723963,1201
1293.3867868467923,1268
1295.5053117875495,1220
1297.623277135579,1282
1299.740683131868,1224
1301.8575300174857,1264
1303.973818033578,1252
1306.0895474213703,1217
1308.2047184221678,1224
1310.3193312773528,1220
1312.4333862283888,1153
1314.5468835168163,1220
1316.659823384255,1258
1318.7722060724045,1266
1320.8840318230418,1269
1322.9953008780249,1262
1325.1060134792888,1248
1327.2161698688478,1240
1329.3257702887959,1212
1331.4348149813054,1238
1333.5433041886276,1240
1335.6512381530933,1273
1337.7586171171101,1242
1339.8654413231675,1240
1341.9717110138317,1259
1344.0774264317488,1233
1346.1825878196432,1261
1348.2871954203192,1254
1350.3912494766587,1247
1352.4947502316231,1253
1354.5976979282532,1265
1356.7000928096686,1302
1358.8019351190665,1265
1360.9032250997243,1273
1363.0039629949988,1220
1365.1041490483235,1251
1367.2037835032133,1216
1369.3028666032606,1237
1371.401398592137,1215
1373.4993797135926,1218
1375.5968102114575,1267
1377.6936903296396,1245
1379.7900203121262,1214
1381.8858004029835,1288
1383.9810308463561,1249
1386.075711886469,1312
1388.1698437676241,1195
1390.2634267342032,1303
1392.356461030667,1236
1394.4489469015557,1240
1396.5408845914872,1250
1398.6322743451592,1240
1400.7231164073469,1256
1402.813411022907,1261
1404.903158436773,1261
1406.9923588939578,1250
1409.0810126395531,1254
1411.1691199187303,1291
1413.2566809767386,1290
1415.343696058907,1264
1417.4301654106425,1255
1419.5160892774315,1281
1421.6014679048399,1260
1423.6863015385125,1276
1425.7705904241707,1297
1427.8543348076178,1271
1429.9375349347342,1279
1432.0201910514802,1255
1434.102303403894,1284
1436.1838722380944,1287
1438.2648978002767,1302
1440.3453803367174,1274
1442.4253200937692,1301
1444.5047173178677,1260
1446.5835722555234,1279
1448.6618851533285,1295
1450.739656257952,1304
1452.8168858161434,1300
1454.8935740747306,1281
1456.96972128062,1247
1459.045327680797,1315
1461.120393522327,1273
1463.1949190523528,1278
1465.2689045180973,1292
1467.3423501668608,1276
1469.415256246024,1254
1471.4876230030463,1328
1473.559450685465,1266
1475.6307395408976,1297
1477.7014898170391,1288
1479.771701761665,1356
1481.8413756226287,1296
1483.9105116478618,1264
1485.9791100853772,1307
1488.0471711832643,1296
1490.1146951896926,1327
1492.1816823529098,1287
1494.2481329212433,1305
1496.3140471430984,1279
1498.3794252669609,1265
1500.4442675413939,1217
1502.5085742150404,1267
1504.572345536622,1281
1506.6355817549388,1332
1508.6982831188702,1307
1510.7604498773744,1329
1512.8220822794883,1295
1514.8831805743293,1280
1516.9437450110909,1310
1519.003775839048,1325
1521.0632733075522,1256
1523.1222376660367,1265
1525.1806691640113,1271
1527.2385680510652,1290
1529.2959345768668,1278
1531.3527689911643,1253
1533.4090715437833,1276
1535.4648424846291,1274
1537.5200820636855,1330
1539.5747905310159,1367
1541.6289681367616,1353
1543.6826151311434,1273
1545.7357317644614,1304
1547.7883182870937,1291
1549.8403749494987,1335
1551.8919020022113,1328
1553.9428996958477,1326
1555.9933682811015,1279
1558.0433080087469,1305
1560.0927191296346,1347
1562.1416018946961,1280
1564.1899565549415,1240
1566.2377833614592,1297
1568.2850825654164,1285
1570.3318544180606,1319
1572.3780991707158,1345
1574.423817074788,1323
1576.4690083817595,1272
1578.5136733431923,1302
1580.5578122107272,1317
1582.601425236085,1285
1584.6445126710646,1284
1586.6870747675434,1306
1588.7291117774776,1283
1590.7706239529034,1267
1592.8116115459347,1220
1594.8520748087658,1218
1596.8920139936686,1290
1598.9314293529933,1258
1600.9703211391711,1315
1603.008689604711,1286
1605.0465350022005,1295
1607.0838575843068,1298
1609.1206576037753,1361
1611.1569353134305,1294
1613.1926909661765,1223
1615.2279248149953,1240
1617.2626371129481,1297
1619.2968281131757,1325
1621.3304980688963,1292
1623.3636472334088,1268
1625.39627586009,1279
1627.428384202396,1271
1629.459972513861,1319
1631.4910410480993,1348
1633.5215900588028,1329
1635.551619799744,1294
1637.5811305247717,1297
1639.6101224878166,1251
1641.6385959428862,1278
1643.6665511440683,1267
1645.693988345528,1352
1647.7209078015112,1257
1649.7473097663405,1275
1651.7731944944203,1289
1653.7985622402307,1249
1655.823413258333,1253
1657.847747803366,1220
1659.8715661300494,1308
1661.8948684931793,1324
1663.9176551476316,1270
1665.9399263483624,1267
1667.9616823504057,1283
1669.982923408873,1318
1672.0036497789574,1325
1674.0238617159293,1282
1676.043559475138,1333
1678.0627433120121,1284
1680.081413482059,1288
1682.0995702408654,1324
1684.117213844096,1338
1686.134344547495,1317
1688.1509626068864,1308
1690.1670682781705,1333
1692.182661817329,1286
1694.1977434804217,1280
1696.2123135235875,1270
1698.226372203043,1249
1700.2399197750851,1283
1702.2529564960905,1253
1704.2654826225112,1319
1706.277498410882,1276
1708.2890041178139,1299
1710.2999999999988,1283
1712.3104863142066,1364
1714.3204633172854,1383
1716.329931266163,1311
1718.3388904178469,1267
1720.3473410294214,1296
1722.3552833580516,1290
1724.3627176609807,1318
1726.3696441955308,1272
1728.3760632191033,1274
1730.3819749891782,1279
1732.3873797633146,1304
1734.3922777991502,1312
1736.3966693544012,1260
1738.4005546868639,1326
1740.4039340544127,1304
1742.406807715001,1359
1744.4091759266616,1336
1746.4110389475054,1328
1748.4123970357223,1301
1750.413250449582,1293
1752.4135994474318,1272
1754.4134442876993,1337
1756.4127852288902,1269
1758.4116225295893,1268
1760.4099564484595,1338
1762.407787244244,1309
1764.405115175764,1289
1766.4019405019203,1343
1768.3982634816916,1321
1770.3940843741357,1267
1772.3894034383907,1345
1774.3842209336717,1303
1776.378537119274,1305
1778.372352254571,1289
1780.3656665990156,1289
1782.3584804121397,1299
1784.3507939535534,1296
1786.3426074829463,1300
1788.3339212600863,1282
1790.3247355448211,1339
1792.3150505970766,1363
1794.3048666768573,1274
1796.2941840442477,1368
1798.2830029594106,1308
1800.2713236825884,1355
1802.2591464741004,1235
1804.2464715943465,1356
1806.2332993038058,1313
1808.2196298630352,1256
1810.2054635326708,1368
1812.190800573428,1317
1814.175641246101,1277
1816.1599858115628,1295
1818.1438345307652,1351
1820.127187664738,1317
1822.1100454745924,1303
1824.092408221516,1294
1826.0742761667766,1276
1828.055649571721,1280
1830.0365286977735,1267
1832.0169138064398,1299
1833.9968051593014,1314
1835.9762030180214,1320
1837.9551076443408,1255
1839.9335193000788,1305
1841.9114382471344,1220
1843.888864747485,1300
1845.8657990631878,1282
1847.842241456378,1285
1849.8181921892697,1251
1851.7936515241558,1277
1853.7686197234098,1258
1855.7430970494815,1238
1857.7170837649014,1275
1859.6905801322787,1283
1861.6635864143004,1294
1863.6361028737338,1269
1865.608129773424,1299
1867.5796673762961,1306
1869.5507159453537,1283
1871.521275743678,1329
1873.4913470344313,1300
1875.4609300808534,1276
1877.4300251462632,1308
1879.3986324940588,1310
1881.366752387717,1256
1883.3343850907936,1250
1885.3015308669228,1289
1887.268189979819,1283
1889.2343626932739,1277
1891.2000492711595,1325
1893.1652499774254,1268
1895.1299650761011,1227
1897.0941948312952,1316
1899.0579395071945,1270
1901.0211993680641,1368
1902.98397467825,1316
1904.9462657021745,1259
1906.9080727043415,1352
1908.869395949332,1272
1910.8302357018065,1282
1912.790592226504,1274
1914.7504657882428,1291
1916.7098566519212,1348
1918.6687650825133,1318
1920.6271913450764,1289
1922.5851357047422,1257
1924.5425984267245,1366
1926.499579776314,1301
1928.4560800188833,1264
1930.4120994198802,1288
1932.367638244833,1319
1934.32269675935,1332
1936.2772752291175,1341
1938.231373919899,1289
1940.1849930975404,1252
1942.1381330279637,1240
1944.0907939771696,1252
1946.0429762112412,1329
1947.9946799963363,1261
1949.9459055986945,1277
1951.896653284633,1271
1953.8469233205478,1272
1955.7967159729142,1284
1957.7460315082863,1291
1959.6948701932974,1267
1961.6432322946594,1266
1963.5911180791632,1307
1965.5385278136787,1261
1967.4854617651545,1279
1969.4319202006182,1284
1971.377903387176,1295
1973.3234115920136,1309
1975.268445082395,1348
1977.2130041256642,1284
1979.1570889892423,1299
1981.1006999406304,1271
1983.04383724741,1316
1984.986501177238,1312
1986.928691997853,1297
1988.8704099770712,1365
1990.811655382789,1270
1992.7524284829801,1279
1994.692729545698,1284
1996.6325588390755,1292
1998.5719166313224,1316
2000.5108031907307,1315
2002.4492187856677,1268
2004.387163684583,1262
2006.3246381560011,1280
2008.2616424685298,1260
2010.1981768908527,1298
2012.1342416917332,1303
2014.069837140014,1300
2016.0049635046162,1255
2017.9396210545406,1294
2019.8738100588666,1334
2021.8075307867502,1299
2023.740783507431,1309
2025.6735684902228,1280
2027.6058860045214,1303
2029.5377363198004,1328
2031.4691197056118,1301
2033.4000364315875,1332
2035.3304867674374,1287
2037.260470982952,1305
2039.189989347998,1321
2041.1190421325232,1287
2043.047629606554,1273
2044.9757520401945,1276
2046.9034097036288,1308
2048.8306028671195,1275
2050.7573318010086,1284
2052.683596775716,1286
2054.609398061742,1309
2056.5347359296647,1309
2058.4596106501403,1269
2060.384022493906,1264
2062.3079717317764,1319
2064.231458634646,1293
2066.1544834734873,1284
2068.077046519352,1287
2069.99914804337,1271
2071.9207883167524,1268
2073.8419676107865,1307
2075.7626861968406,1291
2077.6829443463607,1273
2079.6027423308715,1316
2081.522080421977,1313
2083.440958891362,1281
2085.359378010786,1267
2087.2773380520907,1259
2089.194839287196,1309
2091.111881988101,1302
2093.0284664268825,1309
2094.9445928756973,1233
2096.86026160678,1316
2098.775472892446,1295
2100.690227005088,1288
2102.604524217178,1239
2104.5183648012676,1334
2106.431749029985,1229
2108.34467717604,1320
2110.2571495122206,1282
2112.169166311393,1191
2114.080727846503,1272
2115.9918343905747,1257
2117.902486216711,1245
2119.8126835980956,1281
2121.722426807987,1282
2123.6317161197285,1307
2125.5405518067364,1285
2127.448934142509,1339
2129.356863400624,1279
2131.264339854737,1357
2133.1713637785815,1287
2135.077935445972,1297
2136.9840551308002,1250
2138.889723107037,1281
2140.7949396487334,1279
2142.699705030018,1253
2144.6040195250994,1227
2146.507883408264,1295
2148.4112969538774,1256
2150.3142604363848,1317
2152.2167741303097,1323
2154.1188383102535,1268
2156.0204532508997,1275
2157.9216192270064,1234
2159.822336513414,1240
2161.7226053850413,1270
2163.622426116884,1332
2165.5217989840185,1275
2167.4207242616,1276
2169.319202224862,1306
2171.2172331491165,1322
2173.1148173097563,1309
2175.0119549822507,1340
2176.90864644215,1319
2178.8048919650823,1255
2180.7006918267534,1281
2182.596046302952,1289
2184.4909556695407,1237
2186.3854202024645,1272
2188.279440177746,1298
2190.173015871487,1345
2192.066147559868,1341
2193.958835519149,1370
2195.851080025667,1283
2197.7428813558417,1338
2199.6342397861667,1346
2201.5251555932186,1310
2203.415629053651,1341
2205.3056604441986,1356
2207.19525004167,1332
2209.084398122958,1313
2210.9731049650327,1321
2212.861370844941,1324
2214.749196039812,1289
2216.636580826851,1298
2218.523525483344,1294
2220.410030286655,1333
2222.296095514226,1303
2224.1817214435805,1368
2226.066908352319,1256
2227.951656518121,1325
2229.835966218746,1314
2231.71983773203,1283
2233.6032713358913,1295
2235.486267308324,1314
2237.3688259274036,1324
2239.2509474712824,1284
2241.132632218193,1361
2243.013880446447,1361
2244.8946924344323,1325
2246.7750684606203,1359
2248.6550088035574,1337
2250.534513741871,1387
2252.413583554265,1363
2254.292218519526,1325
2256.170418916517,1329
2258.0481850241786,1336
2259.925517121534,1336
2261.8024154876825,1328
2263.678880401803,1336
2265.5549121431536,1361
2267.430510991071,1343
2269.305677224971,1346
2271.180411124348,1345
2273.0547129687766,1306
2274.9285830379076,1369
2276.8020216114737,1320
2278.6750289692845,1282
2280.5476053912294,1315
2282.4197511572766,1325
2284.2914665474727,1316
2286.162751841943,1412
2288.0336073208937,1389
2289.904033264608,1396
2291.774029953448,1388
2293.6435976678554,1342
2295.5127366883517,1343
2297.381447295534,1324
2299.2497297700825,1302
2301.1175843927526,1230
2302.9850114443825,1276
2304.852011205885,1233
2306.7185839582553,1176
2308.5847299825664,1197
2310.4504495599676,1234
2312.3157429716925,1165
2314.1806104990483,1142
2316.0450524234247,1118
2317.9090690262888,1155
2319.772660589186,1142
2321.635827393742,1151
2323.498569721661,1121
2325.3608878547248,1164
2327.2227820747967,1126
2329.0842526638157,1164
2330.945299903803,1192
2332.805924076857,1147
2334.6661254651535,1146
2336.525904350951,1098
2338.3852610165827,1104
2340.244195744464,1103
2342.102708817088,1122
2343.9608005170253,1137
2345.8184711269287,1138
2347.675720929526,1179
2349.532550207628,1137
2351.38895924412,1138
2353.24494832197,1119
2355.100517724223,1170
2356.955667734004,1150
2358.810398634514,1163
2360.664710709037,1154
2362.5186042409337,1173
2364.3720795136437,1166
2366.225136810686,1148
2368.0777764156583,1123
2369.929998612237,1161
2371.7818036841777,1161
2373.633191915315,1170
2375.484163589562,1108
2377.3347189909114,1115
2379.184858403434,1097
2381.03458211128,1147
2382.8838903986775,1102
2384.732783549936,1159
2386.5812618494406,1157
2388.4293255816588,1130
2390.2769750311327,1170
2392.1242104824883,1137
2393.971032220427,1180
2395.8174405297295,1137
2397.6634356952563,1132
2399.509018001947,1129
2401.3541877348193,1130
2403.1989451789705,1067
2405.043290619576,1118
2406.8872243418905,1170
2408.730746631247,1142
2410.5738577730594,1134
2412.4165580528183,1150
2414.258847756095,1132
2416.100727168537,1169
2417.9421965758734,1151
2419.783256263912,1115
2421.623906518538,1170
2423.4641476257157,1143
2425.303979871491,1221
2427.143403541984,1190
2428.9824189233977,1162
2430.821026302012,1180
2432.6592259641866,1167
2434.497018196361,1180
2436.33440328505,1177
2438.171381516851,1135
2440.00795317844,1123
2441.844118556569,1109
2443.6798779380724,1177
2445.5152316098606,1168
2447.3501798589255,1140
2449.1847229723357,1139
2451.0188612372403,1180
2452.8525949408663,1131
2454.6859243705203,1146
2456.518849813587,1146
2458.3513715575314,1111
2460.183489889895,1166
2462.015205098301,1115
2463.8465174704493,1137
2465.67742729412,1156
2467.5079348571717,1172
2469.338040447542,1197
2471.1677443532476,1165
2472.9970468623833,1157
2474.825948263123,1171
2476.6544488437207,1196
2478.482548892508,1158
2480.310248697896,1142
2482.137548548374,1208
2483.9644487325118,1149
2485.790949538956,1145
2487.617051256433,1177
2489.44275417375,1141
2491.26805857979,1129
2493.0929647635157,1134
2494.917473013971,1127
2496.741583620276,1172
2498.5652968716304,1102
2500.3886130573137,1136
2502.2115324666834,1180
2504.0340553891765,1178
2505.856182114308,1156
2507.6779129316733,1143
2509.499248130945,1194
2511.3201880018764,1152
2513.140732834298,1138
2514.9608829181198,1126
2516.780638543331,1142
2518.6,1147
2520.418967578273,1098
2522.237541568376,1152
2524.0557222606144,1155
2525.8735099453706,1126
2527.6909049131086,1186
2529.507907454368,1141
2531.32451785977,1155
2533.140736420014,1171
2534.9565634258774,1132
2536.771999168218,1150
2538.5870439379714,1133
2540.4016980261526,1170
2542.2159617238544,1164
2544.02983532225,1125
2545.8433191125914,1149
2547.656413386209,1143
2549.4691184345115,1144
2551.2814345489874,1142
2553.093362021204,1168
2554.904901142808,1139
2556.716052205523,1137
2558.526815501153,1114
2560.3371913215824,1156
2562.147179958771,1132
2563.956781704761,1130
2565.7659968516705,1100
2567.5748256916986,1155
2569.3832685171224,1124
2571.1913256202984,1116
2572.9989972936614,1128
2574.806283829725,1119
2576.613185521084,1130
2578.4197026604074,1090
2580.2258355404483,1118
2582.031584454035,1089
2583.836949694077,1116
2585.6419315535613,1109
2587.4465303255533,1188
2589.2507463032002,1148
2591.0545797797245,1150
2592.8580310484303,1163
2594.6611004026995,1144
2596.463788135992,1172
2598.266094541849,1140
2600.0680199138874,1170
2601.869564545807,1122
2603.670728731383,1129
2605.4715127644704,1179
2607.2719169390048,1132
2609.071941548998,1124
2610.8715868885433,1128
2612.670853251811,1103
2614.469740933052,1100
2616.268250226594,1123
2618.0663814268455,1210
2619.864134828292,1144
2621.6615107255006,1126
2623.458509413115,1159
2625.2551311858597,1164
2627.0513763385347,1125
2628.8472451660223,1114
2630.6427379632833,1159
2632.4378550253564,1164
2634.232596647359,1141
2636.026963124488,1132
2637.8209547520187,1168
2639.6145718253065,1124
2641.407814639785,1130
2643.200683490966,1147
2644.9931786744414,1164
2646.7853004858807,1135
2648.577049221034,1149
2650.3684251757277,1148
2652.1594286458712,1134
2653.9500599274484,1131
2655.740319316525,1122
2657.5302071092437,1120
2659.3197236018286,1098
2661.10886909058,1122
2662.8976438718782,1174
2664.686048242183,1111
2666.4740824980327,1167
2668.2617469360443,1176
2670.0490418529134,1133
2671.8359675454153,1127
2673.622524310403,1160
2675.408712444811,1153
2677.1945322456495,1182
2678.979984010009,1172
2680.76506803506,1178
2682.5497846180497,1083
2684.334134056306,1141
2686.1181166472343,1142
2687.9017326883213,1156
2689.6849824771293,1123
2691.4678663113013,1138
2693.2503844885596,1143
2695.032537306705,1158
2696.8143250636167,1158
2698.5957480572542,1194
2700.3768065856534,1125
2702.1575009469316,1110
2703.937831439283,1126
2705.717798360982,1127
2707.4974020103837,1117
2709.276642685917,1146
2711.055520686095,1149
2712.834036309506,1113
2714.612189854819,1163
2716.389981620782,1144
2718.1674119062204,1146
2719.944481010041,1122
2721.721189231226,1166
2723.4975368688415,1124
2725.273524222027,1106
2727.0491515900053,1119
2728.824419272075,1163
2730.5993275676146,1119
2732.3738767760838,1109
2734.148067197016,1170
2735.921899130031,1112
2737.6953728748194,1203
2739.468488731156,1134
2741.2412469988926,1152
2743.0136479779617,1133
2744.785691968372,1111
2746.5573792702116,1173
2748.3287101836504,1118
2750.099685008934,1102
2751.870304046388,1112
2753.640567596418,1141
2755.4104759595057,1145
2757.1800294362156,1143
2758.949228327187,1159
2760.7180729331412,1128
2762.486563554877,1168
2764.254700493272,1132
2766.022484049284,1146
2767.789914523947,1129
2769.5569922183786,1163
2771.3237174337705,1164
2773.090090471394,1113
2774.8561116326036,1180
2776.6217812188274,1099
2778.3870995315756,1147
2780.1520668724356,1114
2781.9166835430747,1133
2783.6809498452394,1143
2785.444866080754,1121
2787.2084325515225,1172
2788.971649559527,1114
2790.73451740683,1119
2792.4970363955713,1140
2794.2592068279705,1127
2796.0210290063264,1189
2797.7825032330147,1120
2799.543629810493,1124
2801.304409041296,1145
2803.0648412280366,1168
2804.8249266734088,1196
2806.5846656801846,1183
2808.344058551212,1104
2810.1031055894246,1152
2811.8618070978273,1159
2813.6201633795085,1159
2815.378174737636,1163
2817.1358414754536,1180
2818.893163896285,1143
2820.6501423035334,1136
2822.4067770006814,1121
2824.1630682912883,1159
2825.9190164789957,1153
2827.6746218675207,1154
2829.429884760661,1170
2831.184805462294,1160
2832.9393842763743,1129
2834.693621506936,1174
2836.4475174580916,1181
2838.201072434034,1160
2839.954286739034,1150
2841.707160677441,1135
2843.459694553685,1187
2845.2118886722724,1199
2846.96374333779,1170
2848.7152588549034,1160
2850.4664355283567,1160
2852.217273662973,1164
2853.9677735636546,1149
2855.7179355353833,1136
2857.4677598832186,1183
2859.217246912299,1137
2860.9663969278427,1148
2862.715210235146,1115
2864.4636871395846,1145
2866.211827946614,1168
2867.9596329617652,1134
2869.7071024906536,1095
2871.4542368389684,1174
2873.20103631248,1149
2874.947501217038,1153
2876.6936318585695,1149
2878.4394285430812,1180
2880.1848915766604,1189
2881.9300212654707,1145
2883.6748179157553,1145
2885.4192818338374,1153
2887.1634133261173,1102
2888.907212699077,1105
2890.6506802592744,1180
2892.393816313348,1149
2894.1366211680142,1161
2895.8790951300693,1165
2897.621238506388,1140
2899.363051603925,1161
2901.1045347297118,1189
2902.8456881908596,1153
2904.58651229456,1148
2906.327007348081,1168
2908.067173658772,1133
2909.8070115340597,1176
2911.5465212814497,1132
2913.285703208527,1151
2915.0245576229563,1133
2916.7630848324807,1130
2918.5012851449196,1123
2920.2391588681758,1112
2921.976706310227,1145
2923.7139277791334,1130
2925.4508235830313,1160
2927.187394030137,1144
2928.923639428745,1125
2930.6595600872306,1146
2932.395156314046,1179
2934.1304284177218,1197
2935.8653767068713,1193
2937.6000014901815,1235
2939.3343030764227,1212
2941.068281774442,1187
2942.8019378931644,1153
2944.5352717415976,1141
2946.2682836288236,1166
2948.0009738640065,1178
2949.7333427563885,1232
2951.465390615289,1240
2953.1971177501086,1208
2954.9285244703265,1123
2956.6596110855,1174
2958.3903779052657,1163
2960.1208252393385,1129
2961.8509533975125,1145
2963.5807626896617,1146
2965.3102534257378,1169
2967.0394259157715,1134
2968.768280469873,1133
2970.496817398232,1146
2972.2250370111146,1148
2973.952939618869,1154
2975.6805255319196,1184
2977.4077950607707,1141
2979.134748516006,1148
2980.861386208289,1174
2982.587708448359,1148
2984.313715547037,1204
2986.039407815222,1140
2987.764785563891,1148
2989.489849104102,1124
2991.2145987469908,1161
2992.9390348037705,1112
2994.6631575857346,1189
2996.3869674042576,1196
2998.1104645707887,1224
2999.83364939686,1186
3001.5565221940783,1128
3003.2790832741334,1097
3005.0013329487924,1136
3006.7232715298996,1131
3008.4448993293804,1123
3010.166216659239,1140
3011.887223831558,1134
3013.607921158498,1093
3015.3283089522993,1147
3017.0483875252826,1141
3018.7681571898443,1194
3020.4876182584626,1127
3022.2067710436927,1110
3023.9256158581707,1100
3025.644153014609,1151
3027.362382825801,1153
3029.0803056046193,1217
3030.797921664012,1138
3032.5152313170106,1135
3034.2322348767225,1166
3035.9489326563353,1090
3037.665324969115,1116
3039.3814121284063,1103
3041.097194447633,1142
3042.812672240299,1163
3044.5278458199855,1151
3046.2427155003525,1168
3047.9572815951406,1144
3049.671544418167,1142
3051.38550428333,1108
3053.0991615046073,1136
3054.812516396051,1129
3056.5255692717974,1106
3058.2383204460575,1154
3059.9507702331257,1059
3061.662918947372,1127
3063.3747669032446,1128
3065.0863144152736,1112
3066.7975617980674,1160
3068.508509366309,1097
3070.219157434767,1149
3071.9295063182844,1162
3073.639556331785,1151
3075.3493077902704,1146
3077.058761008821,1122
3078.7679163025964,1134
3080.476773986837,1133
3082.1853343768594,1125
3083.89359778806,1089
3085.6015645359153,1169
3087.3092349359786,1160
3089.016609303884,1050
3090.7236879553434,1155
3092.4304712061476,1118
3094.136959372166,1090
3095.843152769349,1121
3097.5490517137237,1111
3099.2546565213966,1135
3100.959967508554,1142
3102.66498499146,1178
3104.3697092864577,1143
3106.0741407099695,1130
3107.778279578498,1101
3109.482126208622,1163
3111.1856809170004,1143
3112.8889440203716,1139
3114.5919158355528,1156
3116.294596679439,1115
3117.996986869006,1172
3119.6990867213062,1113
3121.4008965534726,1140
3123.102416682717,1124
3124.803647426329,1145
3126.5045891016784,1135
3128.205242026213,1188
3129.90560651746,1181
3131.605682893025,1153
3133.3054714705922,1116
3135.0049725679282,1080
3136.7041865028714,1139
3138.4031135933465,1116
3140.101754157353,1176
3141.800108512971,1167
3143.498176978357,1140
3145.1959598717494,1176
3146.8934575114636,1176
3148.5906702158954,1110
3150.2875983035183,1104
3151.9842420928853,1158
3153.680601902627,1142
3155.376678051456,1128
3157.07247085816,1157
3158.767980641609,1123
3160.463207720748,1152
3162.158152414606,1101
3163.8528150422862,1160
3165.5471959229726,1105
3167.2412953759303,1104
3168.9351137204976,1083
3170.628651276098,1157
3172.3219083622307,1115
3174.014885298474,1164
3175.707582404485,1120
3177.4000000000005,1168
3179.092138404835,1112
3180.7839979388846,1146
3182.47557892212,1125
3184.166881674594,1196
3185.8579065164386,1219
3187.5486537678626,1128
3189.2391237491547,1127
3190.9293167806827,1119
3192.6192331828934,1158
3194.3088732763117,1105
3195.998237381542,1126
3197.687325819268,1146
3199.376138910251,1102
3201.064676975334,1102
3202.7529403354347,1152
3204.4409293115523,1138
3206.1286442247647,1105
3207.816085396229,1110
3209.5032531471825,1110
3211.190147798936,1106
3212.8767696728846,1117
3214.5631190905015,1183
3216.2491963733373,1127
3217.9350018430214,1089
3219.6205358212637,1118
3221.305798629851,1077
3222.990790590651,1096
3224.6755120256103,1187
3226.359963256751,1121
3228.0441446061795,1058
3229.7280563960758,1101
3231.411698948703,1112
3233.0950725863995,1172
3234.778177631587,1113
3236.461014406761,1115
3238.1435832345005,1137
3239.8258844374595,1146
3241.507918338374,1140
3243.1896852600576,1155
3244.8711855254023,1137
3246.552419457381,1123
3248.233387379042,1115
3249.914089613516,1135
3251.59452648401,1155
3253.274698313813,1122
3254.95460542629,1152
3256.6342481448855,1112
3258.313626793125,1121
3259.9927416946084,1115
3261.6715931730196,1129
3263.3501815521176,1149
3265.0285071557437,1133
3266.706570307815,1138
3268.3843713323286,1088
3270.0619105533615,1131
3271.739188295068,1117
3273.4162048816834,1146
3275.0929606375184,1085
3276.769455886966,1162
3278.445690954498,1147
3280.1216661646613,1150
3281.797381842087,1147
3283.4728383114807,1099
3285.1480358976296,1124
3286.8229749253996,1104
3288.4976557197333,1117
3290.172078605655,1095
3291.846243908266,1100
3293.5201519527463,1083
3295.193803064357,1116
3296.8671975684374,1138
3298.5403357904024,1147
3300.21321805575,1107
3301.8858446900567,1132
3303.558216018975,1125
3305.23033236824,1111
3306.9021940636603,1131
3308.57380143113,1127
3310.2451547966184,1122
3311.916254486174,1153
3313.5871008259246,1147
3315.2576941420766,1154
3316.9280347609147,1096
3318.5981230088046,1082
3320.2679592121895,1126
3321.9375436975924,1125
3323.606876791612,1132
3325.27595882093,1137
3326.944790112305,1091
3328.6133709925753,1097
3330.2817017886573,1111
3331.949782827547,1140
3333.617614436319,1145
3335.2851969421245,1107
3336.952530672199,1153
3338.619615953853,1143
3340.286453114475,1137
3341.9530424815357,1132
3343.619384382583,1170
3345.2854791452437,1160
3346.951327097224,1134
3348.6169285663073,1125
3350.2822838803577,1125
3351.947393367319,1117
3353.61225735521,1095
3355.2768761721345,1157
3356.9412501462693,1086
3358.605379605873,1128
3360.2692648792827,1144
3361.9329062949146,1154
3363.596304181263,1131
