CollectionTime,7/3/2024 2:49:28 PM
ExposureUsed,3
CalibratedSpectrum
-962.7078968117929,440
-959.9714848408522,472
-957.2358232597828,455
-954.5009119013725,475
-951.7667505983302,475
-949.0333391832855,474
-946.3006774887896,463
-943.5687653473143,509
-940.837602591253,472
-938.1071890529199,470
-935.3775245645503,466
-932.6486089583007,505
-929.9204420662485,519
-927.1930237203925,471
-924.4663537526524,466
-921.7404319948689,479
-919.0152582788041,482
-916.2908324361409,535
-913.5671542984834,511
-910.8442236973568,467
-908.1220404642074,475
-905.4006044304027,480
-902.679915427231,472
-899.959973285902,470
-897.2407778375464,441
-894.5223289132158,488
-891.8046263438832,458
-889.0876699604426,468
-886.3714595937089,487
-883.6559950744183,464
-880.9412762332282,485
-878.2273029007168,464
-875.5140749073835,465
-872.8015920836489,473
-870.0898542598545,473
-867.3788612662631,462
-864.6686129330585,440
-861.9591090903457,467
-859.2503495681506,463
-856.5423341964203,453
-853.8350628050229,475
-851.1285352237478,465
-848.4227512823054,473
-845.7177108103272,452
-843.0134136373656,489
-840.3098595928943,471
-837.6070485063082,523
-834.9049802069229,485
-832.2036545239757,469
-829.5030712866244,462
-826.8032303239481,490
-824.1041314649472,470
-821.4057745385428,503
-818.7081593735775,484
-816.0112857988148,477
-813.3151536429393,489
-810.6197627345566,501
-807.9251129021936,512
-805.2312039742981,498
-802.5380357792392,470
-799.8456081453069,487
-797.1539209007124,487
-794.462973873588,515
-791.772766891987,512
-789.083299783884,497
-786.3945723771743,470
-783.7065844996748,498
-781.0193359791231,470
-778.3328266431781,502
-775.6470563194197,494
-772.9620248353489,507
-770.2777320183878,461
-767.5941776958798,512
-764.9113616950891,472
-762.2292838432011,509
-759.5479439673222,470
-756.8673418944801,497
-754.1874774516235,481
-751.5083504656222,491
-748.8299607632671,494
-746.15230817127,531
-743.475392516264,541
-740.7992136248035,503
-738.1237713233636,500
-735.4490654383407,501
-732.7750957960521,510
-730.1018622227365,537
-727.4293645445534,532
-724.7576025875837,496
-722.0865761778291,505
-719.4162851412126,522
-716.7467293035781,536
-714.0779084906909,509
-711.409822528237,526
-708.7424712418238,519
-706.0758544569796,511
-703.4099719991541,526
-700.7448236937178,539
-698.0804093659622,531
-695.4167288411002,531
-692.7537819442656,491
-690.0915685005134,481
-687.4300883348199,499
-684.7693412720819,525
-682.1093271371178,494
-679.4500457546669,515
-676.7914969493897,521
-674.1336805458676,535
-671.4765963686034,547
-668.8202442420206,560
-666.1646239904642,566
-663.5097354382001,511
-660.8555784094151,509
-658.2021527282176,512
-655.5494582186366,526
-652.8974947046223,558
-650.2462620100463,548
-647.5957599587009,539
-644.9459883742998,558
-642.2969470804776,544
-639.6486359007902,580
-637.0010546587141,593
-634.3542031776476,571
-631.7080812809096,565
-629.0626887917401,554
-626.4180255333008,529
-623.7740913286734,546
-621.1308860008619,605
-618.4884093727904,612
-615.8466612673046,552
-613.2056415071715,539
-610.5653499150785,571
-607.9257863136347,596
-605.28695052537,595
-602.6488423727357,588
-600.0114616781036,558
-597.3748082637674,543
-594.7388819519412,601
-592.1036825647604,657
-589.4692099242818,654
-586.8354638524829,561
-584.2024441712624,594
-581.5701507024403,583
-578.9385832677575,572
-576.3077416888759,622
-573.6776257873787,579
-571.0482353847704,577
-568.4195703024757,606
-565.7916303618415,597
-563.164415384135,611
-560.5379251905453,604
-557.9121596021815,597
-555.2871184400748,636
-552.6628015251767,574
-550.0392086783606,606
-547.4163397204204,606
-544.794194472071,646
-542.1727727539491,682
-539.5520743866118,708
-536.9320991905377,694
-534.3128469861261,657
-531.6943175936979,716
-529.0765108334947,735
-526.4594265256793,771
-523.8430644903358,914
-521.2274245474689,1078
-518.612506517005,1171
-515.9983102187913,1181
-513.3848354725959,1219
-510.77208209810846,1492
-508.16004991493924,1638
-505.5487387426199,1695
-502.9381484006032,1599
-500.3282787082628,1448
-497.71912948489364,1215
-495.1107005497117,1010
-492.5029917218539,891
-489.8960028203786,796
-487.28973366426493,723
-484.68418407241325,739
-482.07935386364494,746
-479.47524285670266,733
-476.87185087025,738
-474.2691777228715,730
-471.66722323307334,711
-469.0659872192821,689
-466.4654694998459,717
-463.86566989303384,772
-461.26658821703614,759
-458.66822428996414,733
-456.07057792985,727
-453.4736489546475,717
-450.877437182231,739
-448.28194243039627,699
-445.68716451686,743
-443.09310325926003,733
-440.49975847515555,738
-437.9071299820263,747
-435.31521759727354,762
-432.72402113821954,754
-430.13354042210767,751
-427.5437752661022,789
-424.95472548728867,803
-422.36639090267386,749
-419.7787713291855,807
-417.1918665836721,851
-414.60567648290385,798
-412.0202008435715,813
-409.4354394822874,843
-406.8513922155845,789
-404.26805885991723,814
-401.685439231661,856
-399.103533147112,898
-396.522340422488,795
-393.9418608739278,765
-391.3620943174908,800
-388.7830405691583,764
-386.2046994448317,717
-383.6270707603344,738
-381.05015433141045,736
-378.473949973725,687
-375.8984575028645,689
-373.32367673433623,663
-370.74960748356875,656
-368.1762495659117,652
-365.60360279663576,580
-363.03166699093265,531
-360.4604419639154,553
-357.8899275306178,529
-355.32012350599507,532
-352.7510297049233,517
-350.1826459421999,483
-347.61497203254316,510
-345.04800779059235,493
-342.4817530309082,470
-339.91620756797226,509
-337.35137121618743,564
-334.7872437898774,583
-332.22382510328725,564
-329.66111497058273,505
-327.09911320585127,518
-324.53781962310075,528
-321.9772340362607,528
-319.4173562591816,519
-316.8581861056348,503
-314.2997233893127,484
-311.7419679238294,510
-309.1849195227194,494
-306.62857799943856,539
-304.0729431673641,613
-301.51801483979375,590
-298.963792829947,561
-296.41027695096386,548
-293.85746701590574,549
-291.3053628377552,607
-288.7539642294155,660
-286.2032710037115,594
-283.65328297338897,620
-281.1039999511146,679
-278.5554217494762,642
-276.007548180983,590
-273.4603790580651,609
-270.9139141930734,614
-268.3681533982807,546
-265.8230964858798,598
-263.27874326798565,672
-260.7350935566336,607
-258.1921471637804,647
-255.6499039013039,670
-253.10836358100266,659
-250.56752601459698,637
-248.02739101372765,735
-245.48795838995704,708
-242.94922795476816,705
-240.41119951956557,706
-237.8738728956746,732
-235.33724789434166,710
-232.80132432673452,677
-230.2661020039418,675
-227.73158073697357,792
-225.19776033676033,854
-222.66464061415422,867
-220.1322213799284,751
-217.60050244477725,687
-215.06948361931552,648
-212.53916471408013,786
-210.00954553952818,796
-207.48062590603843,763
-204.9524056239104,737
-202.4248845033651,881
-199.8980623545441,952
-197.37193898751036,864
-194.84651421224817,879
-192.32178783866232,853
-189.79775967657952,899
-187.27442953574644,984
-184.7517972258321,1033
-182.2298625564256,949
-179.7086253370378,846
-177.18808537710026,816
-174.66824248596583,923
-172.14909647290835,1000
-169.6306471471229,908
-167.11289431772548,816
-164.59583779375328,861
-162.07947738416453,871
-159.5638128978386,1006
-157.04884414357605,1357
-154.53457093009854,1440
-152.02099306604828,1197
-149.50811035998936,927
-146.99592262040665,988
-144.48442965570587,1304
-141.97363127421409,1654
-139.46352728417958,2018
-136.95411749377126,2174
-134.44540171107985,1812
-131.93737974411636,1244
-129.43005140081357,1217
-126.92341648902493,1305
-124.41747481652521,1859
-121.91222619101006,2925
-119.40767042009657,4291
-116.90380731132257,4476
-114.40063667214702,3616
-111.8981583099503,2195
-109.3963720320337,1636
-106.89527764561933,1822
-104.39487495785067,2752
-101.89516377579241,3755
-99.39614390642998,4438
-96.89781515667039,3709
-94.40017733334128,4601
-91.90323024319173,8170
-89.40697369289148,14663
-86.91140748903172,17172
-84.41653143812482,10737
-81.92234534660395,4781
-79.42884902082358,6283
-76.93604226705907,16158
-74.4439248915071,28299
-71.95249670028534,35103
-69.46175749943245,31589
-66.97170709490854,24226
-64.48234529259423,17426
-61.99367189829195,14703
-59.50568671772464,13124
-57.01838955653636,10232
-54.53178022029283,8344
-52.045858514480074,9319
-49.560624244506016,11486
-47.07607721569923,12517
-44.59221723330904,12044
-42.10904410250669,11531
-39.62655762838392,11902
-37.14475761595372,12633
-34.66364387015028,14762
-32.18321619582866,15324
-29.70347439776515,15444
-27.224418280657005,18828
-24.74604764912317,22218
-22.26836230770266,28217
-19.7913620608565,49813
-17.315046712966478,65039
-14.83941606833514,65039
-12.36446993118659,65039
-9.89020810566592,65039
-7.416630395839093,65039
-4.94373660569363,65039
-2.471526539137585,65039
-6.821210263296962E-13,65039
2.47084320796705,65039
4.941003281093458,65039
7.410480415786196,65039
9.879274808531363,65039
12.347386655893956,65039
14.814816154518212,65039
17.28156350112681,65039
19.74762889252179,65039
22.21301252558385,65039
24.67771459727237,21171
27.141735304626195,4619
29.605074844762612,3063
32.06773341487792,2981
34.52971121224755,3252
36.99100843422559,2503
39.45162527824516,1965
41.91156194181792,2091
44.370818622535126,1967
46.82939551806646,1740
49.287292826160524,1703
51.74451074464503,2061
54.201049471426245,2249
56.65690920448981,2076
59.112090141899785,1621
61.56659248179983,1359
64.02041642241159,1202
66.4735621620365,1198
68.92602989905402,1327
71.37781983192338,1760
73.82893215918205,1932
76.27936707944684,1708
78.72912479141326,1483
81.17820549385567,1744
83.62660938562783,1823
86.07433666566146,1446
88.5213875329681,1169
90.96776218663751,1147
93.41346082583925,1106
95.85848364982041,1169
98.30283085790859,1471
100.7465026495089,1550
103.18949922410604,1208
105.63182078126385,1408
108.07346752062438,1333
110.51443964190923,1147
112.95473734491827,1134
115.39436082953114,1140
117.83331029570547,1085
120.27158594347827,1187
122.7091879729652,1147
125.1461165843615,1199
127.58237197794062,1143
130.01795435405518,1046
132.4528639131364,1069
134.88710085569494,1136
137.32066538231982,1099
139.75355769367923,1034
142.1857779905207,989
144.61732647366978,1041
147.04820334403132,940
149.47840880258934,1006
151.90794305040674,1030
154.33680628862487,1046
156.76499871846443,1213
159.19252054122433,1360
161.61937195828352,1306
164.04555317109896,1406
166.47106438120693,1430
168.89590579022217,1601
171.320077599839,1795
173.7435800118302,1849
176.16641322804742,1888
178.58857745042144,1948
181.01007288096173,2033
183.43089972175687,2021
185.85105817497413,1892
188.27054844285988,1953
190.6893707277394,2055
193.10752523201643,2081
195.5250121581745,1996
197.9418317087751,2058
200.3579840864594,2102
202.7734694939469,1999
205.18828813403627,1982
207.6024402096051,2184
210.01592592360964,2221
212.42874547908548,2236
214.84089907914665,2215
217.2523869269868,2173
219.66320922587727,2126
222.0733661791695,2120
224.48285799029293,2213
226.8916848627572,2140
229.29984700014882,2216
231.7073446061355,2215
234.11417788446204,2184
236.520347038953,2218
238.92585227351185,2232
241.33069379212054,2280
243.73487179884035,2305
246.1383864978112,2279
248.541238093252,2203
250.9434267894609,2122
253.34495279081432,2180
255.74581630176783,2113
258.1460175268563,2149
260.54555667069314,2193
262.9444339379703,2109
265.3426495334594,2124
267.7402036620107,2200
270.1370965285529,2229
272.53332833809407,2278
274.9288992957214,2224
277.32380960660055,2192
279.718059475976,2170
282.1116491091717,2187
284.5045787115897,2196
286.89684848871195,2075
289.2884586460981,2153
291.67940938938807,2190
294.0697009242996,2188
296.4593334566299,2250
298.84830719225477,2130
301.23662233712923,2145
303.6242790972866,2197
306.01127767884,2168
308.39761828798066,2185
310.78330113097934,2063
313.16832641418534,2045
315.5526943440269,2012
317.9364051270112,1956
320.3194589697242,1990
322.70185607883093,2020
325.0835966610754,2075
327.4646809232805,1933
329.8451090723478,2041
332.2248813152577,1939
334.6039978590701,1981
336.9824589109231,1955
339.36026467803447,2067
341.7374153677,1834
344.113911187295,1877
346.48975234427337,1910
348.8649390461686,1914
351.2394715005918,1945
353.61334991523415,1912
355.9865744978655,1860
358.35914545633375,1873
360.73106299856715,1904
363.10232733257146,1860
365.47293866643247,1816
367.84289720831396,1805
370.2122031664593,1796
372.5808567491905,1848
374.9488581649083,1810
377.31620762209275,1769
379.6829053293021,1759
382.0489514951745,1782
384.4143463284262,1763
386.7790900378528,1731
389.14318283232853,1789
391.50662492080653,1723
393.86941651231916,1787
396.23155781597745,1810
398.5930490409713,1802
400.9538903965696,1788
403.3140820921202,1746
405.6736243370498,1813
408.03251734086336,1726
410.3907613131465,1679
412.74835646356166,1920
415.10530300185144,1730
417.4616011378372,1685
419.81725108141893,1733
422.1722530425758,1787
424.5266072313656,1710
426.880313857925,1728
429.2333731324701,1740
431.58578526529516,1679
433.9375504667738,1720
436.2886689473588,1737
438.63914091758113,1704
440.9889665880513,1635
443.33814616945835,1708
445.68667987257015,1708
448.03456790823395,1689
450.3818104873759,1626
452.72840782100013,1662
455.07436012019105,1665
457.41966759611057,1632
459.7643304600007,1653
462.10834892318155,1657
464.4517231970525,1665
466.79445349309174,1645
469.1365400228566,1680
471.4779829979826,1697
473.81878263018564,1635
476.15893913125876,1654
478.4984527130747,1731
480.8373235875855,1685
483.17555196682144,1815
485.5131380628919,1852
487.8500820879857,1864
490.1863842543697,1831
492.52204477439034,1982
494.8570638604725,2159
497.1914417251204,2287
499.52517858091653,2645
501.85827464052306,3129
504.19073011668036,3831
506.5225452222086,4270
508.85372017000566,4651
511.18425517304956,4851
513.514150444396,4888
515.8434061971808,5496
518.1720226446176,6575
520.4999999999999,6444
522.8273384766991,5805
525.1540382881666,4798
527.480099647932,4138
529.8055227696037,3303
532.1303078668694,2608
534.454455153496,2217
536.777964843328,2060
539.1008371502907,1988
541.4230722883866,1889
543.744670471698,1844
546.0656319143858,1929
548.3859568306899,1842
550.7056454349294,1798
553.0246979415016,1818
555.3431145648834,1756
557.6608955196306,1734
559.978041020377,1682
562.2945512818363,1679
564.6104265188006,1714
566.9256669461412,1698
569.2402727788082,1723
571.5542442318302,1725
573.8675815203156,1723
576.1802848594508,1719
578.4923544645015,1738
580.8037905508126,1778
583.114593333807,1737
585.4247630289875,1680
587.7342998519354,1678
590.0432040183106,1655
592.3514757438526,1678
594.6591152443794,1695
596.9661227357875,1724
599.2724984340531,1684
601.578242555231,1791
603.8833553154542,1787
606.1878369309362,1771
608.4916876179676,1832
610.7949075929192,1815
613.0974970722403,1771
615.3994562724587,1679
617.7007854101818,1716
620.0014847020951,1709
622.3015543649641,1745
624.6009946156324,1780
626.8998056710224,1788
629.1979877481361,1664
631.4955410640538,1807
633.7924658359349,1773
636.0887622810175,1770
638.3844306166192,1712
640.6794710601358,1699
642.9738838290426,1742
645.2676691408932,1774
647.5608272133207,1792
649.853358264037,1749
652.1452625108324,1695
654.4365401715764,1746
656.7271914642178,1841
659.0172166067838,1796
661.3066158173809,1733
663.5953893141935,1800
665.8835373154867,1788
668.1710600396028,1787
670.4579577049639,1803
672.7442305300709,1797
675.0298787335033,1761
677.3149025339197,1838
679.599302150058,1734
681.8830778007342,1718
684.1662297048437,1774
686.4487580813608,1791
688.7306631493387,1821
691.0119451279091,1806
693.2926042362834,1751
695.5726406937516,1711
697.8520547196814,1790
700.1308465335215,1769
702.4090163547982,1727
704.6865644031171,1717
706.9634908981619,1727
709.2397960596965,1740
711.5154801075631,1736
713.7905432616823,1772
716.0649857420548,1769
718.3388077687592,1814
720.612009561953,1805
722.8845913418733,1809
725.1565533288352,1723
727.427895743234,1712
729.6986188055427,1786
731.9687227363137,1854
734.238207756178,1802
736.5070740858458,1786
738.7753219461066,1740
741.0429515578281,1756
743.3099631419569,1704
745.5763569195191,1774
747.8421331116193,1701
750.1072919394409,1773
752.3718336242467,1779
754.6357583873777,1793
756.8990664502545,1753
759.1617580343765,1793
761.423833361321,1818
763.6852926527457,1750
765.9461361303862,1780
768.206364016058,1828
770.4659765316536,1810
772.7249738991469,1766
774.9833563405886,1767
777.2411240781092,1743
779.4982773339183,1771
781.7548163303044,1774
784.010741289634,1849
786.2660524343538,1923
788.5207499869881,1869
790.7748341701416,1879
793.0283052064964,1819
795.2811633188143,1817
797.5334087299362,1811
799.7850416627813,1767
802.0360623403484,1752
804.2864709857143,1775
806.5362678220353,1885
808.7854530725468,1835
811.0340269605625,1752
813.2819897094754,1836
815.5293415427581,1744
817.77608268396,1796
820.0222133567116,1819
822.2677337847211,1778
824.5126441917765,1808
826.7569448017433,1828
829.0006358385675,1717
831.2437175262731,1699
833.4861900889629,1764
835.7280537508192,1745
837.9693087361026,1782
840.2099552691533,1756
842.4499935743896,1703
844.689423876309,1765
846.9282463994886,1841
849.1664613685833,1835
851.4040690083276,1793
853.6410695435349,1858
855.877463199097,1796
858.1132501999847,1804
860.3484307712487,1807
862.5830051380175,1812
864.8169735254988,1800
867.0503361589791,1842
869.2830932638243,1755
871.5152450654786,1756
873.7467917894654,1847
875.9777336613873,1787
878.2080709069252,1812
880.4378037518389,1882
882.666932421968,1864
884.8954571432301,1794
887.1233781416219,1801
889.3506956432192,1804
891.5774098741766,1763
893.803521060728,1806
896.0290294291852,1762
898.2539352059397,1795
900.4782386174619,1804
902.7019398903011,1788
904.925039251085,1871
907.147536926521,1768
909.3694331433943,1805
911.59072812857,1779
913.8114221089921,1799
916.0315153116827,1775
918.2510079637437,1740
920.4699002923547,1776
922.6881925247761,1794
924.905884888345,1804
927.1229776104793,1817
929.3394709186747,1819
931.555365040506,1807
933.7706602036275,1842
935.9853566357709,1894
938.1994545647489,1867
940.4129542184515,1865
942.6258558248488,1896
944.8381596119883,1799
947.0498658079974,1796
949.2609746410825,1894
951.4714863395287,1823
953.6814011316998,1824
955.8907192460387,1878
958.0994409110671,1846
960.3075663553858,1787
962.5150958076741,1832
964.7220294966913,1801
966.928367651274,1858
969.1341105003388,1763
971.3392582728806,1722
973.5438111979742,1733
975.747769504772,1746
977.9511334225061,1746
980.153903180487,1702
982.3560790081052,1710
984.5576611348289,1730
986.7586497902058,1694
988.9590452038618,1762
991.158847605503,1749
993.3580572249133,1621
995.5566742919558,1622
997.7546990365728,1618
999.952131688785,1563
1002.1489724786926,1530
1004.3452216364743,1494
1006.5408793923874,1577
1008.7359459767691,1535
1010.9304216200343,1550
1013.1243065526781,1476
1015.3176010052733,1416
1017.510305208472,1433
1019.7024193930064,1405
1021.8939437896848,1439
1024.0848786293977,1400
1026.2752241431122,1445
1028.4649805618747,1415
1030.6541481168115,1416
1032.842727039127,1367
1035.0307175601051,1385
1037.2181199111074,1367
1039.4049343235752,1322
1041.591161029029,1382
1043.7768002590683,1371
1045.9618522453698,1378
1048.1463172196918,1332
1050.3301954138697,1390
1052.513487059818,1364
1054.69619238953,1296
1056.8783116350783,1360
1059.0598450286152,1385
1061.2407928023704,1352
1063.4211551886528,1373
1065.6009324198508,1349
1067.780124728432,1370
1069.9587323469414,1334
1072.1367555080046,1328
1074.314194444325,1335
1076.4910493886855,1353
1078.667320573947,1309
1080.843008233051,1302
1083.0181125990161,1312
1085.1926339049414,1289
1087.3665723840027,1260
1089.5399282694575,1249
1091.7127017946405,1249
1093.8848931929647,1279
1096.0565026979243,1236
1098.2275305430899,1290
1100.3979769621128,1307
1102.567842188722,1277
1104.737126456726,1252
1106.9058300000124,1197
1109.0739530525475,1285
1111.2414958483764,1237
1113.4084586216231,1211
1115.5748416064907,1151
1117.7406450372605,1274
1119.9058691482942,1258
1122.0705141740304,1303
1124.2345803489884,1294
1126.3980679077658,1277
1128.5609770850388,1278
1130.7233081155623,1304
1132.8850612341707,1251
1135.0462366757774,1190
1137.2068346753745,1236
1139.3668554680326,1291
1141.526299288901,1230
1143.68516637321,1232
1145.8434569562655,1185
1148.001171273455,1227
1150.158309560244,1219
1152.3148720521767,1214
1154.470858984876,1180
1156.626270594044,1222
1158.7811071154629,1217
1160.9353687849912,1164
1163.089055838569,1244
1165.242168512213,1219
1167.3947070420209,1192
1169.5466716641677,1263
1171.6980626149075,1214
1173.8488801305748,1182
1175.9991244475814,1241
1178.1487958024186,1208
1180.2978944316555,1180
1182.4464205719428,1224
1184.5943744600072,1197
1186.7417563326567,1181
1188.8885664267755,1216
1191.0348049793297,1181
1193.1804722273619,1170
1195.325568407995,1222
1197.4700937584303,1208
1199.614048515948,1207
1201.7574329179074,1176
1203.900247201746,1222
1206.042491604982,1203
1208.1841663652099,1209
1210.3252717201053,1187
1212.465807907422,1246
1214.6057751649923,1252
1216.7451737307279,1158
1218.8840038426192,1235
1221.0222657387353,1208
1223.1599596572241,1161
1225.2970858363137,1233
1227.4336445143094,1213
1229.5696359295966,1199
1231.705060320639,1208
1233.8399179259786,1206
1235.9742089842384,1221
1238.107933734118,1210
1240.2410924143974,1236
1242.373685263935,1250
1244.5057125216676,1236
1246.6371744266116,1206
1248.7680712178621,1193
1250.898403134593,1300
1253.028170416058,1244
1255.1573733015875,1193
1257.2860120305932,1195
1259.4140868425648,1207
1261.54159797707,1215
1263.6685456737569,1205
1265.7949301723515,1231
1267.9207517126597,1196
1270.046010534565,1172
1272.1707068780306,1221
1274.2948409830983,1181
1276.4184130898889,1210
1278.541423438603,1204
1280.6638722695184,1243
1282.785759822993,1198
1284.9070863394636,1219
1287.0278520594447,1238
1289.1480572235314,1272
1291.2677020723963,1246
1293.3867868467923,1216
1295.5053117875495,1186
1297.623277135579,1189
1299.740683131868,1248
1301.8575300174857,1225
1303.973818033578,1246
1306.0895474213703,1184
1308.2047184221678,1164
1310.3193312773528,1214
1312.4333862283888,1209
1314.5468835168163,1208
1316.659823384255,1236
1318.7722060724045,1213
1320.8840318230418,1170
1322.9953008780249,1255
1325.1060134792888,1264
1327.2161698688478,1197
1329.3257702887959,1234
1331.4348149813054,1202
1333.5433041886276,1211
1335.6512381530933,1164
1337.7586171171101,1238
1339.8654413231675,1228
1341.9717110138317,1240
1344.0774264317488,1234
1346.1825878196432,1160
1348.2871954203192,1281
1350.3912494766587,1210
1352.4947502316231,1209
1354.5976979282532,1270
1356.7000928096686,1213
1358.8019351190665,1221
1360.9032250997243,1225
1363.0039629949988,1247
1365.1041490483235,1207
1367.2037835032133,1200
1369.3028666032606,1261
1371.401398592137,1188
1373.4993797135926,1256
1375.5968102114575,1231
1377.6936903296396,1245
1379.7900203121262,1247
1381.8858004029835,1260
1383.9810308463561,1204
1386.075711886469,1187
1388.1698437676241,1239
1390.2634267342032,1238
1392.356461030667,1202
1394.4489469015557,1222
1396.5408845914872,1265
1398.6322743451592,1236
1400.7231164073469,1284
1402.813411022907,1242
1404.903158436773,1282
1406.9923588939578,1256
1409.0810126395531,1280
1411.1691199187303,1252
1413.2566809767386,1219
1415.343696058907,1265
1417.4301654106425,1253
1419.5160892774315,1308
1421.6014679048399,1280
1423.6863015385125,1285
1425.7705904241707,1232
1427.8543348076178,1284
1429.9375349347342,1263
1432.0201910514802,1295
1434.102303403894,1268
1436.1838722380944,1270
1438.2648978002767,1260
1440.3453803367174,1242
1442.4253200937692,1270
1444.5047173178677,1270
1446.5835722555234,1237
1448.6618851533285,1265
1450.739656257952,1267
1452.8168858161434,1289
1454.8935740747306,1298
1456.96972128062,1254
1459.045327680797,1294
1461.120393522327,1239
1463.1949190523528,1257
1465.2689045180973,1294
1467.3423501668608,1283
1469.415256246024,1323
1471.4876230030463,1307
1473.559450685465,1293
1475.6307395408976,1248
1477.7014898170391,1283
1479.771701761665,1297
1481.8413756226287,1290
1483.9105116478618,1253
1485.9791100853772,1284
1488.0471711832643,1275
1490.1146951896926,1277
1492.1816823529098,1283
1494.2481329212433,1255
1496.3140471430984,1234
1498.3794252669609,1257
1500.4442675413939,1291
1502.5085742150404,1264
1504.572345536622,1300
1506.6355817549388,1294
1508.6982831188702,1287
1510.7604498773744,1193
1512.8220822794883,1249
1514.8831805743293,1227
1516.9437450110909,1291
1519.003775839048,1335
1521.0632733075522,1361
1523.1222376660367,1304
1525.1806691640113,1307
1527.2385680510652,1295
1529.2959345768668,1292
1531.3527689911643,1273
1533.4090715437833,1251
1535.4648424846291,1334
1537.5200820636855,1363
1539.5747905310159,1304
1541.6289681367616,1266
1543.6826151311434,1264
1545.7357317644614,1325
1547.7883182870937,1267
1549.8403749494987,1301
1551.8919020022113,1287
1553.9428996958477,1277
1555.9933682811015,1309
1558.0433080087469,1324
1560.0927191296346,1265
1562.1416018946961,1295
1564.1899565549415,1267
1566.2377833614592,1237
1568.2850825654164,1278
1570.3318544180606,1258
1572.3780991707158,1265
1574.423817074788,1255
1576.4690083817595,1311
1578.5136733431923,1339
1580.5578122107272,1316
1582.601425236085,1240
1584.6445126710646,1289
1586.6870747675434,1251
1588.7291117774776,1310
1590.7706239529034,1338
1592.8116115459347,1323
1594.8520748087658,1247
1596.8920139936686,1260
1598.9314293529933,1307
1600.9703211391711,1307
1603.008689604711,1295
1605.0465350022005,1266
1607.0838575843068,1266
1609.1206576037753,1264
1611.1569353134305,1296
1613.1926909661765,1332
1615.2279248149953,1310
1617.2626371129481,1259
1619.2968281131757,1303
1621.3304980688963,1225
1623.3636472334088,1323
1625.39627586009,1246
1627.428384202396,1328
1629.459972513861,1322
1631.4910410480993,1275
1633.5215900588028,1283
1635.551619799744,1303
1637.5811305247717,1242
1639.6101224878166,1290
1641.6385959428862,1249
1643.6665511440683,1274
1645.693988345528,1253
1647.7209078015112,1291
1649.7473097663405,1241
1651.7731944944203,1275
1653.7985622402307,1291
1655.823413258333,1331
1657.847747803366,1313
1659.8715661300494,1272
1661.8948684931793,1234
1663.9176551476316,1255
1665.9399263483624,1308
1667.9616823504057,1333
1669.982923408873,1240
1672.0036497789574,1299
1674.0238617159293,1250
1676.043559475138,1344
1678.0627433120121,1257
1680.081413482059,1293
1682.0995702408654,1307
1684.117213844096,1319
1686.134344547495,1310
1688.1509626068864,1296
1690.1670682781705,1241
1692.182661817329,1331
1694.1977434804217,1356
1696.2123135235875,1307
1698.226372203043,1330
1700.2399197750851,1276
1702.2529564960905,1302
1704.2654826225112,1310
1706.277498410882,1272
1708.2890041178139,1267
1710.2999999999988,1295
1712.3104863142066,1281
1714.3204633172854,1262
1716.329931266163,1291
1718.3388904178469,1280
1720.3473410294214,1271
1722.3552833580516,1290
1724.3627176609807,1271
1726.3696441955308,1260
1728.3760632191033,1273
1730.3819749891782,1248
1732.3873797633146,1253
1734.3922777991502,1334
1736.3966693544012,1275
1738.4005546868639,1283
1740.4039340544127,1292
1742.406807715001,1301
1744.4091759266616,1254
1746.4110389475054,1272
1748.4123970357223,1249
1750.413250449582,1266
1752.4135994474318,1263
1754.4134442876993,1292
1756.4127852288902,1246
1758.4116225295893,1250
1760.4099564484595,1336
1762.407787244244,1274
1764.405115175764,1274
1766.4019405019203,1286
1768.3982634816916,1315
1770.3940843741357,1240
1772.3894034383907,1225
1774.3842209336717,1214
1776.378537119274,1235
1778.372352254571,1272
1780.3656665990156,1249
1782.3584804121397,1286
1784.3507939535534,1239
1786.3426074829463,1263
1788.3339212600863,1218
1790.3247355448211,1270
1792.3150505970766,1265
1794.3048666768573,1256
1796.2941840442477,1245
1798.2830029594106,1266
1800.2713236825884,1235
1802.2591464741004,1288
1804.2464715943465,1284
1806.2332993038058,1247
1808.2196298630352,1300
1810.2054635326708,1252
1812.190800573428,1261
1814.175641246101,1295
1816.1599858115628,1236
1818.1438345307652,1281
1820.127187664738,1251
1822.1100454745924,1294
1824.092408221516,1262
1826.0742761667766,1291
1828.055649571721,1246
1830.0365286977735,1256
1832.0169138064398,1282
1833.9968051593014,1283
1835.9762030180214,1244
1837.9551076443408,1270
1839.9335193000788,1230
1841.9114382471344,1278
1843.888864747485,1239
1845.8657990631878,1227
1847.842241456378,1270
1849.8181921892697,1245
1851.7936515241558,1244
1853.7686197234098,1250
1855.7430970494815,1198
1857.7170837649014,1188
1859.6905801322787,1146
1861.6635864143004,1235
1863.6361028737338,1304
1865.608129773424,1247
1867.5796673762961,1289
1869.5507159453537,1266
1871.521275743678,1274
1873.4913470344313,1323
1875.4609300808534,1270
1877.4300251462632,1247
1879.3986324940588,1296
1881.366752387717,1340
1883.3343850907936,1261
1885.3015308669228,1281
1887.268189979819,1248
1889.2343626932739,1229
1891.2000492711595,1211
1893.1652499774254,1202
1895.1299650761011,1254
1897.0941948312952,1285
1899.0579395071945,1203
1901.0211993680641,1294
1902.98397467825,1330
1904.9462657021745,1294
1906.9080727043415,1256
1908.869395949332,1215
1910.8302357018065,1213
1912.790592226504,1219
1914.7504657882428,1252
1916.7098566519212,1232
1918.6687650825133,1284
1920.6271913450764,1244
1922.5851357047422,1275
1924.5425984267245,1291
1926.499579776314,1266
1928.4560800188833,1273
1930.4120994198802,1224
1932.367638244833,1265
1934.32269675935,1273
1936.2772752291175,1280
1938.231373919899,1333
1940.1849930975404,1292
1942.1381330279637,1275
1944.0907939771696,1194
1946.0429762112412,1234
1947.9946799963363,1233
1949.9459055986945,1302
1951.896653284633,1292
1953.8469233205478,1227
1955.7967159729142,1255
1957.7460315082863,1245
1959.6948701932974,1216
1961.6432322946594,1256
1963.5911180791632,1309
1965.5385278136787,1257
1967.4854617651545,1295
1969.4319202006182,1240
1971.377903387176,1306
1973.3234115920136,1277
1975.268445082395,1291
1977.2130041256642,1277
1979.1570889892423,1297
1981.1006999406304,1257
1983.04383724741,1276
1984.986501177238,1307
1986.928691997853,1220
1988.8704099770712,1231
1990.811655382789,1234
1992.7524284829801,1291
1994.692729545698,1275
1996.6325588390755,1282
1998.5719166313224,1253
2000.5108031907307,1262
2002.4492187856677,1316
2004.387163684583,1216
2006.3246381560011,1259
2008.2616424685298,1272
2010.1981768908527,1297
2012.1342416917332,1227
2014.069837140014,1249
2016.0049635046162,1267
2017.9396210545406,1242
2019.8738100588666,1262
2021.8075307867502,1277
2023.740783507431,1210
2025.6735684902228,1287
2027.6058860045214,1287
2029.5377363198004,1281
2031.4691197056118,1237
2033.4000364315875,1252
2035.3304867674374,1178
2037.260470982952,1300
2039.189989347998,1296
2041.1190421325232,1251
2043.047629606554,1218
2044.9757520401945,1237
2046.9034097036288,1234
2048.8306028671195,1284
2050.7573318010086,1243
2052.683596775716,1264
2054.609398061742,1264
2056.5347359296647,1245
2058.4596106501403,1276
2060.384022493906,1244
2062.3079717317764,1280
2064.231458634646,1242
2066.1544834734873,1274
2068.077046519352,1239
2069.99914804337,1263
2071.9207883167524,1225
2073.8419676107865,1230
2075.7626861968406,1275
2077.6829443463607,1234
2079.6027423308715,1276
2081.522080421977,1240
2083.440958891362,1255
2085.359378010786,1272
2087.2773380520907,1293
2089.194839287196,1284
2091.111881988101,1206
2093.0284664268825,1227
2094.9445928756973,1271
2096.86026160678,1209
2098.775472892446,1323
2100.690227005088,1248
2102.604524217178,1255
2104.5183648012676,1277
2106.431749029985,1257
2108.34467717604,1272
2110.2571495122206,1267
2112.169166311393,1270
2114.080727846503,1256
2115.9918343905747,1224
2117.902486216711,1240
2119.8126835980956,1221
2121.722426807987,1268
2123.6317161197285,1243
2125.5405518067364,1215
2127.448934142509,1246
2129.356863400624,1245
2131.264339854737,1208
2133.1713637785815,1276
2135.077935445972,1295
2136.9840551308002,1267
2138.889723107037,1236
2140.7949396487334,1257
2142.699705030018,1264
2144.6040195250994,1271
2146.507883408264,1319
2148.4112969538774,1283
2150.3142604363848,1246
2152.2167741303097,1273
2154.1188383102535,1286
2156.0204532508997,1289
2157.9216192270064,1229
2159.822336513414,1248
2161.7226053850413,1299
2163.622426116884,1245
2165.5217989840185,1303
2167.4207242616,1279
2169.319202224862,1299
2171.2172331491165,1283
2173.1148173097563,1238
2175.0119549822507,1267
2176.90864644215,1274
2178.8048919650823,1288
2180.7006918267534,1282
2182.596046302952,1277
2184.4909556695407,1303
2186.3854202024645,1258
2188.279440177746,1250
2190.173015871487,1279
2192.066147559868,1294
2193.958835519149,1287
2195.851080025667,1257
2197.7428813558417,1309
2199.6342397861667,1302
2201.5251555932186,1230
2203.415629053651,1244
2205.3056604441986,1262
2207.19525004167,1271
2209.084398122958,1306
2210.9731049650327,1279
2212.861370844941,1321
2214.749196039812,1249
2216.636580826851,1273
2218.523525483344,1301
2220.410030286655,1270
2222.296095514226,1314
2224.1817214435805,1303
2226.066908352319,1334
2227.951656518121,1255
2229.835966218746,1265
2231.71983773203,1287
2233.6032713358913,1356
2235.486267308324,1310
2237.3688259274036,1309
2239.2509474712824,1325
2241.132632218193,1300
2243.013880446447,1311
2244.8946924344323,1281
2246.7750684606203,1335
2248.6550088035574,1273
2250.534513741871,1342
2252.413583554265,1262
2254.292218519526,1359
2256.170418916517,1305
2258.0481850241786,1310
2259.925517121534,1295
2261.8024154876825,1264
2263.678880401803,1284
2265.5549121431536,1264
2267.430510991071,1345
2269.305677224971,1296
2271.180411124348,1315
2273.0547129687766,1282
2274.9285830379076,1273
2276.8020216114737,1308
2278.6750289692845,1262
2280.5476053912294,1289
2282.4197511572766,1325
2284.2914665474727,1285
2286.162751841943,1285
2288.0336073208937,1375
2289.904033264608,1396
2291.774029953448,1375
2293.6435976678554,1320
2295.5127366883517,1299
2297.381447295534,1245
2299.2497297700825,1262
2301.1175843927526,1248
2302.9850114443825,1226
2304.852011205885,1242
2306.7185839582553,1199
2308.5847299825664,1146
2310.4504495599676,1170
2312.3157429716925,1164
2314.1806104990483,1158
2316.0450524234247,1179
2317.9090690262888,1145
2319.772660589186,1155
2321.635827393742,1145
2323.498569721661,1187
2325.3608878547248,1143
2327.2227820747967,1152
2329.0842526638157,1156
2330.945299903803,1106
2332.805924076857,1087
2334.6661254651535,1134
2336.525904350951,1106
2338.3852610165827,1120
2340.244195744464,1125
2342.102708817088,1139
2343.9608005170253,1138
2345.8184711269287,1139
2347.675720929526,1196
2349.532550207628,1093
2351.38895924412,1111
2353.24494832197,1133
2355.100517724223,1122
2356.955667734004,1132
2358.810398634514,1161
2360.664710709037,1149
2362.5186042409337,1159
2364.3720795136437,1156
2366.225136810686,1111
2368.0777764156583,1138
2369.929998612237,1154
2371.7818036841777,1145
2373.633191915315,1098
2375.484163589562,1131
2377.3347189909114,1136
2379.184858403434,1114
2381.03458211128,1156
2382.8838903986775,1102
2384.732783549936,1095
2386.5812618494406,1108
2388.4293255816588,1164
2390.2769750311327,1193
2392.1242104824883,1090
2393.971032220427,1227
2395.8174405297295,1141
2397.6634356952563,1144
2399.509018001947,1164
2401.3541877348193,1139
2403.1989451789705,1174
2405.043290619576,1141
2406.8872243418905,1076
2408.730746631247,1172
2410.5738577730594,1154
2412.4165580528183,1145
2414.258847756095,1119
2416.100727168537,1131
2417.9421965758734,1136
2419.783256263912,1194
2421.623906518538,1148
2423.4641476257157,1179
2425.303979871491,1125
2427.143403541984,1141
2428.9824189233977,1190
2430.821026302012,1144
2432.6592259641866,1142
2434.497018196361,1134
2436.33440328505,1137
2438.171381516851,1162
2440.00795317844,1128
2441.844118556569,1143
2443.6798779380724,1215
2445.5152316098606,1169
2447.3501798589255,1140
2449.1847229723357,1126
2451.0188612372403,1144
2452.8525949408663,1159
2454.6859243705203,1155
2456.518849813587,1161
2458.3513715575314,1136
2460.183489889895,1128
2462.015205098301,1149
2463.8465174704493,1118
2465.67742729412,1112
2467.5079348571717,1184
2469.338040447542,1117
2471.1677443532476,1129
2472.9970468623833,1133
2474.825948263123,1090
2476.6544488437207,1132
2478.482548892508,1169
2480.310248697896,1105
2482.137548548374,1135
2483.9644487325118,1110
2485.790949538956,1144
2487.617051256433,1160
2489.44275417375,1113
2491.26805857979,1167
2493.0929647635157,1077
2494.917473013971,1111
2496.741583620276,1118
2498.5652968716304,1154
2500.3886130573137,1140
2502.2115324666834,1137
2504.0340553891765,1143
2505.856182114308,1091
2507.6779129316733,1061
2509.499248130945,1146
2511.3201880018764,1117
2513.140732834298,1102
2514.9608829181198,1134
2516.780638543331,1074
2518.6,1056
2520.418967578273,1111
2522.237541568376,1134
2524.0557222606144,1117
2525.8735099453706,1128
2527.6909049131086,1168
2529.507907454368,1095
2531.32451785977,1111
2533.140736420014,1120
2534.9565634258774,1114
2536.771999168218,1130
2538.5870439379714,1170
2540.4016980261526,1142
2542.2159617238544,1179
2544.02983532225,1149
2545.8433191125914,1124
2547.656413386209,1151
2549.4691184345115,1142
2551.2814345489874,1162
2553.093362021204,1123
2554.904901142808,1180
2556.716052205523,1115
2558.526815501153,1139
2560.3371913215824,1154
2562.147179958771,1065
2563.956781704761,1119
2565.7659968516705,1138
2567.5748256916986,1144
2569.3832685171224,1095
2571.1913256202984,1120
2572.9989972936614,1108
2574.806283829725,1118
2576.613185521084,1180
2578.4197026604074,1153
2580.2258355404483,1105
2582.031584454035,1094
2583.836949694077,1118
2585.6419315535613,1153
2587.4465303255533,1178
2589.2507463032002,1153
2591.0545797797245,1164
2592.8580310484303,1152
2594.6611004026995,1126
2596.463788135992,1144
2598.266094541849,1114
2600.0680199138874,1151
2601.869564545807,1099
2603.670728731383,1120
2605.4715127644704,1141
2607.2719169390048,1120
2609.071941548998,1150
2610.8715868885433,1144
2612.670853251811,1122
2614.469740933052,1128
2616.268250226594,1154
2618.0663814268455,1105
2619.864134828292,1148
2621.6615107255006,1092
2623.458509413115,1107
2625.2551311858597,1174
2627.0513763385347,1147
2628.8472451660223,1088
2630.6427379632833,1130
2632.4378550253564,1117
2634.232596647359,1105
2636.026963124488,1147
2637.8209547520187,1150
2639.6145718253065,1120
2641.407814639785,1132
2643.200683490966,1063
2644.9931786744414,1106
2646.7853004858807,1163
2648.577049221034,1137
2650.3684251757277,1109
2652.1594286458712,1136
2653.9500599274484,1125
2655.740319316525,1165
2657.5302071092437,1165
2659.3197236018286,1125
2661.10886909058,1169
2662.8976438718782,1151
2664.686048242183,1137
2666.4740824980327,1101
2668.2617469360443,1122
2670.0490418529134,1123
2671.8359675454153,1183
2673.622524310403,1105
2675.408712444811,1112
2677.1945322456495,1104
2678.979984010009,1091
2680.76506803506,1142
2682.5497846180497,1125
2684.334134056306,1103
2686.1181166472343,1114
2687.9017326883213,1125
2689.6849824771293,1123
2691.4678663113013,1123
2693.2503844885596,1105
2695.032537306705,1075
2696.8143250636167,1115
2698.5957480572542,1148
2700.3768065856534,1168
2702.1575009469316,1120
2703.937831439283,1094
2705.717798360982,1065
2707.4974020103837,1140
2709.276642685917,1142
2711.055520686095,1142
2712.834036309506,1144
2714.612189854819,1092
2716.389981620782,1106
2718.1674119062204,1106
2719.944481010041,1146
2721.721189231226,1164
2723.4975368688415,1108
2725.273524222027,1115
2727.0491515900053,1138
2728.824419272075,1132
2730.5993275676146,1119
2732.3738767760838,1143
2734.148067197016,1173
2735.921899130031,1174
2737.6953728748194,1133
2739.468488731156,1164
2741.2412469988926,1101
2743.0136479779617,1146
2744.785691968372,1133
2746.5573792702116,1150
2748.3287101836504,1095
2750.099685008934,1116
2751.870304046388,1127
2753.640567596418,1115
2755.4104759595057,1099
2757.1800294362156,1110
2758.949228327187,1109
2760.7180729331412,1130
2762.486563554877,1136
2764.254700493272,1125
2766.022484049284,1155
2767.789914523947,1112
2769.5569922183786,1146
2771.3237174337705,1063
2773.090090471394,1143
2774.8561116326036,1086
2776.6217812188274,1124
2778.3870995315756,1119
2780.1520668724356,1117
2781.9166835430747,1130
2783.6809498452394,1142
2785.444866080754,1110
2787.2084325515225,1085
2788.971649559527,1160
2790.73451740683,1117
2792.4970363955713,1119
2794.2592068279705,1104
2796.0210290063264,1115
2797.7825032330147,1121
2799.543629810493,1149
2801.304409041296,1112
2803.0648412280366,1151
2804.8249266734088,1153
2806.5846656801846,1172
2808.344058551212,1179
2810.1031055894246,1175
2811.8618070978273,1112
2813.6201633795085,1155
2815.378174737636,1124
2817.1358414754536,1133
2818.893163896285,1128
2820.6501423035334,1125
2822.4067770006814,1130
2824.1630682912883,1098
2825.9190164789957,1135
2827.6746218675207,1158
2829.429884760661,1122
2831.184805462294,1125
2832.9393842763743,1135
2834.693621506936,1120
2836.4475174580916,1105
2838.201072434034,1202
2839.954286739034,1124
2841.707160677441,1140
2843.459694553685,1172
2845.2118886722724,1181
2846.96374333779,1164
2848.7152588549034,1140
2850.4664355283567,1155
2852.217273662973,1110
2853.9677735636546,1148
2855.7179355353833,1149
2857.4677598832186,1153
2859.217246912299,1141
2860.9663969278427,1147
2862.715210235146,1170
2864.4636871395846,1154
2866.211827946614,1177
2867.9596329617652,1140
2869.7071024906536,1144
2871.4542368389684,1139
2873.20103631248,1112
2874.947501217038,1148
2876.6936318585695,1134
2878.4394285430812,1165
2880.1848915766604,1182
2881.9300212654707,1162
2883.6748179157553,1128
2885.4192818338374,1127
2887.1634133261173,1127
2888.907212699077,1129
2890.6506802592744,1176
2892.393816313348,1159
2894.1366211680142,1189
2895.8790951300693,1134
2897.621238506388,1133
2899.363051603925,1128
2901.1045347297118,1162
2902.8456881908596,1160
2904.58651229456,1177
2906.327007348081,1142
2908.067173658772,1191
2909.8070115340597,1138
2911.5465212814497,1164
2913.285703208527,1150
2915.0245576229563,1131
2916.7630848324807,1200
2918.5012851449196,1144
2920.2391588681758,1180
2921.976706310227,1151
2923.7139277791334,1090
2925.4508235830313,1122
2927.187394030137,1107
2928.923639428745,1139
2930.6595600872306,1189
2932.395156314046,1120
2934.1304284177218,1184
2935.8653767068713,1164
2937.6000014901815,1154
2939.3343030764227,1144
2941.068281774442,1187
2942.8019378931644,1154
2944.5352717415976,1162
2946.2682836288236,1123
2948.0009738640065,1124
2949.7333427563885,1149
2951.465390615289,1179
2953.1971177501086,1118
2954.9285244703265,1161
2956.6596110855,1089
2958.3903779052657,1122
2960.1208252393385,1118
2961.8509533975125,1139
2963.5807626896617,1151
2965.3102534257378,1184
2967.0394259157715,1132
2968.768280469873,1149
2970.496817398232,1117
2972.2250370111146,1124
2973.952939618869,1144
2975.6805255319196,1103
2977.4077950607707,1161
2979.134748516006,1157
2980.861386208289,1209
2982.587708448359,1175
2984.313715547037,1181
2986.039407815222,1161
2987.764785563891,1134
2989.489849104102,1127
2991.2145987469908,1163
2992.9390348037705,1145
2994.6631575857346,1127
2996.3869674042576,1140
2998.1104645707887,1161
2999.83364939686,1085
3001.5565221940783,1197
3003.2790832741334,1121
3005.0013329487924,1157
3006.7232715298996,1128
3008.4448993293804,1121
3010.166216659239,1118
3011.887223831558,1183
3013.607921158498,1128
3015.3283089522993,1127
3017.0483875252826,1118
3018.7681571898443,1138
3020.4876182584626,1140
3022.2067710436927,1085
3023.9256158581707,1116
3025.644153014609,1154
3027.362382825801,1174
3029.0803056046193,1129
3030.797921664012,1180
3032.5152313170106,1076
3034.2322348767225,1097
3035.9489326563353,1120
3037.665324969115,1087
3039.3814121284063,1131
3041.097194447633,1091
3042.812672240299,1097
3044.5278458199855,1142
3046.2427155003525,1108
3047.9572815951406,1163
3049.671544418167,1112
3051.38550428333,1182
3053.0991615046073,1105
3054.812516396051,1157
3056.5255692717974,1118
3058.2383204460575,1165
3059.9507702331257,1186
3061.662918947372,1101
3063.3747669032446,1123
3065.0863144152736,1183
3066.7975617980674,1122
3068.508509366309,1115
3070.219157434767,1140
3071.9295063182844,1119
3073.639556331785,1110
3075.3493077902704,1146
3077.058761008821,1149
3078.7679163025964,1131
3080.476773986837,1151
3082.1853343768594,1086
3083.89359778806,1117
3085.6015645359153,1113
3087.3092349359786,1099
3089.016609303884,1099
3090.7236879553434,1138
3092.4304712061476,1180
3094.136959372166,1142
3095.843152769349,1145
3097.5490517137237,1091
3099.2546565213966,1164
3100.959967508554,1139
3102.66498499146,1108
3104.3697092864577,1090
3106.0741407099695,1115
3107.778279578498,1147
3109.482126208622,1118
3111.1856809170004,1128
3112.8889440203716,1094
3114.5919158355528,1048
3116.294596679439,1137
3117.996986869006,1111
3119.6990867213062,1159
3121.4008965534726,1128
3123.102416682717,1112
3124.803647426329,1144
3126.5045891016784,1137
3128.205242026213,1131
3129.90560651746,1144
3131.605682893025,1109
3133.3054714705922,1117
3135.0049725679282,1127
3136.7041865028714,1124
3138.4031135933465,1134
3140.101754157353,1114
3141.800108512971,1086
3143.498176978357,1146
3145.1959598717494,1125
3146.8934575114636,1075
3148.5906702158954,1121
3150.2875983035183,1067
3151.9842420928853,1108
3153.680601902627,1108
3155.376678051456,1114
3157.07247085816,1075
3158.767980641609,1139
3160.463207720748,1127
3162.158152414606,1099
3163.8528150422862,1150
3165.5471959229726,1131
3167.2412953759303,1104
3168.9351137204976,1142
3170.628651276098,1120
3172.3219083622307,1133
3174.014885298474,1149
3175.707582404485,1129
3177.4000000000005,1138
3179.092138404835,1151
3180.7839979388846,1121
3182.47557892212,1108
3184.166881674594,1169
3185.8579065164386,1157
3187.5486537678626,1148
3189.2391237491547,1093
3190.9293167806827,1155
3192.6192331828934,1115
3194.3088732763117,1137
3195.998237381542,1077
3197.687325819268,1089
3199.376138910251,1135
3201.064676975334,1102
3202.7529403354347,1085
3204.4409293115523,1096
3206.1286442247647,1116
3207.816085396229,1120
3209.5032531471825,1117
3211.190147798936,1110
3212.8767696728846,1106
3214.5631190905015,1079
3216.2491963733373,1107
3217.9350018430214,1059
3219.6205358212637,1121
3221.305798629851,1121
3222.990790590651,1102
3224.6755120256103,1135
3226.359963256751,1132
3228.0441446061795,1086
3229.7280563960758,1083
3231.411698948703,1161
3233.0950725863995,1144
3234.778177631587,1135
3236.461014406761,1134
3238.1435832345005,1137
3239.8258844374595,1101
3241.507918338374,1148
3243.1896852600576,1091
3244.8711855254023,1143
3246.552419457381,1159
3248.233387379042,1133
3249.914089613516,1126
3251.59452648401,1103
3253.274698313813,1128
3254.95460542629,1148
3256.6342481448855,1130
3258.313626793125,1107
3259.9927416946084,1124
3261.6715931730196,1113
3263.3501815521176,1106
3265.0285071557437,1069
3266.706570307815,1048
3268.3843713323286,1072
3270.0619105533615,1095
3271.739188295068,1076
3273.4162048816834,1117
3275.0929606375184,1102
3276.769455886966,1149
3278.445690954498,1139
3280.1216661646613,1140
3281.797381842087,1116
3283.4728383114807,1095
3285.1480358976296,1135
3286.8229749253996,1077
3288.4976557197333,1121
3290.172078605655,1107
3291.846243908266,1129
3293.5201519527463,1130
3295.193803064357,1084
3296.8671975684374,1101
3298.5403357904024,1089
3300.21321805575,1091
3301.8858446900567,1141
3303.558216018975,1159
3305.23033236824,1134
3306.9021940636603,1098
3308.57380143113,1105
3310.2451547966184,1114
3311.916254486174,1120
3313.5871008259246,1132
3315.2576941420766,1129
3316.9280347609147,1061
3318.5981230088046,1114
3320.2679592121895,1141
3321.9375436975924,1115
3323.606876791612,1094
3325.27595882093,1080
3326.944790112305,1122
3328.6133709925753,1144
3330.2817017886573,1114
3331.949782827547,1124
3333.617614436319,1117
3335.2851969421245,1150
3336.952530672199,1080
3338.619615953853,1092
3340.286453114475,1124
3341.9530424815357,1136
3343.619384382583,1154
3345.2854791452437,1091
3346.951327097224,1170
3348.6169285663073,1127
3350.2822838803577,1127
3351.947393367319,1113
3353.61225735521,1132
3355.2768761721345,1143
3356.9412501462693,1086
3358.605379605873,1152
3360.2692648792827,1062
3361.9329062949146,1162
3363.596304181263,1140
