CollectionTime,7/11/2024 1:52:52 PM
ExposureUsed,3
CalibratedSpectrum
-962.7078968117929,533
-959.9714848408522,549
-957.2358232597828,567
-954.5009119013725,563
-951.7667505983302,569
-949.0333391832855,572
-946.3006774887896,602
-943.5687653473143,566
-940.837602591253,582
-938.1071890529199,555
-935.3775245645503,573
-932.6486089583007,576
-929.9204420662485,572
-927.1930237203925,581
-924.4663537526524,579
-921.7404319948689,589
-919.0152582788041,589
-916.2908324361409,633
-913.5671542984834,614
-910.8442236973568,602
-908.1220404642074,558
-905.4006044304027,605
-902.679915427231,609
-899.959973285902,576
-897.2407778375464,571
-894.5223289132158,527
-891.8046263438832,563
-889.0876699604426,549
-886.3714595937089,558
-883.6559950744183,556
-880.9412762332282,552
-878.2273029007168,570
-875.5140749073835,563
-872.8015920836489,550
-870.0898542598545,572
-867.3788612662631,558
-864.6686129330585,571
-861.9591090903457,592
-859.2503495681506,547
-856.5423341964203,522
-853.8350628050229,535
-851.1285352237478,569
-848.4227512823054,559
-845.7177108103272,584
-843.0134136373656,566
-840.3098595928943,546
-837.6070485063082,554
-834.9049802069229,589
-832.2036545239757,544
-829.5030712866244,562
-826.8032303239481,567
-824.1041314649472,584
-821.4057745385428,560
-818.7081593735775,550
-816.0112857988148,595
-813.3151536429393,578
-810.6197627345566,579
-807.9251129021936,567
-805.2312039742981,549
-802.5380357792392,550
-799.8456081453069,555
-797.1539209007124,568
-794.462973873588,569
-791.772766891987,579
-789.083299783884,553
-786.3945723771743,581
-783.7065844996748,573
-781.0193359791231,574
-778.3328266431781,600
-775.6470563194197,597
-772.9620248353489,556
-770.2777320183878,571
-767.5941776958798,569
-764.9113616950891,575
-762.2292838432011,607
-759.5479439673222,570
-756.8673418944801,570
-754.1874774516235,619
-751.5083504656222,595
-748.8299607632671,593
-746.15230817127,578
-743.475392516264,610
-740.7992136248035,589
-738.1237713233636,611
-735.4490654383407,575
-732.7750957960521,619
-730.1018622227365,597
-727.4293645445534,595
-724.7576025875837,582
-722.0865761778291,594
-719.4162851412126,595
-716.7467293035781,644
-714.0779084906909,614
-711.409822528237,655
-708.7424712418238,587
-706.0758544569796,619
-703.4099719991541,620
-700.7448236937178,635
-698.0804093659622,651
-695.4167288411002,647
-692.7537819442656,618
-690.0915685005134,607
-687.4300883348199,619
-684.7693412720819,635
-682.1093271371178,637
-679.4500457546669,639
-676.7914969493897,626
-674.1336805458676,624
-671.4765963686034,641
-668.8202442420206,661
-666.1646239904642,635
-663.5097354382001,664
-660.8555784094151,641
-658.2021527282176,632
-655.5494582186366,653
-652.8974947046223,687
-650.2462620100463,672
-647.5957599587009,672
-644.9459883742998,651
-642.2969470804776,680
-639.6486359007902,667
-637.0010546587141,678
-634.3542031776476,699
-631.7080812809096,665
-629.0626887917401,661
-626.4180255333008,674
-623.7740913286734,665
-621.1308860008619,665
-618.4884093727904,692
-615.8466612673046,658
-613.2056415071715,624
-610.5653499150785,665
-607.9257863136347,658
-605.28695052537,673
-602.6488423727357,644
-600.0114616781036,642
-597.3748082637674,674
-594.7388819519412,680
-592.1036825647604,676
-589.4692099242818,730
-586.8354638524829,730
-584.2024441712624,671
-581.5701507024403,682
-578.9385832677575,681
-576.3077416888759,704
-573.6776257873787,692
-571.0482353847704,686
-568.4195703024757,680
-565.7916303618415,663
-563.164415384135,698
-560.5379251905453,697
-557.9121596021815,691
-555.2871184400748,723
-552.6628015251767,690
-550.0392086783606,719
-547.4163397204204,724
-544.794194472071,715
-542.1727727539491,727
-539.5520743866118,733
-536.9320991905377,758
-534.3128469861261,782
-531.6943175936979,753
-529.0765108334947,763
-526.4594265256793,852
-523.8430644903358,923
-521.2274245474689,961
-518.612506517005,983
-515.9983102187913,993
-513.3848354725959,1075
-510.77208209810846,1119
-508.16004991493924,1182
-505.5487387426199,1342
-502.9381484006032,1451
-500.3282787082628,1510
-497.71912948489364,1512
-495.1107005497117,1323
-492.5029917218539,1246
-489.8960028203786,1158
-487.28973366426493,1043
-484.68418407241325,965
-482.07935386364494,884
-479.47524285670266,874
-476.87185087025,890
-474.2691777228715,923
-471.66722323307334,883
-469.0659872192821,887
-466.4654694998459,858
-463.86566989303384,856
-461.26658821703614,864
-458.66822428996414,879
-456.07057792985,881
-453.4736489546475,866
-450.877437182231,897
-448.28194243039627,855
-445.68716451686,802
-443.09310325926003,864
-440.49975847515555,826
-437.9071299820263,866
-435.31521759727354,833
-432.72402113821954,835
-430.13354042210767,867
-427.5437752661022,900
-424.95472548728867,846
-422.36639090267386,896
-419.7787713291855,924
-417.1918665836721,982
-414.60567648290385,952
-412.0202008435715,976
-409.4354394822874,968
-406.8513922155845,923
-404.26805885991723,942
-401.685439231661,959
-399.103533147112,956
-396.522340422488,952
-393.9418608739278,928
-391.3620943174908,872
-388.7830405691583,882
-386.2046994448317,848
-383.6270707603344,809
-381.05015433141045,752
-378.473949973725,743
-375.8984575028645,733
-373.32367673433623,660
-370.74960748356875,642
-368.1762495659117,602
-365.60360279663576,620
-363.03166699093265,558
-360.4604419639154,514
-357.8899275306178,530
-355.32012350599507,499
-352.7510297049233,500
-350.1826459421999,499
-347.61497203254316,479
-345.04800779059235,480
-342.4817530309082,485
-339.91620756797226,488
-337.35137121618743,477
-334.7872437898774,513
-332.22382510328725,530
-329.66111497058273,498
-327.09911320585127,489
-324.53781962310075,482
-321.9772340362607,494
-319.4173562591816,488
-316.8581861056348,446
-314.2997233893127,479
-311.7419679238294,459
-309.1849195227194,456
-306.62857799943856,472
-304.0729431673641,503
-301.51801483979375,544
-298.963792829947,536
-296.41027695096386,531
-293.85746701590574,534
-291.3053628377552,555
-288.7539642294155,582
-286.2032710037115,540
-283.65328297338897,529
-281.1039999511146,558
-278.5554217494762,602
-276.007548180983,611
-273.4603790580651,512
-270.9139141930734,546
-268.3681533982807,548
-265.8230964858798,555
-263.27874326798565,510
-260.7350935566336,537
-258.1921471637804,593
-255.6499039013039,586
-253.10836358100266,582
-250.56752601459698,567
-248.02739101372765,575
-245.48795838995704,591
-242.94922795476816,642
-240.41119951956557,577
-237.8738728956746,603
-235.33724789434166,633
-232.80132432673452,617
-230.2661020039418,615
-227.73158073697357,647
-225.19776033676033,679
-222.66464061415422,666
-220.1322213799284,662
-217.60050244477725,603
-215.06948361931552,596
-212.53916471408013,668
-210.00954553952818,675
-207.48062590603843,650
-204.9524056239104,659
-202.4248845033651,693
-199.8980623545441,690
-197.37193898751036,712
-194.84651421224817,676
-192.32178783866232,680
-189.79775967657952,678
-187.27442953574644,683
-184.7517972258321,801
-182.2298625564256,787
-179.7086253370378,761
-177.18808537710026,780
-174.66824248596583,798
-172.14909647290835,838
-169.6306471471229,828
-167.11289431772548,815
-164.59583779375328,777
-162.07947738416453,724
-159.5638128978386,776
-157.04884414357605,783
-154.53457093009854,818
-152.02099306604828,884
-149.50811035998936,805
-146.99592262040665,755
-144.48442965570587,839
-141.97363127421409,896
-139.46352728417958,943
-136.95411749377126,911
-134.44540171107985,806
-131.93737974411636,757
-129.43005140081357,843
-126.92341648902493,1024
-124.41747481652521,1451
-121.91222619101006,1495
-119.40767042009657,1519
-116.90380731132257,1606
-114.40063667214702,1579
-111.8981583099503,1671
-109.3963720320337,1612
-106.89527764561933,1736
-104.39487495785067,2150
-101.89516377579241,2581
-99.39614390642998,2748
-96.89781515667039,2369
-94.40017733334128,2132
-91.90323024319173,2543
-89.40697369289148,4179
-86.91140748903172,6656
-84.41653143812482,8367
-81.92234534660395,6866
-79.42884902082358,4099
-76.93604226705907,3378
-74.4439248915071,6397
-71.95249670028534,12730
-69.46175749943245,19535
-66.97170709490854,23042
-64.48234529259423,21514
-61.99367189829195,17268
-59.50568671772464,14537
-57.01838955653636,13216
-54.53178022029283,10307
-52.045858514480074,8385
-49.560624244506016,10054
-47.07607721569923,11903
-44.59221723330904,12630
-42.10904410250669,13311
-39.62655762838392,13447
-37.14475761595372,13852
-34.66364387015028,15007
-32.18321619582866,16696
-29.70347439776515,17079
-27.224418280657005,17790
-24.74604764912317,18750
-22.26836230770266,22124
-19.7913620608565,31746
-17.315046712966478,50002
-14.83941606833514,63934
-12.36446993118659,65039
-9.89020810566592,65039
-7.416630395839093,65039
-4.94373660569363,65039
-2.471526539137585,65039
-6.821210263296962E-13,65039
2.47084320796705,65039
4.941003281093458,65039
7.410480415786196,65039
9.879274808531363,65039
12.347386655893956,65039
14.814816154518212,65039
17.28156350112681,65039
19.74762889252179,65039
22.21301252558385,65039
24.67771459727237,21176
27.141735304626195,4453
29.605074844762612,3107
32.06773341487792,2682
34.52971121224755,2412
36.99100843422559,2677
39.45162527824516,2332
41.91156194181792,1872
44.370818622535126,1639
46.82939551806646,1591
49.287292826160524,1496
51.74451074464503,1592
54.201049471426245,1813
56.65690920448981,1696
59.112090141899785,1415
61.56659248179983,1362
64.02041642241159,1416
66.4735621620365,1150
68.92602989905402,1118
71.37781983192338,1228
73.82893215918205,1274
76.27936707944684,1411
78.72912479141326,1340
81.17820549385567,1213
83.62660938562783,1426
86.07433666566146,1389
88.5213875329681,1024
90.96776218663751,979
93.41346082583925,1035
95.85848364982041,972
98.30283085790859,1133
100.7465026495089,1221
103.18949922410604,1115
105.63182078126385,1046
108.07346752062438,1022
110.51443964190923,869
112.95473734491827,872
115.39436082953114,929
117.83331029570547,965
120.27158594347827,901
122.7091879729652,900
125.1461165843615,913
127.58237197794062,899
130.01795435405518,867
132.4528639131364,946
134.88710085569494,903
137.32066538231982,929
139.75355769367923,856
142.1857779905207,849
144.61732647366978,908
147.04820334403132,893
149.47840880258934,866
151.90794305040674,979
154.33680628862487,1095
156.76499871846443,1141
159.19252054122433,1283
161.61937195828352,1460
164.04555317109896,1485
166.47106438120693,1662
168.89590579022217,1768
171.320077599839,1914
173.7435800118302,2034
176.16641322804742,2122
178.58857745042144,2204
181.01007288096173,2449
183.43089972175687,2433
185.85105817497413,2248
188.27054844285988,2317
190.6893707277394,2315
193.10752523201643,2363
195.5250121581745,2403
197.9418317087751,2464
200.3579840864594,2399
202.7734694939469,2431
205.18828813403627,2441
207.6024402096051,2461
210.01592592360964,2592
212.42874547908548,2575
214.84089907914665,2633
217.2523869269868,2601
219.66320922587727,2506
222.0733661791695,2426
224.48285799029293,2549
226.8916848627572,2538
229.29984700014882,2547
231.7073446061355,2559
234.11417788446204,2540
236.520347038953,2522
238.92585227351185,2761
241.33069379212054,2755
243.73487179884035,2799
246.1383864978112,2818
248.541238093252,2834
250.9434267894609,2764
253.34495279081432,2878
255.74581630176783,2995
258.1460175268563,2809
260.54555667069314,2928
262.9444339379703,2829
265.3426495334594,2818
267.7402036620107,2823
270.1370965285529,2727
272.53332833809407,2539
274.9288992957214,2528
277.32380960660055,2511
279.718059475976,2484
282.1116491091717,2431
284.5045787115897,2316
286.89684848871195,2314
289.2884586460981,2383
291.67940938938807,2303
294.0697009242996,2309
296.4593334566299,2384
298.84830719225477,2391
301.23662233712923,2215
303.6242790972866,2252
306.01127767884,2280
308.39761828798066,2226
310.78330113097934,2285
313.16832641418534,2184
315.5526943440269,2163
317.9364051270112,2144
320.3194589697242,2131
322.70185607883093,2122
325.0835966610754,2031
327.4646809232805,2031
329.8451090723478,2069
332.2248813152577,2037
334.6039978590701,1994
336.9824589109231,2089
339.36026467803447,1987
341.7374153677,2015
344.113911187295,1985
346.48975234427337,2002
348.8649390461686,1966
351.2394715005918,1929
353.61334991523415,1952
355.9865744978655,1980
358.35914545633375,2009
360.73106299856715,2000
363.10232733257146,1992
365.47293866643247,1953
367.84289720831396,1854
370.2122031664593,1892
372.5808567491905,1788
374.9488581649083,1896
377.31620762209275,1844
379.6829053293021,1855
382.0489514951745,1897
384.4143463284262,1792
386.7790900378528,1828
389.14318283232853,1881
391.50662492080653,1876
393.86941651231916,1777
396.23155781597745,1847
398.5930490409713,1891
400.9538903965696,1847
403.3140820921202,1823
405.6736243370498,1818
408.03251734086336,1822
410.3907613131465,1854
412.74835646356166,1709
415.10530300185144,1825
417.4616011378372,1790
419.81725108141893,1758
422.1722530425758,1703
424.5266072313656,1749
426.880313857925,1718
429.2333731324701,1775
431.58578526529516,1736
433.9375504667738,1683
436.2886689473588,1762
438.63914091758113,1784
440.9889665880513,1753
443.33814616945835,1758
445.68667987257015,1726
448.03456790823395,1697
450.3818104873759,1724
452.72840782100013,1756
455.07436012019105,1797
457.41966759611057,1710
459.7643304600007,1659
462.10834892318155,1660
464.4517231970525,1679
466.79445349309174,1662
469.1365400228566,1732
471.4779829979826,1736
473.81878263018564,1778
476.15893913125876,1742
478.4984527130747,1833
480.8373235875855,1753
483.17555196682144,1857
485.5131380628919,1867
487.8500820879857,1929
490.1863842543697,1939
492.52204477439034,2052
494.8570638604725,2266
497.1914417251204,2442
499.52517858091653,2698
501.85827464052306,2979
504.19073011668036,3095
506.5225452222086,3000
508.85372017000566,3015
511.18425517304956,2888
513.514150444396,2880
515.8434061971808,3077
518.1720226446176,3491
520.4999999999999,3549
522.8273384766991,3428
525.1540382881666,3278
527.480099647932,3049
529.8055227696037,2686
532.1303078668694,2257
534.454455153496,1984
536.777964843328,1825
539.1008371502907,1844
541.4230722883866,1799
543.744670471698,1764
546.0656319143858,1786
548.3859568306899,1804
550.7056454349294,1796
553.0246979415016,1744
555.3431145648834,1707
557.6608955196306,1685
559.978041020377,1649
562.2945512818363,1714
564.6104265188006,1706
566.9256669461412,1740
569.2402727788082,1805
571.5542442318302,1781
573.8675815203156,1779
576.1802848594508,1709
578.4923544645015,1845
580.8037905508126,1786
583.114593333807,1836
585.4247630289875,1799
587.7342998519354,1714
590.0432040183106,1659
592.3514757438526,1739
594.6591152443794,1776
596.9661227357875,1789
599.2724984340531,1795
601.578242555231,1773
603.8833553154542,1788
606.1878369309362,1840
608.4916876179676,1715
610.7949075929192,1830
613.0974970722403,1724
615.3994562724587,1725
617.7007854101818,1676
620.0014847020951,1670
622.3015543649641,1722
624.6009946156324,1768
626.8998056710224,1759
629.1979877481361,1789
631.4955410640538,1769
633.7924658359349,1810
636.0887622810175,1726
638.3844306166192,1769
640.6794710601358,1824
642.9738838290426,1841
645.2676691408932,1801
647.5608272133207,1789
649.853358264037,1834
652.1452625108324,1817
654.4365401715764,1812
656.7271914642178,1883
659.0172166067838,1858
661.3066158173809,1789
663.5953893141935,1834
665.8835373154867,1827
668.1710600396028,1831
670.4579577049639,1819
672.7442305300709,1768
675.0298787335033,1803
677.3149025339197,1820
679.599302150058,1783
681.8830778007342,1791
684.1662297048437,1766
686.4487580813608,1850
688.7306631493387,1827
691.0119451279091,1835
693.2926042362834,1841
695.5726406937516,1781
697.8520547196814,1792
700.1308465335215,1831
702.4090163547982,1764
704.6865644031171,1731
706.9634908981619,1738
709.2397960596965,1742
711.5154801075631,1775
713.7905432616823,1820
716.0649857420548,1801
718.3388077687592,1819
720.612009561953,1787
722.8845913418733,1782
725.1565533288352,1818
727.427895743234,1831
729.6986188055427,1767
731.9687227363137,1808
734.238207756178,1809
736.5070740858458,1821
738.7753219461066,1788
741.0429515578281,1786
743.3099631419569,1792
745.5763569195191,1818
747.8421331116193,1850
750.1072919394409,1750
752.3718336242467,1707
754.6357583873777,1800
756.8990664502545,1744
759.1617580343765,1829
761.423833361321,1807
763.6852926527457,1838
765.9461361303862,1862
768.206364016058,1781
770.4659765316536,1826
772.7249738991469,1789
774.9833563405886,1811
777.2411240781092,1830
779.4982773339183,1832
781.7548163303044,1768
784.010741289634,1842
786.2660524343538,1949
788.5207499869881,1818
790.7748341701416,1842
793.0283052064964,1796
795.2811633188143,1821
797.5334087299362,1799
799.7850416627813,1771
802.0360623403484,1793
804.2864709857143,1898
806.5362678220353,1784
808.7854530725468,1839
811.0340269605625,1879
813.2819897094754,1853
815.5293415427581,1820
817.77608268396,1759
820.0222133567116,1844
822.2677337847211,1808
824.5126441917765,1822
826.7569448017433,1789
829.0006358385675,1806
831.2437175262731,1844
833.4861900889629,1828
835.7280537508192,1839
837.9693087361026,1903
840.2099552691533,1878
842.4499935743896,1842
844.689423876309,1923
846.9282463994886,1824
849.1664613685833,1765
851.4040690083276,1816
853.6410695435349,1841
855.877463199097,1817
858.1132501999847,1829
860.3484307712487,1844
862.5830051380175,1850
864.8169735254988,1827
867.0503361589791,1829
869.2830932638243,1904
871.5152450654786,1798
873.7467917894654,1846
875.9777336613873,1925
878.2080709069252,1851
880.4378037518389,1886
882.666932421968,1830
884.8954571432301,1844
887.1233781416219,1859
889.3506956432192,1965
891.5774098741766,1855
893.803521060728,1900
896.0290294291852,1877
898.2539352059397,1837
900.4782386174619,1878
902.7019398903011,1901
904.925039251085,1935
907.147536926521,1893
909.3694331433943,1923
911.59072812857,1901
913.8114221089921,1892
916.0315153116827,1851
918.2510079637437,1823
920.4699002923547,1822
922.6881925247761,1798
924.905884888345,1818
927.1229776104793,1806
929.3394709186747,1775
931.555365040506,1825
933.7706602036275,1795
935.9853566357709,1776
938.1994545647489,1718
940.4129542184515,1875
942.6258558248488,1765
944.8381596119883,1821
947.0498658079974,1787
949.2609746410825,1754
951.4714863395287,1718
953.6814011316998,1847
955.8907192460387,1819
958.0994409110671,1756
960.3075663553858,1785
962.5150958076741,1786
964.7220294966913,1755
966.928367651274,1781
969.1341105003388,1768
971.3392582728806,1736
973.5438111979742,1696
975.747769504772,1711
977.9511334225061,1708
980.153903180487,1698
982.3560790081052,1611
984.5576611348289,1716
986.7586497902058,1632
988.9590452038618,1713
991.158847605503,1662
993.3580572249133,1621
995.5566742919558,1684
997.7546990365728,1627
999.952131688785,1564
1002.1489724786926,1611
1004.3452216364743,1560
1006.5408793923874,1593
1008.7359459767691,1559
1010.9304216200343,1554
1013.1243065526781,1529
1015.3176010052733,1573
1017.510305208472,1461
1019.7024193930064,1497
1021.8939437896848,1489
1024.0848786293977,1547
1026.2752241431122,1486
1028.4649805618747,1495
1030.6541481168115,1486
1032.842727039127,1450
1035.0307175601051,1486
1037.2181199111074,1382
1039.4049343235752,1444
1041.591161029029,1450
1043.7768002590683,1461
1045.9618522453698,1470
1048.1463172196918,1493
1050.3301954138697,1460
1052.513487059818,1523
1054.69619238953,1465
1056.8783116350783,1453
1059.0598450286152,1440
1061.2407928023704,1457
1063.4211551886528,1460
1065.6009324198508,1496
1067.780124728432,1417
1069.9587323469414,1490
1072.1367555080046,1468
1074.314194444325,1440
1076.4910493886855,1473
1078.667320573947,1435
1080.843008233051,1424
1083.0181125990161,1376
1085.1926339049414,1462
1087.3665723840027,1372
1089.5399282694575,1413
1091.7127017946405,1479
1093.8848931929647,1395
1096.0565026979243,1391
1098.2275305430899,1390
1100.3979769621128,1466
1102.567842188722,1423
1104.737126456726,1335
1106.9058300000124,1336
1109.0739530525475,1376
1111.2414958483764,1363
1113.4084586216231,1358
1115.5748416064907,1381
1117.7406450372605,1384
1119.9058691482942,1416
1122.0705141740304,1397
1124.2345803489884,1396
1126.3980679077658,1423
1128.5609770850388,1341
1130.7233081155623,1395
1132.8850612341707,1399
1135.0462366757774,1370
1137.2068346753745,1344
1139.3668554680326,1424
1141.526299288901,1382
1143.68516637321,1348
1145.8434569562655,1398
1148.001171273455,1324
1150.158309560244,1342
1152.3148720521767,1333
1154.470858984876,1356
1156.626270594044,1359
1158.7811071154629,1385
1160.9353687849912,1324
1163.089055838569,1359
1165.242168512213,1376
1167.3947070420209,1350
1169.5466716641677,1303
1171.6980626149075,1323
1173.8488801305748,1324
1175.9991244475814,1315
1178.1487958024186,1323
1180.2978944316555,1308
1182.4464205719428,1350
1184.5943744600072,1347
1186.7417563326567,1308
1188.8885664267755,1281
1191.0348049793297,1348
1193.1804722273619,1314
1195.325568407995,1365
1197.4700937584303,1355
1199.614048515948,1350
1201.7574329179074,1329
1203.900247201746,1286
1206.042491604982,1364
1208.1841663652099,1274
1210.3252717201053,1391
1212.465807907422,1310
1214.6057751649923,1301
1216.7451737307279,1311
1218.8840038426192,1346
1221.0222657387353,1367
1223.1599596572241,1398
1225.2970858363137,1416
1227.4336445143094,1325
1229.5696359295966,1321
1231.705060320639,1350
1233.8399179259786,1389
1235.9742089842384,1330
1238.107933734118,1357
1240.2410924143974,1357
1242.373685263935,1424
1244.5057125216676,1393
1246.6371744266116,1363
1248.7680712178621,1377
1250.898403134593,1323
1253.028170416058,1361
1255.1573733015875,1371
1257.2860120305932,1369
1259.4140868425648,1400
1261.54159797707,1391
1263.6685456737569,1322
1265.7949301723515,1344
1267.9207517126597,1391
1270.046010534565,1371
1272.1707068780306,1417
1274.2948409830983,1352
1276.4184130898889,1379
1278.541423438603,1400
1280.6638722695184,1417
1282.785759822993,1370
1284.9070863394636,1402
1287.0278520594447,1396
1289.1480572235314,1400
1291.2677020723963,1426
1293.3867868467923,1361
1295.5053117875495,1428
1297.623277135579,1428
1299.740683131868,1405
1301.8575300174857,1450
1303.973818033578,1428
1306.0895474213703,1459
1308.2047184221678,1490
1310.3193312773528,1458
1312.4333862283888,1479
1314.5468835168163,1446
1316.659823384255,1433
1318.7722060724045,1481
1320.8840318230418,1468
1322.9953008780249,1500
1325.1060134792888,1465
1327.2161698688478,1460
1329.3257702887959,1441
1331.4348149813054,1464
1333.5433041886276,1447
1335.6512381530933,1483
1337.7586171171101,1446
1339.8654413231675,1423
1341.9717110138317,1440
1344.0774264317488,1457
1346.1825878196432,1484
1348.2871954203192,1438
1350.3912494766587,1469
1352.4947502316231,1429
1354.5976979282532,1526
1356.7000928096686,1540
1358.8019351190665,1446
1360.9032250997243,1465
1363.0039629949988,1454
1365.1041490483235,1435
1367.2037835032133,1462
1369.3028666032606,1450
1371.401398592137,1445
1373.4993797135926,1442
1375.5968102114575,1463
1377.6936903296396,1438
1379.7900203121262,1465
1381.8858004029835,1498
1383.9810308463561,1499
1386.075711886469,1450
1388.1698437676241,1516
1390.2634267342032,1551
1392.356461030667,1494
1394.4489469015557,1455
1396.5408845914872,1514
1398.6322743451592,1453
1400.7231164073469,1482
1402.813411022907,1560
1404.903158436773,1538
1406.9923588939578,1579
1409.0810126395531,1513
1411.1691199187303,1546
1413.2566809767386,1518
1415.343696058907,1475
1417.4301654106425,1566
1419.5160892774315,1599
1421.6014679048399,1560
1423.6863015385125,1560
1425.7705904241707,1563
1427.8543348076178,1609
1429.9375349347342,1645
1432.0201910514802,1646
1434.102303403894,1627
1436.1838722380944,1596
1438.2648978002767,1646
1440.3453803367174,1594
1442.4253200937692,1690
1444.5047173178677,1733
1446.5835722555234,1728
1448.6618851533285,1742
1450.739656257952,1764
1452.8168858161434,1761
1454.8935740747306,1738
1456.96972128062,1801
1459.045327680797,1826
1461.120393522327,1818
1463.1949190523528,1831
1465.2689045180973,1973
1467.3423501668608,1950
1469.415256246024,2022
1471.4876230030463,1965
1473.559450685465,2078
1475.6307395408976,2035
1477.7014898170391,2113
1479.771701761665,2148
1481.8413756226287,2145
1483.9105116478618,2172
1485.9791100853772,2123
1488.0471711832643,2179
1490.1146951896926,2199
1492.1816823529098,2269
1494.2481329212433,2215
1496.3140471430984,2297
1498.3794252669609,2391
1500.4442675413939,2321
1502.5085742150404,2305
1504.572345536622,2289
1506.6355817549388,2416
1508.6982831188702,2318
1510.7604498773744,2398
1512.8220822794883,2438
1514.8831805743293,2407
1516.9437450110909,2424
1519.003775839048,2456
1521.0632733075522,2486
1523.1222376660367,2528
1525.1806691640113,2485
1527.2385680510652,2537
1529.2959345768668,2555
1531.3527689911643,2557
1533.4090715437833,2582
1535.4648424846291,2616
1537.5200820636855,2720
1539.5747905310159,2712
1541.6289681367616,2692
1543.6826151311434,2681
1545.7357317644614,2805
1547.7883182870937,2767
1549.8403749494987,2755
1551.8919020022113,2903
1553.9428996958477,2967
1555.9933682811015,3000
1558.0433080087469,3031
1560.0927191296346,3087
1562.1416018946961,3107
1564.1899565549415,3056
1566.2377833614592,3069
1568.2850825654164,3114
1570.3318544180606,3044
1572.3780991707158,2913
1574.423817074788,2835
1576.4690083817595,2931
1578.5136733431923,2623
1580.5578122107272,2457
1582.601425236085,2426
1584.6445126710646,2396
1586.6870747675434,2265
1588.7291117774776,2217
1590.7706239529034,2075
1592.8116115459347,1996
1594.8520748087658,1993
1596.8920139936686,1993
1598.9314293529933,1871
1600.9703211391711,1827
1603.008689604711,1782
1605.0465350022005,1780
1607.0838575843068,1660
1609.1206576037753,1669
1611.1569353134305,1762
1613.1926909661765,1686
1615.2279248149953,1653
1617.2626371129481,1643
1619.2968281131757,1594
1621.3304980688963,1644
1623.3636472334088,1587
1625.39627586009,1544
1627.428384202396,1505
1629.459972513861,1492
1631.4910410480993,1520
1633.5215900588028,1498
1635.551619799744,1551
1637.5811305247717,1505
1639.6101224878166,1472
1641.6385959428862,1491
1643.6665511440683,1470
1645.693988345528,1482
1647.7209078015112,1497
1649.7473097663405,1447
1651.7731944944203,1470
1653.7985622402307,1446
1655.823413258333,1462
1657.847747803366,1413
1659.8715661300494,1479
1661.8948684931793,1424
1663.9176551476316,1452
1665.9399263483624,1479
1667.9616823504057,1457
1669.982923408873,1439
1672.0036497789574,1425
1674.0238617159293,1428
1676.043559475138,1465
1678.0627433120121,1372
1680.081413482059,1370
1682.0995702408654,1408
1684.117213844096,1399
1686.134344547495,1415
1688.1509626068864,1395
1690.1670682781705,1414
1692.182661817329,1411
1694.1977434804217,1403
1696.2123135235875,1427
1698.226372203043,1446
1700.2399197750851,1386
1702.2529564960905,1432
1704.2654826225112,1422
1706.277498410882,1355
1708.2890041178139,1471
1710.2999999999988,1407
1712.3104863142066,1415
1714.3204633172854,1403
1716.329931266163,1411
1718.3388904178469,1461
1720.3473410294214,1350
1722.3552833580516,1368
1724.3627176609807,1431
1726.3696441955308,1427
1728.3760632191033,1377
1730.3819749891782,1394
1732.3873797633146,1344
1734.3922777991502,1316
1736.3966693544012,1434
1738.4005546868639,1379
1740.4039340544127,1399
1742.406807715001,1421
1744.4091759266616,1345
1746.4110389475054,1358
1748.4123970357223,1368
1750.413250449582,1296
1752.4135994474318,1351
1754.4134442876993,1307
1756.4127852288902,1399
1758.4116225295893,1327
1760.4099564484595,1300
1762.407787244244,1371
1764.405115175764,1349
1766.4019405019203,1289
1768.3982634816916,1346
1770.3940843741357,1339
1772.3894034383907,1338
1774.3842209336717,1328
1776.378537119274,1332
1778.372352254571,1291
1780.3656665990156,1306
1782.3584804121397,1306
1784.3507939535534,1346
1786.3426074829463,1299
1788.3339212600863,1267
1790.3247355448211,1330
1792.3150505970766,1326
1794.3048666768573,1300
1796.2941840442477,1319
1798.2830029594106,1304
1800.2713236825884,1296
1802.2591464741004,1265
1804.2464715943465,1301
1806.2332993038058,1271
1808.2196298630352,1348
1810.2054635326708,1274
1812.190800573428,1294
1814.175641246101,1258
1816.1599858115628,1300
1818.1438345307652,1256
1820.127187664738,1321
1822.1100454745924,1247
1824.092408221516,1308
1826.0742761667766,1294
1828.055649571721,1280
1830.0365286977735,1323
1832.0169138064398,1290
1833.9968051593014,1281
1835.9762030180214,1248
1837.9551076443408,1333
1839.9335193000788,1295
1841.9114382471344,1316
1843.888864747485,1320
1845.8657990631878,1269
1847.842241456378,1275
1849.8181921892697,1336
1851.7936515241558,1248
1853.7686197234098,1311
1855.7430970494815,1330
1857.7170837649014,1269
1859.6905801322787,1267
1861.6635864143004,1284
1863.6361028737338,1246
1865.608129773424,1346
1867.5796673762961,1303
1869.5507159453537,1298
1871.521275743678,1220
1873.4913470344313,1318
1875.4609300808534,1258
1877.4300251462632,1291
1879.3986324940588,1311
1881.366752387717,1302
1883.3343850907936,1253
1885.3015308669228,1323
1887.268189979819,1318
1889.2343626932739,1333
1891.2000492711595,1333
1893.1652499774254,1272
1895.1299650761011,1316
1897.0941948312952,1333
1899.0579395071945,1329
1901.0211993680641,1283
1902.98397467825,1312
1904.9462657021745,1321
1906.9080727043415,1299
1908.869395949332,1261
1910.8302357018065,1343
1912.790592226504,1276
1914.7504657882428,1307
1916.7098566519212,1291
1918.6687650825133,1329
1920.6271913450764,1291
1922.5851357047422,1284
1924.5425984267245,1240
1926.499579776314,1326
1928.4560800188833,1242
1930.4120994198802,1278
1932.367638244833,1266
1934.32269675935,1328
1936.2772752291175,1308
1938.231373919899,1294
1940.1849930975404,1338
1942.1381330279637,1276
1944.0907939771696,1299
1946.0429762112412,1331
1947.9946799963363,1256
1949.9459055986945,1268
1951.896653284633,1283
1953.8469233205478,1277
1955.7967159729142,1281
1957.7460315082863,1266
1959.6948701932974,1266
1961.6432322946594,1293
1963.5911180791632,1264
1965.5385278136787,1302
1967.4854617651545,1302
1969.4319202006182,1309
1971.377903387176,1234
1973.3234115920136,1281
1975.268445082395,1312
1977.2130041256642,1271
1979.1570889892423,1250
1981.1006999406304,1250
1983.04383724741,1275
1984.986501177238,1266
1986.928691997853,1265
1988.8704099770712,1251
1990.811655382789,1216
1992.7524284829801,1282
1994.692729545698,1343
1996.6325588390755,1293
1998.5719166313224,1280
2000.5108031907307,1260
2002.4492187856677,1262
2004.387163684583,1291
2006.3246381560011,1344
2008.2616424685298,1234
2010.1981768908527,1296
2012.1342416917332,1240
2014.069837140014,1247
2016.0049635046162,1345
2017.9396210545406,1270
2019.8738100588666,1261
2021.8075307867502,1246
2023.740783507431,1267
2025.6735684902228,1267
2027.6058860045214,1278
2029.5377363198004,1231
2031.4691197056118,1201
2033.4000364315875,1253
2035.3304867674374,1262
2037.260470982952,1220
2039.189989347998,1290
2041.1190421325232,1251
2043.047629606554,1299
2044.9757520401945,1275
2046.9034097036288,1239
2048.8306028671195,1223
2050.7573318010086,1255
2052.683596775716,1228
2054.609398061742,1222
2056.5347359296647,1261
2058.4596106501403,1301
2060.384022493906,1275
2062.3079717317764,1221
2064.231458634646,1311
2066.1544834734873,1246
2068.077046519352,1271
2069.99914804337,1216
2071.9207883167524,1220
2073.8419676107865,1206
2075.7626861968406,1271
2077.6829443463607,1260
2079.6027423308715,1289
2081.522080421977,1232
2083.440958891362,1269
2085.359378010786,1247
2087.2773380520907,1256
2089.194839287196,1250
2091.111881988101,1217
2093.0284664268825,1190
2094.9445928756973,1276
2096.86026160678,1231
2098.775472892446,1230
2100.690227005088,1261
2102.604524217178,1262
2104.5183648012676,1242
2106.431749029985,1269
2108.34467717604,1198
2110.2571495122206,1224
2112.169166311393,1260
2114.080727846503,1201
2115.9918343905747,1283
2117.902486216711,1253
2119.8126835980956,1283
2121.722426807987,1229
2123.6317161197285,1316
2125.5405518067364,1281
2127.448934142509,1315
2129.356863400624,1291
2131.264339854737,1293
2133.1713637785815,1233
2135.077935445972,1300
2136.9840551308002,1240
2138.889723107037,1253
2140.7949396487334,1338
2142.699705030018,1236
2144.6040195250994,1307
2146.507883408264,1267
2148.4112969538774,1272
2150.3142604363848,1282
2152.2167741303097,1268
2154.1188383102535,1291
2156.0204532508997,1272
2157.9216192270064,1234
2159.822336513414,1283
2161.7226053850413,1272
2163.622426116884,1273
2165.5217989840185,1320
2167.4207242616,1262
2169.319202224862,1307
2171.2172331491165,1326
2173.1148173097563,1300
2175.0119549822507,1299
2176.90864644215,1347
2178.8048919650823,1321
2180.7006918267534,1281
2182.596046302952,1320
2184.4909556695407,1336
2186.3854202024645,1339
2188.279440177746,1326
2190.173015871487,1295
2192.066147559868,1378
2193.958835519149,1355
2195.851080025667,1320
2197.7428813558417,1323
2199.6342397861667,1364
2201.5251555932186,1364
2203.415629053651,1362
2205.3056604441986,1354
2207.19525004167,1366
2209.084398122958,1408
2210.9731049650327,1339
2212.861370844941,1385
2214.749196039812,1368
2216.636580826851,1323
2218.523525483344,1333
2220.410030286655,1353
2222.296095514226,1375
2224.1817214435805,1367
2226.066908352319,1337
2227.951656518121,1318
2229.835966218746,1358
2231.71983773203,1354
2233.6032713358913,1303
2235.486267308324,1345
2237.3688259274036,1368
2239.2509474712824,1362
2241.132632218193,1359
2243.013880446447,1356
2244.8946924344323,1366
2246.7750684606203,1373
2248.6550088035574,1290
2250.534513741871,1393
2252.413583554265,1376
2254.292218519526,1359
2256.170418916517,1334
2258.0481850241786,1360
2259.925517121534,1332
2261.8024154876825,1340
2263.678880401803,1343
2265.5549121431536,1361
2267.430510991071,1343
2269.305677224971,1321
2271.180411124348,1270
2273.0547129687766,1317
2274.9285830379076,1370
2276.8020216114737,1348
2278.6750289692845,1387
2280.5476053912294,1315
2282.4197511572766,1358
2284.2914665474727,1379
2286.162751841943,1373
2288.0336073208937,1349
2289.904033264608,1377
2291.774029953448,1359
2293.6435976678554,1379
2295.5127366883517,1355
2297.381447295534,1324
2299.2497297700825,1273
2301.1175843927526,1295
2302.9850114443825,1275
2304.852011205885,1242
2306.7185839582553,1192
2308.5847299825664,1192
2310.4504495599676,1154
2312.3157429716925,1199
2314.1806104990483,1168
2316.0450524234247,1149
2317.9090690262888,1134
2319.772660589186,1144
2321.635827393742,1158
2323.498569721661,1140
2325.3608878547248,1152
2327.2227820747967,1194
2329.0842526638157,1171
2330.945299903803,1146
2332.805924076857,1174
2334.6661254651535,1147
2336.525904350951,1184
2338.3852610165827,1191
2340.244195744464,1163
2342.102708817088,1113
2343.9608005170253,1163
2345.8184711269287,1124
2347.675720929526,1152
2349.532550207628,1178
2351.38895924412,1191
2353.24494832197,1182
2355.100517724223,1165
2356.955667734004,1178
2358.810398634514,1148
2360.664710709037,1212
2362.5186042409337,1166
2364.3720795136437,1173
2366.225136810686,1149
2368.0777764156583,1153
2369.929998612237,1141
2371.7818036841777,1150
2373.633191915315,1122
2375.484163589562,1172
2377.3347189909114,1152
2379.184858403434,1227
2381.03458211128,1122
2382.8838903986775,1220
2384.732783549936,1160
2386.5812618494406,1212
2388.4293255816588,1192
2390.2769750311327,1197
2392.1242104824883,1176
2393.971032220427,1201
2395.8174405297295,1174
2397.6634356952563,1168
2399.509018001947,1193
2401.3541877348193,1205
2403.1989451789705,1220
2405.043290619576,1222
2406.8872243418905,1199
2408.730746631247,1166
2410.5738577730594,1255
2412.4165580528183,1210
2414.258847756095,1217
2416.100727168537,1127
2417.9421965758734,1179
2419.783256263912,1123
2421.623906518538,1184
2423.4641476257157,1174
2425.303979871491,1192
2427.143403541984,1172
2428.9824189233977,1158
2430.821026302012,1153
2432.6592259641866,1179
2434.497018196361,1175
2436.33440328505,1148
2438.171381516851,1102
2440.00795317844,1140
2441.844118556569,1218
2443.6798779380724,1194
2445.5152316098606,1215
2447.3501798589255,1236
2449.1847229723357,1219
2451.0188612372403,1200
2452.8525949408663,1179
2454.6859243705203,1225
2456.518849813587,1175
2458.3513715575314,1177
2460.183489889895,1178
2462.015205098301,1191
2463.8465174704493,1193
2465.67742729412,1189
2467.5079348571717,1175
2469.338040447542,1206
2471.1677443532476,1166
2472.9970468623833,1176
2474.825948263123,1199
2476.6544488437207,1197
2478.482548892508,1201
2480.310248697896,1204
2482.137548548374,1219
2483.9644487325118,1190
2485.790949538956,1237
2487.617051256433,1268
2489.44275417375,1229
2491.26805857979,1224
2493.0929647635157,1217
2494.917473013971,1255
2496.741583620276,1245
2498.5652968716304,1277
2500.3886130573137,1240
2502.2115324666834,1232
2504.0340553891765,1222
2505.856182114308,1235
2507.6779129316733,1238
2509.499248130945,1270
2511.3201880018764,1273
2513.140732834298,1245
2514.9608829181198,1301
2516.780638543331,1295
2518.6,1279
2520.418967578273,1269
2522.237541568376,1279
2524.0557222606144,1263
2525.8735099453706,1245
2527.6909049131086,1332
2529.507907454368,1241
2531.32451785977,1250
2533.140736420014,1295
2534.9565634258774,1243
2536.771999168218,1296
2538.5870439379714,1351
2540.4016980261526,1304
2542.2159617238544,1319
2544.02983532225,1331
2545.8433191125914,1315
2547.656413386209,1320
2549.4691184345115,1295
2551.2814345489874,1341
2553.093362021204,1334
2554.904901142808,1336
2556.716052205523,1393
2558.526815501153,1359
2560.3371913215824,1401
2562.147179958771,1346
2563.956781704761,1384
2565.7659968516705,1395
2567.5748256916986,1429
2569.3832685171224,1418
2571.1913256202984,1463
2572.9989972936614,1452
2574.806283829725,1463
2576.613185521084,1504
2578.4197026604074,1439
2580.2258355404483,1507
2582.031584454035,1451
2583.836949694077,1519
2585.6419315535613,1533
2587.4465303255533,1450
2589.2507463032002,1484
2591.0545797797245,1456
2592.8580310484303,1499
2594.6611004026995,1557
2596.463788135992,1503
2598.266094541849,1522
2600.0680199138874,1554
2601.869564545807,1620
2603.670728731383,1510
2605.4715127644704,1406
2607.2719169390048,1496
2609.071941548998,1547
2610.8715868885433,1525
2612.670853251811,1517
2614.469740933052,1501
2616.268250226594,1463
2618.0663814268455,1514
2619.864134828292,1469
2621.6615107255006,1483
2623.458509413115,1467
2625.2551311858597,1475
2627.0513763385347,1436
2628.8472451660223,1464
2630.6427379632833,1468
2632.4378550253564,1438
2634.232596647359,1383
2636.026963124488,1422
2637.8209547520187,1344
2639.6145718253065,1389
2641.407814639785,1389
2643.200683490966,1407
2644.9931786744414,1421
2646.7853004858807,1457
2648.577049221034,1413
2650.3684251757277,1381
2652.1594286458712,1356
2653.9500599274484,1375
2655.740319316525,1362
2657.5302071092437,1369
2659.3197236018286,1310
2661.10886909058,1316
2662.8976438718782,1314
2664.686048242183,1335
2666.4740824980327,1347
2668.2617469360443,1284
2670.0490418529134,1322
2671.8359675454153,1295
2673.622524310403,1298
2675.408712444811,1241
2677.1945322456495,1274
2678.979984010009,1265
2680.76506803506,1200
2682.5497846180497,1227
2684.334134056306,1272
2686.1181166472343,1261
2687.9017326883213,1262
2689.6849824771293,1248
2691.4678663113013,1229
2693.2503844885596,1166
2695.032537306705,1263
2696.8143250636167,1218
2698.5957480572542,1212
2700.3768065856534,1201
2702.1575009469316,1236
2703.937831439283,1200
2705.717798360982,1236
2707.4974020103837,1204
2709.276642685917,1168
2711.055520686095,1199
2712.834036309506,1184
2714.612189854819,1226
2716.389981620782,1197
2718.1674119062204,1172
2719.944481010041,1139
2721.721189231226,1232
2723.4975368688415,1145
2725.273524222027,1175
2727.0491515900053,1185
2728.824419272075,1164
2730.5993275676146,1190
2732.3738767760838,1226
2734.148067197016,1179
2735.921899130031,1185
2737.6953728748194,1150
2739.468488731156,1160
2741.2412469988926,1138
2743.0136479779617,1092
2744.785691968372,1092
2746.5573792702116,1151
2748.3287101836504,1136
2750.099685008934,1119
2751.870304046388,1156
2753.640567596418,1132
2755.4104759595057,1188
2757.1800294362156,1180
2758.949228327187,1160
2760.7180729331412,1160
2762.486563554877,1197
2764.254700493272,1148
2766.022484049284,1142
2767.789914523947,1179
2769.5569922183786,1118
2771.3237174337705,1162
2773.090090471394,1171
2774.8561116326036,1155
2776.6217812188274,1169
2778.3870995315756,1177
2780.1520668724356,1142
2781.9166835430747,1148
2783.6809498452394,1189
2785.444866080754,1174
2787.2084325515225,1183
2788.971649559527,1150
2790.73451740683,1129
2792.4970363955713,1098
2794.2592068279705,1163
2796.0210290063264,1103
2797.7825032330147,1175
2799.543629810493,1168
2801.304409041296,1123
2803.0648412280366,1178
2804.8249266734088,1167
2806.5846656801846,1150
2808.344058551212,1149
2810.1031055894246,1144
2811.8618070978273,1151
2813.6201633795085,1159
2815.378174737636,1156
2817.1358414754536,1117
2818.893163896285,1159
2820.6501423035334,1170
2822.4067770006814,1179
2824.1630682912883,1172
2825.9190164789957,1186
2827.6746218675207,1130
2829.429884760661,1114
2831.184805462294,1228
2832.9393842763743,1173
2834.693621506936,1177
2836.4475174580916,1121
2838.201072434034,1093
2839.954286739034,1176
2841.707160677441,1140
2843.459694553685,1164
2845.2118886722724,1140
2846.96374333779,1088
2848.7152588549034,1165
2850.4664355283567,1147
2852.217273662973,1155
2853.9677735636546,1231
2855.7179355353833,1193
2857.4677598832186,1153
2859.217246912299,1186
2860.9663969278427,1138
2862.715210235146,1187
2864.4636871395846,1143
2866.211827946614,1154
2867.9596329617652,1102
2869.7071024906536,1114
2871.4542368389684,1130
2873.20103631248,1170
2874.947501217038,1143
2876.6936318585695,1129
2878.4394285430812,1157
2880.1848915766604,1171
2881.9300212654707,1146
2883.6748179157553,1136
2885.4192818338374,1162
2887.1634133261173,1164
2888.907212699077,1128
2890.6506802592744,1160
2892.393816313348,1189
2894.1366211680142,1100
2895.8790951300693,1129
2897.621238506388,1153
2899.363051603925,1166
2901.1045347297118,1153
2902.8456881908596,1198
2904.58651229456,1160
2906.327007348081,1157
2908.067173658772,1175
2909.8070115340597,1114
2911.5465212814497,1145
2913.285703208527,1146
2915.0245576229563,1165
2916.7630848324807,1094
2918.5012851449196,1113
2920.2391588681758,1150
2921.976706310227,1165
2923.7139277791334,1162
2925.4508235830313,1173
2927.187394030137,1136
2928.923639428745,1171
2930.6595600872306,1134
2932.395156314046,1126
2934.1304284177218,1165
2935.8653767068713,1140
2937.6000014901815,1100
2939.3343030764227,1149
2941.068281774442,1138
2942.8019378931644,1187
2944.5352717415976,1180
2946.2682836288236,1130
2948.0009738640065,1176
2949.7333427563885,1145
2951.465390615289,1138
2953.1971177501086,1147
2954.9285244703265,1130
2956.6596110855,1191
2958.3903779052657,1190
2960.1208252393385,1153
2961.8509533975125,1125
2963.5807626896617,1127
2965.3102534257378,1125
2967.0394259157715,1193
2968.768280469873,1150
2970.496817398232,1155
2972.2250370111146,1136
2973.952939618869,1146
2975.6805255319196,1130
2977.4077950607707,1144
2979.134748516006,1206
2980.861386208289,1161
2982.587708448359,1112
2984.313715547037,1161
2986.039407815222,1125
2987.764785563891,1111
2989.489849104102,1092
2991.2145987469908,1125
2992.9390348037705,1130
2994.6631575857346,1155
2996.3869674042576,1119
2998.1104645707887,1118
2999.83364939686,1175
3001.5565221940783,1124
3003.2790832741334,1177
3005.0013329487924,1212
3006.7232715298996,1110
3008.4448993293804,1109
3010.166216659239,1120
3011.887223831558,1144
3013.607921158498,1091
3015.3283089522993,1140
3017.0483875252826,1061
3018.7681571898443,1137
3020.4876182584626,1156
3022.2067710436927,1159
3023.9256158581707,1149
3025.644153014609,1178
3027.362382825801,1114
3029.0803056046193,1143
3030.797921664012,1134
3032.5152313170106,1154
3034.2322348767225,1118
3035.9489326563353,1125
3037.665324969115,1082
3039.3814121284063,1117
3041.097194447633,1174
3042.812672240299,1139
3044.5278458199855,1120
3046.2427155003525,1107
3047.9572815951406,1111
3049.671544418167,1156
3051.38550428333,1155
3053.0991615046073,1135
3054.812516396051,1170
3056.5255692717974,1112
3058.2383204460575,1175
3059.9507702331257,1159
3061.662918947372,1205
3063.3747669032446,1089
3065.0863144152736,1148
3066.7975617980674,1132
3068.508509366309,1120
3070.219157434767,1130
3071.9295063182844,1156
3073.639556331785,1113
3075.3493077902704,1096
3077.058761008821,1152
3078.7679163025964,1172
3080.476773986837,1143
3082.1853343768594,1120
3083.89359778806,1150
3085.6015645359153,1137
3087.3092349359786,1151
3089.016609303884,1191
3090.7236879553434,1157
3092.4304712061476,1110
3094.136959372166,1165
3095.843152769349,1149
3097.5490517137237,1137
3099.2546565213966,1146
3100.959967508554,1113
3102.66498499146,1125
3104.3697092864577,1144
3106.0741407099695,1172
3107.778279578498,1174
3109.482126208622,1166
3111.1856809170004,1138
3112.8889440203716,1134
3114.5919158355528,1174
3116.294596679439,1129
3117.996986869006,1168
3119.6990867213062,1113
3121.4008965534726,1199
3123.102416682717,1153
3124.803647426329,1153
3126.5045891016784,1134
3128.205242026213,1154
3129.90560651746,1166
3131.605682893025,1121
3133.3054714705922,1184
3135.0049725679282,1229
3136.7041865028714,1171
3138.4031135933465,1236
3140.101754157353,1154
3141.800108512971,1175
3143.498176978357,1173
3145.1959598717494,1133
3146.8934575114636,1161
3148.5906702158954,1072
3150.2875983035183,1126
3151.9842420928853,1139
3153.680601902627,1159
3155.376678051456,1101
3157.07247085816,1128
3158.767980641609,1094
3160.463207720748,1125
3162.158152414606,1164
3163.8528150422862,1176
3165.5471959229726,1124
3167.2412953759303,1122
3168.9351137204976,1122
3170.628651276098,1129
3172.3219083622307,1150
3174.014885298474,1127
3175.707582404485,1129
3177.4000000000005,1143
3179.092138404835,1155
3180.7839979388846,1128
3182.47557892212,1115
3184.166881674594,1106
3185.8579065164386,1107
3187.5486537678626,1120
3189.2391237491547,1154
3190.9293167806827,1139
3192.6192331828934,1110
3194.3088732763117,1110
3195.998237381542,1120
3197.687325819268,1132
3199.376138910251,1095
3201.064676975334,1133
3202.7529403354347,1100
3204.4409293115523,1091
3206.1286442247647,1087
3207.816085396229,1083
3209.5032531471825,1132
3211.190147798936,1106
3212.8767696728846,1137
3214.5631190905015,1119
3216.2491963733373,1129
3217.9350018430214,1093
3219.6205358212637,1139
3221.305798629851,1093
3222.990790590651,1069
3224.6755120256103,1131
3226.359963256751,1088
3228.0441446061795,1135
3229.7280563960758,1091
3231.411698948703,1154
3233.0950725863995,1150
3234.778177631587,1138
3236.461014406761,1124
3238.1435832345005,1167
3239.8258844374595,1154
3241.507918338374,1186
3243.1896852600576,1116
3244.8711855254023,1116
3246.552419457381,1114
3248.233387379042,1082
3249.914089613516,1087
3251.59452648401,1111
3253.274698313813,1135
3254.95460542629,1095
3256.6342481448855,1101
3258.313626793125,1177
3259.9927416946084,1104
3261.6715931730196,1113
3263.3501815521176,1093
3265.0285071557437,1078
3266.706570307815,1117
3268.3843713323286,1126
3270.0619105533615,1156
3271.739188295068,1112
3273.4162048816834,1107
3275.0929606375184,1163
3276.769455886966,1089
3278.445690954498,1129
3280.1216661646613,1168
3281.797381842087,1156
3283.4728383114807,1159
3285.1480358976296,1154
3286.8229749253996,1131
3288.4976557197333,1118
3290.172078605655,1071
3291.846243908266,1096
3293.5201519527463,1145
3295.193803064357,1124
3296.8671975684374,1094
3298.5403357904024,1124
3300.21321805575,1087
3301.8858446900567,1117
3303.558216018975,1102
3305.23033236824,1107
3306.9021940636603,1165
3308.57380143113,1162
3310.2451547966184,1134
3311.916254486174,1095
3313.5871008259246,1092
3315.2576941420766,1108
3316.9280347609147,1105
3318.5981230088046,1080
3320.2679592121895,1083
3321.9375436975924,1120
3323.606876791612,1094
3325.27595882093,1089
3326.944790112305,1077
3328.6133709925753,1130
3330.2817017886573,1102
3331.949782827547,1081
3333.617614436319,1064
3335.2851969421245,1103
3336.952530672199,1114
3338.619615953853,1104
3340.286453114475,1103
3341.9530424815357,1131
3343.619384382583,1130
3345.2854791452437,1111
3346.951327097224,1082
3348.6169285663073,1116
3350.2822838803577,1124
3351.947393367319,1095
3353.61225735521,1114
3355.2768761721345,1157
3356.9412501462693,1109
3358.605379605873,1108
3360.2692648792827,1164
3361.9329062949146,1070
3363.596304181263,1089
