CollectionTime,7/11/2024 1:55:33 PM
ExposureUsed,3
CalibratedSpectrum
-962.7078968117929,555
-959.9714848408522,600
-957.2358232597828,612
-954.5009119013725,574
-951.7667505983302,602
-949.0333391832855,612
-946.3006774887896,629
-943.5687653473143,600
-940.837602591253,623
-938.1071890529199,634
-935.3775245645503,601
-932.6486089583007,592
-929.9204420662485,609
-927.1930237203925,613
-924.4663537526524,578
-921.7404319948689,588
-919.0152582788041,612
-916.2908324361409,637
-913.5671542984834,626
-910.8442236973568,622
-908.1220404642074,610
-905.4006044304027,603
-902.679915427231,600
-899.959973285902,584
-897.2407778375464,557
-894.5223289132158,592
-891.8046263438832,601
-889.0876699604426,579
-886.3714595937089,598
-883.6559950744183,587
-880.9412762332282,599
-878.2273029007168,603
-875.5140749073835,552
-872.8015920836489,553
-870.0898542598545,560
-867.3788612662631,585
-864.6686129330585,583
-861.9591090903457,582
-859.2503495681506,581
-856.5423341964203,570
-853.8350628050229,581
-851.1285352237478,594
-848.4227512823054,575
-845.7177108103272,570
-843.0134136373656,596
-840.3098595928943,597
-837.6070485063082,618
-834.9049802069229,635
-832.2036545239757,595
-829.5030712866244,607
-826.8032303239481,608
-824.1041314649472,570
-821.4057745385428,579
-818.7081593735775,591
-816.0112857988148,591
-813.3151536429393,584
-810.6197627345566,603
-807.9251129021936,584
-805.2312039742981,594
-802.5380357792392,604
-799.8456081453069,575
-797.1539209007124,577
-794.462973873588,620
-791.772766891987,608
-789.083299783884,591
-786.3945723771743,604
-783.7065844996748,599
-781.0193359791231,597
-778.3328266431781,592
-775.6470563194197,611
-772.9620248353489,609
-770.2777320183878,589
-767.5941776958798,583
-764.9113616950891,592
-762.2292838432011,599
-759.5479439673222,631
-756.8673418944801,608
-754.1874774516235,626
-751.5083504656222,627
-748.8299607632671,623
-746.15230817127,603
-743.475392516264,605
-740.7992136248035,636
-738.1237713233636,644
-735.4490654383407,633
-732.7750957960521,648
-730.1018622227365,619
-727.4293645445534,600
-724.7576025875837,632
-722.0865761778291,651
-719.4162851412126,631
-716.7467293035781,642
-714.0779084906909,625
-711.409822528237,601
-708.7424712418238,622
-706.0758544569796,625
-703.4099719991541,642
-700.7448236937178,667
-698.0804093659622,666
-695.4167288411002,676
-692.7537819442656,721
-690.0915685005134,668
-687.4300883348199,654
-684.7693412720819,664
-682.1093271371178,676
-679.4500457546669,665
-676.7914969493897,656
-674.1336805458676,672
-671.4765963686034,683
-668.8202442420206,679
-666.1646239904642,643
-663.5097354382001,680
-660.8555784094151,672
-658.2021527282176,670
-655.5494582186366,682
-652.8974947046223,664
-650.2462620100463,676
-647.5957599587009,686
-644.9459883742998,734
-642.2969470804776,730
-639.6486359007902,715
-637.0010546587141,715
-634.3542031776476,693
-631.7080812809096,716
-629.0626887917401,714
-626.4180255333008,713
-623.7740913286734,700
-621.1308860008619,717
-618.4884093727904,697
-615.8466612673046,674
-613.2056415071715,699
-610.5653499150785,722
-607.9257863136347,756
-605.28695052537,711
-602.6488423727357,709
-600.0114616781036,717
-597.3748082637674,685
-594.7388819519412,727
-592.1036825647604,747
-589.4692099242818,754
-586.8354638524829,755
-584.2024441712624,747
-581.5701507024403,713
-578.9385832677575,722
-576.3077416888759,729
-573.6776257873787,735
-571.0482353847704,745
-568.4195703024757,720
-565.7916303618415,736
-563.164415384135,736
-560.5379251905453,722
-557.9121596021815,706
-555.2871184400748,728
-552.6628015251767,717
-550.0392086783606,743
-547.4163397204204,699
-544.794194472071,741
-542.1727727539491,708
-539.5520743866118,739
-536.9320991905377,767
-534.3128469861261,773
-531.6943175936979,774
-529.0765108334947,794
-526.4594265256793,838
-523.8430644903358,867
-521.2274245474689,958
-518.612506517005,1005
-515.9983102187913,1031
-513.3848354725959,1105
-510.77208209810846,1094
-508.16004991493924,1165
-505.5487387426199,1255
-502.9381484006032,1377
-500.3282787082628,1414
-497.71912948489364,1422
-495.1107005497117,1354
-492.5029917218539,1191
-489.8960028203786,1108
-487.28973366426493,1058
-484.68418407241325,974
-482.07935386364494,941
-479.47524285670266,883
-476.87185087025,883
-474.2691777228715,883
-471.66722323307334,866
-469.0659872192821,885
-466.4654694998459,873
-463.86566989303384,877
-461.26658821703614,925
-458.66822428996414,862
-456.07057792985,874
-453.4736489546475,883
-450.877437182231,896
-448.28194243039627,795
-445.68716451686,858
-443.09310325926003,857
-440.49975847515555,850
-437.9071299820263,847
-435.31521759727354,847
-432.72402113821954,864
-430.13354042210767,904
-427.5437752661022,901
-424.95472548728867,875
-422.36639090267386,894
-419.7787713291855,935
-417.1918665836721,972
-414.60567648290385,953
-412.0202008435715,967
-409.4354394822874,972
-406.8513922155845,955
-404.26805885991723,1026
-401.685439231661,1020
-399.103533147112,1028
-396.522340422488,967
-393.9418608739278,982
-391.3620943174908,953
-388.7830405691583,900
-386.2046994448317,911
-383.6270707603344,821
-381.05015433141045,797
-378.473949973725,735
-375.8984575028645,724
-373.32367673433623,663
-370.74960748356875,652
-368.1762495659117,584
-365.60360279663576,593
-363.03166699093265,552
-360.4604419639154,499
-357.8899275306178,491
-355.32012350599507,464
-352.7510297049233,479
-350.1826459421999,466
-347.61497203254316,440
-345.04800779059235,444
-342.4817530309082,456
-339.91620756797226,458
-337.35137121618743,455
-334.7872437898774,465
-332.22382510328725,527
-329.66111497058273,501
-327.09911320585127,470
-324.53781962310075,494
-321.9772340362607,473
-319.4173562591816,461
-316.8581861056348,463
-314.2997233893127,468
-311.7419679238294,489
-309.1849195227194,450
-306.62857799943856,473
-304.0729431673641,504
-301.51801483979375,559
-298.963792829947,584
-296.41027695096386,514
-293.85746701590574,548
-291.3053628377552,556
-288.7539642294155,529
-286.2032710037115,498
-283.65328297338897,558
-281.1039999511146,508
-278.5554217494762,529
-276.007548180983,635
-273.4603790580651,628
-270.9139141930734,612
-268.3681533982807,614
-265.8230964858798,594
-263.27874326798565,619
-260.7350935566336,630
-258.1921471637804,667
-255.6499039013039,613
-253.10836358100266,579
-250.56752601459698,554
-248.02739101372765,594
-245.48795838995704,635
-242.94922795476816,620
-240.41119951956557,605
-237.8738728956746,652
-235.33724789434166,697
-232.80132432673452,579
-230.2661020039418,592
-227.73158073697357,585
-225.19776033676033,605
-222.66464061415422,611
-220.1322213799284,651
-217.60050244477725,595
-215.06948361931552,562
-212.53916471408013,670
-210.00954553952818,671
-207.48062590603843,644
-204.9524056239104,646
-202.4248845033651,639
-199.8980623545441,649
-197.37193898751036,760
-194.84651421224817,700
-192.32178783866232,726
-189.79775967657952,735
-187.27442953574644,758
-184.7517972258321,790
-182.2298625564256,774
-179.7086253370378,764
-177.18808537710026,829
-174.66824248596583,752
-172.14909647290835,736
-169.6306471471229,699
-167.11289431772548,797
-164.59583779375328,794
-162.07947738416453,816
-159.5638128978386,885
-157.04884414357605,937
-154.53457093009854,970
-152.02099306604828,954
-149.50811035998936,921
-146.99592262040665,874
-144.48442965570587,977
-141.97363127421409,1104
-139.46352728417958,1073
-136.95411749377126,1083
-134.44540171107985,890
-131.93737974411636,802
-129.43005140081357,825
-126.92341648902493,1069
-124.41747481652521,1417
-121.91222619101006,1612
-119.40767042009657,1639
-116.90380731132257,1696
-114.40063667214702,1661
-111.8981583099503,1527
-109.3963720320337,1425
-106.89527764561933,1512
-104.39487495785067,2144
-101.89516377579241,2972
-99.39614390642998,3495
-96.89781515667039,3082
-94.40017733334128,3015
-91.90323024319173,3049
-89.40697369289148,3651
-86.91140748903172,5174
-84.41653143812482,6239
-81.92234534660395,4979
-79.42884902082358,3400
-76.93604226705907,2843
-74.4439248915071,4546
-71.95249670028534,8476
-69.46175749943245,13017
-66.97170709490854,15693
-64.48234529259423,14905
-61.99367189829195,14131
-59.50568671772464,12447
-57.01838955653636,10817
-54.53178022029283,8279
-52.045858514480074,7127
-49.560624244506016,8108
-47.07607721569923,9289
-44.59221723330904,9733
-42.10904410250669,9249
-39.62655762838392,9069
-37.14475761595372,10002
-34.66364387015028,12029
-32.18321619582866,13074
-29.70347439776515,14633
-27.224418280657005,15596
-24.74604764912317,15878
-22.26836230770266,18240
-19.7913620608565,29128
-17.315046712966478,47265
-14.83941606833514,60619
-12.36446993118659,65038
-9.89020810566592,65038
-7.416630395839093,65038
-4.94373660569363,65038
-2.471526539137585,65038
-6.821210263296962E-13,65038
2.47084320796705,65038
4.941003281093458,65038
7.410480415786196,65038
9.879274808531363,65038
12.347386655893956,65038
14.814816154518212,65038
17.28156350112681,65038
19.74762889252179,65038
22.21301252558385,65038
24.67771459727237,21312
27.141735304626195,4421
29.605074844762612,2716
32.06773341487792,2286
34.52971121224755,2337
36.99100843422559,2128
39.45162527824516,2113
41.91156194181792,2040
44.370818622535126,1530
46.82939551806646,1265
49.287292826160524,1329
51.74451074464503,1538
54.201049471426245,1994
56.65690920448981,2039
59.112090141899785,1412
61.56659248179983,1348
64.02041642241159,1550
66.4735621620365,1338
68.92602989905402,1355
71.37781983192338,1279
73.82893215918205,1288
76.27936707944684,1362
78.72912479141326,1403
81.17820549385567,1194
83.62660938562783,1241
86.07433666566146,1429
88.5213875329681,1043
90.96776218663751,955
93.41346082583925,974
95.85848364982041,968
98.30283085790859,1072
100.7465026495089,1135
103.18949922410604,1223
105.63182078126385,1311
108.07346752062438,1218
110.51443964190923,990
112.95473734491827,890
115.39436082953114,882
117.83331029570547,1015
120.27158594347827,1063
122.7091879729652,1035
125.1461165843615,1067
127.58237197794062,1012
130.01795435405518,991
132.4528639131364,1087
134.88710085569494,1024
137.32066538231982,1014
139.75355769367923,985
142.1857779905207,975
144.61732647366978,1041
147.04820334403132,876
149.47840880258934,880
151.90794305040674,966
154.33680628862487,1137
156.76499871846443,1277
159.19252054122433,1343
161.61937195828352,1471
164.04555317109896,1546
166.47106438120693,1732
168.89590579022217,1867
171.320077599839,1969
173.7435800118302,1990
176.16641322804742,2156
178.58857745042144,2362
181.01007288096173,2495
183.43089972175687,2519
185.85105817497413,2431
188.27054844285988,2437
190.6893707277394,2478
193.10752523201643,2445
195.5250121581745,2393
197.9418317087751,2472
200.3579840864594,2561
202.7734694939469,2551
205.18828813403627,2542
207.6024402096051,2595
210.01592592360964,2665
212.42874547908548,2637
214.84089907914665,2570
217.2523869269868,2562
219.66320922587727,2616
222.0733661791695,2537
224.48285799029293,2448
226.8916848627572,2600
229.29984700014882,2659
231.7073446061355,2735
234.11417788446204,2727
236.520347038953,2737
238.92585227351185,2804
241.33069379212054,2901
243.73487179884035,2920
246.1383864978112,2972
248.541238093252,3127
250.9434267894609,2991
253.34495279081432,2946
255.74581630176783,3158
258.1460175268563,3081
260.54555667069314,3097
262.9444339379703,2989
265.3426495334594,2861
267.7402036620107,2802
270.1370965285529,2773
272.53332833809407,2653
274.9288992957214,2574
277.32380960660055,2461
279.718059475976,2370
282.1116491091717,2452
284.5045787115897,2320
286.89684848871195,2278
289.2884586460981,2342
291.67940938938807,2338
294.0697009242996,2398
296.4593334566299,2406
298.84830719225477,2378
301.23662233712923,2339
303.6242790972866,2308
306.01127767884,2277
308.39761828798066,2187
310.78330113097934,2303
313.16832641418534,2138
315.5526943440269,2168
317.9364051270112,2050
320.3194589697242,2081
322.70185607883093,2186
325.0835966610754,2060
327.4646809232805,2033
329.8451090723478,2001
332.2248813152577,2070
334.6039978590701,2068
336.9824589109231,1979
339.36026467803447,1952
341.7374153677,1976
344.113911187295,1946
346.48975234427337,2012
348.8649390461686,1996
351.2394715005918,1931
353.61334991523415,1961
355.9865744978655,1937
358.35914545633375,1945
360.73106299856715,1972
363.10232733257146,1981
365.47293866643247,1952
367.84289720831396,1870
370.2122031664593,1930
372.5808567491905,1868
374.9488581649083,1891
377.31620762209275,1796
379.6829053293021,1780
382.0489514951745,1813
384.4143463284262,1843
386.7790900378528,1789
389.14318283232853,1862
391.50662492080653,1841
393.86941651231916,1810
396.23155781597745,1853
398.5930490409713,1821
400.9538903965696,1826
403.3140820921202,1836
405.6736243370498,1834
408.03251734086336,1835
410.3907613131465,1794
412.74835646356166,1800
415.10530300185144,1818
417.4616011378372,1741
419.81725108141893,1784
422.1722530425758,1775
424.5266072313656,1842
426.880313857925,1787
429.2333731324701,1772
431.58578526529516,1718
433.9375504667738,1817
436.2886689473588,1744
438.63914091758113,1761
440.9889665880513,1719
443.33814616945835,1752
445.68667987257015,1670
448.03456790823395,1737
450.3818104873759,1741
452.72840782100013,1719
455.07436012019105,1709
457.41966759611057,1709
459.7643304600007,1692
462.10834892318155,1753
464.4517231970525,1736
466.79445349309174,1831
469.1365400228566,1781
471.4779829979826,1716
473.81878263018564,1699
476.15893913125876,1742
478.4984527130747,1788
480.8373235875855,1822
483.17555196682144,1808
485.5131380628919,1821
487.8500820879857,1885
490.1863842543697,1969
492.52204477439034,2088
494.8570638604725,2140
497.1914417251204,2348
499.52517858091653,2574
501.85827464052306,2814
504.19073011668036,2776
506.5225452222086,2835
508.85372017000566,2797
511.18425517304956,2720
513.514150444396,2682
515.8434061971808,2933
518.1720226446176,3369
520.4999999999999,3484
522.8273384766991,3321
525.1540382881666,3178
527.480099647932,3012
529.8055227696037,2602
532.1303078668694,2109
534.454455153496,1937
536.777964843328,1807
539.1008371502907,1780
541.4230722883866,1764
543.744670471698,1732
546.0656319143858,1712
548.3859568306899,1736
550.7056454349294,1708
553.0246979415016,1749
555.3431145648834,1738
557.6608955196306,1661
559.978041020377,1679
562.2945512818363,1644
564.6104265188006,1739
566.9256669461412,1708
569.2402727788082,1745
571.5542442318302,1784
573.8675815203156,1729
576.1802848594508,1745
578.4923544645015,1731
580.8037905508126,1686
583.114593333807,1670
585.4247630289875,1702
587.7342998519354,1689
590.0432040183106,1687
592.3514757438526,1745
594.6591152443794,1763
596.9661227357875,1697
599.2724984340531,1790
601.578242555231,1700
603.8833553154542,1682
606.1878369309362,1723
608.4916876179676,1743
610.7949075929192,1714
613.0974970722403,1653
615.3994562724587,1677
617.7007854101818,1682
620.0014847020951,1766
622.3015543649641,1791
624.6009946156324,1735
626.8998056710224,1766
629.1979877481361,1803
631.4955410640538,1755
633.7924658359349,1795
636.0887622810175,1764
638.3844306166192,1766
640.6794710601358,1754
642.9738838290426,1799
645.2676691408932,1857
647.5608272133207,1809
649.853358264037,1811
652.1452625108324,1780
654.4365401715764,1817
656.7271914642178,1786
659.0172166067838,1860
661.3066158173809,1800
663.5953893141935,1886
665.8835373154867,1830
668.1710600396028,1869
670.4579577049639,1768
672.7442305300709,1819
675.0298787335033,1751
677.3149025339197,1744
679.599302150058,1775
681.8830778007342,1829
684.1662297048437,1787
686.4487580813608,1759
688.7306631493387,1802
691.0119451279091,1810
693.2926042362834,1841
695.5726406937516,1827
697.8520547196814,1786
700.1308465335215,1802
702.4090163547982,1739
704.6865644031171,1833
706.9634908981619,1834
709.2397960596965,1842
711.5154801075631,1768
713.7905432616823,1792
716.0649857420548,1743
718.3388077687592,1803
720.612009561953,1773
722.8845913418733,1779
725.1565533288352,1806
727.427895743234,1766
729.6986188055427,1757
731.9687227363137,1775
734.238207756178,1730
736.5070740858458,1806
738.7753219461066,1740
741.0429515578281,1760
743.3099631419569,1797
745.5763569195191,1810
747.8421331116193,1772
750.1072919394409,1772
752.3718336242467,1754
754.6357583873777,1769
756.8990664502545,1745
759.1617580343765,1843
761.423833361321,1761
763.6852926527457,1800
765.9461361303862,1771
768.206364016058,1765
770.4659765316536,1746
772.7249738991469,1790
774.9833563405886,1868
777.2411240781092,1840
779.4982773339183,1802
781.7548163303044,1818
784.010741289634,1875
786.2660524343538,1858
788.5207499869881,1850
790.7748341701416,1854
793.0283052064964,1864
795.2811633188143,1779
797.5334087299362,1893
799.7850416627813,1791
802.0360623403484,1821
804.2864709857143,1818
806.5362678220353,1772
808.7854530725468,1845
811.0340269605625,1812
813.2819897094754,1840
815.5293415427581,1867
817.77608268396,1832
820.0222133567116,1821
822.2677337847211,1879
824.5126441917765,1869
826.7569448017433,1783
829.0006358385675,1796
831.2437175262731,1749
833.4861900889629,1871
835.7280537508192,1864
837.9693087361026,1832
840.2099552691533,1809
842.4499935743896,1858
844.689423876309,1850
846.9282463994886,1813
849.1664613685833,1780
851.4040690083276,1788
853.6410695435349,1821
855.877463199097,1881
858.1132501999847,1778
860.3484307712487,1761
862.5830051380175,1807
864.8169735254988,1816
867.0503361589791,1842
869.2830932638243,1862
871.5152450654786,1776
873.7467917894654,1843
875.9777336613873,1816
878.2080709069252,1849
880.4378037518389,1845
882.666932421968,1844
884.8954571432301,1915
887.1233781416219,1872
889.3506956432192,1840
891.5774098741766,1847
893.803521060728,1853
896.0290294291852,1867
898.2539352059397,1833
900.4782386174619,1870
902.7019398903011,1844
904.925039251085,1881
907.147536926521,1953
909.3694331433943,1807
911.59072812857,1832
913.8114221089921,1793
916.0315153116827,1833
918.2510079637437,1749
920.4699002923547,1767
922.6881925247761,1815
924.905884888345,1778
927.1229776104793,1761
929.3394709186747,1818
931.555365040506,1774
933.7706602036275,1724
935.9853566357709,1852
938.1994545647489,1824
940.4129542184515,1778
942.6258558248488,1801
944.8381596119883,1741
947.0498658079974,1754
949.2609746410825,1814
951.4714863395287,1693
953.6814011316998,1791
955.8907192460387,1794
958.0994409110671,1722
960.3075663553858,1763
962.5150958076741,1750
964.7220294966913,1755
966.928367651274,1768
969.1341105003388,1738
971.3392582728806,1752
973.5438111979742,1761
975.747769504772,1622
977.9511334225061,1679
980.153903180487,1741
982.3560790081052,1681
984.5576611348289,1683
986.7586497902058,1695
988.9590452038618,1650
991.158847605503,1582
993.3580572249133,1589
995.5566742919558,1610
997.7546990365728,1608
999.952131688785,1595
1002.1489724786926,1547
1004.3452216364743,1562
1006.5408793923874,1514
1008.7359459767691,1579
1010.9304216200343,1559
1013.1243065526781,1556
1015.3176010052733,1551
1017.510305208472,1486
1019.7024193930064,1472
1021.8939437896848,1485
1024.0848786293977,1536
1026.2752241431122,1533
1028.4649805618747,1507
1030.6541481168115,1528
1032.842727039127,1500
1035.0307175601051,1475
1037.2181199111074,1487
1039.4049343235752,1483
1041.591161029029,1478
1043.7768002590683,1486
1045.9618522453698,1437
1048.1463172196918,1446
1050.3301954138697,1480
1052.513487059818,1502
1054.69619238953,1544
1056.8783116350783,1474
1059.0598450286152,1450
1061.2407928023704,1453
1063.4211551886528,1435
1065.6009324198508,1411
1067.780124728432,1471
1069.9587323469414,1460
1072.1367555080046,1430
1074.314194444325,1501
1076.4910493886855,1462
1078.667320573947,1474
1080.843008233051,1350
1083.0181125990161,1417
1085.1926339049414,1386
1087.3665723840027,1419
1089.5399282694575,1400
1091.7127017946405,1443
1093.8848931929647,1326
1096.0565026979243,1386
1098.2275305430899,1378
1100.3979769621128,1448
1102.567842188722,1364
1104.737126456726,1362
1106.9058300000124,1395
1109.0739530525475,1409
1111.2414958483764,1394
1113.4084586216231,1395
1115.5748416064907,1394
1117.7406450372605,1404
1119.9058691482942,1438
1122.0705141740304,1390
1124.2345803489884,1338
1126.3980679077658,1392
1128.5609770850388,1360
1130.7233081155623,1302
1132.8850612341707,1439
1135.0462366757774,1400
1137.2068346753745,1358
1139.3668554680326,1318
1141.526299288901,1338
1143.68516637321,1350
1145.8434569562655,1319
1148.001171273455,1354
1150.158309560244,1341
1152.3148720521767,1357
1154.470858984876,1372
1156.626270594044,1399
1158.7811071154629,1377
1160.9353687849912,1385
1163.089055838569,1331
1165.242168512213,1347
1167.3947070420209,1319
1169.5466716641677,1318
1171.6980626149075,1313
1173.8488801305748,1390
1175.9991244475814,1301
1178.1487958024186,1364
1180.2978944316555,1346
1182.4464205719428,1285
1184.5943744600072,1286
1186.7417563326567,1303
1188.8885664267755,1301
1191.0348049793297,1341
1193.1804722273619,1326
1195.325568407995,1382
1197.4700937584303,1318
1199.614048515948,1325
1201.7574329179074,1347
1203.900247201746,1343
1206.042491604982,1294
1208.1841663652099,1322
1210.3252717201053,1340
1212.465807907422,1351
1214.6057751649923,1354
1216.7451737307279,1333
1218.8840038426192,1331
1221.0222657387353,1338
1223.1599596572241,1326
1225.2970858363137,1310
1227.4336445143094,1349
1229.5696359295966,1400
1231.705060320639,1426
1233.8399179259786,1407
1235.9742089842384,1330
1238.107933734118,1350
1240.2410924143974,1400
1242.373685263935,1414
1244.5057125216676,1345
1246.6371744266116,1385
1248.7680712178621,1375
1250.898403134593,1360
1253.028170416058,1381
1255.1573733015875,1346
1257.2860120305932,1321
1259.4140868425648,1342
1261.54159797707,1430
1263.6685456737569,1400
1265.7949301723515,1354
1267.9207517126597,1353
1270.046010534565,1369
1272.1707068780306,1360
1274.2948409830983,1391
1276.4184130898889,1393
1278.541423438603,1414
1280.6638722695184,1370
1282.785759822993,1415
1284.9070863394636,1370
1287.0278520594447,1394
1289.1480572235314,1401
1291.2677020723963,1467
1293.3867868467923,1405
1295.5053117875495,1425
1297.623277135579,1494
1299.740683131868,1433
1301.8575300174857,1466
1303.973818033578,1460
1306.0895474213703,1456
1308.2047184221678,1487
1310.3193312773528,1479
1312.4333862283888,1477
1314.5468835168163,1496
1316.659823384255,1462
1318.7722060724045,1458
1320.8840318230418,1444
1322.9953008780249,1510
1325.1060134792888,1467
1327.2161698688478,1444
1329.3257702887959,1470
1331.4348149813054,1468
1333.5433041886276,1499
1335.6512381530933,1453
1337.7586171171101,1428
1339.8654413231675,1467
1341.9717110138317,1483
1344.0774264317488,1474
1346.1825878196432,1411
1348.2871954203192,1445
1350.3912494766587,1468
1352.4947502316231,1484
1354.5976979282532,1441
1356.7000928096686,1455
1358.8019351190665,1456
1360.9032250997243,1442
1363.0039629949988,1439
1365.1041490483235,1442
1367.2037835032133,1419
1369.3028666032606,1455
1371.401398592137,1488
1373.4993797135926,1450
1375.5968102114575,1522
1377.6936903296396,1477
1379.7900203121262,1518
1381.8858004029835,1466
1383.9810308463561,1494
1386.075711886469,1517
1388.1698437676241,1532
1390.2634267342032,1447
1392.356461030667,1491
1394.4489469015557,1474
1396.5408845914872,1589
1398.6322743451592,1538
1400.7231164073469,1507
1402.813411022907,1465
1404.903158436773,1590
1406.9923588939578,1626
1409.0810126395531,1577
1411.1691199187303,1580
1413.2566809767386,1555
1415.343696058907,1511
1417.4301654106425,1528
1419.5160892774315,1608
1421.6014679048399,1639
1423.6863015385125,1631
1425.7705904241707,1594
1427.8543348076178,1612
1429.9375349347342,1671
1432.0201910514802,1699
1434.102303403894,1623
1436.1838722380944,1685
1438.2648978002767,1712
1440.3453803367174,1698
1442.4253200937692,1756
1444.5047173178677,1840
1446.5835722555234,1821
1448.6618851533285,1854
1450.739656257952,1859
1452.8168858161434,1861
1454.8935740747306,1862
1456.96972128062,1989
1459.045327680797,1952
1461.120393522327,1980
1463.1949190523528,2012
1465.2689045180973,2011
1467.3423501668608,2106
1469.415256246024,2109
1471.4876230030463,2174
1473.559450685465,2108
1475.6307395408976,2166
1477.7014898170391,2190
1479.771701761665,2321
1481.8413756226287,2362
1483.9105116478618,2333
1485.9791100853772,2418
1488.0471711832643,2503
1490.1146951896926,2425
1492.1816823529098,2461
1494.2481329212433,2574
1496.3140471430984,2535
1498.3794252669609,2558
1500.4442675413939,2602
1502.5085742150404,2569
1504.572345536622,2594
1506.6355817549388,2671
1508.6982831188702,2628
1510.7604498773744,2744
1512.8220822794883,2747
1514.8831805743293,2704
1516.9437450110909,2742
1519.003775839048,2794
1521.0632733075522,2797
1523.1222376660367,2821
1525.1806691640113,2865
1527.2385680510652,2911
1529.2959345768668,2924
1531.3527689911643,2909
1533.4090715437833,3077
1535.4648424846291,3152
1537.5200820636855,3164
1539.5747905310159,3122
1541.6289681367616,3145
1543.6826151311434,3110
1545.7357317644614,3288
1547.7883182870937,3299
1549.8403749494987,3244
1551.8919020022113,3328
1553.9428996958477,3330
1555.9933682811015,3478
1558.0433080087469,3514
1560.0927191296346,3587
1562.1416018946961,3732
1564.1899565549415,3632
1566.2377833614592,3548
1568.2850825654164,3487
1570.3318544180606,3419
1572.3780991707158,3365
1574.423817074788,3218
1576.4690083817595,3058
1578.5136733431923,2929
1580.5578122107272,2904
1582.601425236085,2733
1584.6445126710646,2594
1586.6870747675434,2446
1588.7291117774776,2372
1590.7706239529034,2220
1592.8116115459347,2217
1594.8520748087658,2238
1596.8920139936686,2076
1598.9314293529933,2021
1600.9703211391711,1942
1603.008689604711,1842
1605.0465350022005,1786
1607.0838575843068,1735
1609.1206576037753,1793
1611.1569353134305,1750
1613.1926909661765,1735
1615.2279248149953,1732
1617.2626371129481,1682
1619.2968281131757,1642
1621.3304980688963,1638
1623.3636472334088,1636
1625.39627586009,1531
1627.428384202396,1537
1629.459972513861,1488
1631.4910410480993,1556
1633.5215900588028,1589
1635.551619799744,1498
1637.5811305247717,1501
1639.6101224878166,1553
1641.6385959428862,1498
1643.6665511440683,1545
1645.693988345528,1492
1647.7209078015112,1530
1649.7473097663405,1514
1651.7731944944203,1461
1653.7985622402307,1419
1655.823413258333,1476
1657.847747803366,1504
1659.8715661300494,1438
1661.8948684931793,1461
1663.9176551476316,1461
1665.9399263483624,1446
1667.9616823504057,1440
1669.982923408873,1431
1672.0036497789574,1431
1674.0238617159293,1448
1676.043559475138,1452
1678.0627433120121,1432
1680.081413482059,1453
1682.0995702408654,1437
1684.117213844096,1452
1686.134344547495,1455
1688.1509626068864,1378
1690.1670682781705,1419
1692.182661817329,1407
1694.1977434804217,1433
1696.2123135235875,1489
1698.226372203043,1425
1700.2399197750851,1436
1702.2529564960905,1454
1704.2654826225112,1417
1706.277498410882,1446
1708.2890041178139,1436
1710.2999999999988,1439
1712.3104863142066,1400
1714.3204633172854,1418
1716.329931266163,1422
1718.3388904178469,1467
1720.3473410294214,1364
1722.3552833580516,1384
1724.3627176609807,1413
1726.3696441955308,1465
1728.3760632191033,1409
1730.3819749891782,1350
1732.3873797633146,1339
1734.3922777991502,1348
1736.3966693544012,1352
1738.4005546868639,1354
1740.4039340544127,1353
1742.406807715001,1344
1744.4091759266616,1359
1746.4110389475054,1330
1748.4123970357223,1365
1750.413250449582,1370
1752.4135994474318,1310
1754.4134442876993,1341
1756.4127852288902,1359
1758.4116225295893,1340
1760.4099564484595,1321
1762.407787244244,1348
1764.405115175764,1379
1766.4019405019203,1343
1768.3982634816916,1307
1770.3940843741357,1278
1772.3894034383907,1337
1774.3842209336717,1291
1776.378537119274,1303
1778.372352254571,1321
1780.3656665990156,1327
1782.3584804121397,1330
1784.3507939535534,1308
1786.3426074829463,1279
1788.3339212600863,1306
1790.3247355448211,1303
1792.3150505970766,1334
1794.3048666768573,1272
1796.2941840442477,1295
1798.2830029594106,1239
1800.2713236825884,1287
1802.2591464741004,1325
1804.2464715943465,1294
1806.2332993038058,1326
1808.2196298630352,1252
1810.2054635326708,1297
1812.190800573428,1326
1814.175641246101,1300
1816.1599858115628,1330
1818.1438345307652,1259
1820.127187664738,1336
1822.1100454745924,1299
1824.092408221516,1277
1826.0742761667766,1250
1828.055649571721,1305
1830.0365286977735,1275
1832.0169138064398,1311
1833.9968051593014,1300
1835.9762030180214,1262
1837.9551076443408,1338
1839.9335193000788,1248
1841.9114382471344,1272
1843.888864747485,1290
1845.8657990631878,1205
1847.842241456378,1237
1849.8181921892697,1234
1851.7936515241558,1236
1853.7686197234098,1252
1855.7430970494815,1241
1857.7170837649014,1290
1859.6905801322787,1252
1861.6635864143004,1245
1863.6361028737338,1283
1865.608129773424,1303
1867.5796673762961,1289
1869.5507159453537,1301
1871.521275743678,1263
1873.4913470344313,1284
1875.4609300808534,1226
1877.4300251462632,1273
1879.3986324940588,1299
1881.366752387717,1239
1883.3343850907936,1296
1885.3015308669228,1269
1887.268189979819,1278
1889.2343626932739,1288
1891.2000492711595,1300
1893.1652499774254,1349
1895.1299650761011,1353
1897.0941948312952,1283
1899.0579395071945,1315
1901.0211993680641,1302
1902.98397467825,1277
1904.9462657021745,1304
1906.9080727043415,1285
1908.869395949332,1276
1910.8302357018065,1282
1912.790592226504,1308
1914.7504657882428,1262
1916.7098566519212,1298
1918.6687650825133,1339
1920.6271913450764,1262
1922.5851357047422,1343
1924.5425984267245,1303
1926.499579776314,1267
1928.4560800188833,1271
1930.4120994198802,1264
1932.367638244833,1286
1934.32269675935,1281
1936.2772752291175,1306
1938.231373919899,1304
1940.1849930975404,1308
1942.1381330279637,1284
1944.0907939771696,1274
1946.0429762112412,1333
1947.9946799963363,1290
1949.9459055986945,1273
1951.896653284633,1223
1953.8469233205478,1270
1955.7967159729142,1262
1957.7460315082863,1295
1959.6948701932974,1260
1961.6432322946594,1268
1963.5911180791632,1205
1965.5385278136787,1262
1967.4854617651545,1279
1969.4319202006182,1288
1971.377903387176,1303
1973.3234115920136,1290
1975.268445082395,1279
1977.2130041256642,1260
1979.1570889892423,1201
1981.1006999406304,1249
1983.04383724741,1222
1984.986501177238,1228
1986.928691997853,1266
1988.8704099770712,1243
1990.811655382789,1271
1992.7524284829801,1263
1994.692729545698,1267
1996.6325588390755,1264
1998.5719166313224,1268
2000.5108031907307,1263
2002.4492187856677,1254
2004.387163684583,1230
2006.3246381560011,1264
2008.2616424685298,1294
2010.1981768908527,1266
2012.1342416917332,1226
2014.069837140014,1251
2016.0049635046162,1261
2017.9396210545406,1237
2019.8738100588666,1243
2021.8075307867502,1215
2023.740783507431,1276
2025.6735684902228,1250
2027.6058860045214,1263
2029.5377363198004,1288
2031.4691197056118,1268
2033.4000364315875,1239
2035.3304867674374,1231
2037.260470982952,1240
2039.189989347998,1221
2041.1190421325232,1220
2043.047629606554,1243
2044.9757520401945,1201
2046.9034097036288,1240
2048.8306028671195,1222
2050.7573318010086,1200
2052.683596775716,1231
2054.609398061742,1250
2056.5347359296647,1201
2058.4596106501403,1236
2060.384022493906,1222
2062.3079717317764,1204
2064.231458634646,1202
2066.1544834734873,1218
2068.077046519352,1216
2069.99914804337,1245
2071.9207883167524,1267
2073.8419676107865,1169
2075.7626861968406,1246
2077.6829443463607,1246
2079.6027423308715,1223
2081.522080421977,1176
2083.440958891362,1263
2085.359378010786,1217
2087.2773380520907,1187
2089.194839287196,1278
2091.111881988101,1250
2093.0284664268825,1151
2094.9445928756973,1257
2096.86026160678,1207
2098.775472892446,1258
2100.690227005088,1236
2102.604524217178,1223
2104.5183648012676,1166
2106.431749029985,1228
2108.34467717604,1230
2110.2571495122206,1228
2112.169166311393,1189
2114.080727846503,1199
2115.9918343905747,1224
2117.902486216711,1259
2119.8126835980956,1213
2121.722426807987,1240
2123.6317161197285,1227
2125.5405518067364,1208
2127.448934142509,1282
2129.356863400624,1254
2131.264339854737,1226
2133.1713637785815,1202
2135.077935445972,1234
2136.9840551308002,1239
2138.889723107037,1228
2140.7949396487334,1255
2142.699705030018,1172
2144.6040195250994,1246
2146.507883408264,1234
2148.4112969538774,1235
2150.3142604363848,1271
2152.2167741303097,1251
2154.1188383102535,1245
2156.0204532508997,1243
2157.9216192270064,1246
2159.822336513414,1232
2161.7226053850413,1302
2163.622426116884,1251
2165.5217989840185,1276
2167.4207242616,1247
2169.319202224862,1243
2171.2172331491165,1236
2173.1148173097563,1314
2175.0119549822507,1231
2176.90864644215,1221
2178.8048919650823,1297
2180.7006918267534,1258
2182.596046302952,1270
2184.4909556695407,1319
2186.3854202024645,1241
2188.279440177746,1289
2190.173015871487,1252
2192.066147559868,1248
2193.958835519149,1284
2195.851080025667,1279
2197.7428813558417,1296
2199.6342397861667,1276
2201.5251555932186,1278
2203.415629053651,1302
2205.3056604441986,1292
2207.19525004167,1298
2209.084398122958,1267
2210.9731049650327,1290
2212.861370844941,1281
2214.749196039812,1299
2216.636580826851,1294
2218.523525483344,1313
2220.410030286655,1312
2222.296095514226,1317
2224.1817214435805,1314
2226.066908352319,1322
2227.951656518121,1288
2229.835966218746,1283
2231.71983773203,1302
2233.6032713358913,1344
2235.486267308324,1323
2237.3688259274036,1319
2239.2509474712824,1287
2241.132632218193,1272
2243.013880446447,1337
2244.8946924344323,1298
2246.7750684606203,1312
2248.6550088035574,1242
2250.534513741871,1315
2252.413583554265,1280
2254.292218519526,1316
2256.170418916517,1257
2258.0481850241786,1281
2259.925517121534,1276
2261.8024154876825,1280
2263.678880401803,1283
2265.5549121431536,1305
2267.430510991071,1289
2269.305677224971,1254
2271.180411124348,1291
2273.0547129687766,1242
2274.9285830379076,1330
2276.8020216114737,1238
2278.6750289692845,1295
2280.5476053912294,1231
2282.4197511572766,1278
2284.2914665474727,1341
2286.162751841943,1335
2288.0336073208937,1243
2289.904033264608,1312
2291.774029953448,1307
2293.6435976678554,1323
2295.5127366883517,1290
2297.381447295534,1296
2299.2497297700825,1259
2301.1175843927526,1269
2302.9850114443825,1234
2304.852011205885,1232
2306.7185839582553,1202
2308.5847299825664,1135
2310.4504495599676,1197
2312.3157429716925,1167
2314.1806104990483,1120
2316.0450524234247,1141
2317.9090690262888,1115
2319.772660589186,1186
2321.635827393742,1082
2323.498569721661,1115
2325.3608878547248,1173
2327.2227820747967,1144
2329.0842526638157,1144
2330.945299903803,1124
2332.805924076857,1184
2334.6661254651535,1120
2336.525904350951,1146
2338.3852610165827,1151
2340.244195744464,1127
2342.102708817088,1203
2343.9608005170253,1117
2345.8184711269287,1113
2347.675720929526,1147
2349.532550207628,1179
2351.38895924412,1096
2353.24494832197,1132
2355.100517724223,1181
2356.955667734004,1155
2358.810398634514,1198
2360.664710709037,1181
2362.5186042409337,1211
2364.3720795136437,1178
2366.225136810686,1178
2368.0777764156583,1161
2369.929998612237,1142
2371.7818036841777,1160
2373.633191915315,1213
2375.484163589562,1126
2377.3347189909114,1180
2379.184858403434,1176
2381.03458211128,1153
2382.8838903986775,1177
2384.732783549936,1194
2386.5812618494406,1146
2388.4293255816588,1167
2390.2769750311327,1140
2392.1242104824883,1222
2393.971032220427,1212
2395.8174405297295,1170
2397.6634356952563,1158
2399.509018001947,1163
2401.3541877348193,1211
2403.1989451789705,1166
2405.043290619576,1208
2406.8872243418905,1161
2408.730746631247,1214
2410.5738577730594,1157
2412.4165580528183,1181
2414.258847756095,1158
2416.100727168537,1134
2417.9421965758734,1135
2419.783256263912,1165
2421.623906518538,1203
2423.4641476257157,1152
2425.303979871491,1190
2427.143403541984,1213
2428.9824189233977,1172
2430.821026302012,1197
2432.6592259641866,1189
2434.497018196361,1185
2436.33440328505,1184
2438.171381516851,1177
2440.00795317844,1151
2441.844118556569,1162
2443.6798779380724,1171
2445.5152316098606,1149
2447.3501798589255,1199
2449.1847229723357,1192
2451.0188612372403,1150
2452.8525949408663,1214
2454.6859243705203,1158
2456.518849813587,1211
2458.3513715575314,1169
2460.183489889895,1124
2462.015205098301,1205
2463.8465174704493,1196
2465.67742729412,1195
2467.5079348571717,1215
2469.338040447542,1164
2471.1677443532476,1169
2472.9970468623833,1191
2474.825948263123,1149
2476.6544488437207,1183
2478.482548892508,1196
2480.310248697896,1183
2482.137548548374,1198
2483.9644487325118,1207
2485.790949538956,1186
2487.617051256433,1205
2489.44275417375,1172
2491.26805857979,1184
2493.0929647635157,1214
2494.917473013971,1152
2496.741583620276,1164
2498.5652968716304,1205
2500.3886130573137,1222
2502.2115324666834,1231
2504.0340553891765,1244
2505.856182114308,1226
2507.6779129316733,1277
2509.499248130945,1245
2511.3201880018764,1250
2513.140732834298,1246
2514.9608829181198,1297
2516.780638543331,1242
2518.6,1278
2520.418967578273,1307
2522.237541568376,1287
2524.0557222606144,1279
2525.8735099453706,1256
2527.6909049131086,1300
2529.507907454368,1247
2531.32451785977,1234
2533.140736420014,1269
2534.9565634258774,1321
2536.771999168218,1340
2538.5870439379714,1360
2540.4016980261526,1299
2542.2159617238544,1315
2544.02983532225,1331
2545.8433191125914,1332
2547.656413386209,1305
2549.4691184345115,1322
2551.2814345489874,1362
2553.093362021204,1362
2554.904901142808,1407
2556.716052205523,1392
2558.526815501153,1428
2560.3371913215824,1396
2562.147179958771,1444
2563.956781704761,1479
2565.7659968516705,1439
2567.5748256916986,1439
2569.3832685171224,1457
2571.1913256202984,1465
2572.9989972936614,1503
2574.806283829725,1505
2576.613185521084,1544
2578.4197026604074,1515
2580.2258355404483,1514
2582.031584454035,1520
2583.836949694077,1437
2585.6419315535613,1566
2587.4465303255533,1493
2589.2507463032002,1537
2591.0545797797245,1530
2592.8580310484303,1564
2594.6611004026995,1576
2596.463788135992,1549
2598.266094541849,1534
2600.0680199138874,1562
2601.869564545807,1536
2603.670728731383,1584
2605.4715127644704,1541
2607.2719169390048,1537
2609.071941548998,1537
2610.8715868885433,1560
2612.670853251811,1584
2614.469740933052,1521
2616.268250226594,1545
2618.0663814268455,1546
2619.864134828292,1560
2621.6615107255006,1528
2623.458509413115,1494
2625.2551311858597,1514
2627.0513763385347,1523
2628.8472451660223,1493
2630.6427379632833,1475
2632.4378550253564,1536
2634.232596647359,1486
2636.026963124488,1560
2637.8209547520187,1461
2639.6145718253065,1474
2641.407814639785,1469
2643.200683490966,1406
2644.9931786744414,1445
2646.7853004858807,1444
2648.577049221034,1416
2650.3684251757277,1421
2652.1594286458712,1379
2653.9500599274484,1367
2655.740319316525,1333
2657.5302071092437,1361
2659.3197236018286,1365
2661.10886909058,1330
2662.8976438718782,1328
2664.686048242183,1296
2666.4740824980327,1294
2668.2617469360443,1282
2670.0490418529134,1321
2671.8359675454153,1304
2673.622524310403,1283
2675.408712444811,1266
2677.1945322456495,1266
2678.979984010009,1265
2680.76506803506,1282
2682.5497846180497,1213
2684.334134056306,1242
2686.1181166472343,1257
2687.9017326883213,1257
2689.6849824771293,1195
2691.4678663113013,1290
2693.2503844885596,1253
2695.032537306705,1211
2696.8143250636167,1221
2698.5957480572542,1168
2700.3768065856534,1223
2702.1575009469316,1265
2703.937831439283,1188
2705.717798360982,1253
2707.4974020103837,1132
2709.276642685917,1125
2711.055520686095,1145
2712.834036309506,1191
2714.612189854819,1189
2716.389981620782,1225
2718.1674119062204,1184
2719.944481010041,1161
2721.721189231226,1152
2723.4975368688415,1173
2725.273524222027,1174
2727.0491515900053,1165
2728.824419272075,1127
2730.5993275676146,1131
2732.3738767760838,1130
2734.148067197016,1137
2735.921899130031,1162
2737.6953728748194,1186
2739.468488731156,1167
2741.2412469988926,1096
2743.0136479779617,1136
2744.785691968372,1109
2746.5573792702116,1130
2748.3287101836504,1131
2750.099685008934,1175
2751.870304046388,1115
2753.640567596418,1170
2755.4104759595057,1092
2757.1800294362156,1138
2758.949228327187,1142
2760.7180729331412,1155
2762.486563554877,1150
2764.254700493272,1155
2766.022484049284,1144
2767.789914523947,1173
2769.5569922183786,1128
2771.3237174337705,1143
2773.090090471394,1128
2774.8561116326036,1115
2776.6217812188274,1126
2778.3870995315756,1079
2780.1520668724356,1161
2781.9166835430747,1114
2783.6809498452394,1137
2785.444866080754,1153
2787.2084325515225,1132
2788.971649559527,1135
2790.73451740683,1127
2792.4970363955713,1120
2794.2592068279705,1117
2796.0210290063264,1123
2797.7825032330147,1108
2799.543629810493,1098
2801.304409041296,1088
2803.0648412280366,1118
2804.8249266734088,1162
2806.5846656801846,1120
2808.344058551212,1163
2810.1031055894246,1165
2811.8618070978273,1113
2813.6201633795085,1108
2815.378174737636,1100
2817.1358414754536,1118
2818.893163896285,1162
2820.6501423035334,1170
2822.4067770006814,1158
2824.1630682912883,1113
2825.9190164789957,1142
2827.6746218675207,1109
2829.429884760661,1138
2831.184805462294,1143
2832.9393842763743,1110
2834.693621506936,1151
2836.4475174580916,1114
2838.201072434034,1135
2839.954286739034,1116
2841.707160677441,1122
2843.459694553685,1178
2845.2118886722724,1185
2846.96374333779,1125
2848.7152588549034,1186
2850.4664355283567,1135
2852.217273662973,1185
2853.9677735636546,1146
2855.7179355353833,1138
2857.4677598832186,1172
2859.217246912299,1144
2860.9663969278427,1099
2862.715210235146,1143
2864.4636871395846,1105
2866.211827946614,1123
2867.9596329617652,1128
2869.7071024906536,1131
2871.4542368389684,1163
2873.20103631248,1096
2874.947501217038,1138
2876.6936318585695,1088
2878.4394285430812,1139
2880.1848915766604,1170
2881.9300212654707,1110
2883.6748179157553,1076
2885.4192818338374,1084
2887.1634133261173,1135
2888.907212699077,1127
2890.6506802592744,1137
2892.393816313348,1129
2894.1366211680142,1137
2895.8790951300693,1114
2897.621238506388,1147
2899.363051603925,1095
2901.1045347297118,1117
2902.8456881908596,1152
2904.58651229456,1152
2906.327007348081,1166
2908.067173658772,1135
2909.8070115340597,1132
2911.5465212814497,1127
2913.285703208527,1149
2915.0245576229563,1127
2916.7630848324807,1131
2918.5012851449196,1128
2920.2391588681758,1124
2921.976706310227,1089
2923.7139277791334,1139
2925.4508235830313,1103
2927.187394030137,1128
2928.923639428745,1121
2930.6595600872306,1178
2932.395156314046,1118
2934.1304284177218,1144
2935.8653767068713,1143
2937.6000014901815,1145
2939.3343030764227,1146
2941.068281774442,1165
2942.8019378931644,1148
2944.5352717415976,1149
2946.2682836288236,1120
2948.0009738640065,1098
2949.7333427563885,1135
2951.465390615289,1122
2953.1971177501086,1159
2954.9285244703265,1121
2956.6596110855,1125
2958.3903779052657,1121
2960.1208252393385,1086
2961.8509533975125,1087
2963.5807626896617,1121
2965.3102534257378,1154
2967.0394259157715,1113
2968.768280469873,1097
2970.496817398232,1114
2972.2250370111146,1109
2973.952939618869,1136
2975.6805255319196,1137
2977.4077950607707,1130
2979.134748516006,1131
2980.861386208289,1113
2982.587708448359,1133
2984.313715547037,1145
2986.039407815222,1087
2987.764785563891,1138
2989.489849104102,1111
2991.2145987469908,1122
2992.9390348037705,1125
2994.6631575857346,1127
2996.3869674042576,1130
2998.1104645707887,1110
2999.83364939686,1157
3001.5565221940783,1099
3003.2790832741334,1089
3005.0013329487924,1127
3006.7232715298996,1157
3008.4448993293804,1080
3010.166216659239,1100
3011.887223831558,1086
3013.607921158498,1084
3015.3283089522993,1102
3017.0483875252826,1101
3018.7681571898443,1097
3020.4876182584626,1092
3022.2067710436927,1125
3023.9256158581707,1118
3025.644153014609,1123
3027.362382825801,1192
3029.0803056046193,1112
3030.797921664012,1137
3032.5152313170106,1077
3034.2322348767225,1082
3035.9489326563353,1137
3037.665324969115,1108
3039.3814121284063,1071
3041.097194447633,1062
3042.812672240299,1129
3044.5278458199855,1050
3046.2427155003525,1153
3047.9572815951406,1163
3049.671544418167,1087
3051.38550428333,1066
3053.0991615046073,1082
3054.812516396051,1107
3056.5255692717974,1118
3058.2383204460575,1120
3059.9507702331257,1122
3061.662918947372,1099
3063.3747669032446,1104
3065.0863144152736,1096
3066.7975617980674,1095
3068.508509366309,1129
3070.219157434767,1121
3071.9295063182844,1117
3073.639556331785,1130
3075.3493077902704,1123
3077.058761008821,1113
3078.7679163025964,1103
3080.476773986837,1123
3082.1853343768594,1081
3083.89359778806,1096
3085.6015645359153,1119
3087.3092349359786,1179
3089.016609303884,1123
3090.7236879553434,1127
3092.4304712061476,1100
3094.136959372166,1103
3095.843152769349,1092
3097.5490517137237,1095
3099.2546565213966,1109
3100.959967508554,1100
3102.66498499146,1113
3104.3697092864577,1126
3106.0741407099695,1119
3107.778279578498,1125
3109.482126208622,1145
3111.1856809170004,1118
3112.8889440203716,1113
3114.5919158355528,1169
3116.294596679439,1132
3117.996986869006,1151
3119.6990867213062,1190
3121.4008965534726,1135
3123.102416682717,1123
3124.803647426329,1175
3126.5045891016784,1153
3128.205242026213,1162
3129.90560651746,1186
3131.605682893025,1216
3133.3054714705922,1162
3135.0049725679282,1164
3136.7041865028714,1103
3138.4031135933465,1102
3140.101754157353,1091
3141.800108512971,1146
3143.498176978357,1148
3145.1959598717494,1120
3146.8934575114636,1069
3148.5906702158954,1117
3150.2875983035183,1087
3151.9842420928853,1077
3153.680601902627,1097
3155.376678051456,1118
3157.07247085816,1121
3158.767980641609,1102
3160.463207720748,1126
3162.158152414606,1126
3163.8528150422862,1170
3165.5471959229726,1154
3167.2412953759303,1139
3168.9351137204976,1139
3170.628651276098,1120
3172.3219083622307,1114
3174.014885298474,1104
3175.707582404485,1141
3177.4000000000005,1125
3179.092138404835,1115
3180.7839979388846,1129
3182.47557892212,1098
3184.166881674594,1133
3185.8579065164386,1117
3187.5486537678626,1126
3189.2391237491547,1109
3190.9293167806827,1105
3192.6192331828934,1090
3194.3088732763117,1118
3195.998237381542,1133
3197.687325819268,1137
3199.376138910251,1032
3201.064676975334,1091
3202.7529403354347,1121
3204.4409293115523,1067
3206.1286442247647,1158
3207.816085396229,1052
3209.5032531471825,1121
3211.190147798936,1135
3212.8767696728846,1073
3214.5631190905015,1065
3216.2491963733373,1082
3217.9350018430214,1089
3219.6205358212637,1055
3221.305798629851,1077
3222.990790590651,1090
3224.6755120256103,1098
3226.359963256751,1068
3228.0441446061795,1048
3229.7280563960758,1081
3231.411698948703,1107
3233.0950725863995,1099
3234.778177631587,1082
3236.461014406761,1119
3238.1435832345005,1125
3239.8258844374595,1063
3241.507918338374,1106
3243.1896852600576,1086
3244.8711855254023,1090
3246.552419457381,1093
3248.233387379042,1069
3249.914089613516,1131
3251.59452648401,1123
3253.274698313813,1102
3254.95460542629,1061
3256.6342481448855,1108
3258.313626793125,1067
3259.9927416946084,1099
3261.6715931730196,1060
3263.3501815521176,1120
3265.0285071557437,1082
3266.706570307815,1139
3268.3843713323286,1082
3270.0619105533615,1094
3271.739188295068,1049
3273.4162048816834,1120
3275.0929606375184,1110
3276.769455886966,1068
3278.445690954498,1104
3280.1216661646613,1076
3281.797381842087,1121
3283.4728383114807,1124
3285.1480358976296,1083
3286.8229749253996,1035
3288.4976557197333,1070
3290.172078605655,1087
3291.846243908266,1063
3293.5201519527463,1089
3295.193803064357,1070
3296.8671975684374,1100
3298.5403357904024,1067
3300.21321805575,1063
3301.8858446900567,1114
3303.558216018975,1047
3305.23033236824,1088
3306.9021940636603,1066
3308.57380143113,1062
3310.2451547966184,1072
3311.916254486174,1109
3313.5871008259246,1101
3315.2576941420766,1080
3316.9280347609147,1048
3318.5981230088046,1099
3320.2679592121895,1078
3321.9375436975924,1146
3323.606876791612,1090
3325.27595882093,1074
3326.944790112305,1058
3328.6133709925753,1077
3330.2817017886573,1130
3331.949782827547,1102
3333.617614436319,1067
3335.2851969421245,1061
3336.952530672199,1062
3338.619615953853,1031
3340.286453114475,1072
3341.9530424815357,1099
3343.619384382583,1127
3345.2854791452437,1097
3346.951327097224,1090
3348.6169285663073,1055
3350.2822838803577,1051
3351.947393367319,1071
3353.61225735521,1094
3355.2768761721345,1073
3356.9412501462693,1086
3358.605379605873,1051
3360.2692648792827,1069
3361.9329062949146,1130
3363.596304181263,1036
