CollectionTime,6/26/2024 2:51:49 PM
ExposureUsed,3
CalibratedSpectrum
-962.7078968117929,3647
-959.9714848408522,3876
-957.2358232597828,3886
-954.5009119013725,4047
-951.7667505983302,3874
-949.0333391832855,3893
-946.3006774887896,3929
-943.5687653473143,3860
-940.837602591253,4011
-938.1071890529199,3939
-935.3775245645503,3864
-932.6486089583007,4040
-929.9204420662485,3916
-927.1930237203925,4048
-924.4663537526524,4015
-921.7404319948689,3874
-919.0152582788041,3979
-916.2908324361409,4111
-913.5671542984834,4115
-910.8442236973568,4023
-908.1220404642074,3996
-905.4006044304027,3994
-902.679915427231,3911
-899.959973285902,3987
-897.2407778375464,4004
-894.5223289132158,3993
-891.8046263438832,3953
-889.0876699604426,3991
-886.3714595937089,3957
-883.6559950744183,4002
-880.9412762332282,3993
-878.2273029007168,3970
-875.5140749073835,3929
-872.8015920836489,4054
-870.0898542598545,4011
-867.3788612662631,3916
-864.6686129330585,4018
-861.9591090903457,4035
-859.2503495681506,4122
-856.5423341964203,4062
-853.8350628050229,3952
-851.1285352237478,4025
-848.4227512823054,3979
-845.7177108103272,4088
-843.0134136373656,4028
-840.3098595928943,4064
-837.6070485063082,4125
-834.9049802069229,4066
-832.2036545239757,3998
-829.5030712866244,4045
-826.8032303239481,4051
-824.1041314649472,3912
-821.4057745385428,4068
-818.7081593735775,4008
-816.0112857988148,3916
-813.3151536429393,4041
-810.6197627345566,4067
-807.9251129021936,4051
-805.2312039742981,4021
-802.5380357792392,4092
-799.8456081453069,4182
-797.1539209007124,3995
-794.462973873588,4147
-791.772766891987,4036
-789.083299783884,4129
-786.3945723771743,4128
-783.7065844996748,4094
-781.0193359791231,4119
-778.3328266431781,4023
-775.6470563194197,4096
-772.9620248353489,4084
-770.2777320183878,4197
-767.5941776958798,4278
-764.9113616950891,4132
-762.2292838432011,4088
-759.5479439673222,4135
-756.8673418944801,4120
-754.1874774516235,4092
-751.5083504656222,4134
-748.8299607632671,4105
-746.15230817127,4121
-743.475392516264,4139
-740.7992136248035,4088
-738.1237713233636,4133
-735.4490654383407,4142
-732.7750957960521,4088
-730.1018622227365,4178
-727.4293645445534,4188
-724.7576025875837,4250
-722.0865761778291,4205
-719.4162851412126,4166
-716.7467293035781,4285
-714.0779084906909,4176
-711.409822528237,4378
-708.7424712418238,4212
-706.0758544569796,4234
-703.4099719991541,4302
-700.7448236937178,4289
-698.0804093659622,4266
-695.4167288411002,4203
-692.7537819442656,4298
-690.0915685005134,4366
-687.4300883348199,4335
-684.7693412720819,4270
-682.1093271371178,4191
-679.4500457546669,4206
-676.7914969493897,4129
-674.1336805458676,4397
-671.4765963686034,4435
-668.8202442420206,4302
-666.1646239904642,4310
-663.5097354382001,4435
-660.8555784094151,4255
-658.2021527282176,4336
-655.5494582186366,4424
-652.8974947046223,4389
-650.2462620100463,4418
-647.5957599587009,4368
-644.9459883742998,4413
-642.2969470804776,4518
-639.6486359007902,4538
-637.0010546587141,4482
-634.3542031776476,4504
-631.7080812809096,4523
-629.0626887917401,4373
-626.4180255333008,4458
-623.7740913286734,4434
-621.1308860008619,4551
-618.4884093727904,4408
-615.8466612673046,4483
-613.2056415071715,4424
-610.5653499150785,4446
-607.9257863136347,4401
-605.28695052537,4402
-602.6488423727357,4599
-600.0114616781036,4619
-597.3748082637674,4455
-594.7388819519412,4553
-592.1036825647604,4463
-589.4692099242818,4523
-586.8354638524829,4496
-584.2024441712624,4501
-581.5701507024403,4475
-578.9385832677575,4541
-576.3077416888759,4497
-573.6776257873787,4471
-571.0482353847704,4538
-568.4195703024757,4641
-565.7916303618415,4615
-563.164415384135,4654
-560.5379251905453,4620
-557.9121596021815,4580
-555.2871184400748,4527
-552.6628015251767,4543
-550.0392086783606,4584
-547.4163397204204,4606
-544.794194472071,4477
-542.1727727539491,4657
-539.5520743866118,4580
-536.9320991905377,4665
-534.3128469861261,4625
-531.6943175936979,4616
-529.0765108334947,4728
-526.4594265256793,4778
-523.8430644903358,4946
-521.2274245474689,5035
-518.612506517005,5150
-515.9983102187913,5241
-513.3848354725959,5337
-510.77208209810846,5427
-508.16004991493924,5547
-505.5487387426199,5459
-502.9381484006032,5716
-500.3282787082628,5822
-497.71912948489364,5729
-495.1107005497117,5938
-492.5029917218539,5815
-489.8960028203786,5763
-487.28973366426493,5542
-484.68418407241325,5361
-482.07935386364494,5200
-479.47524285670266,5120
-476.87185087025,5174
-474.2691777228715,5093
-471.66722323307334,5184
-469.0659872192821,5143
-466.4654694998459,4900
-463.86566989303384,5013
-461.26658821703614,4913
-458.66822428996414,4931
-456.07057792985,4996
-453.4736489546475,4926
-450.877437182231,4869
-448.28194243039627,4815
-445.68716451686,4843
-443.09310325926003,5026
-440.49975847515555,4954
-437.9071299820263,4805
-435.31521759727354,4899
-432.72402113821954,4725
-430.13354042210767,4865
-427.5437752661022,4761
-424.95472548728867,4824
-422.36639090267386,4921
-419.7787713291855,5040
-417.1918665836721,4901
-414.60567648290385,4839
-412.0202008435715,4941
-409.4354394822874,4995
-406.8513922155845,4872
-404.26805885991723,5057
-401.685439231661,5005
-399.103533147112,4889
-396.522340422488,4894
-393.9418608739278,4904
-391.3620943174908,4655
-388.7830405691583,4649
-386.2046994448317,4328
-383.6270707603344,4114
-381.05015433141045,3829
-378.473949973725,3538
-375.8984575028645,3271
-373.32367673433623,2901
-370.74960748356875,2563
-368.1762495659117,2205
-365.60360279663576,1936
-363.03166699093265,1598
-360.4604419639154,1383
-357.8899275306178,1210
-355.32012350599507,963
-352.7510297049233,891
-350.1826459421999,764
-347.61497203254316,725
-345.04800779059235,630
-342.4817530309082,610
-339.91620756797226,551
-337.35137121618743,555
-334.7872437898774,618
-332.22382510328725,617
-329.66111497058273,657
-327.09911320585127,629
-324.53781962310075,629
-321.9772340362607,632
-319.4173562591816,615
-316.8581861056348,705
-314.2997233893127,639
-311.7419679238294,684
-309.1849195227194,678
-306.62857799943856,604
-304.0729431673641,572
-301.51801483979375,596
-298.963792829947,625
-296.41027695096386,638
-293.85746701590574,633
-291.3053628377552,656
-288.7539642294155,646
-286.2032710037115,701
-283.65328297338897,753
-281.1039999511146,742
-278.5554217494762,808
-276.007548180983,721
-273.4603790580651,722
-270.9139141930734,699
-268.3681533982807,762
-265.8230964858798,725
-263.27874326798565,726
-260.7350935566336,866
-258.1921471637804,952
-255.6499039013039,882
-253.10836358100266,834
-250.56752601459698,745
-248.02739101372765,714
-245.48795838995704,795
-242.94922795476816,834
-240.41119951956557,796
-237.8738728956746,844
-235.33724789434166,874
-232.80132432673452,1051
-230.2661020039418,1190
-227.73158073697357,1048
-225.19776033676033,919
-222.66464061415422,976
-220.1322213799284,845
-217.60050244477725,850
-215.06948361931552,857
-212.53916471408013,867
-210.00954553952818,842
-207.48062590603843,821
-204.9524056239104,952
-202.4248845033651,981
-199.8980623545441,922
-197.37193898751036,795
-194.84651421224817,933
-192.32178783866232,1102
-189.79775967657952,983
-187.27442953574644,972
-184.7517972258321,990
-182.2298625564256,1013
-179.7086253370378,1022
-177.18808537710026,1074
-174.66824248596583,1211
-172.14909647290835,1319
-169.6306471471229,1155
-167.11289431772548,1053
-164.59583779375328,1017
-162.07947738416453,1023
-159.5638128978386,982
-157.04884414357605,1141
-154.53457093009854,1286
-152.02099306604828,1205
-149.50811035998936,1265
-146.99592262040665,1339
-144.48442965570587,1331
-141.97363127421409,1317
-139.46352728417958,1312
-136.95411749377126,1299
-134.44540171107985,1332
-131.93737974411636,1315
-129.43005140081357,1317
-126.92341648902493,1374
-124.41747481652521,1340
-121.91222619101006,1411
-119.40767042009657,1297
-116.90380731132257,1346
-114.40063667214702,1384
-111.8981583099503,1592
-109.3963720320337,1665
-106.89527764561933,1606
-104.39487495785067,1745
-101.89516377579241,1696
-99.39614390642998,1778
-96.89781515667039,1978
-94.40017733334128,2311
-91.90323024319173,2205
-89.40697369289148,2202
-86.91140748903172,1983
-84.41653143812482,1843
-81.92234534660395,2185
-79.42884902082358,2177
-76.93604226705907,2409
-74.4439248915071,2134
-71.95249670028534,1910
-69.46175749943245,2531
-66.97170709490854,2442
-64.48234529259423,3002
-61.99367189829195,2806
-59.50568671772464,2789
-57.01838955653636,3372
-54.53178022029283,3164
-52.045858514480074,3418
-49.560624244506016,3931
-47.07607721569923,4104
-44.59221723330904,3982
-42.10904410250669,3851
-39.62655762838392,4666
-37.14475761595372,5568
-34.66364387015028,5897
-32.18321619582866,6276
-29.70347439776515,7722
-27.224418280657005,9255
-24.74604764912317,12850
-22.26836230770266,19847
-19.7913620608565,32702
-17.315046712966478,47454
-14.83941606833514,53313
-12.36446993118659,65039
-9.89020810566592,65039
-7.416630395839093,65039
-4.94373660569363,65039
-2.471526539137585,65039
-6.821210263296962E-13,65039
2.47084320796705,65039
4.941003281093458,65039
7.410480415786196,65039
9.879274808531363,65039
12.347386655893956,65039
14.814816154518212,65039
17.28156350112681,65039
19.74762889252179,65039
22.21301252558385,65039
24.67771459727237,65039
27.141735304626195,65039
29.605074844762612,37767
32.06773341487792,15414
34.52971121224755,12007
36.99100843422559,12027
39.45162527824516,12419
41.91156194181792,10873
44.370818622535126,14795
46.82939551806646,17624
49.287292826160524,14359
51.74451074464503,10728
54.201049471426245,6479
56.65690920448981,4201
59.112090141899785,3914
61.56659248179983,3952
64.02041642241159,4072
66.4735621620365,3517
68.92602989905402,2571
71.37781983192338,2961
73.82893215918205,3133
76.27936707944684,2938
78.72912479141326,3078
81.17820549385567,3289
83.62660938562783,3449
86.07433666566146,2976
88.5213875329681,2746
90.96776218663751,2513
93.41346082583925,2615
95.85848364982041,2196
98.30283085790859,2144
100.7465026495089,2248
103.18949922410604,2401
105.63182078126385,2175
108.07346752062438,2114
110.51443964190923,2019
112.95473734491827,1901
115.39436082953114,1787
117.83331029570547,1995
120.27158594347827,2196
122.7091879729652,1826
125.1461165843615,1645
127.58237197794062,1402
130.01795435405518,1394
132.4528639131364,1607
134.88710085569494,2011
137.32066538231982,1927
139.75355769367923,1817
142.1857779905207,1706
144.61732647366978,1780
147.04820334403132,1628
149.47840880258934,1711
151.90794305040674,2211
154.33680628862487,2411
156.76499871846443,2526
159.19252054122433,2707
161.61937195828352,2949
164.04555317109896,3165
166.47106438120693,3794
168.89590579022217,4358
171.320077599839,4517
173.7435800118302,4955
176.16641322804742,5143
178.58857745042144,5280
181.01007288096173,5737
183.43089972175687,6177
185.85105817497413,6245
188.27054844285988,6510
190.6893707277394,6655
193.10752523201643,6911
195.5250121581745,7294
197.9418317087751,7360
200.3579840864594,7458
202.7734694939469,7620
205.18828813403627,7686
207.6024402096051,7656
210.01592592360964,7639
212.42874547908548,7743
214.84089907914665,7590
217.2523869269868,7679
219.66320922587727,7785
222.0733661791695,7807
224.48285799029293,7818
226.8916848627572,7892
229.29984700014882,7944
231.7073446061355,7912
234.11417788446204,7933
236.520347038953,7944
238.92585227351185,8230
241.33069379212054,8409
243.73487179884035,8244
246.1383864978112,8078
248.541238093252,8192
250.9434267894609,8223
253.34495279081432,8118
255.74581630176783,8250
258.1460175268563,8353
260.54555667069314,8309
262.9444339379703,8152
265.3426495334594,8293
267.7402036620107,7838
270.1370965285529,7859
272.53332833809407,7856
274.9288992957214,7782
277.32380960660055,7660
279.718059475976,7854
282.1116491091717,7812
284.5045787115897,7783
286.89684848871195,7852
289.2884586460981,7817
291.67940938938807,7789
294.0697009242996,7778
296.4593334566299,7747
298.84830719225477,7655
301.23662233712923,7685
303.6242790972866,7636
306.01127767884,7564
308.39761828798066,7585
310.78330113097934,7482
313.16832641418534,7608
315.5526943440269,7576
317.9364051270112,7511
320.3194589697242,7508
322.70185607883093,7382
325.0835966610754,7348
327.4646809232805,7224
329.8451090723478,7366
332.2248813152577,7265
334.6039978590701,7301
336.9824589109231,7195
339.36026467803447,7215
341.7374153677,7204
344.113911187295,7177
346.48975234427337,7154
348.8649390461686,7055
351.2394715005918,7059
353.61334991523415,7112
355.9865744978655,7186
358.35914545633375,7146
360.73106299856715,7079
363.10232733257146,7120
365.47293866643247,7165
367.84289720831396,7228
370.2122031664593,7197
372.5808567491905,7121
374.9488581649083,7215
377.31620762209275,7222
379.6829053293021,7078
382.0489514951745,7007
384.4143463284262,6935
386.7790900378528,7099
389.14318283232853,7044
391.50662492080653,6969
393.86941651231916,6940
396.23155781597745,7090
398.5930490409713,7134
400.9538903965696,6967
403.3140820921202,6932
405.6736243370498,6996
408.03251734086336,6924
410.3907613131465,6964
412.74835646356166,6899
415.10530300185144,6953
417.4616011378372,6958
419.81725108141893,6852
422.1722530425758,7021
424.5266072313656,6915
426.880313857925,6905
429.2333731324701,6928
431.58578526529516,6858
433.9375504667738,6857
436.2886689473588,6945
438.63914091758113,6808
440.9889665880513,6943
443.33814616945835,6840
445.68667987257015,6884
448.03456790823395,6876
450.3818104873759,6852
452.72840782100013,6894
455.07436012019105,6987
457.41966759611057,7029
459.7643304600007,6960
462.10834892318155,6892
464.4517231970525,7018
466.79445349309174,6975
469.1365400228566,6928
471.4779829979826,6918
473.81878263018564,6896
476.15893913125876,6872
478.4984527130747,6849
480.8373235875855,7017
483.17555196682144,6955
485.5131380628919,7177
487.8500820879857,7313
490.1863842543697,7460
492.52204477439034,7626
494.8570638604725,7808
497.1914417251204,8196
499.52517858091653,8244
501.85827464052306,8380
504.19073011668036,8356
506.5225452222086,8270
508.85372017000566,8095
511.18425517304956,8029
513.514150444396,8151
515.8434061971808,8708
518.1720226446176,9302
520.4999999999999,9937
522.8273384766991,10140
525.1540382881666,10488
527.480099647932,10262
529.8055227696037,9392
532.1303078668694,7999
534.454455153496,7372
536.777964843328,6825
539.1008371502907,6878
541.4230722883866,6742
543.744670471698,6613
546.0656319143858,6778
548.3859568306899,6712
550.7056454349294,6597
553.0246979415016,6547
555.3431145648834,6631
557.6608955196306,6571
559.978041020377,6664
562.2945512818363,6531
564.6104265188006,6493
566.9256669461412,6600
569.2402727788082,6527
571.5542442318302,6551
573.8675815203156,6567
576.1802848594508,6554
578.4923544645015,6560
580.8037905508126,6556
583.114593333807,6589
585.4247630289875,6757
587.7342998519354,6586
590.0432040183106,6633
592.3514757438526,6688
594.6591152443794,6586
596.9661227357875,6761
599.2724984340531,6570
601.578242555231,6710
603.8833553154542,6431
606.1878369309362,6630
608.4916876179676,6810
610.7949075929192,6690
613.0974970722403,6609
615.3994562724587,6622
617.7007854101818,6532
620.0014847020951,6603
622.3015543649641,6405
624.6009946156324,6523
626.8998056710224,6506
629.1979877481361,6604
631.4955410640538,6597
633.7924658359349,6551
636.0887622810175,6749
638.3844306166192,6725
640.6794710601358,6780
642.9738838290426,6585
645.2676691408932,6740
647.5608272133207,6499
649.853358264037,6505
652.1452625108324,6565
654.4365401715764,6604
656.7271914642178,6628
659.0172166067838,6793
661.3066158173809,6542
663.5953893141935,6593
665.8835373154867,6638
668.1710600396028,6699
670.4579577049639,6495
672.7442305300709,6673
675.0298787335033,6574
677.3149025339197,6768
679.599302150058,6629
681.8830778007342,6544
684.1662297048437,6564
686.4487580813608,6587
688.7306631493387,6696
691.0119451279091,6685
693.2926042362834,6592
695.5726406937516,6541
697.8520547196814,6743
700.1308465335215,6721
702.4090163547982,6668
704.6865644031171,6557
706.9634908981619,6500
709.2397960596965,6516
711.5154801075631,6465
713.7905432616823,6563
716.0649857420548,6616
718.3388077687592,6663
720.612009561953,6641
722.8845913418733,6483
725.1565533288352,6555
727.427895743234,6635
729.6986188055427,6666
731.9687227363137,6583
734.238207756178,6731
736.5070740858458,6584
738.7753219461066,6456
741.0429515578281,6381
743.3099631419569,6561
745.5763569195191,6603
747.8421331116193,6570
750.1072919394409,6476
752.3718336242467,6499
754.6357583873777,6521
756.8990664502545,6498
759.1617580343765,6517
761.423833361321,6501
763.6852926527457,6457
765.9461361303862,6535
768.206364016058,6547
770.4659765316536,6477
772.7249738991469,6417
774.9833563405886,6753
777.2411240781092,6553
779.4982773339183,6542
781.7548163303044,6659
784.010741289634,6622
786.2660524343538,6638
788.5207499869881,6572
790.7748341701416,6471
793.0283052064964,6476
795.2811633188143,6548
797.5334087299362,6531
799.7850416627813,6522
802.0360623403484,6532
804.2864709857143,6515
806.5362678220353,6491
808.7854530725468,6553
811.0340269605625,6605
813.2819897094754,6513
815.5293415427581,6442
817.77608268396,6534
820.0222133567116,6678
822.2677337847211,6485
824.5126441917765,6459
826.7569448017433,6580
829.0006358385675,6421
831.2437175262731,6444
833.4861900889629,6527
835.7280537508192,6518
837.9693087361026,6450
840.2099552691533,6403
842.4499935743896,6529
844.689423876309,6524
846.9282463994886,6465
849.1664613685833,6443
851.4040690083276,6434
853.6410695435349,6503
855.877463199097,6482
858.1132501999847,6475
860.3484307712487,6533
862.5830051380175,6412
864.8169735254988,6488
867.0503361589791,6513
869.2830932638243,6659
871.5152450654786,6330
873.7467917894654,6453
875.9777336613873,6447
878.2080709069252,6514
880.4378037518389,6597
882.666932421968,6384
884.8954571432301,6615
887.1233781416219,6685
889.3506956432192,6467
891.5774098741766,6619
893.803521060728,6579
896.0290294291852,6600
898.2539352059397,6614
900.4782386174619,6640
902.7019398903011,6483
904.925039251085,6613
907.147536926521,6375
909.3694331433943,6312
911.59072812857,6469
913.8114221089921,6362
916.0315153116827,6380
918.2510079637437,6543
920.4699002923547,6368
922.6881925247761,6444
924.905884888345,6453
927.1229776104793,6343
929.3394709186747,6367
931.555365040506,6349
933.7706602036275,6316
935.9853566357709,6474
938.1994545647489,6321
940.4129542184515,6327
942.6258558248488,6417
944.8381596119883,6476
947.0498658079974,6451
949.2609746410825,6523
951.4714863395287,6424
953.6814011316998,6302
955.8907192460387,6422
958.0994409110671,6352
960.3075663553858,6308
962.5150958076741,6364
964.7220294966913,6434
966.928367651274,6297
969.1341105003388,6290
971.3392582728806,6393
973.5438111979742,6289
975.747769504772,6211
977.9511334225061,6238
980.153903180487,6159
982.3560790081052,6355
984.5576611348289,6262
986.7586497902058,6181
988.9590452038618,6277
991.158847605503,6135
993.3580572249133,6090
995.5566742919558,6183
997.7546990365728,6104
999.952131688785,6034
1002.1489724786926,5973
1004.3452216364743,6023
1006.5408793923874,5871
1008.7359459767691,6036
1010.9304216200343,5873
1013.1243065526781,5916
1015.3176010052733,5998
1017.510305208472,5893
1019.7024193930064,5921
1021.8939437896848,5890
1024.0848786293977,5886
1026.2752241431122,5786
1028.4649805618747,5915
1030.6541481168115,5930
1032.842727039127,5911
1035.0307175601051,5911
1037.2181199111074,5851
1039.4049343235752,5884
1041.591161029029,5850
1043.7768002590683,5796
1045.9618522453698,5889
1048.1463172196918,5790
1050.3301954138697,5773
1052.513487059818,5827
1054.69619238953,5782
1056.8783116350783,5864
1059.0598450286152,5879
1061.2407928023704,5920
1063.4211551886528,5835
1065.6009324198508,5855
1067.780124728432,5851
1069.9587323469414,5718
1072.1367555080046,5907
1074.314194444325,5963
1076.4910493886855,5811
1078.667320573947,5879
1080.843008233051,5805
1083.0181125990161,5796
1085.1926339049414,5705
1087.3665723840027,5700
1089.5399282694575,5792
1091.7127017946405,5819
1093.8848931929647,5600
1096.0565026979243,5626
1098.2275305430899,5707
1100.3979769621128,5708
1102.567842188722,5674
1104.737126456726,5673
1106.9058300000124,5656
1109.0739530525475,5740
1111.2414958483764,5616
1113.4084586216231,5687
1115.5748416064907,5688
1117.7406450372605,5682
1119.9058691482942,5553
1122.0705141740304,5672
1124.2345803489884,5712
1126.3980679077658,5649
1128.5609770850388,5669
1130.7233081155623,5724
1132.8850612341707,5632
1135.0462366757774,5576
1137.2068346753745,5660
1139.3668554680326,5676
1141.526299288901,5499
1143.68516637321,5594
1145.8434569562655,5584
1148.001171273455,5695
1150.158309560244,5610
1152.3148720521767,5734
1154.470858984876,5673
1156.626270594044,5544
1158.7811071154629,5583
1160.9353687849912,5501
1163.089055838569,5665
1165.242168512213,5657
1167.3947070420209,5628
1169.5466716641677,5606
1171.6980626149075,5568
1173.8488801305748,5617
1175.9991244475814,5590
1178.1487958024186,5570
1180.2978944316555,5443
1182.4464205719428,5581
1184.5943744600072,5443
1186.7417563326567,5623
1188.8885664267755,5478
1191.0348049793297,5552
1193.1804722273619,5475
1195.325568407995,5481
1197.4700937584303,5506
1199.614048515948,5479
1201.7574329179074,5632
1203.900247201746,5609
1206.042491604982,5525
1208.1841663652099,5567
1210.3252717201053,5536
1212.465807907422,5556
1214.6057751649923,5666
1216.7451737307279,5636
1218.8840038426192,5511
1221.0222657387353,5594
1223.1599596572241,5641
1225.2970858363137,5555
1227.4336445143094,5524
1229.5696359295966,5570
1231.705060320639,5418
1233.8399179259786,5566
1235.9742089842384,5594
1238.107933734118,5672
1240.2410924143974,5501
1242.373685263935,5498
1244.5057125216676,5608
1246.6371744266116,5569
1248.7680712178621,5513
1250.898403134593,5589
1253.028170416058,5538
1255.1573733015875,5526
1257.2860120305932,5497
1259.4140868425648,5449
1261.54159797707,5470
1263.6685456737569,5616
1265.7949301723515,5543
1267.9207517126597,5579
1270.046010534565,5593
1272.1707068780306,5652
1274.2948409830983,5538
1276.4184130898889,5473
1278.541423438603,5507
1280.6638722695184,5572
1282.785759822993,5602
1284.9070863394636,5536
1287.0278520594447,5540
1289.1480572235314,5704
1291.2677020723963,5607
1293.3867868467923,5717
1295.5053117875495,5716
1297.623277135579,5702
1299.740683131868,5698
1301.8575300174857,5761
1303.973818033578,5655
1306.0895474213703,5662
1308.2047184221678,5599
1310.3193312773528,5623
1312.4333862283888,5628
1314.5468835168163,5593
1316.659823384255,5701
1318.7722060724045,5734
1320.8840318230418,5683
1322.9953008780249,5676
1325.1060134792888,5691
1327.2161698688478,5627
1329.3257702887959,5744
1331.4348149813054,5717
1333.5433041886276,5594
1335.6512381530933,5652
1337.7586171171101,5559
1339.8654413231675,5490
1341.9717110138317,5625
1344.0774264317488,5473
1346.1825878196432,5628
1348.2871954203192,5595
1350.3912494766587,5606
1352.4947502316231,5505
1354.5976979282532,5535
1356.7000928096686,5434
1358.8019351190665,5619
1360.9032250997243,5580
1363.0039629949988,5577
1365.1041490483235,5623
1367.2037835032133,5648
1369.3028666032606,5501
1371.401398592137,5510
1373.4993797135926,5456
1375.5968102114575,5558
1377.6936903296396,5637
1379.7900203121262,5509
1381.8858004029835,5658
1383.9810308463561,5643
1386.075711886469,5524
1388.1698437676241,5525
1390.2634267342032,5531
1392.356461030667,5581
1394.4489469015557,5607
1396.5408845914872,5643
1398.6322743451592,5704
1400.7231164073469,5685
1402.813411022907,5556
1404.903158436773,5613
1406.9923588939578,5504
1409.0810126395531,5615
1411.1691199187303,5666
1413.2566809767386,5612
1415.343696058907,5599
1417.4301654106425,5659
1419.5160892774315,5573
1421.6014679048399,5631
1423.6863015385125,5624
1425.7705904241707,5702
1427.8543348076178,5562
1429.9375349347342,5585
1432.0201910514802,5694
1434.102303403894,5627
1436.1838722380944,5641
1438.2648978002767,5573
1440.3453803367174,5647
1442.4253200937692,5827
1444.5047173178677,5754
1446.5835722555234,5791
1448.6618851533285,5854
1450.739656257952,5744
1452.8168858161434,5903
1454.8935740747306,5956
1456.96972128062,5704
1459.045327680797,5818
1461.120393522327,5897
1463.1949190523528,5895
1465.2689045180973,6045
1467.3423501668608,6059
1469.415256246024,6156
1471.4876230030463,6176
1473.559450685465,6096
1475.6307395408976,6175
1477.7014898170391,6171
1479.771701761665,6235
1481.8413756226287,6235
1483.9105116478618,6351
1485.9791100853772,6269
1488.0471711832643,6400
1490.1146951896926,6437
1492.1816823529098,6408
1494.2481329212433,6450
1496.3140471430984,6475
1498.3794252669609,6511
1500.4442675413939,6636
1502.5085742150404,6474
1504.572345536622,6544
1506.6355817549388,6634
1508.6982831188702,6636
1510.7604498773744,6748
1512.8220822794883,6690
1514.8831805743293,6736
1516.9437450110909,6856
1519.003775839048,6929
1521.0632733075522,6784
1523.1222376660367,6924
1525.1806691640113,6927
1527.2385680510652,7063
1529.2959345768668,7023
1531.3527689911643,7136
1533.4090715437833,7121
1535.4648424846291,7228
1537.5200820636855,7292
1539.5747905310159,7262
1541.6289681367616,7356
1543.6826151311434,7359
1545.7357317644614,7333
1547.7883182870937,7431
1549.8403749494987,7547
1551.8919020022113,7516
1553.9428996958477,7792
1555.9933682811015,7816
1558.0433080087469,8006
1560.0927191296346,7791
1562.1416018946961,7994
1564.1899565549415,7972
1566.2377833614592,7885
1568.2850825654164,7723
1570.3318544180606,7563
1572.3780991707158,7740
1574.423817074788,7419
1576.4690083817595,7242
1578.5136733431923,7139
1580.5578122107272,6948
1582.601425236085,6775
1584.6445126710646,6683
1586.6870747675434,6551
1588.7291117774776,6303
1590.7706239529034,6146
1592.8116115459347,6149
1594.8520748087658,6017
1596.8920139936686,5999
1598.9314293529933,5839
1600.9703211391711,5983
1603.008689604711,5793
1605.0465350022005,5790
1607.0838575843068,5651
1609.1206576037753,5791
1611.1569353134305,5614
1613.1926909661765,5660
1615.2279248149953,5602
1617.2626371129481,5592
1619.2968281131757,5560
1621.3304980688963,5551
1623.3636472334088,5479
1625.39627586009,5457
1627.428384202396,5559
1629.459972513861,5404
1631.4910410480993,5452
1633.5215900588028,5646
1635.551619799744,5497
1637.5811305247717,5507
1639.6101224878166,5305
1641.6385959428862,5429
1643.6665511440683,5420
1645.693988345528,5407
1647.7209078015112,5365
1649.7473097663405,5393
1651.7731944944203,5419
1653.7985622402307,5279
1655.823413258333,5436
1657.847747803366,5325
1659.8715661300494,5396
1661.8948684931793,5407
1663.9176551476316,5259
1665.9399263483624,5310
1667.9616823504057,5362
1669.982923408873,5223
1672.0036497789574,5205
1674.0238617159293,5219
1676.043559475138,5354
1678.0627433120121,5260
1680.081413482059,5191
1682.0995702408654,5305
1684.117213844096,5211
1686.134344547495,5268
1688.1509626068864,5180
1690.1670682781705,5158
1692.182661817329,5271
1694.1977434804217,5378
1696.2123135235875,5129
1698.226372203043,5200
1700.2399197750851,5251
1702.2529564960905,5211
1704.2654826225112,5312
1706.277498410882,5168
1708.2890041178139,5170
1710.2999999999988,5343
1712.3104863142066,5322
1714.3204633172854,5313
1716.329931266163,5226
1718.3388904178469,5277
1720.3473410294214,5372
1722.3552833580516,5243
1724.3627176609807,5150
1726.3696441955308,5277
1728.3760632191033,5230
1730.3819749891782,5186
1732.3873797633146,5340
1734.3922777991502,5274
1736.3966693544012,5227
1738.4005546868639,5286
1740.4039340544127,5255
1742.406807715001,5190
1744.4091759266616,5140
1746.4110389475054,5145
1748.4123970357223,5219
1750.413250449582,5210
1752.4135994474318,5254
1754.4134442876993,5210
1756.4127852288902,5241
1758.4116225295893,5245
1760.4099564484595,5287
1762.407787244244,5192
1764.405115175764,5142
1766.4019405019203,5146
1768.3982634816916,5063
1770.3940843741357,5044
1772.3894034383907,5157
1774.3842209336717,5210
1776.378537119274,5014
1778.372352254571,5020
1780.3656665990156,5177
1782.3584804121397,5087
1784.3507939535534,5179
1786.3426074829463,5283
1788.3339212600863,5213
1790.3247355448211,5020
1792.3150505970766,5073
1794.3048666768573,4957
1796.2941840442477,5162
1798.2830029594106,5109
1800.2713236825884,5105
1802.2591464741004,5217
1804.2464715943465,5121
1806.2332993038058,5145
1808.2196298630352,5134
1810.2054635326708,5142
1812.190800573428,5188
1814.175641246101,5148
1816.1599858115628,5152
1818.1438345307652,5259
1820.127187664738,5115
1822.1100454745924,5002
1824.092408221516,5150
1826.0742761667766,5230
1828.055649571721,5082
1830.0365286977735,5159
1832.0169138064398,5265
1833.9968051593014,5140
1835.9762030180214,5076
1837.9551076443408,5019
1839.9335193000788,5085
1841.9114382471344,5064
1843.888864747485,5081
1845.8657990631878,5121
1847.842241456378,5017
1849.8181921892697,5117
1851.7936515241558,4998
1853.7686197234098,5157
1855.7430970494815,5159
1857.7170837649014,5005
1859.6905801322787,5055
1861.6635864143004,5029
1863.6361028737338,5061
1865.608129773424,5019
1867.5796673762961,5009
1869.5507159453537,5164
1871.521275743678,5143
1873.4913470344313,5011
1875.4609300808534,5117
1877.4300251462632,5183
1879.3986324940588,5208
1881.366752387717,5123
1883.3343850907936,5214
1885.3015308669228,5078
1887.268189979819,5287
1889.2343626932739,5230
1891.2000492711595,5107
1893.1652499774254,5138
1895.1299650761011,5198
1897.0941948312952,5055
1899.0579395071945,5101
1901.0211993680641,5049
1902.98397467825,5122
1904.9462657021745,5099
1906.9080727043415,5165
1908.869395949332,5122
1910.8302357018065,5107
1912.790592226504,5138
1914.7504657882428,5093
1916.7098566519212,5096
1918.6687650825133,5143
1920.6271913450764,5200
1922.5851357047422,5165
1924.5425984267245,5047
1926.499579776314,5085
1928.4560800188833,5158
1930.4120994198802,5005
1932.367638244833,5142
1934.32269675935,5189
1936.2772752291175,5114
1938.231373919899,5090
1940.1849930975404,5163
1942.1381330279637,5127
1944.0907939771696,5127
1946.0429762112412,5237
1947.9946799963363,5133
1949.9459055986945,4988
1951.896653284633,5186
1953.8469233205478,5077
1955.7967159729142,5184
1957.7460315082863,5113
1959.6948701932974,5214
1961.6432322946594,5178
1963.5911180791632,5207
1965.5385278136787,5046
1967.4854617651545,5147
1969.4319202006182,5055
1971.377903387176,5130
1973.3234115920136,5165
1975.268445082395,5121
1977.2130041256642,5169
1979.1570889892423,5096
1981.1006999406304,5191
1983.04383724741,4995
1984.986501177238,4949
1986.928691997853,5143
1988.8704099770712,5056
1990.811655382789,5088
1992.7524284829801,5165
1994.692729545698,5048
1996.6325588390755,5082
1998.5719166313224,5117
2000.5108031907307,5145
2002.4492187856677,5053
2004.387163684583,5066
2006.3246381560011,5060
2008.2616424685298,5123
2010.1981768908527,5077
2012.1342416917332,5217
2014.069837140014,5072
2016.0049635046162,5042
2017.9396210545406,5003
2019.8738100588666,4982
2021.8075307867502,5106
2023.740783507431,5130
2025.6735684902228,4986
2027.6058860045214,5000
2029.5377363198004,5084
2031.4691197056118,5190
2033.4000364315875,5032
2035.3304867674374,5059
2037.260470982952,5107
2039.189989347998,5114
2041.1190421325232,5186
2043.047629606554,5123
2044.9757520401945,5165
2046.9034097036288,5031
2048.8306028671195,5155
2050.7573318010086,5060
2052.683596775716,5079
2054.609398061742,5081
2056.5347359296647,5101
2058.4596106501403,5138
2060.384022493906,5165
2062.3079717317764,5095
2064.231458634646,5111
2066.1544834734873,5169
2068.077046519352,5057
2069.99914804337,5026
2071.9207883167524,5077
2073.8419676107865,5122
2075.7626861968406,5016
2077.6829443463607,5024
2079.6027423308715,5191
2081.522080421977,5067
2083.440958891362,5051
2085.359378010786,5094
2087.2773380520907,5062
2089.194839287196,5092
2091.111881988101,5233
2093.0284664268825,5123
2094.9445928756973,5075
2096.86026160678,5135
2098.775472892446,5079
2100.690227005088,5112
2102.604524217178,5093
2104.5183648012676,5061
2106.431749029985,5110
2108.34467717604,5143
2110.2571495122206,4980
2112.169166311393,5105
2114.080727846503,5020
2115.9918343905747,5039
2117.902486216711,4985
2119.8126835980956,5136
2121.722426807987,5036
2123.6317161197285,5054
2125.5405518067364,5151
2127.448934142509,5127
2129.356863400624,5148
2131.264339854737,5213
2133.1713637785815,5089
2135.077935445972,4978
2136.9840551308002,4945
2138.889723107037,5114
2140.7949396487334,5045
2142.699705030018,5028
2144.6040195250994,4990
2146.507883408264,5038
2148.4112969538774,5148
2150.3142604363848,5071
2152.2167741303097,5047
2154.1188383102535,5163
2156.0204532508997,5089
2157.9216192270064,5093
2159.822336513414,5127
2161.7226053850413,5044
2163.622426116884,5042
2165.5217989840185,5065
2167.4207242616,5098
2169.319202224862,5048
2171.2172331491165,5214
2173.1148173097563,5082
2175.0119549822507,5097
2176.90864644215,5079
2178.8048919650823,5145
2180.7006918267534,5138
2182.596046302952,5147
2184.4909556695407,5052
2186.3854202024645,5127
2188.279440177746,5101
2190.173015871487,5170
2192.066147559868,5163
2193.958835519149,5133
2195.851080025667,4987
2197.7428813558417,5115
2199.6342397861667,5082
2201.5251555932186,5192
2203.415629053651,5056
2205.3056604441986,5133
2207.19525004167,5147
2209.084398122958,5123
2210.9731049650327,5022
2212.861370844941,5082
2214.749196039812,5089
2216.636580826851,5150
2218.523525483344,5168
2220.410030286655,5031
2222.296095514226,5080
2224.1817214435805,5078
2226.066908352319,5090
2227.951656518121,5146
2229.835966218746,5300
2231.71983773203,5279
2233.6032713358913,5115
2235.486267308324,5259
2237.3688259274036,5114
2239.2509474712824,5119
2241.132632218193,5074
2243.013880446447,5194
2244.8946924344323,5083
2246.7750684606203,5095
2248.6550088035574,5219
2250.534513741871,5100
2252.413583554265,5206
2254.292218519526,5117
2256.170418916517,5141
2258.0481850241786,5095
2259.925517121534,5173
2261.8024154876825,5098
2263.678880401803,5069
2265.5549121431536,5110
2267.430510991071,5120
2269.305677224971,5160
2271.180411124348,5063
2273.0547129687766,5134
2274.9285830379076,5000
2276.8020216114737,5158
2278.6750289692845,5183
2280.5476053912294,5209
2282.4197511572766,5111
2284.2914665474727,5221
2286.162751841943,5051
2288.0336073208937,5150
2289.904033264608,5037
2291.774029953448,5127
2293.6435976678554,5067
2295.5127366883517,5239
2297.381447295534,5201
2299.2497297700825,5257
2301.1175843927526,5276
2302.9850114443825,5174
2304.852011205885,5133
2306.7185839582553,5206
2308.5847299825664,5174
2310.4504495599676,5088
2312.3157429716925,5306
2314.1806104990483,5277
2316.0450524234247,5254
2317.9090690262888,5238
2319.772660589186,5210
2321.635827393742,5192
2323.498569721661,5188
2325.3608878547248,5175
2327.2227820747967,5178
2329.0842526638157,5324
2330.945299903803,5240
2332.805924076857,5153
2334.6661254651535,5203
2336.525904350951,5111
2338.3852610165827,5214
2340.244195744464,5194
2342.102708817088,5263
2343.9608005170253,5254
2345.8184711269287,5155
2347.675720929526,5204
2349.532550207628,5198
2351.38895924412,5314
2353.24494832197,5199
2355.100517724223,5312
2356.955667734004,5210
2358.810398634514,5254
2360.664710709037,5038
2362.5186042409337,5234
2364.3720795136437,5224
2366.225136810686,5261
2368.0777764156583,5214
2369.929998612237,5267
2371.7818036841777,5350
2373.633191915315,5245
2375.484163589562,5301
2377.3347189909114,5259
2379.184858403434,5259
2381.03458211128,5220
2382.8838903986775,5325
2384.732783549936,5315
2386.5812618494406,5318
2388.4293255816588,5296
2390.2769750311327,5317
2392.1242104824883,5265
2393.971032220427,5234
2395.8174405297295,5284
2397.6634356952563,5237
2399.509018001947,5349
2401.3541877348193,5249
2403.1989451789705,5405
2405.043290619576,5352
2406.8872243418905,5241
2408.730746631247,5372
2410.5738577730594,5385
2412.4165580528183,5192
2414.258847756095,5203
2416.100727168537,5346
2417.9421965758734,5258
2419.783256263912,5261
2421.623906518538,5270
2423.4641476257157,5284
2425.303979871491,5200
2427.143403541984,5333
2428.9824189233977,5330
2430.821026302012,5172
2432.6592259641866,5312
2434.497018196361,5305
2436.33440328505,5281
2438.171381516851,5205
2440.00795317844,5259
2441.844118556569,5311
2443.6798779380724,5179
2445.5152316098606,5325
2447.3501798589255,5275
2449.1847229723357,5272
2451.0188612372403,5280
2452.8525949408663,5340
2454.6859243705203,5172
2456.518849813587,5360
2458.3513715575314,5238
2460.183489889895,5212
2462.015205098301,5349
2463.8465174704493,5385
2465.67742729412,5333
2467.5079348571717,5460
2469.338040447542,5253
2471.1677443532476,5321
2472.9970468623833,5330
2474.825948263123,5214
2476.6544488437207,5263
2478.482548892508,5279
2480.310248697896,5266
2482.137548548374,5434
2483.9644487325118,5244
2485.790949538956,5330
2487.617051256433,5286
2489.44275417375,5344
2491.26805857979,5345
2493.0929647635157,5386
2494.917473013971,5226
2496.741583620276,5298
2498.5652968716304,5346
2500.3886130573137,5312
2502.2115324666834,5364
2504.0340553891765,5350
2505.856182114308,5442
2507.6779129316733,5470
2509.499248130945,5293
2511.3201880018764,5389
2513.140732834298,5387
2514.9608829181198,5380
2516.780638543331,5477
2518.6,5486
2520.418967578273,5409
2522.237541568376,5285
2524.0557222606144,5306
2525.8735099453706,5353
2527.6909049131086,5465
2529.507907454368,5379
2531.32451785977,5373
2533.140736420014,5303
2534.9565634258774,5403
2536.771999168218,5299
2538.5870439379714,5464
2540.4016980261526,5499
2542.2159617238544,5452
2544.02983532225,5358
2545.8433191125914,5541
2547.656413386209,5437
2549.4691184345115,5471
2551.2814345489874,5405
2553.093362021204,5453
2554.904901142808,5553
2556.716052205523,5476
2558.526815501153,5493
2560.3371913215824,5516
2562.147179958771,5513
2563.956781704761,5518
2565.7659968516705,5527
2567.5748256916986,5543
2569.3832685171224,5481
2571.1913256202984,5594
2572.9989972936614,5430
2574.806283829725,5559
2576.613185521084,5422
2578.4197026604074,5629
2580.2258355404483,5565
2582.031584454035,5530
2583.836949694077,5492
2585.6419315535613,5653
2587.4465303255533,5595
2589.2507463032002,5660
2591.0545797797245,5667
2592.8580310484303,5646
2594.6611004026995,5740
2596.463788135992,5717
2598.266094541849,5683
2600.0680199138874,5561
2601.869564545807,5593
2603.670728731383,5718
2605.4715127644704,5753
2607.2719169390048,5625
2609.071941548998,5706
2610.8715868885433,5760
2612.670853251811,5673
2614.469740933052,5611
2616.268250226594,5834
2618.0663814268455,5574
2619.864134828292,5631
2621.6615107255006,5739
2623.458509413115,5625
2625.2551311858597,5670
2627.0513763385347,5568
2628.8472451660223,5647
2630.6427379632833,5536
2632.4378550253564,5632
2634.232596647359,5533
2636.026963124488,5648
2637.8209547520187,5567
2639.6145718253065,5622
2641.407814639785,5564
2643.200683490966,5445
2644.9931786744414,5387
2646.7853004858807,5387
2648.577049221034,5403
2650.3684251757277,5599
2652.1594286458712,5552
2653.9500599274484,5558
2655.740319316525,5598
2657.5302071092437,5591
2659.3197236018286,5452
2661.10886909058,5400
2662.8976438718782,5402
2664.686048242183,5460
2666.4740824980327,5408
2668.2617469360443,5384
2670.0490418529134,5423
2671.8359675454153,5428
2673.622524310403,5546
2675.408712444811,5467
2677.1945322456495,5374
2678.979984010009,5374
2680.76506803506,5443
2682.5497846180497,5436
2684.334134056306,5482
2686.1181166472343,5395
2687.9017326883213,5355
2689.6849824771293,5443
2691.4678663113013,5535
2693.2503844885596,5280
2695.032537306705,5418
2696.8143250636167,5320
2698.5957480572542,5318
2700.3768065856534,5401
2702.1575009469316,5465
2703.937831439283,5472
2705.717798360982,5392
2707.4974020103837,5217
2709.276642685917,5432
2711.055520686095,5347
2712.834036309506,5287
2714.612189854819,5394
2716.389981620782,5269
2718.1674119062204,5262
2719.944481010041,5289
2721.721189231226,5243
2723.4975368688415,5317
2725.273524222027,5367
2727.0491515900053,5390
2728.824419272075,5296
2730.5993275676146,5145
2732.3738767760838,5272
2734.148067197016,5387
2735.921899130031,5398
2737.6953728748194,5260
2739.468488731156,5219
2741.2412469988926,5322
2743.0136479779617,5205
2744.785691968372,5263
2746.5573792702116,5273
2748.3287101836504,5265
2750.099685008934,5185
2751.870304046388,5449
2753.640567596418,5277
2755.4104759595057,5399
2757.1800294362156,5403
2758.949228327187,5266
2760.7180729331412,5248
2762.486563554877,5307
2764.254700493272,5300
2766.022484049284,5305
2767.789914523947,5271
2769.5569922183786,5233
2771.3237174337705,5284
2773.090090471394,5283
2774.8561116326036,5175
2776.6217812188274,5285
2778.3870995315756,5337
2780.1520668724356,5293
2781.9166835430747,5351
2783.6809498452394,5332
2785.444866080754,5353
2787.2084325515225,5267
2788.971649559527,5322
2790.73451740683,5224
2792.4970363955713,5295
2794.2592068279705,5321
2796.0210290063264,5315
2797.7825032330147,5324
2799.543629810493,5366
2801.304409041296,5310
2803.0648412280366,5233
2804.8249266734088,5322
2806.5846656801846,5340
2808.344058551212,5446
2810.1031055894246,5322
2811.8618070978273,5400
2813.6201633795085,5413
2815.378174737636,5241
2817.1358414754536,5303
2818.893163896285,5342
2820.6501423035334,5357
2822.4067770006814,5269
2824.1630682912883,5458
2825.9190164789957,5311
2827.6746218675207,5367
2829.429884760661,5287
2831.184805462294,5337
2832.9393842763743,5372
2834.693621506936,5296
2836.4475174580916,5372
2838.201072434034,5385
2839.954286739034,5400
2841.707160677441,5462
2843.459694553685,5346
2845.2118886722724,5317
2846.96374333779,5369
2848.7152588549034,5389
2850.4664355283567,5350
2852.217273662973,5363
2853.9677735636546,5408
2855.7179355353833,5400
2857.4677598832186,5402
2859.217246912299,5490
2860.9663969278427,5362
2862.715210235146,5395
2864.4636871395846,5411
2866.211827946614,5472
2867.9596329617652,5271
2869.7071024906536,5424
2871.4542368389684,5426
2873.20103631248,5438
2874.947501217038,5318
2876.6936318585695,5308
2878.4394285430812,5302
2880.1848915766604,5351
2881.9300212654707,5470
2883.6748179157553,5355
2885.4192818338374,5317
2887.1634133261173,5366
2888.907212699077,5304
2890.6506802592744,5324
2892.393816313348,5357
2894.1366211680142,5391
2895.8790951300693,5383
2897.621238506388,5287
2899.363051603925,5379
2901.1045347297118,5379
2902.8456881908596,5376
2904.58651229456,5395
2906.327007348081,5420
2908.067173658772,5268
2909.8070115340597,5351
2911.5465212814497,5397
2913.285703208527,5262
2915.0245576229563,5374
2916.7630848324807,5304
2918.5012851449196,5217
2920.2391588681758,5390
2921.976706310227,5278
2923.7139277791334,5418
2925.4508235830313,5244
2927.187394030137,5297
2928.923639428745,5344
2930.6595600872306,5320
2932.395156314046,5376
2934.1304284177218,5395
2935.8653767068713,5344
2937.6000014901815,5407
2939.3343030764227,5434
2941.068281774442,5486
2942.8019378931644,5491
2944.5352717415976,5291
2946.2682836288236,5496
2948.0009738640065,5359
2949.7333427563885,5296
2951.465390615289,5318
2953.1971177501086,5312
2954.9285244703265,5320
2956.6596110855,5211
2958.3903779052657,5289
2960.1208252393385,5353
2961.8509533975125,5323
2963.5807626896617,5443
2965.3102534257378,5290
2967.0394259157715,5363
2968.768280469873,5296
2970.496817398232,5349
2972.2250370111146,5269
2973.952939618869,5386
2975.6805255319196,5331
2977.4077950607707,5512
2979.134748516006,5366
2980.861386208289,5320
2982.587708448359,5422
2984.313715547037,5495
2986.039407815222,5479
2987.764785563891,5380
2989.489849104102,5521
2991.2145987469908,5406
2992.9390348037705,5428
2994.6631575857346,5525
2996.3869674042576,5401
2998.1104645707887,5537
2999.83364939686,5300
3001.5565221940783,5463
3003.2790832741334,5397
3005.0013329487924,5383
3006.7232715298996,5336
3008.4448993293804,5337
3010.166216659239,5406
3011.887223831558,5466
3013.607921158498,5304
3015.3283089522993,5346
3017.0483875252826,5279
3018.7681571898443,5397
3020.4876182584626,5310
3022.2067710436927,5449
3023.9256158581707,5414
3025.644153014609,5334
3027.362382825801,5338
3029.0803056046193,5413
3030.797921664012,5284
3032.5152313170106,5415
3034.2322348767225,5393
3035.9489326563353,5420
3037.665324969115,5372
3039.3814121284063,5396
3041.097194447633,5325
3042.812672240299,5367
3044.5278458199855,5494
3046.2427155003525,5360
3047.9572815951406,5414
3049.671544418167,5529
3051.38550428333,5486
3053.0991615046073,5353
3054.812516396051,5344
3056.5255692717974,5358
3058.2383204460575,5416
3059.9507702331257,5387
3061.662918947372,5429
3063.3747669032446,5394
3065.0863144152736,5467
3066.7975617980674,5348
3068.508509366309,5400
3070.219157434767,5476
3071.9295063182844,5494
3073.639556331785,5578
3075.3493077902704,5435
3077.058761008821,5407
3078.7679163025964,5431
3080.476773986837,5494
3082.1853343768594,5474
3083.89359778806,5286
3085.6015645359153,5382
3087.3092349359786,5412
3089.016609303884,5499
3090.7236879553434,5417
3092.4304712061476,5359
3094.136959372166,5337
3095.843152769349,5265
3097.5490517137237,5388
3099.2546565213966,5367
3100.959967508554,5382
3102.66498499146,5524
3104.3697092864577,5454
3106.0741407099695,5446
3107.778279578498,5477
3109.482126208622,5416
3111.1856809170004,5524
3112.8889440203716,5384
3114.5919158355528,5380
3116.294596679439,5369
3117.996986869006,5506
3119.6990867213062,5609
3121.4008965534726,5446
3123.102416682717,5507
3124.803647426329,5429
3126.5045891016784,5471
3128.205242026213,5663
3129.90560651746,5606
3131.605682893025,5553
3133.3054714705922,5528
3135.0049725679282,5477
3136.7041865028714,5541
3138.4031135933465,5540
3140.101754157353,5544
3141.800108512971,5454
3143.498176978357,5491
3145.1959598717494,5424
3146.8934575114636,5493
3148.5906702158954,5395
3150.2875983035183,5550
3151.9842420928853,5432
3153.680601902627,5383
3155.376678051456,5549
3157.07247085816,5452
3158.767980641609,5432
3160.463207720748,5533
3162.158152414606,5482
3163.8528150422862,5486
3165.5471959229726,5412
3167.2412953759303,5543
3168.9351137204976,5373
3170.628651276098,5456
3172.3219083622307,5516
3174.014885298474,5555
3175.707582404485,5466
3177.4000000000005,5570
3179.092138404835,5584
3180.7839979388846,5547
3182.47557892212,5614
3184.166881674594,5620
3185.8579065164386,5473
3187.5486537678626,5540
3189.2391237491547,5584
3190.9293167806827,5396
3192.6192331828934,5541
3194.3088732763117,5492
3195.998237381542,5425
3197.687325819268,5441
3199.376138910251,5405
3201.064676975334,5525
3202.7529403354347,5512
3204.4409293115523,5505
3206.1286442247647,5412
3207.816085396229,5333
3209.5032531471825,5407
3211.190147798936,5561
3212.8767696728846,5492
3214.5631190905015,5318
3216.2491963733373,5392
3217.9350018430214,5306
3219.6205358212637,5308
3221.305798629851,5299
3222.990790590651,5429
3224.6755120256103,5319
3226.359963256751,5355
3228.0441446061795,5328
3229.7280563960758,5313
3231.411698948703,5364
3233.0950725863995,5469
3234.778177631587,5502
3236.461014406761,5424
3238.1435832345005,5451
3239.8258844374595,5549
3241.507918338374,5421
3243.1896852600576,5504
3244.8711855254023,5539
3246.552419457381,5518
3248.233387379042,5478
3249.914089613516,5420
3251.59452648401,5417
3253.274698313813,5440
3254.95460542629,5355
3256.6342481448855,5369
3258.313626793125,5302
3259.9927416946084,5442
3261.6715931730196,5393
3263.3501815521176,5319
3265.0285071557437,5309
3266.706570307815,5431
3268.3843713323286,5338
3270.0619105533615,5466
3271.739188295068,5392
3273.4162048816834,5461
3275.0929606375184,5408
3276.769455886966,5456
3278.445690954498,5410
3280.1216661646613,5646
3281.797381842087,5490
3283.4728383114807,5541
3285.1480358976296,5461
3286.8229749253996,5381
3288.4976557197333,5466
3290.172078605655,5411
3291.846243908266,5352
3293.5201519527463,5413
3295.193803064357,5372
3296.8671975684374,5380
3298.5403357904024,5304
3300.21321805575,5394
3301.8858446900567,5376
3303.558216018975,5390
3305.23033236824,5369
3306.9021940636603,5428
3308.57380143113,5511
3310.2451547966184,5437
3311.916254486174,5526
3313.5871008259246,5502
3315.2576941420766,5445
3316.9280347609147,5462
3318.5981230088046,5356
3320.2679592121895,5393
3321.9375436975924,5347
3323.606876791612,5309
3325.27595882093,5316
3326.944790112305,5353
3328.6133709925753,5301
3330.2817017886573,5368
3331.949782827547,5352
3333.617614436319,5365
3335.2851969421245,5606
3336.952530672199,5373
3338.619615953853,5422
3340.286453114475,5532
3341.9530424815357,5533
3343.619384382583,5618
3345.2854791452437,5468
3346.951327097224,5363
3348.6169285663073,5604
3350.2822838803577,5413
3351.947393367319,5480
3353.61225735521,5408
3355.2768761721345,5598
3356.9412501462693,5519
3358.605379605873,5421
3360.2692648792827,5482
3361.9329062949146,5476
3363.596304181263,5441
