CollectionTime,6/26/2024 2:52:55 PM
ExposureUsed,3
CalibratedSpectrum
-962.7078968117929,2263
-959.9714848408522,2453
-957.2358232597828,2483
-954.5009119013725,2560
-951.7667505983302,2415
-949.0333391832855,2404
-946.3006774887896,2418
-943.5687653473143,2465
-940.837602591253,2479
-938.1071890529199,2430
-935.3775245645503,2426
-932.6486089583007,2493
-929.9204420662485,2609
-927.1930237203925,2514
-924.4663537526524,2452
-921.7404319948689,2432
-919.0152582788041,2564
-916.2908324361409,2504
-913.5671542984834,2571
-910.8442236973568,2519
-908.1220404642074,2606
-905.4006044304027,2431
-902.679915427231,2473
-899.959973285902,2519
-897.2407778375464,2450
-894.5223289132158,2503
-891.8046263438832,2470
-889.0876699604426,2587
-886.3714595937089,2492
-883.6559950744183,2478
-880.9412762332282,2593
-878.2273029007168,2434
-875.5140749073835,2495
-872.8015920836489,2550
-870.0898542598545,2465
-867.3788612662631,2444
-864.6686129330585,2465
-861.9591090903457,2477
-859.2503495681506,2460
-856.5423341964203,2473
-853.8350628050229,2591
-851.1285352237478,2587
-848.4227512823054,2587
-845.7177108103272,2539
-843.0134136373656,2569
-840.3098595928943,2524
-837.6070485063082,2490
-834.9049802069229,2559
-832.2036545239757,2558
-829.5030712866244,2579
-826.8032303239481,2575
-824.1041314649472,2499
-821.4057745385428,2599
-818.7081593735775,2607
-816.0112857988148,2527
-813.3151536429393,2623
-810.6197627345566,2516
-807.9251129021936,2514
-805.2312039742981,2477
-802.5380357792392,2540
-799.8456081453069,2497
-797.1539209007124,2617
-794.462973873588,2551
-791.772766891987,2453
-789.083299783884,2522
-786.3945723771743,2587
-783.7065844996748,2552
-781.0193359791231,2567
-778.3328266431781,2515
-775.6470563194197,2589
-772.9620248353489,2548
-770.2777320183878,2614
-767.5941776958798,2577
-764.9113616950891,2544
-762.2292838432011,2602
-759.5479439673222,2589
-756.8673418944801,2550
-754.1874774516235,2542
-751.5083504656222,2540
-748.8299607632671,2667
-746.15230817127,2664
-743.475392516264,2683
-740.7992136248035,2627
-738.1237713233636,2621
-735.4490654383407,2605
-732.7750957960521,2782
-730.1018622227365,2708
-727.4293645445534,2673
-724.7576025875837,2665
-722.0865761778291,2638
-719.4162851412126,2718
-716.7467293035781,2660
-714.0779084906909,2626
-711.409822528237,2773
-708.7424712418238,2704
-706.0758544569796,2656
-703.4099719991541,2813
-700.7448236937178,2824
-698.0804093659622,2800
-695.4167288411002,2739
-692.7537819442656,2732
-690.0915685005134,2723
-687.4300883348199,2775
-684.7693412720819,2688
-682.1093271371178,2735
-679.4500457546669,2820
-676.7914969493897,2744
-674.1336805458676,2782
-671.4765963686034,2722
-668.8202442420206,2693
-666.1646239904642,2826
-663.5097354382001,2758
-660.8555784094151,2791
-658.2021527282176,2772
-655.5494582186366,2662
-652.8974947046223,2748
-650.2462620100463,2730
-647.5957599587009,2848
-644.9459883742998,2890
-642.2969470804776,2908
-639.6486359007902,2994
-637.0010546587141,2962
-634.3542031776476,2983
-631.7080812809096,2923
-629.0626887917401,2778
-626.4180255333008,2843
-623.7740913286734,2898
-621.1308860008619,2801
-618.4884093727904,2800
-615.8466612673046,2771
-613.2056415071715,2754
-610.5653499150785,2909
-607.9257863136347,2899
-605.28695052537,2888
-602.6488423727357,2875
-600.0114616781036,2904
-597.3748082637674,2961
-594.7388819519412,2875
-592.1036825647604,2901
-589.4692099242818,2890
-586.8354638524829,2904
-584.2024441712624,2842
-581.5701507024403,2976
-578.9385832677575,2910
-576.3077416888759,2950
-573.6776257873787,2881
-571.0482353847704,2771
-568.4195703024757,2915
-565.7916303618415,2964
-563.164415384135,2995
-560.5379251905453,2987
-557.9121596021815,2864
-555.2871184400748,2878
-552.6628015251767,2931
-550.0392086783606,2981
-547.4163397204204,2956
-544.794194472071,2947
-542.1727727539491,2948
-539.5520743866118,2949
-536.9320991905377,2973
-534.3128469861261,2976
-531.6943175936979,3045
-529.0765108334947,3091
-526.4594265256793,3131
-523.8430644903358,3210
-521.2274245474689,3366
-518.612506517005,3405
-515.9983102187913,3564
-513.3848354725959,3658
-510.77208209810846,3776
-508.16004991493924,3844
-505.5487387426199,3926
-502.9381484006032,3921
-500.3282787082628,4171
-497.71912948489364,4179
-495.1107005497117,4178
-492.5029917218539,4153
-489.8960028203786,3937
-487.28973366426493,3802
-484.68418407241325,3527
-482.07935386364494,3487
-479.47524285670266,3380
-476.87185087025,3329
-474.2691777228715,3509
-471.66722323307334,3281
-469.0659872192821,3342
-466.4654694998459,3315
-463.86566989303384,3292
-461.26658821703614,3268
-458.66822428996414,3180
-456.07057792985,3269
-453.4736489546475,3370
-450.877437182231,3214
-448.28194243039627,3166
-445.68716451686,3162
-443.09310325926003,3283
-440.49975847515555,3207
-437.9071299820263,3220
-435.31521759727354,3204
-432.72402113821954,3225
-430.13354042210767,3285
-427.5437752661022,3262
-424.95472548728867,3276
-422.36639090267386,3289
-419.7787713291855,3293
-417.1918665836721,3232
-414.60567648290385,3302
-412.0202008435715,3236
-409.4354394822874,3345
-406.8513922155845,3320
-404.26805885991723,3379
-401.685439231661,3358
-399.103533147112,3393
-396.522340422488,3334
-393.9418608739278,3196
-391.3620943174908,3120
-388.7830405691583,3027
-386.2046994448317,2854
-383.6270707603344,2757
-381.05015433141045,2636
-378.473949973725,2374
-375.8984575028645,2193
-373.32367673433623,1876
-370.74960748356875,1712
-368.1762495659117,1524
-365.60360279663576,1332
-363.03166699093265,1134
-360.4604419639154,1013
-357.8899275306178,942
-355.32012350599507,839
-352.7510297049233,784
-350.1826459421999,745
-347.61497203254316,691
-345.04800779059235,675
-342.4817530309082,622
-339.91620756797226,587
-337.35137121618743,603
-334.7872437898774,552
-332.22382510328725,595
-329.66111497058273,631
-327.09911320585127,624
-324.53781962310075,660
-321.9772340362607,688
-319.4173562591816,716
-316.8581861056348,756
-314.2997233893127,796
-311.7419679238294,802
-309.1849195227194,846
-306.62857799943856,730
-304.0729431673641,639
-301.51801483979375,635
-298.963792829947,669
-296.41027695096386,768
-293.85746701590574,704
-291.3053628377552,758
-288.7539642294155,777
-286.2032710037115,780
-283.65328297338897,860
-281.1039999511146,871
-278.5554217494762,873
-276.007548180983,801
-273.4603790580651,814
-270.9139141930734,756
-268.3681533982807,785
-265.8230964858798,768
-263.27874326798565,765
-260.7350935566336,880
-258.1921471637804,852
-255.6499039013039,832
-253.10836358100266,788
-250.56752601459698,818
-248.02739101372765,817
-245.48795838995704,912
-242.94922795476816,996
-240.41119951956557,908
-237.8738728956746,1085
-235.33724789434166,1078
-232.80132432673452,1221
-230.2661020039418,1688
-227.73158073697357,1376
-225.19776033676033,997
-222.66464061415422,947
-220.1322213799284,1003
-217.60050244477725,960
-215.06948361931552,976
-212.53916471408013,901
-210.00954553952818,909
-207.48062590603843,1106
-204.9524056239104,1155
-202.4248845033651,1029
-199.8980623545441,1106
-197.37193898751036,1009
-194.84651421224817,973
-192.32178783866232,1063
-189.79775967657952,1101
-187.27442953574644,1106
-184.7517972258321,1119
-182.2298625564256,1079
-179.7086253370378,1166
-177.18808537710026,1309
-174.66824248596583,1395
-172.14909647290835,1342
-169.6306471471229,1280
-167.11289431772548,1238
-164.59583779375328,1326
-162.07947738416453,1322
-159.5638128978386,1455
-157.04884414357605,1514
-154.53457093009854,1461
-152.02099306604828,1435
-149.50811035998936,1371
-146.99592262040665,1598
-144.48442965570587,1630
-141.97363127421409,1504
-139.46352728417958,1673
-136.95411749377126,1827
-134.44540171107985,1867
-131.93737974411636,1556
-129.43005140081357,1596
-126.92341648902493,1905
-124.41747481652521,1806
-121.91222619101006,1764
-119.40767042009657,1608
-116.90380731132257,1674
-114.40063667214702,1887
-111.8981583099503,2139
-109.3963720320337,2234
-106.89527764561933,1908
-104.39487495785067,1931
-101.89516377579241,2261
-99.39614390642998,2290
-96.89781515667039,1998
-94.40017733334128,2348
-91.90323024319173,2476
-89.40697369289148,2437
-86.91140748903172,2219
-84.41653143812482,2280
-81.92234534660395,2338
-79.42884902082358,2304
-76.93604226705907,2679
-74.4439248915071,2752
-71.95249670028534,2578
-69.46175749943245,2719
-66.97170709490854,2740
-64.48234529259423,3823
-61.99367189829195,4163
-59.50568671772464,3386
-57.01838955653636,3749
-54.53178022029283,3870
-52.045858514480074,4649
-49.560624244506016,4888
-47.07607721569923,4579
-44.59221723330904,4388
-42.10904410250669,4573
-39.62655762838392,6256
-37.14475761595372,7170
-34.66364387015028,7564
-32.18321619582866,8033
-29.70347439776515,8303
-27.224418280657005,9858
-24.74604764912317,12832
-22.26836230770266,19914
-19.7913620608565,32347
-17.315046712966478,48610
-14.83941606833514,53026
-12.36446993118659,65039
-9.89020810566592,65039
-7.416630395839093,65039
-4.94373660569363,65039
-2.471526539137585,65039
-6.821210263296962E-13,65039
2.47084320796705,65039
4.941003281093458,65039
7.410480415786196,65039
9.879274808531363,65039
12.347386655893956,65039
14.814816154518212,65039
17.28156350112681,65039
19.74762889252179,65039
22.21301252558385,65039
24.67771459727237,65039
27.141735304626195,65039
29.605074844762612,61568
32.06773341487792,19056
34.52971121224755,12354
36.99100843422559,14653
39.45162527824516,15623
41.91156194181792,13454
44.370818622535126,16762
46.82939551806646,20458
49.287292826160524,18987
51.74451074464503,15301
54.201049471426245,9092
56.65690920448981,5085
59.112090141899785,4060
61.56659248179983,4357
64.02041642241159,4499
66.4735621620365,4729
68.92602989905402,3613
71.37781983192338,3504
73.82893215918205,3706
76.27936707944684,3382
78.72912479141326,3800
81.17820549385567,4156
83.62660938562783,4136
86.07433666566146,3749
88.5213875329681,3669
90.96776218663751,3114
93.41346082583925,3799
95.85848364982041,3669
98.30283085790859,3002
100.7465026495089,3132
103.18949922410604,3036
105.63182078126385,2406
108.07346752062438,2990
110.51443964190923,3224
112.95473734491827,2562
115.39436082953114,2351
117.83331029570547,2484
120.27158594347827,2603
122.7091879729652,2211
125.1461165843615,2183
127.58237197794062,1865
130.01795435405518,1755
132.4528639131364,1834
134.88710085569494,2148
137.32066538231982,2302
139.75355769367923,2030
142.1857779905207,1879
144.61732647366978,1913
147.04820334403132,1936
149.47840880258934,1797
151.90794305040674,2051
154.33680628862487,2251
156.76499871846443,2513
159.19252054122433,2537
161.61937195828352,2944
164.04555317109896,2997
166.47106438120693,3482
168.89590579022217,4106
171.320077599839,4515
173.7435800118302,4198
176.16641322804742,4319
178.58857745042144,4684
181.01007288096173,4992
183.43089972175687,5187
185.85105817497413,5333
188.27054844285988,5385
190.6893707277394,5532
193.10752523201643,5515
195.5250121581745,5712
197.9418317087751,5706
200.3579840864594,5645
202.7734694939469,5815
205.18828813403627,5978
207.6024402096051,5901
210.01592592360964,5887
212.42874547908548,5777
214.84089907914665,5882
217.2523869269868,5875
219.66320922587727,5978
222.0733661791695,5899
224.48285799029293,5939
226.8916848627572,6145
229.29984700014882,6185
231.7073446061355,6023
234.11417788446204,6238
236.520347038953,6203
238.92585227351185,6308
241.33069379212054,6622
243.73487179884035,6601
246.1383864978112,6295
248.541238093252,6321
250.9434267894609,6365
253.34495279081432,6293
255.74581630176783,6323
258.1460175268563,6277
260.54555667069314,6452
262.9444339379703,6286
265.3426495334594,6188
267.7402036620107,6120
270.1370965285529,5981
272.53332833809407,5769
274.9288992957214,5903
277.32380960660055,5850
279.718059475976,5930
282.1116491091717,5835
284.5045787115897,5966
286.89684848871195,5849
289.2884586460981,5880
291.67940938938807,5830
294.0697009242996,5870
296.4593334566299,5731
298.84830719225477,5722
301.23662233712923,5849
303.6242790972866,5741
306.01127767884,5822
308.39761828798066,5941
310.78330113097934,5795
313.16832641418534,5755
315.5526943440269,5651
317.9364051270112,5711
320.3194589697242,5527
322.70185607883093,5524
325.0835966610754,5527
327.4646809232805,5465
329.8451090723478,5494
332.2248813152577,5591
334.6039978590701,5462
336.9824589109231,5456
339.36026467803447,5388
341.7374153677,5436
344.113911187295,5235
346.48975234427337,5466
348.8649390461686,5381
351.2394715005918,5459
353.61334991523415,5334
355.9865744978655,5327
358.35914545633375,5440
360.73106299856715,5280
363.10232733257146,5327
365.47293866643247,5392
367.84289720831396,5497
370.2122031664593,5353
372.5808567491905,5355
374.9488581649083,5416
377.31620762209275,5231
379.6829053293021,5303
382.0489514951745,5369
384.4143463284262,5275
386.7790900378528,5303
389.14318283232853,5246
391.50662492080653,5243
393.86941651231916,5258
396.23155781597745,5203
398.5930490409713,5317
400.9538903965696,5445
403.3140820921202,5233
405.6736243370498,5135
408.03251734086336,5044
410.3907613131465,5190
412.74835646356166,5334
415.10530300185144,5235
417.4616011378372,5313
419.81725108141893,5248
422.1722530425758,5279
424.5266072313656,5257
426.880313857925,5271
429.2333731324701,5268
431.58578526529516,5313
433.9375504667738,5306
436.2886689473588,5277
438.63914091758113,5144
440.9889665880513,5222
443.33814616945835,5146
445.68667987257015,5160
448.03456790823395,5126
450.3818104873759,5191
452.72840782100013,5280
455.07436012019105,5244
457.41966759611057,5135
459.7643304600007,5092
462.10834892318155,5301
464.4517231970525,5274
466.79445349309174,5243
469.1365400228566,5265
471.4779829979826,5320
473.81878263018564,5264
476.15893913125876,5318
478.4984527130747,5260
480.8373235875855,5306
483.17555196682144,5364
485.5131380628919,5311
487.8500820879857,5381
490.1863842543697,5441
492.52204477439034,5718
494.8570638604725,6008
497.1914417251204,6295
499.52517858091653,6447
501.85827464052306,6593
504.19073011668036,6710
506.5225452222086,6347
508.85372017000566,6392
511.18425517304956,6472
513.514150444396,6476
515.8434061971808,7084
518.1720226446176,7643
520.4999999999999,8059
522.8273384766991,8471
525.1540382881666,8733
527.480099647932,8556
529.8055227696037,7715
532.1303078668694,6366
534.454455153496,5539
536.777964843328,5353
539.1008371502907,5183
541.4230722883866,5106
543.744670471698,5125
546.0656319143858,5141
548.3859568306899,5040
550.7056454349294,5191
553.0246979415016,4956
555.3431145648834,4989
557.6608955196306,5043
559.978041020377,5048
562.2945512818363,5040
564.6104265188006,5023
566.9256669461412,5058
569.2402727788082,4958
571.5542442318302,5009
573.8675815203156,5011
576.1802848594508,5105
578.4923544645015,5070
580.8037905508126,5064
583.114593333807,5099
585.4247630289875,5116
587.7342998519354,5220
590.0432040183106,5069
592.3514757438526,5041
594.6591152443794,5063
596.9661227357875,4998
599.2724984340531,5080
601.578242555231,5099
603.8833553154542,5168
606.1878369309362,5158
608.4916876179676,5081
610.7949075929192,5249
613.0974970722403,5253
615.3994562724587,5051
617.7007854101818,5122
620.0014847020951,5128
622.3015543649641,5145
624.6009946156324,5119
626.8998056710224,5125
629.1979877481361,5149
631.4955410640538,5040
633.7924658359349,5165
636.0887622810175,5096
638.3844306166192,5118
640.6794710601358,5202
642.9738838290426,5149
645.2676691408932,5237
647.5608272133207,5190
649.853358264037,5276
652.1452625108324,5233
654.4365401715764,5149
656.7271914642178,5202
659.0172166067838,5231
661.3066158173809,5108
663.5953893141935,5124
665.8835373154867,5148
668.1710600396028,5272
670.4579577049639,5311
672.7442305300709,5150
675.0298787335033,5195
677.3149025339197,5189
679.599302150058,5314
681.8830778007342,5237
684.1662297048437,5200
686.4487580813608,5236
688.7306631493387,5278
691.0119451279091,5318
693.2926042362834,5300
695.5726406937516,5243
697.8520547196814,5171
700.1308465335215,5260
702.4090163547982,5234
704.6865644031171,5189
706.9634908981619,5181
709.2397960596965,5173
711.5154801075631,5259
713.7905432616823,5244
716.0649857420548,5265
718.3388077687592,5223
720.612009561953,5178
722.8845913418733,5275
725.1565533288352,5159
727.427895743234,5277
729.6986188055427,5279
731.9687227363137,5300
734.238207756178,5322
736.5070740858458,5206
738.7753219461066,5260
741.0429515578281,5268
743.3099631419569,5146
745.5763569195191,5325
747.8421331116193,5323
750.1072919394409,5319
752.3718336242467,5318
754.6357583873777,5251
756.8990664502545,5265
759.1617580343765,5135
761.423833361321,5256
763.6852926527457,5363
765.9461361303862,5189
768.206364016058,5178
770.4659765316536,5343
772.7249738991469,5220
774.9833563405886,5164
777.2411240781092,5400
779.4982773339183,5354
781.7548163303044,5254
784.010741289634,5378
786.2660524343538,5325
788.5207499869881,5241
790.7748341701416,5309
793.0283052064964,5280
795.2811633188143,5278
797.5334087299362,5449
799.7850416627813,5323
802.0360623403484,5337
804.2864709857143,5203
806.5362678220353,5348
808.7854530725468,5325
811.0340269605625,5244
813.2819897094754,5212
815.5293415427581,5232
817.77608268396,5331
820.0222133567116,5395
822.2677337847211,5320
824.5126441917765,5335
826.7569448017433,5402
829.0006358385675,5265
831.2437175262731,5418
833.4861900889629,5288
835.7280537508192,5322
837.9693087361026,5215
840.2099552691533,5337
842.4499935743896,5309
844.689423876309,5284
846.9282463994886,5405
849.1664613685833,5319
851.4040690083276,5448
853.6410695435349,5244
855.877463199097,5234
858.1132501999847,5299
860.3484307712487,5397
862.5830051380175,5220
864.8169735254988,5342
867.0503361589791,5278
869.2830932638243,5402
871.5152450654786,5425
873.7467917894654,5432
875.9777336613873,5403
878.2080709069252,5544
880.4378037518389,5389
882.666932421968,5391
884.8954571432301,5442
887.1233781416219,5521
889.3506956432192,5410
891.5774098741766,5454
893.803521060728,5320
896.0290294291852,5423
898.2539352059397,5490
900.4782386174619,5481
902.7019398903011,5463
904.925039251085,5468
907.147536926521,5372
909.3694331433943,5451
911.59072812857,5452
913.8114221089921,5319
916.0315153116827,5220
918.2510079637437,5459
920.4699002923547,5426
922.6881925247761,5378
924.905884888345,5449
927.1229776104793,5398
929.3394709186747,5288
931.555365040506,5383
933.7706602036275,5316
935.9853566357709,5386
938.1994545647489,5245
940.4129542184515,5385
942.6258558248488,5254
944.8381596119883,5258
947.0498658079974,5421
949.2609746410825,5473
951.4714863395287,5476
953.6814011316998,5431
955.8907192460387,5286
958.0994409110671,5441
960.3075663553858,5312
962.5150958076741,5305
964.7220294966913,5361
966.928367651274,5364
969.1341105003388,5359
971.3392582728806,5350
973.5438111979742,5275
975.747769504772,5318
977.9511334225061,5207
980.153903180487,5356
982.3560790081052,5246
984.5576611348289,5401
986.7586497902058,5374
988.9590452038618,5181
991.158847605503,5316
993.3580572249133,5249
995.5566742919558,5361
997.7546990365728,5210
999.952131688785,5225
1002.1489724786926,5299
1004.3452216364743,5125
1006.5408793923874,5046
1008.7359459767691,5193
1010.9304216200343,5170
1013.1243065526781,4989
1015.3176010052733,5069
1017.510305208472,5173
1019.7024193930064,5095
1021.8939437896848,5047
1024.0848786293977,5134
1026.2752241431122,4994
1028.4649805618747,4977
1030.6541481168115,5026
1032.842727039127,4996
1035.0307175601051,5017
1037.2181199111074,5052
1039.4049343235752,5083
1041.591161029029,5160
1043.7768002590683,5104
1045.9618522453698,5106
1048.1463172196918,5130
1050.3301954138697,4985
1052.513487059818,5171
1054.69619238953,5050
1056.8783116350783,5052
1059.0598450286152,5195
1061.2407928023704,5160
1063.4211551886528,5000
1065.6009324198508,5220
1067.780124728432,5110
1069.9587323469414,5133
1072.1367555080046,5059
1074.314194444325,5125
1076.4910493886855,5163
1078.667320573947,4907
1080.843008233051,5072
1083.0181125990161,5008
1085.1926339049414,5037
1087.3665723840027,5025
1089.5399282694575,4979
1091.7127017946405,4969
1093.8848931929647,4947
1096.0565026979243,5049
1098.2275305430899,4992
1100.3979769621128,4954
1102.567842188722,4992
1104.737126456726,4953
1106.9058300000124,4940
1109.0739530525475,4926
1111.2414958483764,4992
1113.4084586216231,5079
1115.5748416064907,4925
1117.7406450372605,4933
1119.9058691482942,4854
1122.0705141740304,4960
1124.2345803489884,4940
1126.3980679077658,5039
1128.5609770850388,5025
1130.7233081155623,5023
1132.8850612341707,4939
1135.0462366757774,5036
1137.2068346753745,5022
1139.3668554680326,4866
1141.526299288901,4937
1143.68516637321,4974
1145.8434569562655,4908
1148.001171273455,4984
1150.158309560244,4972
1152.3148720521767,5030
1154.470858984876,4923
1156.626270594044,5064
1158.7811071154629,5046
1160.9353687849912,5158
1163.089055838569,4948
1165.242168512213,4920
1167.3947070420209,4962
1169.5466716641677,4902
1171.6980626149075,4948
1173.8488801305748,5069
1175.9991244475814,5078
1178.1487958024186,4955
1180.2978944316555,4976
1182.4464205719428,5067
1184.5943744600072,4922
1186.7417563326567,4999
1188.8885664267755,4941
1191.0348049793297,4834
1193.1804722273619,5019
1195.325568407995,5076
1197.4700937584303,4971
1199.614048515948,4996
1201.7574329179074,4874
1203.900247201746,4972
1206.042491604982,4924
1208.1841663652099,4950
1210.3252717201053,4939
1212.465807907422,4906
1214.6057751649923,5005
1216.7451737307279,4990
1218.8840038426192,4946
1221.0222657387353,5052
1223.1599596572241,5113
1225.2970858363137,5105
1227.4336445143094,4975
1229.5696359295966,4840
1231.705060320639,5042
1233.8399179259786,5040
1235.9742089842384,5091
1238.107933734118,4941
1240.2410924143974,5014
1242.373685263935,5099
1244.5057125216676,5096
1246.6371744266116,5116
1248.7680712178621,5145
1250.898403134593,5007
1253.028170416058,5004
1255.1573733015875,5072
1257.2860120305932,5057
1259.4140868425648,5166
1261.54159797707,5233
1263.6685456737569,4966
1265.7949301723515,4993
1267.9207517126597,5081
1270.046010534565,5190
1272.1707068780306,5163
1274.2948409830983,5123
1276.4184130898889,5183
1278.541423438603,5044
1280.6638722695184,5155
1282.785759822993,5095
1284.9070863394636,5172
1287.0278520594447,5230
1289.1480572235314,5203
1291.2677020723963,5233
1293.3867868467923,5280
1295.5053117875495,5258
1297.623277135579,5258
1299.740683131868,5131
1301.8575300174857,5214
1303.973818033578,5141
1306.0895474213703,5363
1308.2047184221678,5285
1310.3193312773528,5415
1312.4333862283888,5341
1314.5468835168163,5221
1316.659823384255,5296
1318.7722060724045,5489
1320.8840318230418,5295
1322.9953008780249,5232
1325.1060134792888,5235
1327.2161698688478,5338
1329.3257702887959,5310
1331.4348149813054,5346
1333.5433041886276,5251
1335.6512381530933,5249
1337.7586171171101,5301
1339.8654413231675,5348
1341.9717110138317,5158
1344.0774264317488,5246
1346.1825878196432,5252
1348.2871954203192,5204
1350.3912494766587,5205
1352.4947502316231,5157
1354.5976979282532,5207
1356.7000928096686,5244
1358.8019351190665,5153
1360.9032250997243,5177
1363.0039629949988,5267
1365.1041490483235,5163
1367.2037835032133,5264
1369.3028666032606,5214
1371.401398592137,5216
1373.4993797135926,5269
1375.5968102114575,5171
1377.6936903296396,5224
1379.7900203121262,5324
1381.8858004029835,5185
1383.9810308463561,5155
1386.075711886469,5276
1388.1698437676241,5325
1390.2634267342032,5339
1392.356461030667,5344
1394.4489469015557,5406
1396.5408845914872,5375
1398.6322743451592,5242
1400.7231164073469,5343
1402.813411022907,5343
1404.903158436773,5371
1406.9923588939578,5232
1409.0810126395531,5364
1411.1691199187303,5185
1413.2566809767386,5345
1415.343696058907,5338
1417.4301654106425,5275
1419.5160892774315,5272
1421.6014679048399,5320
1423.6863015385125,5379
1425.7705904241707,5364
1427.8543348076178,5252
1429.9375349347342,5335
1432.0201910514802,5344
1434.102303403894,5388
1436.1838722380944,5472
1438.2648978002767,5414
1440.3453803367174,5471
1442.4253200937692,5471
1444.5047173178677,5457
1446.5835722555234,5547
1448.6618851533285,5647
1450.739656257952,5506
1452.8168858161434,5621
1454.8935740747306,5585
1456.96972128062,5616
1459.045327680797,5641
1461.120393522327,5731
1463.1949190523528,5691
1465.2689045180973,5728
1467.3423501668608,5701
1469.415256246024,5716
1471.4876230030463,5802
1473.559450685465,5892
1475.6307395408976,5936
1477.7014898170391,5782
1479.771701761665,5915
1481.8413756226287,5867
1483.9105116478618,5962
1485.9791100853772,5974
1488.0471711832643,6051
1490.1146951896926,6106
1492.1816823529098,6019
1494.2481329212433,6051
1496.3140471430984,6260
1498.3794252669609,6234
1500.4442675413939,6245
1502.5085742150404,6279
1504.572345536622,6394
1506.6355817549388,6301
1508.6982831188702,6279
1510.7604498773744,6402
1512.8220822794883,6522
1514.8831805743293,6344
1516.9437450110909,6499
1519.003775839048,6449
1521.0632733075522,6593
1523.1222376660367,6674
1525.1806691640113,6671
1527.2385680510652,6823
1529.2959345768668,6870
1531.3527689911643,6825
1533.4090715437833,6706
1535.4648424846291,6945
1537.5200820636855,7125
1539.5747905310159,6889
1541.6289681367616,6981
1543.6826151311434,7051
1545.7357317644614,7069
1547.7883182870937,7155
1549.8403749494987,7152
1551.8919020022113,7349
1553.9428996958477,7440
1555.9933682811015,7445
1558.0433080087469,7622
1560.0927191296346,7584
1562.1416018946961,7611
1564.1899565549415,7549
1566.2377833614592,7523
1568.2850825654164,7460
1570.3318544180606,7336
1572.3780991707158,7252
1574.423817074788,7129
1576.4690083817595,7026
1578.5136733431923,6806
1580.5578122107272,6706
1582.601425236085,6704
1584.6445126710646,6388
1586.6870747675434,6244
1588.7291117774776,6082
1590.7706239529034,6035
1592.8116115459347,5906
1594.8520748087658,6077
1596.8920139936686,5880
1598.9314293529933,5738
1600.9703211391711,5870
1603.008689604711,5777
1605.0465350022005,5527
1607.0838575843068,5629
1609.1206576037753,5685
1611.1569353134305,5588
1613.1926909661765,5515
1615.2279248149953,5481
1617.2626371129481,5452
1619.2968281131757,5703
1621.3304980688963,5366
1623.3636472334088,5514
1625.39627586009,5553
1627.428384202396,5453
1629.459972513861,5422
1631.4910410480993,5421
1633.5215900588028,5400
1635.551619799744,5417
1637.5811305247717,5442
1639.6101224878166,5427
1641.6385959428862,5459
1643.6665511440683,5289
1645.693988345528,5373
1647.7209078015112,5378
1649.7473097663405,5302
1651.7731944944203,5456
1653.7985622402307,5329
1655.823413258333,5355
1657.847747803366,5437
1659.8715661300494,5336
1661.8948684931793,5282
1663.9176551476316,5302
1665.9399263483624,5334
1667.9616823504057,5321
1669.982923408873,5321
1672.0036497789574,5186
1674.0238617159293,5264
1676.043559475138,5327
1678.0627433120121,5204
1680.081413482059,5267
1682.0995702408654,5333
1684.117213844096,5393
1686.134344547495,5339
1688.1509626068864,5270
1690.1670682781705,5293
1692.182661817329,5347
1694.1977434804217,5324
1696.2123135235875,5262
1698.226372203043,5232
1700.2399197750851,5248
1702.2529564960905,5275
1704.2654826225112,5378
1706.277498410882,5396
1708.2890041178139,5387
1710.2999999999988,5262
1712.3104863142066,5290
1714.3204633172854,5211
1716.329931266163,5259
1718.3388904178469,5379
1720.3473410294214,5342
1722.3552833580516,5208
1724.3627176609807,5218
1726.3696441955308,5351
1728.3760632191033,5251
1730.3819749891782,5259
1732.3873797633146,5215
1734.3922777991502,5215
1736.3966693544012,5319
1738.4005546868639,5400
1740.4039340544127,5333
1742.406807715001,5317
1744.4091759266616,5200
1746.4110389475054,5316
1748.4123970357223,5292
1750.413250449582,5384
1752.4135994474318,5381
1754.4134442876993,5397
1756.4127852288902,5246
1758.4116225295893,5305
1760.4099564484595,5162
1762.407787244244,5288
1764.405115175764,5356
1766.4019405019203,5178
1768.3982634816916,5183
1770.3940843741357,5250
1772.3894034383907,5242
1774.3842209336717,5233
1776.378537119274,5261
1778.372352254571,5262
1780.3656665990156,5296
1782.3584804121397,5284
1784.3507939535534,5180
1786.3426074829463,5056
1788.3339212600863,5269
1790.3247355448211,5290
1792.3150505970766,5195
1794.3048666768573,5292
1796.2941840442477,5299
1798.2830029594106,5255
1800.2713236825884,5321
1802.2591464741004,5210
1804.2464715943465,5275
1806.2332993038058,5196
1808.2196298630352,5286
1810.2054635326708,5314
1812.190800573428,5307
1814.175641246101,5194
1816.1599858115628,5259
1818.1438345307652,5259
1820.127187664738,5233
1822.1100454745924,5334
1824.092408221516,5283
1826.0742761667766,5250
1828.055649571721,5279
1830.0365286977735,5269
1832.0169138064398,5086
1833.9968051593014,5276
1835.9762030180214,5243
1837.9551076443408,5287
1839.9335193000788,5123
1841.9114382471344,5250
1843.888864747485,5219
1845.8657990631878,5260
1847.842241456378,5284
1849.8181921892697,5124
1851.7936515241558,5195
1853.7686197234098,5252
1855.7430970494815,5244
1857.7170837649014,5231
1859.6905801322787,5249
1861.6635864143004,5382
1863.6361028737338,5302
1865.608129773424,5221
1867.5796673762961,5325
1869.5507159453537,5341
1871.521275743678,5490
1873.4913470344313,5257
1875.4609300808534,5284
1877.4300251462632,5403
1879.3986324940588,5311
1881.366752387717,5364
1883.3343850907936,5302
1885.3015308669228,5360
1887.268189979819,5354
1889.2343626932739,5365
1891.2000492711595,5307
1893.1652499774254,5412
1895.1299650761011,5359
1897.0941948312952,5383
1899.0579395071945,5353
1901.0211993680641,5329
1902.98397467825,5337
1904.9462657021745,5432
1906.9080727043415,5252
1908.869395949332,5408
1910.8302357018065,5365
1912.790592226504,5279
1914.7504657882428,5266
1916.7098566519212,5418
1918.6687650825133,5267
1920.6271913450764,5306
1922.5851357047422,5342
1924.5425984267245,5422
1926.499579776314,5406
1928.4560800188833,5262
1930.4120994198802,5397
1932.367638244833,5355
1934.32269675935,5432
1936.2772752291175,5289
1938.231373919899,5379
1940.1849930975404,5375
1942.1381330279637,5301
1944.0907939771696,5495
1946.0429762112412,5331
1947.9946799963363,5424
1949.9459055986945,5271
1951.896653284633,5416
1953.8469233205478,5369
1955.7967159729142,5378
1957.7460315082863,5466
1959.6948701932974,5442
1961.6432322946594,5377
1963.5911180791632,5371
1965.5385278136787,5375
1967.4854617651545,5324
1969.4319202006182,5392
1971.377903387176,5463
1973.3234115920136,5406
1975.268445082395,5482
1977.2130041256642,5547
1979.1570889892423,5455
1981.1006999406304,5381
1983.04383724741,5442
1984.986501177238,5414
1986.928691997853,5305
1988.8704099770712,5378
1990.811655382789,5467
1992.7524284829801,5371
1994.692729545698,5403
1996.6325588390755,5512
1998.5719166313224,5511
2000.5108031907307,5438
2002.4492187856677,5275
2004.387163684583,5364
2006.3246381560011,5325
2008.2616424685298,5489
2010.1981768908527,5523
2012.1342416917332,5435
2014.069837140014,5422
2016.0049635046162,5459
2017.9396210545406,5326
2019.8738100588666,5435
2021.8075307867502,5463
2023.740783507431,5393
2025.6735684902228,5369
2027.6058860045214,5366
2029.5377363198004,5425
2031.4691197056118,5411
2033.4000364315875,5474
2035.3304867674374,5390
2037.260470982952,5383
2039.189989347998,5382
2041.1190421325232,5518
2043.047629606554,5382
2044.9757520401945,5486
2046.9034097036288,5468
2048.8306028671195,5476
2050.7573318010086,5388
2052.683596775716,5492
2054.609398061742,5396
2056.5347359296647,5391
2058.4596106501403,5486
2060.384022493906,5494
2062.3079717317764,5383
2064.231458634646,5382
2066.1544834734873,5448
2068.077046519352,5360
2069.99914804337,5399
2071.9207883167524,5419
2073.8419676107865,5395
2075.7626861968406,5381
2077.6829443463607,5457
2079.6027423308715,5498
2081.522080421977,5430
2083.440958891362,5475
2085.359378010786,5492
2087.2773380520907,5427
2089.194839287196,5459
2091.111881988101,5457
2093.0284664268825,5368
2094.9445928756973,5493
2096.86026160678,5330
2098.775472892446,5432
2100.690227005088,5400
2102.604524217178,5579
2104.5183648012676,5383
2106.431749029985,5509
2108.34467717604,5409
2110.2571495122206,5418
2112.169166311393,5457
2114.080727846503,5438
2115.9918343905747,5460
2117.902486216711,5474
2119.8126835980956,5428
2121.722426807987,5452
2123.6317161197285,5598
2125.5405518067364,5489
2127.448934142509,5578
2129.356863400624,5487
2131.264339854737,5475
2133.1713637785815,5510
2135.077935445972,5503
2136.9840551308002,5548
2138.889723107037,5596
2140.7949396487334,5420
2142.699705030018,5415
2144.6040195250994,5462
2146.507883408264,5396
2148.4112969538774,5491
2150.3142604363848,5462
2152.2167741303097,5605
2154.1188383102535,5515
2156.0204532508997,5503
2157.9216192270064,5376
2159.822336513414,5407
2161.7226053850413,5520
2163.622426116884,5494
2165.5217989840185,5467
2167.4207242616,5580
2169.319202224862,5497
2171.2172331491165,5462
2173.1148173097563,5458
2175.0119549822507,5532
2176.90864644215,5583
2178.8048919650823,5526
2180.7006918267534,5406
2182.596046302952,5391
2184.4909556695407,5455
2186.3854202024645,5572
2188.279440177746,5446
2190.173015871487,5469
2192.066147559868,5483
2193.958835519149,5448
2195.851080025667,5512
2197.7428813558417,5420
2199.6342397861667,5451
2201.5251555932186,5494
2203.415629053651,5498
2205.3056604441986,5440
2207.19525004167,5486
2209.084398122958,5558
2210.9731049650327,5690
2212.861370844941,5572
2214.749196039812,5751
2216.636580826851,5543
2218.523525483344,5502
2220.410030286655,5609
2222.296095514226,5560
2224.1817214435805,5511
2226.066908352319,5650
2227.951656518121,5396
2229.835966218746,5566
2231.71983773203,5602
2233.6032713358913,5566
2235.486267308324,5586
2237.3688259274036,5590
2239.2509474712824,5462
2241.132632218193,5535
2243.013880446447,5480
2244.8946924344323,5589
2246.7750684606203,5592
2248.6550088035574,5634
2250.534513741871,5610
2252.413583554265,5691
2254.292218519526,5502
2256.170418916517,5555
2258.0481850241786,5572
2259.925517121534,5526
2261.8024154876825,5609
2263.678880401803,5473
2265.5549121431536,5706
2267.430510991071,5459
2269.305677224971,5554
2271.180411124348,5597
2273.0547129687766,5606
2274.9285830379076,5461
2276.8020216114737,5603
2278.6750289692845,5407
2280.5476053912294,5524
2282.4197511572766,5514
2284.2914665474727,5539
2286.162751841943,5561
2288.0336073208937,5533
2289.904033264608,5541
2291.774029953448,5690
2293.6435976678554,5533
2295.5127366883517,5597
2297.381447295534,5696
2299.2497297700825,5531
2301.1175843927526,5439
2302.9850114443825,5633
2304.852011205885,5651
2306.7185839582553,5654
2308.5847299825664,5529
2310.4504495599676,5697
2312.3157429716925,5693
2314.1806104990483,5636
2316.0450524234247,5565
2317.9090690262888,5707
2319.772660589186,5752
2321.635827393742,5723
2323.498569721661,5671
2325.3608878547248,5740
2327.2227820747967,5655
2329.0842526638157,5714
2330.945299903803,5728
2332.805924076857,5774
2334.6661254651535,5704
2336.525904350951,5683
2338.3852610165827,5525
2340.244195744464,5739
2342.102708817088,5709
2343.9608005170253,5772
2345.8184711269287,5721
2347.675720929526,5862
2349.532550207628,5746
2351.38895924412,5623
2353.24494832197,5605
2355.100517724223,5587
2356.955667734004,5646
2358.810398634514,5677
2360.664710709037,5704
2362.5186042409337,5761
2364.3720795136437,5744
2366.225136810686,5651
2368.0777764156583,5645
2369.929998612237,5802
2371.7818036841777,5698
2373.633191915315,5722
2375.484163589562,5768
2377.3347189909114,5707
2379.184858403434,5849
2381.03458211128,5750
2382.8838903986775,5710
2384.732783549936,5701
2386.5812618494406,5748
2388.4293255816588,5825
2390.2769750311327,5781
2392.1242104824883,5755
2393.971032220427,5755
2395.8174405297295,5733
2397.6634356952563,5714
2399.509018001947,5776
2401.3541877348193,5693
2403.1989451789705,5723
2405.043290619576,5638
2406.8872243418905,5656
2408.730746631247,5763
2410.5738577730594,5721
2412.4165580528183,5751
2414.258847756095,5688
2416.100727168537,5832
2417.9421965758734,5800
2419.783256263912,5863
2421.623906518538,5643
2423.4641476257157,5713
2425.303979871491,5741
2427.143403541984,5750
2428.9824189233977,5827
2430.821026302012,5734
2432.6592259641866,5890
2434.497018196361,5896
2436.33440328505,5830
2438.171381516851,5883
2440.00795317844,5859
2441.844118556569,5740
2443.6798779380724,5731
2445.5152316098606,5708
2447.3501798589255,5786
2449.1847229723357,5804
2451.0188612372403,5827
2452.8525949408663,5754
2454.6859243705203,5759
2456.518849813587,5727
2458.3513715575314,5726
2460.183489889895,5830
2462.015205098301,5862
2463.8465174704493,5925
2465.67742729412,5720
2467.5079348571717,6003
2469.338040447542,5797
2471.1677443532476,5834
2472.9970468623833,5922
2474.825948263123,5866
2476.6544488437207,5747
2478.482548892508,5708
2480.310248697896,5758
2482.137548548374,5823
2483.9644487325118,5796
2485.790949538956,5741
2487.617051256433,5833
2489.44275417375,5838
2491.26805857979,5931
2493.0929647635157,5803
2494.917473013971,5909
2496.741583620276,5801
2498.5652968716304,5979
2500.3886130573137,5809
2502.2115324666834,6047
2504.0340553891765,5732
2505.856182114308,5891
2507.6779129316733,5838
2509.499248130945,5855
2511.3201880018764,5824
2513.140732834298,5923
2514.9608829181198,5852
2516.780638543331,5961
2518.6,5912
2520.418967578273,5925
2522.237541568376,5908
2524.0557222606144,5801
2525.8735099453706,5735
2527.6909049131086,5792
2529.507907454368,5893
2531.32451785977,5792
2533.140736420014,5801
2534.9565634258774,5916
2536.771999168218,5925
2538.5870439379714,5983
2540.4016980261526,6007
2542.2159617238544,6000
2544.02983532225,6081
2545.8433191125914,5860
2547.656413386209,6024
2549.4691184345115,6048
2551.2814345489874,5982
2553.093362021204,6010
2554.904901142808,6025
2556.716052205523,5950
2558.526815501153,5940
2560.3371913215824,6071
2562.147179958771,5961
2563.956781704761,6017
2565.7659968516705,6107
2567.5748256916986,6147
2569.3832685171224,5892
2571.1913256202984,5887
2572.9989972936614,6110
2574.806283829725,6170
2576.613185521084,6147
2578.4197026604074,6096
2580.2258355404483,6062
2582.031584454035,6144
2583.836949694077,6109
2585.6419315535613,6163
2587.4465303255533,6029
2589.2507463032002,5911
2591.0545797797245,6196
2592.8580310484303,6100
2594.6611004026995,6201
2596.463788135992,5986
2598.266094541849,6063
2600.0680199138874,6152
2601.869564545807,6249
2603.670728731383,6131
2605.4715127644704,6113
2607.2719169390048,6200
2609.071941548998,6207
2610.8715868885433,6201
2612.670853251811,6126
2614.469740933052,6235
2616.268250226594,6020
2618.0663814268455,6214
2619.864134828292,6145
2621.6615107255006,6138
2623.458509413115,6057
2625.2551311858597,6198
2627.0513763385347,6078
2628.8472451660223,6092
2630.6427379632833,6076
2632.4378550253564,6030
2634.232596647359,6136
2636.026963124488,6085
2637.8209547520187,6055
2639.6145718253065,5974
2641.407814639785,6020
2643.200683490966,5972
2644.9931786744414,6024
2646.7853004858807,6061
2648.577049221034,6162
2650.3684251757277,6046
2652.1594286458712,6079
2653.9500599274484,6130
2655.740319316525,6103
2657.5302071092437,6072
2659.3197236018286,5996
2661.10886909058,5984
2662.8976438718782,6000
2664.686048242183,6012
2666.4740824980327,6117
2668.2617469360443,6103
2670.0490418529134,6056
2671.8359675454153,5908
2673.622524310403,5969
2675.408712444811,6003
2677.1945322456495,6128
2678.979984010009,6119
2680.76506803506,6029
2682.5497846180497,6070
2684.334134056306,6125
2686.1181166472343,6025
2687.9017326883213,6016
2689.6849824771293,5889
2691.4678663113013,5866
2693.2503844885596,5955
2695.032537306705,5923
2696.8143250636167,6007
2698.5957480572542,5943
2700.3768065856534,5905
2702.1575009469316,6017
2703.937831439283,5948
2705.717798360982,5948
2707.4974020103837,5934
2709.276642685917,5949
2711.055520686095,5912
2712.834036309506,5919
2714.612189854819,5837
2716.389981620782,5874
2718.1674119062204,5900
2719.944481010041,5882
2721.721189231226,5861
2723.4975368688415,6006
2725.273524222027,5958
2727.0491515900053,5771
2728.824419272075,5810
2730.5993275676146,5801
2732.3738767760838,5910
2734.148067197016,5913
2735.921899130031,5978
2737.6953728748194,5939
2739.468488731156,5900
2741.2412469988926,5748
2743.0136479779617,5915
2744.785691968372,5912
2746.5573792702116,5808
2748.3287101836504,5995
2750.099685008934,5963
2751.870304046388,6004
2753.640567596418,5905
2755.4104759595057,5903
2757.1800294362156,5887
2758.949228327187,5881
2760.7180729331412,5867
2762.486563554877,5943
2764.254700493272,5776
2766.022484049284,5831
2767.789914523947,5911
2769.5569922183786,5875
2771.3237174337705,5938
2773.090090471394,6012
2774.8561116326036,5915
2776.6217812188274,5822
2778.3870995315756,5807
2780.1520668724356,5809
2781.9166835430747,5975
2783.6809498452394,5887
2785.444866080754,5999
2787.2084325515225,5923
2788.971649559527,5829
2790.73451740683,5959
2792.4970363955713,5965
2794.2592068279705,6011
2796.0210290063264,5948
2797.7825032330147,5979
2799.543629810493,5914
2801.304409041296,6064
2803.0648412280366,5951
2804.8249266734088,5887
2806.5846656801846,5865
2808.344058551212,5974
2810.1031055894246,6003
2811.8618070978273,6083
2813.6201633795085,5980
2815.378174737636,5960
2817.1358414754536,5940
2818.893163896285,5957
2820.6501423035334,5963
2822.4067770006814,5988
2824.1630682912883,5962
2825.9190164789957,5923
2827.6746218675207,5931
2829.429884760661,5992
2831.184805462294,6009
2832.9393842763743,5859
2834.693621506936,6032
2836.4475174580916,5984
2838.201072434034,5987
2839.954286739034,6030
2841.707160677441,5909
2843.459694553685,6032
2845.2118886722724,6007
2846.96374333779,5997
2848.7152588549034,5884
2850.4664355283567,5908
2852.217273662973,6019
2853.9677735636546,6118
2855.7179355353833,6015
2857.4677598832186,5986
2859.217246912299,6071
2860.9663969278427,5959
2862.715210235146,5976
2864.4636871395846,5946
2866.211827946614,6025
2867.9596329617652,5893
2869.7071024906536,5900
2871.4542368389684,5951
2873.20103631248,6037
2874.947501217038,5898
2876.6936318585695,5997
2878.4394285430812,6027
2880.1848915766604,6056
2881.9300212654707,5821
2883.6748179157553,5966
2885.4192818338374,6036
2887.1634133261173,5974
2888.907212699077,5979
2890.6506802592744,5977
2892.393816313348,5925
2894.1366211680142,6025
2895.8790951300693,6113
2897.621238506388,5983
2899.363051603925,5929
2901.1045347297118,6004
2902.8456881908596,5936
2904.58651229456,6124
2906.327007348081,5960
2908.067173658772,5945
2909.8070115340597,5899
2911.5465212814497,6012
2913.285703208527,5853
2915.0245576229563,5804
2916.7630848324807,5824
2918.5012851449196,5867
2920.2391588681758,5864
2921.976706310227,5850
2923.7139277791334,5949
2925.4508235830313,5920
2927.187394030137,5882
2928.923639428745,5876
2930.6595600872306,6037
2932.395156314046,5915
2934.1304284177218,5917
2935.8653767068713,6145
2937.6000014901815,5918
2939.3343030764227,6052
2941.068281774442,5989
2942.8019378931644,6018
2944.5352717415976,5973
2946.2682836288236,5982
2948.0009738640065,5953
2949.7333427563885,5961
2951.465390615289,5937
2953.1971177501086,5828
2954.9285244703265,5810
2956.6596110855,5816
2958.3903779052657,5973
2960.1208252393385,5860
2961.8509533975125,5834
2963.5807626896617,5908
2965.3102534257378,6035
2967.0394259157715,5899
2968.768280469873,5963
2970.496817398232,5896
2972.2250370111146,5975
2973.952939618869,5952
2975.6805255319196,6048
2977.4077950607707,6017
2979.134748516006,5991
2980.861386208289,6097
2982.587708448359,6168
2984.313715547037,6118
2986.039407815222,6105
2987.764785563891,6179
2989.489849104102,6247
2991.2145987469908,6200
2992.9390348037705,5953
2994.6631575857346,6003
2996.3869674042576,6160
2998.1104645707887,6069
2999.83364939686,5995
3001.5565221940783,6153
3003.2790832741334,6120
3005.0013329487924,6079
3006.7232715298996,5979
3008.4448993293804,6085
3010.166216659239,6027
3011.887223831558,6035
3013.607921158498,5894
3015.3283089522993,6041
3017.0483875252826,6093
3018.7681571898443,6050
3020.4876182584626,6128
3022.2067710436927,5995
3023.9256158581707,6074
3025.644153014609,5946
3027.362382825801,6025
3029.0803056046193,5983
3030.797921664012,5950
3032.5152313170106,5944
3034.2322348767225,5972
3035.9489326563353,6003
3037.665324969115,5905
3039.3814121284063,6078
3041.097194447633,6044
3042.812672240299,6068
3044.5278458199855,6026
3046.2427155003525,6040
3047.9572815951406,5986
3049.671544418167,5950
3051.38550428333,6034
3053.0991615046073,6057
3054.812516396051,6078
3056.5255692717974,6125
3058.2383204460575,6224
3059.9507702331257,6035
3061.662918947372,6122
3063.3747669032446,6084
3065.0863144152736,5979
3066.7975617980674,6151
3068.508509366309,6077
3070.219157434767,6087
3071.9295063182844,6111
3073.639556331785,6081
3075.3493077902704,6099
3077.058761008821,6021
3078.7679163025964,5988
3080.476773986837,6065
3082.1853343768594,6042
3083.89359778806,6182
3085.6015645359153,6109
3087.3092349359786,6063
3089.016609303884,6055
3090.7236879553434,6088
3092.4304712061476,5850
3094.136959372166,5987
3095.843152769349,5959
3097.5490517137237,5920
3099.2546565213966,5969
3100.959967508554,6104
3102.66498499146,6087
3104.3697092864577,5966
3106.0741407099695,6058
3107.778279578498,6189
3109.482126208622,6120
3111.1856809170004,5973
3112.8889440203716,5956
3114.5919158355528,6167
3116.294596679439,6067
3117.996986869006,6217
3119.6990867213062,6075
3121.4008965534726,6085
3123.102416682717,5950
3124.803647426329,6244
3126.5045891016784,6121
3128.205242026213,6073
3129.90560651746,6288
3131.605682893025,6216
3133.3054714705922,6139
3135.0049725679282,6191
3136.7041865028714,6208
3138.4031135933465,6092
3140.101754157353,6290
3141.800108512971,6165
3143.498176978357,6130
3145.1959598717494,6079
3146.8934575114636,6089
3148.5906702158954,6094
3150.2875983035183,6020
3151.9842420928853,6058
3153.680601902627,6067
3155.376678051456,6119
3157.07247085816,6165
3158.767980641609,6057
3160.463207720748,6019
3162.158152414606,6022
3163.8528150422862,6070
3165.5471959229726,6127
3167.2412953759303,6133
3168.9351137204976,6167
3170.628651276098,6220
3172.3219083622307,6202
3174.014885298474,6179
3175.707582404485,6351
3177.4000000000005,6134
3179.092138404835,6097
3180.7839979388846,6177
3182.47557892212,6187
3184.166881674594,6141
3185.8579065164386,6297
3187.5486537678626,6287
3189.2391237491547,6242
3190.9293167806827,6115
3192.6192331828934,6218
3194.3088732763117,6248
3195.998237381542,6214
3197.687325819268,6151
3199.376138910251,6062
3201.064676975334,6130
3202.7529403354347,6172
3204.4409293115523,6154
3206.1286442247647,6071
3207.816085396229,6041
3209.5032531471825,6174
3211.190147798936,6118
3212.8767696728846,6096
3214.5631190905015,5968
3216.2491963733373,5926
3217.9350018430214,6019
3219.6205358212637,5885
3221.305798629851,6010
3222.990790590651,6000
3224.6755120256103,5966
3226.359963256751,6029
3228.0441446061795,5970
3229.7280563960758,6035
3231.411698948703,6005
3233.0950725863995,5993
3234.778177631587,6073
3236.461014406761,6027
3238.1435832345005,6091
3239.8258844374595,6108
3241.507918338374,6286
3243.1896852600576,6256
3244.8711855254023,6133
3246.552419457381,6183
3248.233387379042,6112
3249.914089613516,6237
3251.59452648401,6142
3253.274698313813,6154
3254.95460542629,6168
3256.6342481448855,6067
3258.313626793125,6019
3259.9927416946084,5915
3261.6715931730196,6036
3263.3501815521176,5850
3265.0285071557437,6007
3266.706570307815,6167
3268.3843713323286,6033
3270.0619105533615,6133
3271.739188295068,6054
3273.4162048816834,6131
3275.0929606375184,6239
3276.769455886966,6144
3278.445690954498,6020
3280.1216661646613,6198
3281.797381842087,6151
3283.4728383114807,6127
3285.1480358976296,6170
3286.8229749253996,6164
3288.4976557197333,6027
3290.172078605655,6031
3291.846243908266,6011
3293.5201519527463,6039
3295.193803064357,5901
3296.8671975684374,6031
3298.5403357904024,6089
3300.21321805575,5974
3301.8858446900567,5985
3303.558216018975,6067
3305.23033236824,6151
3306.9021940636603,6097
3308.57380143113,6219
3310.2451547966184,6115
3311.916254486174,6216
3313.5871008259246,6065
3315.2576941420766,6055
3316.9280347609147,6203
3318.5981230088046,5973
3320.2679592121895,5917
3321.9375436975924,5865
3323.606876791612,6016
3325.27595882093,5881
3326.944790112305,5968
3328.6133709925753,6168
3330.2817017886573,6046
3331.949782827547,5944
3333.617614436319,5928
3335.2851969421245,6045
3336.952530672199,6138
3338.619615953853,6186
3340.286453114475,6152
3341.9530424815357,6170
3343.619384382583,6084
3345.2854791452437,6051
3346.951327097224,6242
3348.6169285663073,6250
3350.2822838803577,6217
3351.947393367319,6202
3353.61225735521,6177
3355.2768761721345,6159
3356.9412501462693,6119
3358.605379605873,6104
3360.2692648792827,6157
3361.9329062949146,6058
3363.596304181263,6081
