CollectionTime,6/26/2024 4:13:09 PM
ExposureUsed,3
CalibratedSpectrum
-962.7078968117929,783
-959.9714848408522,849
-957.2358232597828,801
-954.5009119013725,835
-951.7667505983302,844
-949.0333391832855,830
-946.3006774887896,865
-943.5687653473143,836
-940.837602591253,833
-938.1071890529199,793
-935.3775245645503,810
-932.6486089583007,886
-929.9204420662485,868
-927.1930237203925,880
-924.4663537526524,841
-921.7404319948689,830
-919.0152582788041,829
-916.2908324361409,849
-913.5671542984834,863
-910.8442236973568,840
-908.1220404642074,869
-905.4006044304027,841
-902.679915427231,810
-899.959973285902,869
-897.2407778375464,849
-894.5223289132158,854
-891.8046263438832,787
-889.0876699604426,774
-886.3714595937089,808
-883.6559950744183,797
-880.9412762332282,771
-878.2273029007168,801
-875.5140749073835,813
-872.8015920836489,805
-870.0898542598545,780
-867.3788612662631,769
-864.6686129330585,762
-861.9591090903457,764
-859.2503495681506,743
-856.5423341964203,767
-853.8350628050229,803
-851.1285352237478,869
-848.4227512823054,769
-845.7177108103272,813
-843.0134136373656,793
-840.3098595928943,761
-837.6070485063082,773
-834.9049802069229,827
-832.2036545239757,798
-829.5030712866244,794
-826.8032303239481,782
-824.1041314649472,778
-821.4057745385428,797
-818.7081593735775,777
-816.0112857988148,788
-813.3151536429393,783
-810.6197627345566,757
-807.9251129021936,764
-805.2312039742981,760
-802.5380357792392,823
-799.8456081453069,805
-797.1539209007124,787
-794.462973873588,800
-791.772766891987,752
-789.083299783884,778
-786.3945723771743,805
-783.7065844996748,786
-781.0193359791231,786
-778.3328266431781,814
-775.6470563194197,789
-772.9620248353489,826
-770.2777320183878,791
-767.5941776958798,823
-764.9113616950891,779
-762.2292838432011,812
-759.5479439673222,807
-756.8673418944801,791
-754.1874774516235,836
-751.5083504656222,820
-748.8299607632671,813
-746.15230817127,781
-743.475392516264,813
-740.7992136248035,802
-738.1237713233636,820
-735.4490654383407,787
-732.7750957960521,841
-730.1018622227365,849
-727.4293645445534,806
-724.7576025875837,863
-722.0865761778291,776
-719.4162851412126,861
-716.7467293035781,876
-714.0779084906909,889
-711.409822528237,943
-708.7424712418238,864
-706.0758544569796,844
-703.4099719991541,874
-700.7448236937178,934
-698.0804093659622,915
-695.4167288411002,879
-692.7537819442656,866
-690.0915685005134,890
-687.4300883348199,887
-684.7693412720819,892
-682.1093271371178,906
-679.4500457546669,878
-676.7914969493897,877
-674.1336805458676,869
-671.4765963686034,908
-668.8202442420206,958
-666.1646239904642,917
-663.5097354382001,944
-660.8555784094151,920
-658.2021527282176,951
-655.5494582186366,954
-652.8974947046223,949
-650.2462620100463,979
-647.5957599587009,970
-644.9459883742998,947
-642.2969470804776,939
-639.6486359007902,940
-637.0010546587141,978
-634.3542031776476,940
-631.7080812809096,939
-629.0626887917401,959
-626.4180255333008,912
-623.7740913286734,880
-621.1308860008619,882
-618.4884093727904,860
-615.8466612673046,892
-613.2056415071715,875
-610.5653499150785,916
-607.9257863136347,929
-605.28695052537,921
-602.6488423727357,923
-600.0114616781036,912
-597.3748082637674,922
-594.7388819519412,876
-592.1036825647604,889
-589.4692099242818,955
-586.8354638524829,914
-584.2024441712624,923
-581.5701507024403,938
-578.9385832677575,942
-576.3077416888759,935
-573.6776257873787,914
-571.0482353847704,939
-568.4195703024757,959
-565.7916303618415,953
-563.164415384135,945
-560.5379251905453,969
-557.9121596021815,941
-555.2871184400748,941
-552.6628015251767,960
-550.0392086783606,925
-547.4163397204204,939
-544.794194472071,949
-542.1727727539491,939
-539.5520743866118,989
-536.9320991905377,985
-534.3128469861261,1027
-531.6943175936979,1004
-529.0765108334947,1013
-526.4594265256793,1091
-523.8430644903358,1250
-521.2274245474689,1367
-518.612506517005,1446
-515.9983102187913,1584
-513.3848354725959,1673
-510.77208209810846,1755
-508.16004991493924,1830
-505.5487387426199,1924
-502.9381484006032,2069
-500.3282787082628,2062
-497.71912948489364,2153
-495.1107005497117,2073
-492.5029917218539,1972
-489.8960028203786,1724
-487.28973366426493,1546
-484.68418407241325,1428
-482.07935386364494,1319
-479.47524285670266,1263
-476.87185087025,1229
-474.2691777228715,1239
-471.66722323307334,1249
-469.0659872192821,1243
-466.4654694998459,1189
-463.86566989303384,1148
-461.26658821703614,1137
-458.66822428996414,1180
-456.07057792985,1140
-453.4736489546475,1134
-450.877437182231,1123
-448.28194243039627,1132
-445.68716451686,1115
-443.09310325926003,1137
-440.49975847515555,1111
-437.9071299820263,1111
-435.31521759727354,1145
-432.72402113821954,1117
-430.13354042210767,1154
-427.5437752661022,1152
-424.95472548728867,1190
-422.36639090267386,1134
-419.7787713291855,1178
-417.1918665836721,1237
-414.60567648290385,1162
-412.0202008435715,1221
-409.4354394822874,1175
-406.8513922155845,1180
-404.26805885991723,1244
-401.685439231661,1227
-399.103533147112,1179
-396.522340422488,1176
-393.9418608739278,1266
-391.3620943174908,1200
-388.7830405691583,1140
-386.2046994448317,1160
-383.6270707603344,1068
-381.05015433141045,996
-378.473949973725,933
-375.8984575028645,970
-373.32367673433623,853
-370.74960748356875,849
-368.1762495659117,750
-365.60360279663576,722
-363.03166699093265,640
-360.4604419639154,611
-357.8899275306178,595
-355.32012350599507,552
-352.7510297049233,550
-350.1826459421999,528
-347.61497203254316,558
-345.04800779059235,598
-342.4817530309082,541
-339.91620756797226,515
-337.35137121618743,547
-334.7872437898774,553
-332.22382510328725,559
-329.66111497058273,545
-327.09911320585127,555
-324.53781962310075,568
-321.9772340362607,556
-319.4173562591816,583
-316.8581861056348,580
-314.2997233893127,572
-311.7419679238294,607
-309.1849195227194,596
-306.62857799943856,568
-304.0729431673641,569
-301.51801483979375,536
-298.963792829947,556
-296.41027695096386,587
-293.85746701590574,641
-291.3053628377552,626
-288.7539642294155,598
-286.2032710037115,663
-283.65328297338897,679
-281.1039999511146,654
-278.5554217494762,777
-276.007548180983,660
-273.4603790580651,619
-270.9139141930734,607
-268.3681533982807,651
-265.8230964858798,684
-263.27874326798565,610
-260.7350935566336,631
-258.1921471637804,747
-255.6499039013039,780
-253.10836358100266,737
-250.56752601459698,678
-248.02739101372765,773
-245.48795838995704,774
-242.94922795476816,773
-240.41119951956557,718
-237.8738728956746,799
-235.33724789434166,883
-232.80132432673452,914
-230.2661020039418,1048
-227.73158073697357,1040
-225.19776033676033,842
-222.66464061415422,791
-220.1322213799284,773
-217.60050244477725,834
-215.06948361931552,849
-212.53916471408013,811
-210.00954553952818,811
-207.48062590603843,916
-204.9524056239104,975
-202.4248845033651,852
-199.8980623545441,797
-197.37193898751036,903
-194.84651421224817,1009
-192.32178783866232,943
-189.79775967657952,901
-187.27442953574644,1018
-184.7517972258321,937
-182.2298625564256,856
-179.7086253370378,1117
-177.18808537710026,1186
-174.66824248596583,1130
-172.14909647290835,1160
-169.6306471471229,1085
-167.11289431772548,1099
-164.59583779375328,1040
-162.07947738416453,1053
-159.5638128978386,1061
-157.04884414357605,1129
-154.53457093009854,1159
-152.02099306604828,1110
-149.50811035998936,1133
-146.99592262040665,1176
-144.48442965570587,1101
-141.97363127421409,1177
-139.46352728417958,1170
-136.95411749377126,1210
-134.44540171107985,1263
-131.93737974411636,1378
-129.43005140081357,1540
-126.92341648902493,1616
-124.41747481652521,1609
-121.91222619101006,1443
-119.40767042009657,1375
-116.90380731132257,1420
-114.40063667214702,1526
-111.8981583099503,1679
-109.3963720320337,1692
-106.89527764561933,1463
-104.39487495785067,1478
-101.89516377579241,1570
-99.39614390642998,1608
-96.89781515667039,1717
-94.40017733334128,1947
-91.90323024319173,2109
-89.40697369289148,1871
-86.91140748903172,1779
-84.41653143812482,1736
-81.92234534660395,1967
-79.42884902082358,2092
-76.93604226705907,2011
-74.4439248915071,2270
-71.95249670028534,2046
-69.46175749943245,2205
-66.97170709490854,2515
-64.48234529259423,2617
-61.99367189829195,2728
-59.50568671772464,2704
-57.01838955653636,3153
-54.53178022029283,3123
-52.045858514480074,3197
-49.560624244506016,3899
-47.07607721569923,3566
-44.59221723330904,3671
-42.10904410250669,3325
-39.62655762838392,4185
-37.14475761595372,5379
-34.66364387015028,5632
-32.18321619582866,5777
-29.70347439776515,6565
-27.224418280657005,7932
-24.74604764912317,11291
-22.26836230770266,18254
-19.7913620608565,29414
-17.315046712966478,44823
-14.83941606833514,51010
-12.36446993118659,65037
-9.89020810566592,65037
-7.416630395839093,65037
-4.94373660569363,65037
-2.471526539137585,65037
-6.821210263296962E-13,65037
2.47084320796705,65037
4.941003281093458,65037
7.410480415786196,65037
9.879274808531363,65037
12.347386655893956,65037
14.814816154518212,65037
17.28156350112681,65037
19.74762889252179,65037
22.21301252558385,65037
24.67771459727237,65037
27.141735304626195,42783
29.605074844762612,16551
32.06773341487792,13892
34.52971121224755,10208
36.99100843422559,8695
39.45162527824516,8129
41.91156194181792,8278
44.370818622535126,9748
46.82939551806646,10080
49.287292826160524,11064
51.74451074464503,10315
54.201049471426245,8528
56.65690920448981,6696
59.112090141899785,4235
61.56659248179983,3492
64.02041642241159,3414
66.4735621620365,3966
68.92602989905402,3032
71.37781983192338,2882
73.82893215918205,2987
76.27936707944684,3306
78.72912479141326,4030
81.17820549385567,3884
83.62660938562783,3567
86.07433666566146,2576
88.5213875329681,3267
90.96776218663751,3348
93.41346082583925,2969
95.85848364982041,2980
98.30283085790859,2205
100.7465026495089,2643
103.18949922410604,2891
105.63182078126385,2153
108.07346752062438,2436
110.51443964190923,2627
112.95473734491827,2215
115.39436082953114,2036
117.83331029570547,2068
120.27158594347827,1897
122.7091879729652,2015
125.1461165843615,1762
127.58237197794062,1577
130.01795435405518,1374
132.4528639131364,1382
134.88710085569494,1565
137.32066538231982,1749
139.75355769367923,1683
142.1857779905207,1728
144.61732647366978,1688
147.04820334403132,1613
149.47840880258934,1540
151.90794305040674,1842
154.33680628862487,1902
156.76499871846443,1746
159.19252054122433,1840
161.61937195828352,2192
164.04555317109896,2117
166.47106438120693,2168
168.89590579022217,2590
171.320077599839,2720
173.7435800118302,2717
176.16641322804742,2801
178.58857745042144,2838
181.01007288096173,3023
183.43089972175687,3099
185.85105817497413,3231
188.27054844285988,3175
190.6893707277394,3131
193.10752523201643,3187
195.5250121581745,3322
197.9418317087751,3329
200.3579840864594,3297
202.7734694939469,3206
205.18828813403627,3366
207.6024402096051,3365
210.01592592360964,3356
212.42874547908548,3258
214.84089907914665,3061
217.2523869269868,3033
219.66320922587727,3072
222.0733661791695,3269
224.48285799029293,3210
226.8916848627572,3299
229.29984700014882,3478
231.7073446061355,3323
234.11417788446204,3457
236.520347038953,3513
238.92585227351185,3610
241.33069379212054,3832
243.73487179884035,3808
246.1383864978112,3694
248.541238093252,3817
250.9434267894609,3996
253.34495279081432,3818
255.74581630176783,3883
258.1460175268563,4023
260.54555667069314,4025
262.9444339379703,3985
265.3426495334594,3799
267.7402036620107,3771
270.1370965285529,3630
272.53332833809407,3370
274.9288992957214,3218
277.32380960660055,3129
279.718059475976,2920
282.1116491091717,3019
284.5045787115897,3076
286.89684848871195,3037
289.2884586460981,2989
291.67940938938807,2938
294.0697009242996,2988
296.4593334566299,2884
298.84830719225477,2910
301.23662233712923,2841
303.6242790972866,2891
306.01127767884,2801
308.39761828798066,2812
310.78330113097934,2787
313.16832641418534,2668
315.5526943440269,2689
317.9364051270112,2639
320.3194589697242,2594
322.70185607883093,2503
325.0835966610754,2472
327.4646809232805,2592
329.8451090723478,2549
332.2248813152577,2534
334.6039978590701,2530
336.9824589109231,2484
339.36026467803447,2461
341.7374153677,2505
344.113911187295,2457
346.48975234427337,2328
348.8649390461686,2322
351.2394715005918,2316
353.61334991523415,2368
355.9865744978655,2329
358.35914545633375,2357
360.73106299856715,2307
363.10232733257146,2241
365.47293866643247,2257
367.84289720831396,2263
370.2122031664593,2316
372.5808567491905,2325
374.9488581649083,2281
377.31620762209275,2209
379.6829053293021,2248
382.0489514951745,2244
384.4143463284262,2274
386.7790900378528,2269
389.14318283232853,2246
391.50662492080653,2229
393.86941651231916,2218
396.23155781597745,2174
398.5930490409713,2228
400.9538903965696,2201
403.3140820921202,2134
405.6736243370498,2166
408.03251734086336,2128
410.3907613131465,2169
412.74835646356166,2114
415.10530300185144,2194
417.4616011378372,2166
419.81725108141893,2177
422.1722530425758,2213
424.5266072313656,2111
426.880313857925,2102
429.2333731324701,2083
431.58578526529516,2056
433.9375504667738,2145
436.2886689473588,2109
438.63914091758113,2108
440.9889665880513,2024
443.33814616945835,2173
445.68667987257015,2081
448.03456790823395,2063
450.3818104873759,2035
452.72840782100013,2060
455.07436012019105,2039
457.41966759611057,2049
459.7643304600007,1955
462.10834892318155,2072
464.4517231970525,2124
466.79445349309174,2055
469.1365400228566,2073
471.4779829979826,2122
473.81878263018564,2159
476.15893913125876,2190
478.4984527130747,2142
480.8373235875855,2165
483.17555196682144,2171
485.5131380628919,2219
487.8500820879857,2337
490.1863842543697,2467
492.52204477439034,2552
494.8570638604725,2772
497.1914417251204,2974
499.52517858091653,3271
501.85827464052306,3605
504.19073011668036,3705
506.5225452222086,3612
508.85372017000566,3663
511.18425517304956,3578
513.514150444396,3732
515.8434061971808,4100
518.1720226446176,4671
520.4999999999999,4837
522.8273384766991,5209
525.1540382881666,5353
527.480099647932,5392
529.8055227696037,4432
532.1303078668694,3223
534.454455153496,2502
536.777964843328,2197
539.1008371502907,2143
541.4230722883866,1986
543.744670471698,2013
546.0656319143858,1936
548.3859568306899,1949
550.7056454349294,2031
553.0246979415016,1891
555.3431145648834,1892
557.6608955196306,1918
559.978041020377,1952
562.2945512818363,1827
564.6104265188006,1928
566.9256669461412,1894
569.2402727788082,1862
571.5542442318302,1949
573.8675815203156,1910
576.1802848594508,1874
578.4923544645015,1866
580.8037905508126,1857
583.114593333807,1861
585.4247630289875,1902
587.7342998519354,1885
590.0432040183106,1881
592.3514757438526,1900
594.6591152443794,1898
596.9661227357875,1936
599.2724984340531,1898
601.578242555231,1879
603.8833553154542,1897
606.1878369309362,1838
608.4916876179676,1899
610.7949075929192,1911
613.0974970722403,1866
615.3994562724587,1928
617.7007854101818,1947
620.0014847020951,1967
622.3015543649641,1888
624.6009946156324,1845
626.8998056710224,1874
629.1979877481361,1928
631.4955410640538,1912
633.7924658359349,1897
636.0887622810175,1919
638.3844306166192,1962
640.6794710601358,1941
642.9738838290426,2010
645.2676691408932,1955
647.5608272133207,1935
649.853358264037,1965
652.1452625108324,1917
654.4365401715764,1938
656.7271914642178,1947
659.0172166067838,1896
661.3066158173809,1985
663.5953893141935,1943
665.8835373154867,1952
668.1710600396028,1987
670.4579577049639,1971
672.7442305300709,1972
675.0298787335033,1946
677.3149025339197,2004
679.599302150058,1980
681.8830778007342,1956
684.1662297048437,2022
686.4487580813608,2012
688.7306631493387,2044
691.0119451279091,1918
693.2926042362834,2010
695.5726406937516,2008
697.8520547196814,2011
700.1308465335215,2083
702.4090163547982,1944
704.6865644031171,1932
706.9634908981619,1941
709.2397960596965,1944
711.5154801075631,2009
713.7905432616823,1972
716.0649857420548,1943
718.3388077687592,1960
720.612009561953,1942
722.8845913418733,1991
725.1565533288352,1940
727.427895743234,1974
729.6986188055427,1951
731.9687227363137,1938
734.238207756178,1953
736.5070740858458,1909
738.7753219461066,1896
741.0429515578281,1970
743.3099631419569,1894
745.5763569195191,1874
747.8421331116193,1943
750.1072919394409,1949
752.3718336242467,1957
754.6357583873777,1938
756.8990664502545,1927
759.1617580343765,1899
761.423833361321,1904
763.6852926527457,1887
765.9461361303862,1907
768.206364016058,1940
770.4659765316536,1901
772.7249738991469,1905
774.9833563405886,1982
777.2411240781092,1902
779.4982773339183,1969
781.7548163303044,1981
784.010741289634,2079
786.2660524343538,2073
788.5207499869881,1982
790.7748341701416,1915
793.0283052064964,1983
795.2811633188143,1915
797.5334087299362,1973
799.7850416627813,1971
802.0360623403484,2073
804.2864709857143,1954
806.5362678220353,2001
808.7854530725468,1932
811.0340269605625,1903
813.2819897094754,1966
815.5293415427581,1926
817.77608268396,1929
820.0222133567116,1970
822.2677337847211,1973
824.5126441917765,1945
826.7569448017433,1920
829.0006358385675,1917
831.2437175262731,1949
833.4861900889629,2003
835.7280537508192,1949
837.9693087361026,1985
840.2099552691533,1947
842.4499935743896,1915
844.689423876309,1987
846.9282463994886,1928
849.1664613685833,1958
851.4040690083276,1995
853.6410695435349,1960
855.877463199097,1986
858.1132501999847,1953
860.3484307712487,1949
862.5830051380175,1956
864.8169735254988,1972
867.0503361589791,1893
869.2830932638243,1991
871.5152450654786,2004
873.7467917894654,1971
875.9777336613873,1981
878.2080709069252,2008
880.4378037518389,2001
882.666932421968,1993
884.8954571432301,2007
887.1233781416219,2043
889.3506956432192,2054
891.5774098741766,1986
893.803521060728,1985
896.0290294291852,1998
898.2539352059397,1972
900.4782386174619,2083
902.7019398903011,2067
904.925039251085,2022
907.147536926521,1998
909.3694331433943,1996
911.59072812857,1902
913.8114221089921,1950
916.0315153116827,1959
918.2510079637437,2026
920.4699002923547,1961
922.6881925247761,2002
924.905884888345,2028
927.1229776104793,2043
929.3394709186747,2043
931.555365040506,1959
933.7706602036275,2033
935.9853566357709,1991
938.1994545647489,2020
940.4129542184515,1972
942.6258558248488,2013
944.8381596119883,2037
947.0498658079974,1959
949.2609746410825,2028
951.4714863395287,1938
953.6814011316998,1964
955.8907192460387,2014
958.0994409110671,1954
960.3075663553858,1956
962.5150958076741,2008
964.7220294966913,1913
966.928367651274,1972
969.1341105003388,1949
971.3392582728806,1952
973.5438111979742,1956
975.747769504772,1856
977.9511334225061,1909
980.153903180487,1917
982.3560790081052,1896
984.5576611348289,1842
986.7586497902058,1853
988.9590452038618,1783
991.158847605503,1893
993.3580572249133,1787
995.5566742919558,1842
997.7546990365728,1747
999.952131688785,1723
1002.1489724786926,1674
1004.3452216364743,1728
1006.5408793923874,1724
1008.7359459767691,1707
1010.9304216200343,1694
1013.1243065526781,1638
1015.3176010052733,1680
1017.510305208472,1627
1019.7024193930064,1607
1021.8939437896848,1605
1024.0848786293977,1590
1026.2752241431122,1610
1028.4649805618747,1623
1030.6541481168115,1642
1032.842727039127,1673
1035.0307175601051,1661
1037.2181199111074,1625
1039.4049343235752,1543
1041.591161029029,1646
1043.7768002590683,1651
1045.9618522453698,1570
1048.1463172196918,1593
1050.3301954138697,1621
1052.513487059818,1649
1054.69619238953,1576
1056.8783116350783,1548
1059.0598450286152,1576
1061.2407928023704,1540
1063.4211551886528,1566
1065.6009324198508,1606
1067.780124728432,1619
1069.9587323469414,1590
1072.1367555080046,1636
1074.314194444325,1550
1076.4910493886855,1588
1078.667320573947,1597
1080.843008233051,1520
1083.0181125990161,1493
1085.1926339049414,1509
1087.3665723840027,1523
1089.5399282694575,1498
1091.7127017946405,1546
1093.8848931929647,1498
1096.0565026979243,1516
1098.2275305430899,1470
1100.3979769621128,1497
1102.567842188722,1468
1104.737126456726,1487
1106.9058300000124,1494
1109.0739530525475,1491
1111.2414958483764,1522
1113.4084586216231,1446
1115.5748416064907,1505
1117.7406450372605,1474
1119.9058691482942,1430
1122.0705141740304,1451
1124.2345803489884,1439
1126.3980679077658,1484
1128.5609770850388,1432
1130.7233081155623,1443
1132.8850612341707,1426
1135.0462366757774,1492
1137.2068346753745,1533
1139.3668554680326,1462
1141.526299288901,1477
1143.68516637321,1463
1145.8434569562655,1489
1148.001171273455,1396
1150.158309560244,1459
1152.3148720521767,1448
1154.470858984876,1360
1156.626270594044,1395
1158.7811071154629,1480
1160.9353687849912,1402
1163.089055838569,1415
1165.242168512213,1456
1167.3947070420209,1443
1169.5466716641677,1436
1171.6980626149075,1465
1173.8488801305748,1457
1175.9991244475814,1473
1178.1487958024186,1431
1180.2978944316555,1452
1182.4464205719428,1460
1184.5943744600072,1473
1186.7417563326567,1425
1188.8885664267755,1485
1191.0348049793297,1395
1193.1804722273619,1394
1195.325568407995,1512
1197.4700937584303,1445
1199.614048515948,1427
1201.7574329179074,1453
1203.900247201746,1434
1206.042491604982,1425
1208.1841663652099,1413
1210.3252717201053,1405
1212.465807907422,1463
1214.6057751649923,1474
1216.7451737307279,1408
1218.8840038426192,1412
1221.0222657387353,1440
1223.1599596572241,1506
1225.2970858363137,1449
1227.4336445143094,1445
1229.5696359295966,1526
1231.705060320639,1423
1233.8399179259786,1436
1235.9742089842384,1491
1238.107933734118,1477
1240.2410924143974,1486
1242.373685263935,1461
1244.5057125216676,1431
1246.6371744266116,1464
1248.7680712178621,1426
1250.898403134593,1524
1253.028170416058,1510
1255.1573733015875,1489
1257.2860120305932,1513
1259.4140868425648,1482
1261.54159797707,1476
1263.6685456737569,1564
1265.7949301723515,1479
1267.9207517126597,1522
1270.046010534565,1489
1272.1707068780306,1504
1274.2948409830983,1507
1276.4184130898889,1498
1278.541423438603,1521
1280.6638722695184,1509
1282.785759822993,1509
1284.9070863394636,1491
1287.0278520594447,1536
1289.1480572235314,1555
1291.2677020723963,1590
1293.3867868467923,1587
1295.5053117875495,1625
1297.623277135579,1597
1299.740683131868,1574
1301.8575300174857,1520
1303.973818033578,1641
1306.0895474213703,1630
1308.2047184221678,1619
1310.3193312773528,1670
1312.4333862283888,1623
1314.5468835168163,1630
1316.659823384255,1622
1318.7722060724045,1654
1320.8840318230418,1650
1322.9953008780249,1656
1325.1060134792888,1726
1327.2161698688478,1710
1329.3257702887959,1648
1331.4348149813054,1642
1333.5433041886276,1673
1335.6512381530933,1630
1337.7586171171101,1607
1339.8654413231675,1540
1341.9717110138317,1599
1344.0774264317488,1623
1346.1825878196432,1648
1348.2871954203192,1588
1350.3912494766587,1646
1352.4947502316231,1664
1354.5976979282532,1549
1356.7000928096686,1608
1358.8019351190665,1592
1360.9032250997243,1633
1363.0039629949988,1625
1365.1041490483235,1525
1367.2037835032133,1653
1369.3028666032606,1635
1371.401398592137,1614
1373.4993797135926,1548
1375.5968102114575,1503
1377.6936903296396,1584
1379.7900203121262,1583
1381.8858004029835,1639
1383.9810308463561,1525
1386.075711886469,1616
1388.1698437676241,1633
1390.2634267342032,1674
1392.356461030667,1668
1394.4489469015557,1596
1396.5408845914872,1674
1398.6322743451592,1638
1400.7231164073469,1739
1402.813411022907,1708
1404.903158436773,1724
1406.9923588939578,1686
1409.0810126395531,1715
1411.1691199187303,1697
1413.2566809767386,1731
1415.343696058907,1753
1417.4301654106425,1707
1419.5160892774315,1806
1421.6014679048399,1766
1423.6863015385125,1787
1425.7705904241707,1758
1427.8543348076178,1789
1429.9375349347342,1836
1432.0201910514802,1785
1434.102303403894,1783
1436.1838722380944,1838
1438.2648978002767,1863
1440.3453803367174,1861
1442.4253200937692,1896
1444.5047173178677,1896
1446.5835722555234,2006
1448.6618851533285,2020
1450.739656257952,2009
1452.8168858161434,2044
1454.8935740747306,2096
1456.96972128062,2190
1459.045327680797,2153
1461.120393522327,2175
1463.1949190523528,2207
1465.2689045180973,2262
1467.3423501668608,2266
1469.415256246024,2355
1471.4876230030463,2430
1473.559450685465,2378
1475.6307395408976,2430
1477.7014898170391,2535
1479.771701761665,2615
1481.8413756226287,2541
1483.9105116478618,2673
1485.9791100853772,2613
1488.0471711832643,2701
1490.1146951896926,2770
1492.1816823529098,2861
1494.2481329212433,2817
1496.3140471430984,2786
1498.3794252669609,2887
1500.4442675413939,2886
1502.5085742150404,2911
1504.572345536622,2983
1506.6355817549388,3013
1508.6982831188702,3061
1510.7604498773744,2970
1512.8220822794883,3057
1514.8831805743293,3137
1516.9437450110909,3095
1519.003775839048,2983
1521.0632733075522,3107
1523.1222376660367,3182
1525.1806691640113,3039
1527.2385680510652,3248
1529.2959345768668,3245
1531.3527689911643,3215
1533.4090715437833,3237
1535.4648424846291,3355
1537.5200820636855,3379
1539.5747905310159,3436
1541.6289681367616,3401
1543.6826151311434,3424
1545.7357317644614,3578
1547.7883182870937,3573
1549.8403749494987,3619
1551.8919020022113,3639
1553.9428996958477,3725
1555.9933682811015,3721
1558.0433080087469,3851
1560.0927191296346,4004
1562.1416018946961,3959
1564.1899565549415,3962
1566.2377833614592,4006
1568.2850825654164,4061
1570.3318544180606,3992
1572.3780991707158,3829
1574.423817074788,3556
1576.4690083817595,3562
1578.5136733431923,3349
1580.5578122107272,3229
1582.601425236085,3108
1584.6445126710646,2962
1586.6870747675434,2836
1588.7291117774776,2615
1590.7706239529034,2547
1592.8116115459347,2448
1594.8520748087658,2343
1596.8920139936686,2304
1598.9314293529933,2247
1600.9703211391711,2170
1603.008689604711,2086
1605.0465350022005,2015
1607.0838575843068,1954
1609.1206576037753,1934
1611.1569353134305,1913
1613.1926909661765,1839
1615.2279248149953,1800
1617.2626371129481,1774
1619.2968281131757,1766
1621.3304980688963,1737
1623.3636472334088,1693
1625.39627586009,1691
1627.428384202396,1708
1629.459972513861,1671
1631.4910410480993,1632
1633.5215900588028,1621
1635.551619799744,1586
1637.5811305247717,1605
1639.6101224878166,1548
1641.6385959428862,1570
1643.6665511440683,1567
1645.693988345528,1521
1647.7209078015112,1602
1649.7473097663405,1555
1651.7731944944203,1498
1653.7985622402307,1551
1655.823413258333,1545
1657.847747803366,1574
1659.8715661300494,1538
1661.8948684931793,1530
1663.9176551476316,1568
1665.9399263483624,1502
1667.9616823504057,1453
1669.982923408873,1530
1672.0036497789574,1497
1674.0238617159293,1533
1676.043559475138,1514
1678.0627433120121,1494
1680.081413482059,1494
1682.0995702408654,1460
1684.117213844096,1471
1686.134344547495,1515
1688.1509626068864,1487
1690.1670682781705,1454
1692.182661817329,1468
1694.1977434804217,1516
1696.2123135235875,1497
1698.226372203043,1526
1700.2399197750851,1481
1702.2529564960905,1490
1704.2654826225112,1440
1706.277498410882,1462
1708.2890041178139,1530
1710.2999999999988,1467
1712.3104863142066,1512
1714.3204633172854,1379
1716.329931266163,1468
1718.3388904178469,1431
1720.3473410294214,1392
1722.3552833580516,1423
1724.3627176609807,1420
1726.3696441955308,1433
1728.3760632191033,1404
1730.3819749891782,1384
1732.3873797633146,1350
1734.3922777991502,1394
1736.3966693544012,1379
1738.4005546868639,1401
1740.4039340544127,1376
1742.406807715001,1381
1744.4091759266616,1355
1746.4110389475054,1411
1748.4123970357223,1383
1750.413250449582,1399
1752.4135994474318,1356
1754.4134442876993,1396
1756.4127852288902,1363
1758.4116225295893,1317
1760.4099564484595,1372
1762.407787244244,1375
1764.405115175764,1341
1766.4019405019203,1303
1768.3982634816916,1305
1770.3940843741357,1314
1772.3894034383907,1305
1774.3842209336717,1323
1776.378537119274,1362
1778.372352254571,1328
1780.3656665990156,1316
1782.3584804121397,1339
1784.3507939535534,1331
1786.3426074829463,1323
1788.3339212600863,1298
1790.3247355448211,1276
1792.3150505970766,1254
1794.3048666768573,1309
1796.2941840442477,1281
1798.2830029594106,1298
1800.2713236825884,1316
1802.2591464741004,1286
1804.2464715943465,1255
1806.2332993038058,1268
1808.2196298630352,1276
1810.2054635326708,1295
1812.190800573428,1266
1814.175641246101,1290
1816.1599858115628,1309
1818.1438345307652,1233
1820.127187664738,1266
1822.1100454745924,1348
1824.092408221516,1283
1826.0742761667766,1332
1828.055649571721,1292
1830.0365286977735,1294
1832.0169138064398,1230
1833.9968051593014,1305
1835.9762030180214,1239
1837.9551076443408,1319
1839.9335193000788,1233
1841.9114382471344,1268
1843.888864747485,1299
1845.8657990631878,1252
1847.842241456378,1279
1849.8181921892697,1247
1851.7936515241558,1250
1853.7686197234098,1286
1855.7430970494815,1306
1857.7170837649014,1281
1859.6905801322787,1287
1861.6635864143004,1298
1863.6361028737338,1213
1865.608129773424,1232
1867.5796673762961,1277
1869.5507159453537,1272
1871.521275743678,1334
1873.4913470344313,1285
1875.4609300808534,1315
1877.4300251462632,1319
1879.3986324940588,1279
1881.366752387717,1302
1883.3343850907936,1278
1885.3015308669228,1294
1887.268189979819,1293
1889.2343626932739,1270
1891.2000492711595,1296
1893.1652499774254,1283
1895.1299650761011,1341
1897.0941948312952,1337
1899.0579395071945,1334
1901.0211993680641,1241
1902.98397467825,1313
1904.9462657021745,1254
1906.9080727043415,1299
1908.869395949332,1329
1910.8302357018065,1289
1912.790592226504,1330
1914.7504657882428,1328
1916.7098566519212,1305
1918.6687650825133,1343
1920.6271913450764,1291
1922.5851357047422,1292
1924.5425984267245,1276
1926.499579776314,1307
1928.4560800188833,1281
1930.4120994198802,1289
1932.367638244833,1277
1934.32269675935,1313
1936.2772752291175,1268
1938.231373919899,1222
1940.1849930975404,1255
1942.1381330279637,1272
1944.0907939771696,1322
1946.0429762112412,1299
1947.9946799963363,1313
1949.9459055986945,1319
1951.896653284633,1305
1953.8469233205478,1243
1955.7967159729142,1287
1957.7460315082863,1291
1959.6948701932974,1274
1961.6432322946594,1269
1963.5911180791632,1336
1965.5385278136787,1283
1967.4854617651545,1348
1969.4319202006182,1261
1971.377903387176,1311
1973.3234115920136,1300
1975.268445082395,1267
1977.2130041256642,1312
1979.1570889892423,1286
1981.1006999406304,1252
1983.04383724741,1245
1984.986501177238,1271
1986.928691997853,1245
1988.8704099770712,1303
1990.811655382789,1275
1992.7524284829801,1292
1994.692729545698,1240
1996.6325588390755,1255
1998.5719166313224,1258
2000.5108031907307,1304
2002.4492187856677,1290
2004.387163684583,1269
2006.3246381560011,1208
2008.2616424685298,1220
2010.1981768908527,1266
2012.1342416917332,1218
2014.069837140014,1229
2016.0049635046162,1273
2017.9396210545406,1254
2019.8738100588666,1240
2021.8075307867502,1245
2023.740783507431,1243
2025.6735684902228,1257
2027.6058860045214,1249
2029.5377363198004,1255
2031.4691197056118,1262
2033.4000364315875,1216
2035.3304867674374,1214
2037.260470982952,1238
2039.189989347998,1187
2041.1190421325232,1209
2043.047629606554,1252
2044.9757520401945,1169
2046.9034097036288,1197
2048.8306028671195,1240
2050.7573318010086,1204
2052.683596775716,1191
2054.609398061742,1195
2056.5347359296647,1215
2058.4596106501403,1210
2060.384022493906,1203
2062.3079717317764,1235
2064.231458634646,1284
2066.1544834734873,1189
2068.077046519352,1291
2069.99914804337,1261
2071.9207883167524,1278
2073.8419676107865,1231
2075.7626861968406,1190
2077.6829443463607,1217
2079.6027423308715,1224
2081.522080421977,1224
2083.440958891362,1272
2085.359378010786,1251
2087.2773380520907,1229
2089.194839287196,1220
2091.111881988101,1246
2093.0284664268825,1265
2094.9445928756973,1205
2096.86026160678,1236
2098.775472892446,1189
2100.690227005088,1198
2102.604524217178,1224
2104.5183648012676,1253
2106.431749029985,1212
2108.34467717604,1162
2110.2571495122206,1215
2112.169166311393,1268
2114.080727846503,1212
2115.9918343905747,1210
2117.902486216711,1244
2119.8126835980956,1218
2121.722426807987,1229
2123.6317161197285,1292
2125.5405518067364,1209
2127.448934142509,1226
2129.356863400624,1224
2131.264339854737,1214
2133.1713637785815,1217
2135.077935445972,1202
2136.9840551308002,1247
2138.889723107037,1228
2140.7949396487334,1257
2142.699705030018,1261
2144.6040195250994,1251
2146.507883408264,1244
2148.4112969538774,1276
2150.3142604363848,1242
2152.2167741303097,1246
2154.1188383102535,1257
2156.0204532508997,1254
2157.9216192270064,1287
2159.822336513414,1240
2161.7226053850413,1219
2163.622426116884,1249
2165.5217989840185,1217
2167.4207242616,1250
2169.319202224862,1265
2171.2172331491165,1187
2173.1148173097563,1231
2175.0119549822507,1194
2176.90864644215,1195
2178.8048919650823,1193
2180.7006918267534,1232
2182.596046302952,1243
2184.4909556695407,1233
2186.3854202024645,1223
2188.279440177746,1252
2190.173015871487,1195
2192.066147559868,1213
2193.958835519149,1236
2195.851080025667,1211
2197.7428813558417,1244
2199.6342397861667,1215
2201.5251555932186,1182
2203.415629053651,1231
2205.3056604441986,1219
2207.19525004167,1217
2209.084398122958,1270
2210.9731049650327,1198
2212.861370844941,1250
2214.749196039812,1268
2216.636580826851,1256
2218.523525483344,1201
2220.410030286655,1285
2222.296095514226,1206
2224.1817214435805,1206
2226.066908352319,1217
2227.951656518121,1251
2229.835966218746,1249
2231.71983773203,1260
2233.6032713358913,1184
2235.486267308324,1233
2237.3688259274036,1239
2239.2509474712824,1232
2241.132632218193,1261
2243.013880446447,1217
2244.8946924344323,1281
2246.7750684606203,1252
2248.6550088035574,1232
2250.534513741871,1227
2252.413583554265,1218
2254.292218519526,1183
2256.170418916517,1211
2258.0481850241786,1258
2259.925517121534,1205
2261.8024154876825,1263
2263.678880401803,1251
2265.5549121431536,1218
2267.430510991071,1232
2269.305677224971,1276
2271.180411124348,1215
2273.0547129687766,1196
2274.9285830379076,1212
2276.8020216114737,1241
2278.6750289692845,1251
2280.5476053912294,1200
2282.4197511572766,1244
2284.2914665474727,1234
2286.162751841943,1246
2288.0336073208937,1184
2289.904033264608,1271
2291.774029953448,1185
2293.6435976678554,1209
2295.5127366883517,1212
2297.381447295534,1186
2299.2497297700825,1198
2301.1175843927526,1256
2302.9850114443825,1298
2304.852011205885,1231
2306.7185839582553,1282
2308.5847299825664,1195
2310.4504495599676,1246
2312.3157429716925,1292
2314.1806104990483,1233
2316.0450524234247,1276
2317.9090690262888,1261
2319.772660589186,1244
2321.635827393742,1269
2323.498569721661,1234
2325.3608878547248,1269
2327.2227820747967,1254
2329.0842526638157,1266
2330.945299903803,1265
2332.805924076857,1336
2334.6661254651535,1264
2336.525904350951,1270
2338.3852610165827,1216
2340.244195744464,1221
2342.102708817088,1233
2343.9608005170253,1309
2345.8184711269287,1276
2347.675720929526,1228
2349.532550207628,1276
2351.38895924412,1242
2353.24494832197,1275
2355.100517724223,1262
2356.955667734004,1269
2358.810398634514,1275
2360.664710709037,1257
2362.5186042409337,1223
2364.3720795136437,1269
2366.225136810686,1289
2368.0777764156583,1289
2369.929998612237,1243
2371.7818036841777,1321
2373.633191915315,1309
2375.484163589562,1270
2377.3347189909114,1270
2379.184858403434,1328
2381.03458211128,1302
2382.8838903986775,1335
2384.732783549936,1311
2386.5812618494406,1290
2388.4293255816588,1307
2390.2769750311327,1253
2392.1242104824883,1350
2393.971032220427,1276
2395.8174405297295,1335
2397.6634356952563,1344
2399.509018001947,1312
2401.3541877348193,1268
2403.1989451789705,1308
2405.043290619576,1357
2406.8872243418905,1272
2408.730746631247,1263
2410.5738577730594,1271
2412.4165580528183,1289
2414.258847756095,1322
2416.100727168537,1335
2417.9421965758734,1329
2419.783256263912,1361
2421.623906518538,1294
2423.4641476257157,1316
2425.303979871491,1342
2427.143403541984,1320
2428.9824189233977,1339
2430.821026302012,1321
2432.6592259641866,1295
2434.497018196361,1309
2436.33440328505,1318
2438.171381516851,1355
2440.00795317844,1377
2441.844118556569,1333
2443.6798779380724,1310
2445.5152316098606,1271
2447.3501798589255,1342
2449.1847229723357,1334
2451.0188612372403,1315
2452.8525949408663,1318
2454.6859243705203,1290
2456.518849813587,1342
2458.3513715575314,1279
2460.183489889895,1336
2462.015205098301,1327
2463.8465174704493,1281
2465.67742729412,1317
2467.5079348571717,1328
2469.338040447542,1357
2471.1677443532476,1327
2472.9970468623833,1331
2474.825948263123,1344
2476.6544488437207,1366
2478.482548892508,1313
2480.310248697896,1347
2482.137548548374,1337
2483.9644487325118,1327
2485.790949538956,1371
2487.617051256433,1364
2489.44275417375,1348
2491.26805857979,1338
2493.0929647635157,1353
2494.917473013971,1358
2496.741583620276,1358
2498.5652968716304,1295
2500.3886130573137,1320
2502.2115324666834,1409
2504.0340553891765,1376
2505.856182114308,1319
2507.6779129316733,1393
2509.499248130945,1325
2511.3201880018764,1379
2513.140732834298,1332
2514.9608829181198,1381
2516.780638543331,1353
2518.6,1390
2520.418967578273,1369
2522.237541568376,1377
2524.0557222606144,1418
2525.8735099453706,1402
2527.6909049131086,1413
2529.507907454368,1445
2531.32451785977,1397
2533.140736420014,1420
2534.9565634258774,1428
2536.771999168218,1467
2538.5870439379714,1383
2540.4016980261526,1362
2542.2159617238544,1446
2544.02983532225,1501
2545.8433191125914,1409
2547.656413386209,1410
2549.4691184345115,1445
2551.2814345489874,1468
2553.093362021204,1507
2554.904901142808,1521
2556.716052205523,1533
2558.526815501153,1543
2560.3371913215824,1557
2562.147179958771,1561
2563.956781704761,1529
2565.7659968516705,1568
2567.5748256916986,1605
2569.3832685171224,1527
2571.1913256202984,1595
2572.9989972936614,1483
2574.806283829725,1593
2576.613185521084,1618
2578.4197026604074,1580
2580.2258355404483,1622
2582.031584454035,1622
2583.836949694077,1599
2585.6419315535613,1672
2587.4465303255533,1624
2589.2507463032002,1635
2591.0545797797245,1679
2592.8580310484303,1590
2594.6611004026995,1687
2596.463788135992,1691
2598.266094541849,1638
2600.0680199138874,1664
2601.869564545807,1637
2603.670728731383,1632
2605.4715127644704,1663
2607.2719169390048,1741
2609.071941548998,1762
2610.8715868885433,1681
2612.670853251811,1681
2614.469740933052,1681
2616.268250226594,1666
2618.0663814268455,1701
2619.864134828292,1712
2621.6615107255006,1570
2623.458509413115,1648
2625.2551311858597,1689
2627.0513763385347,1630
2628.8472451660223,1597
2630.6427379632833,1640
2632.4378550253564,1570
2634.232596647359,1533
2636.026963124488,1611
2637.8209547520187,1558
2639.6145718253065,1592
2641.407814639785,1535
2643.200683490966,1591
2644.9931786744414,1527
2646.7853004858807,1551
2648.577049221034,1451
2650.3684251757277,1492
2652.1594286458712,1547
2653.9500599274484,1502
2655.740319316525,1477
2657.5302071092437,1411
2659.3197236018286,1444
2661.10886909058,1449
2662.8976438718782,1439
2664.686048242183,1452
2666.4740824980327,1416
2668.2617469360443,1411
2670.0490418529134,1379
2671.8359675454153,1407
2673.622524310403,1430
2675.408712444811,1420
2677.1945322456495,1427
2678.979984010009,1389
2680.76506803506,1369
2682.5497846180497,1403
2684.334134056306,1399
2686.1181166472343,1368
2687.9017326883213,1375
2689.6849824771293,1369
2691.4678663113013,1382
2693.2503844885596,1311
2695.032537306705,1344
2696.8143250636167,1323
2698.5957480572542,1325
2700.3768065856534,1315
2702.1575009469316,1348
2703.937831439283,1292
2705.717798360982,1301
2707.4974020103837,1325
2709.276642685917,1233
2711.055520686095,1280
2712.834036309506,1316
2714.612189854819,1310
2716.389981620782,1286
2718.1674119062204,1245
2719.944481010041,1257
2721.721189231226,1245
2723.4975368688415,1282
2725.273524222027,1286
2727.0491515900053,1297
2728.824419272075,1335
2730.5993275676146,1295
2732.3738767760838,1289
2734.148067197016,1246
2735.921899130031,1294
2737.6953728748194,1267
2739.468488731156,1269
2741.2412469988926,1240
2743.0136479779617,1282
2744.785691968372,1252
2746.5573792702116,1257
2748.3287101836504,1246
2750.099685008934,1246
2751.870304046388,1249
2753.640567596418,1287
2755.4104759595057,1253
2757.1800294362156,1220
2758.949228327187,1224
2760.7180729331412,1191
2762.486563554877,1246
2764.254700493272,1236
2766.022484049284,1277
2767.789914523947,1287
2769.5569922183786,1222
2771.3237174337705,1248
2773.090090471394,1261
2774.8561116326036,1254
2776.6217812188274,1244
2778.3870995315756,1159
2780.1520668724356,1174
2781.9166835430747,1226
2783.6809498452394,1243
2785.444866080754,1228
2787.2084325515225,1231
2788.971649559527,1232
2790.73451740683,1234
2792.4970363955713,1242
2794.2592068279705,1222
2796.0210290063264,1227
2797.7825032330147,1196
2799.543629810493,1220
2801.304409041296,1205
2803.0648412280366,1260
2804.8249266734088,1232
2806.5846656801846,1238
2808.344058551212,1245
2810.1031055894246,1187
2811.8618070978273,1205
2813.6201633795085,1215
2815.378174737636,1235
2817.1358414754536,1249
2818.893163896285,1237
2820.6501423035334,1244
2822.4067770006814,1207
2824.1630682912883,1269
2825.9190164789957,1185
2827.6746218675207,1206
2829.429884760661,1214
2831.184805462294,1208
2832.9393842763743,1210
2834.693621506936,1194
2836.4475174580916,1236
2838.201072434034,1170
2839.954286739034,1252
2841.707160677441,1204
2843.459694553685,1214
2845.2118886722724,1255
2846.96374333779,1214
2848.7152588549034,1236
2850.4664355283567,1183
2852.217273662973,1223
2853.9677735636546,1236
2855.7179355353833,1139
2857.4677598832186,1163
2859.217246912299,1237
2860.9663969278427,1194
2862.715210235146,1249
2864.4636871395846,1233
2866.211827946614,1249
2867.9596329617652,1220
2869.7071024906536,1199
2871.4542368389684,1208
2873.20103631248,1263
2874.947501217038,1210
2876.6936318585695,1192
2878.4394285430812,1218
2880.1848915766604,1183
2881.9300212654707,1227
2883.6748179157553,1165
2885.4192818338374,1223
2887.1634133261173,1238
2888.907212699077,1278
2890.6506802592744,1232
2892.393816313348,1199
2894.1366211680142,1240
2895.8790951300693,1188
2897.621238506388,1223
2899.363051603925,1230
2901.1045347297118,1199
2902.8456881908596,1216
2904.58651229456,1242
2906.327007348081,1276
2908.067173658772,1227
2909.8070115340597,1204
2911.5465212814497,1203
2913.285703208527,1241
2915.0245576229563,1174
2916.7630848324807,1219
2918.5012851449196,1185
2920.2391588681758,1184
2921.976706310227,1180
2923.7139277791334,1208
2925.4508235830313,1222
2927.187394030137,1181
2928.923639428745,1195
2930.6595600872306,1257
2932.395156314046,1210
2934.1304284177218,1215
2935.8653767068713,1196
2937.6000014901815,1240
2939.3343030764227,1211
2941.068281774442,1219
2942.8019378931644,1217
2944.5352717415976,1192
2946.2682836288236,1162
2948.0009738640065,1248
2949.7333427563885,1206
2951.465390615289,1180
2953.1971177501086,1240
2954.9285244703265,1206
2956.6596110855,1210
2958.3903779052657,1193
2960.1208252393385,1168
2961.8509533975125,1225
2963.5807626896617,1219
2965.3102534257378,1181
2967.0394259157715,1199
2968.768280469873,1198
2970.496817398232,1206
2972.2250370111146,1201
2973.952939618869,1194
2975.6805255319196,1167
2977.4077950607707,1226
2979.134748516006,1183
2980.861386208289,1218
2982.587708448359,1175
2984.313715547037,1213
2986.039407815222,1230
2987.764785563891,1255
2989.489849104102,1219
2991.2145987469908,1173
2992.9390348037705,1220
2994.6631575857346,1230
2996.3869674042576,1190
2998.1104645707887,1116
2999.83364939686,1219
3001.5565221940783,1149
3003.2790832741334,1184
3005.0013329487924,1189
3006.7232715298996,1196
3008.4448993293804,1192
3010.166216659239,1227
3011.887223831558,1217
3013.607921158498,1138
3015.3283089522993,1164
3017.0483875252826,1190
3018.7681571898443,1248
3020.4876182584626,1183
3022.2067710436927,1184
3023.9256158581707,1217
3025.644153014609,1212
3027.362382825801,1223
3029.0803056046193,1162
3030.797921664012,1198
3032.5152313170106,1160
3034.2322348767225,1213
3035.9489326563353,1142
3037.665324969115,1123
3039.3814121284063,1219
3041.097194447633,1198
3042.812672240299,1194
3044.5278458199855,1191
3046.2427155003525,1210
3047.9572815951406,1199
3049.671544418167,1198
3051.38550428333,1215
3053.0991615046073,1187
3054.812516396051,1186
3056.5255692717974,1159
3058.2383204460575,1203
3059.9507702331257,1233
3061.662918947372,1196
3063.3747669032446,1225
3065.0863144152736,1185
3066.7975617980674,1246
3068.508509366309,1182
3070.219157434767,1241
3071.9295063182844,1225
3073.639556331785,1200
3075.3493077902704,1175
3077.058761008821,1245
3078.7679163025964,1231
3080.476773986837,1180
3082.1853343768594,1214
3083.89359778806,1221
3085.6015645359153,1219
3087.3092349359786,1212
3089.016609303884,1204
3090.7236879553434,1216
3092.4304712061476,1226
3094.136959372166,1215
3095.843152769349,1213
3097.5490517137237,1203
3099.2546565213966,1194
3100.959967508554,1242
3102.66498499146,1175
3104.3697092864577,1240
3106.0741407099695,1222
3107.778279578498,1238
3109.482126208622,1162
3111.1856809170004,1259
3112.8889440203716,1201
3114.5919158355528,1219
3116.294596679439,1222
3117.996986869006,1205
3119.6990867213062,1226
3121.4008965534726,1207
3123.102416682717,1244
3124.803647426329,1248
3126.5045891016784,1208
3128.205242026213,1257
3129.90560651746,1187
3131.605682893025,1259
3133.3054714705922,1215
3135.0049725679282,1227
3136.7041865028714,1185
3138.4031135933465,1177
3140.101754157353,1195
3141.800108512971,1233
3143.498176978357,1190
3145.1959598717494,1253
3146.8934575114636,1222
3148.5906702158954,1183
3150.2875983035183,1217
3151.9842420928853,1183
3153.680601902627,1229
3155.376678051456,1135
3157.07247085816,1185
3158.767980641609,1190
3160.463207720748,1175
3162.158152414606,1199
3163.8528150422862,1181
3165.5471959229726,1221
3167.2412953759303,1160
3168.9351137204976,1174
3170.628651276098,1217
3172.3219083622307,1221
3174.014885298474,1228
3175.707582404485,1216
3177.4000000000005,1198
3179.092138404835,1155
3180.7839979388846,1183
3182.47557892212,1220
3184.166881674594,1177
3185.8579065164386,1179
3187.5486537678626,1252
3189.2391237491547,1251
3190.9293167806827,1256
3192.6192331828934,1159
3194.3088732763117,1187
3195.998237381542,1160
3197.687325819268,1216
3199.376138910251,1195
3201.064676975334,1184
3202.7529403354347,1169
3204.4409293115523,1176
3206.1286442247647,1166
3207.816085396229,1218
3209.5032531471825,1182
3211.190147798936,1156
3212.8767696728846,1190
3214.5631190905015,1129
3216.2491963733373,1169
3217.9350018430214,1175
3219.6205358212637,1172
3221.305798629851,1175
3222.990790590651,1172
3224.6755120256103,1184
3226.359963256751,1167
3228.0441446061795,1165
3229.7280563960758,1143
3231.411698948703,1213
3233.0950725863995,1191
3234.778177631587,1192
3236.461014406761,1208
3238.1435832345005,1145
3239.8258844374595,1207
3241.507918338374,1170
3243.1896852600576,1153
3244.8711855254023,1180
3246.552419457381,1200
3248.233387379042,1146
3249.914089613516,1156
3251.59452648401,1115
3253.274698313813,1139
3254.95460542629,1126
3256.6342481448855,1155
3258.313626793125,1155
3259.9927416946084,1167
3261.6715931730196,1124
3263.3501815521176,1163
3265.0285071557437,1157
3266.706570307815,1150
3268.3843713323286,1164
3270.0619105533615,1163
3271.739188295068,1151
3273.4162048816834,1216
3275.0929606375184,1168
3276.769455886966,1187
3278.445690954498,1163
3280.1216661646613,1143
3281.797381842087,1183
3283.4728383114807,1160
3285.1480358976296,1210
3286.8229749253996,1135
3288.4976557197333,1173
3290.172078605655,1180
3291.846243908266,1179
3293.5201519527463,1132
3295.193803064357,1131
3296.8671975684374,1139
3298.5403357904024,1137
3300.21321805575,1163
3301.8858446900567,1150
3303.558216018975,1184
3305.23033236824,1169
3306.9021940636603,1188
3308.57380143113,1191
3310.2451547966184,1163
3311.916254486174,1193
3313.5871008259246,1175
3315.2576941420766,1173
3316.9280347609147,1188
3318.5981230088046,1125
3320.2679592121895,1134
3321.9375436975924,1155
3323.606876791612,1181
3325.27595882093,1163
3326.944790112305,1132
3328.6133709925753,1126
3330.2817017886573,1155
3331.949782827547,1146
3333.617614436319,1163
3335.2851969421245,1155
3336.952530672199,1161
3338.619615953853,1109
3340.286453114475,1146
3341.9530424815357,1165
3343.619384382583,1225
3345.2854791452437,1168
3346.951327097224,1170
3348.6169285663073,1172
3350.2822838803577,1219
3351.947393367319,1222
3353.61225735521,1159
3355.2768761721345,1189
3356.9412501462693,1195
3358.605379605873,1224
3360.2692648792827,1195
3361.9329062949146,1172
3363.596304181263,1145
