CollectionTime,6/26/2024 4:10:40 PM
ExposureUsed,3
CalibratedSpectrum
-962.7078968117929,739
-959.9714848408522,754
-957.2358232597828,736
-954.5009119013725,720
-951.7667505983302,790
-949.0333391832855,771
-946.3006774887896,760
-943.5687653473143,781
-940.837602591253,771
-938.1071890529199,767
-935.3775245645503,766
-932.6486089583007,785
-929.9204420662485,789
-927.1930237203925,806
-924.4663537526524,823
-921.7404319948689,786
-919.0152582788041,740
-916.2908324361409,791
-913.5671542984834,804
-910.8442236973568,800
-908.1220404642074,810
-905.4006044304027,789
-902.679915427231,781
-899.959973285902,821
-897.2407778375464,774
-894.5223289132158,788
-891.8046263438832,756
-889.0876699604426,761
-886.3714595937089,714
-883.6559950744183,727
-880.9412762332282,765
-878.2273029007168,729
-875.5140749073835,740
-872.8015920836489,776
-870.0898542598545,747
-867.3788612662631,722
-864.6686129330585,734
-861.9591090903457,730
-859.2503495681506,706
-856.5423341964203,703
-853.8350628050229,716
-851.1285352237478,752
-848.4227512823054,693
-845.7177108103272,738
-843.0134136373656,715
-840.3098595928943,712
-837.6070485063082,730
-834.9049802069229,721
-832.2036545239757,733
-829.5030712866244,745
-826.8032303239481,745
-824.1041314649472,703
-821.4057745385428,651
-818.7081593735775,745
-816.0112857988148,721
-813.3151536429393,735
-810.6197627345566,693
-807.9251129021936,739
-805.2312039742981,733
-802.5380357792392,710
-799.8456081453069,655
-797.1539209007124,717
-794.462973873588,722
-791.772766891987,758
-789.083299783884,729
-786.3945723771743,714
-783.7065844996748,705
-781.0193359791231,711
-778.3328266431781,743
-775.6470563194197,703
-772.9620248353489,730
-770.2777320183878,785
-767.5941776958798,709
-764.9113616950891,744
-762.2292838432011,700
-759.5479439673222,747
-756.8673418944801,696
-754.1874774516235,766
-751.5083504656222,753
-748.8299607632671,739
-746.15230817127,768
-743.475392516264,737
-740.7992136248035,705
-738.1237713233636,757
-735.4490654383407,783
-732.7750957960521,781
-730.1018622227365,781
-727.4293645445534,756
-724.7576025875837,741
-722.0865761778291,771
-719.4162851412126,811
-716.7467293035781,752
-714.0779084906909,780
-711.409822528237,852
-708.7424712418238,807
-706.0758544569796,817
-703.4099719991541,831
-700.7448236937178,799
-698.0804093659622,804
-695.4167288411002,802
-692.7537819442656,825
-690.0915685005134,884
-687.4300883348199,787
-684.7693412720819,819
-682.1093271371178,842
-679.4500457546669,815
-676.7914969493897,824
-674.1336805458676,860
-671.4765963686034,849
-668.8202442420206,841
-666.1646239904642,858
-663.5097354382001,841
-660.8555784094151,835
-658.2021527282176,845
-655.5494582186366,921
-652.8974947046223,885
-650.2462620100463,860
-647.5957599587009,920
-644.9459883742998,922
-642.2969470804776,895
-639.6486359007902,905
-637.0010546587141,877
-634.3542031776476,874
-631.7080812809096,827
-629.0626887917401,872
-626.4180255333008,834
-623.7740913286734,820
-621.1308860008619,862
-618.4884093727904,838
-615.8466612673046,841
-613.2056415071715,827
-610.5653499150785,842
-607.9257863136347,844
-605.28695052537,865
-602.6488423727357,864
-600.0114616781036,838
-597.3748082637674,823
-594.7388819519412,883
-592.1036825647604,878
-589.4692099242818,834
-586.8354638524829,874
-584.2024441712624,878
-581.5701507024403,882
-578.9385832677575,856
-576.3077416888759,875
-573.6776257873787,886
-571.0482353847704,832
-568.4195703024757,847
-565.7916303618415,885
-563.164415384135,941
-560.5379251905453,922
-557.9121596021815,908
-555.2871184400748,865
-552.6628015251767,854
-550.0392086783606,843
-547.4163397204204,874
-544.794194472071,885
-542.1727727539491,924
-539.5520743866118,912
-536.9320991905377,976
-534.3128469861261,992
-531.6943175936979,975
-529.0765108334947,955
-526.4594265256793,1084
-523.8430644903358,1204
-521.2274245474689,1314
-518.612506517005,1482
-515.9983102187913,1520
-513.3848354725959,1610
-510.77208209810846,1732
-508.16004991493924,1811
-505.5487387426199,1933
-502.9381484006032,1999
-500.3282787082628,2146
-497.71912948489364,2258
-495.1107005497117,2154
-492.5029917218539,2029
-489.8960028203786,1799
-487.28973366426493,1661
-484.68418407241325,1478
-482.07935386364494,1305
-479.47524285670266,1323
-476.87185087025,1255
-474.2691777228715,1271
-471.66722323307334,1142
-469.0659872192821,1170
-466.4654694998459,1127
-463.86566989303384,1142
-461.26658821703614,1120
-458.66822428996414,1110
-456.07057792985,1122
-453.4736489546475,1104
-450.877437182231,1094
-448.28194243039627,1081
-445.68716451686,1079
-443.09310325926003,1064
-440.49975847515555,1057
-437.9071299820263,1039
-435.31521759727354,1054
-432.72402113821954,1058
-430.13354042210767,1075
-427.5437752661022,1064
-424.95472548728867,1139
-422.36639090267386,1186
-419.7787713291855,1110
-417.1918665836721,1184
-414.60567648290385,1177
-412.0202008435715,1222
-409.4354394822874,1208
-406.8513922155845,1193
-404.26805885991723,1193
-401.685439231661,1162
-399.103533147112,1122
-396.522340422488,1137
-393.9418608739278,1147
-391.3620943174908,1177
-388.7830405691583,1130
-386.2046994448317,1149
-383.6270707603344,1057
-381.05015433141045,920
-378.473949973725,888
-375.8984575028645,877
-373.32367673433623,756
-370.74960748356875,757
-368.1762495659117,702
-365.60360279663576,652
-363.03166699093265,623
-360.4604419639154,626
-357.8899275306178,577
-355.32012350599507,530
-352.7510297049233,520
-350.1826459421999,535
-347.61497203254316,556
-345.04800779059235,594
-342.4817530309082,517
-339.91620756797226,493
-337.35137121618743,500
-334.7872437898774,512
-332.22382510328725,512
-329.66111497058273,517
-327.09911320585127,540
-324.53781962310075,539
-321.9772340362607,532
-319.4173562591816,589
-316.8581861056348,611
-314.2997233893127,615
-311.7419679238294,614
-309.1849195227194,605
-306.62857799943856,532
-304.0729431673641,535
-301.51801483979375,518
-298.963792829947,548
-296.41027695096386,609
-293.85746701590574,593
-291.3053628377552,593
-288.7539642294155,617
-286.2032710037115,616
-283.65328297338897,611
-281.1039999511146,689
-278.5554217494762,801
-276.007548180983,669
-273.4603790580651,636
-270.9139141930734,591
-268.3681533982807,625
-265.8230964858798,638
-263.27874326798565,610
-260.7350935566336,650
-258.1921471637804,703
-255.6499039013039,795
-253.10836358100266,764
-250.56752601459698,710
-248.02739101372765,737
-245.48795838995704,827
-242.94922795476816,789
-240.41119951956557,712
-237.8738728956746,800
-235.33724789434166,871
-232.80132432673452,980
-230.2661020039418,1056
-227.73158073697357,888
-225.19776033676033,704
-222.66464061415422,793
-220.1322213799284,779
-217.60050244477725,781
-215.06948361931552,783
-212.53916471408013,830
-210.00954553952818,733
-207.48062590603843,835
-204.9524056239104,828
-202.4248845033651,857
-199.8980623545441,840
-197.37193898751036,844
-194.84651421224817,839
-192.32178783866232,892
-189.79775967657952,873
-187.27442953574644,908
-184.7517972258321,935
-182.2298625564256,855
-179.7086253370378,1027
-177.18808537710026,1026
-174.66824248596583,1072
-172.14909647290835,1177
-169.6306471471229,1055
-167.11289431772548,1033
-164.59583779375328,1037
-162.07947738416453,1026
-159.5638128978386,1053
-157.04884414357605,1036
-154.53457093009854,1152
-152.02099306604828,1041
-149.50811035998936,1095
-146.99592262040665,1153
-144.48442965570587,1191
-141.97363127421409,1138
-139.46352728417958,1264
-136.95411749377126,1216
-134.44540171107985,1466
-131.93737974411636,1439
-129.43005140081357,1442
-126.92341648902493,1487
-124.41747481652521,1615
-121.91222619101006,1483
-119.40767042009657,1420
-116.90380731132257,1350
-114.40063667214702,1448
-111.8981583099503,1576
-109.3963720320337,1735
-106.89527764561933,1516
-104.39487495785067,1505
-101.89516377579241,1767
-99.39614390642998,1889
-96.89781515667039,1740
-94.40017733334128,2090
-91.90323024319173,2108
-89.40697369289148,1761
-86.91140748903172,1690
-84.41653143812482,1801
-81.92234534660395,1977
-79.42884902082358,2035
-76.93604226705907,2110
-74.4439248915071,2261
-71.95249670028534,2117
-69.46175749943245,2293
-66.97170709490854,2602
-64.48234529259423,2713
-61.99367189829195,2695
-59.50568671772464,2890
-57.01838955653636,3161
-54.53178022029283,3045
-52.045858514480074,3012
-49.560624244506016,3851
-47.07607721569923,3752
-44.59221723330904,3651
-42.10904410250669,3112
-39.62655762838392,4005
-37.14475761595372,5181
-34.66364387015028,5545
-32.18321619582866,5742
-29.70347439776515,6742
-27.224418280657005,7594
-24.74604764912317,10981
-22.26836230770266,16614
-19.7913620608565,27578
-17.315046712966478,42497
-14.83941606833514,49797
-12.36446993118659,65038
-9.89020810566592,65038
-7.416630395839093,65038
-4.94373660569363,65038
-2.471526539137585,65038
-6.821210263296962E-13,65038
2.47084320796705,65038
4.941003281093458,65038
7.410480415786196,65038
9.879274808531363,65038
12.347386655893956,65038
14.814816154518212,65038
17.28156350112681,65038
19.74762889252179,65038
22.21301252558385,65038
24.67771459727237,65038
27.141735304626195,37788
29.605074844762612,14042
32.06773341487792,12689
34.52971121224755,9229
36.99100843422559,8013
39.45162527824516,7684
41.91156194181792,8307
44.370818622535126,10285
46.82939551806646,11690
49.287292826160524,13456
51.74451074464503,11744
54.201049471426245,9478
56.65690920448981,7476
59.112090141899785,4533
61.56659248179983,3906
64.02041642241159,3368
66.4735621620365,3380
68.92602989905402,3045
71.37781983192338,2874
73.82893215918205,2816
76.27936707944684,3195
78.72912479141326,3646
81.17820549385567,3266
83.62660938562783,3017
86.07433666566146,2404
88.5213875329681,2982
90.96776218663751,3140
93.41346082583925,3147
95.85848364982041,2763
98.30283085790859,2056
100.7465026495089,2387
103.18949922410604,2654
105.63182078126385,2291
108.07346752062438,2500
110.51443964190923,2406
112.95473734491827,1921
115.39436082953114,1883
117.83331029570547,1972
120.27158594347827,1967
122.7091879729652,2110
125.1461165843615,1695
127.58237197794062,1570
130.01795435405518,1458
132.4528639131364,1480
134.88710085569494,1495
137.32066538231982,1629
139.75355769367923,1525
142.1857779905207,1577
144.61732647366978,1531
147.04820334403132,1547
149.47840880258934,1430
151.90794305040674,1673
154.33680628862487,1758
156.76499871846443,1716
159.19252054122433,1847
161.61937195828352,2050
164.04555317109896,1998
166.47106438120693,2228
168.89590579022217,2585
171.320077599839,2750
173.7435800118302,2565
176.16641322804742,2640
178.58857745042144,2822
181.01007288096173,3017
183.43089972175687,2947
185.85105817497413,2978
188.27054844285988,3106
190.6893707277394,3039
193.10752523201643,3049
195.5250121581745,3195
197.9418317087751,3373
200.3579840864594,3083
202.7734694939469,3036
205.18828813403627,3144
207.6024402096051,3208
210.01592592360964,3061
212.42874547908548,3070
214.84089907914665,3010
217.2523869269868,2964
219.66320922587727,3129
222.0733661791695,3126
224.48285799029293,3055
226.8916848627572,3214
229.29984700014882,3384
231.7073446061355,3441
234.11417788446204,3362
236.520347038953,3380
238.92585227351185,3598
241.33069379212054,3745
243.73487179884035,3663
246.1383864978112,3634
248.541238093252,3571
250.9434267894609,3804
253.34495279081432,3833
255.74581630176783,3822
258.1460175268563,3725
260.54555667069314,3854
262.9444339379703,3784
265.3426495334594,3693
267.7402036620107,3652
270.1370965285529,3429
272.53332833809407,3411
274.9288992957214,3296
277.32380960660055,3032
279.718059475976,3002
282.1116491091717,2984
284.5045787115897,3017
286.89684848871195,3033
289.2884586460981,3059
291.67940938938807,3006
294.0697009242996,2951
296.4593334566299,2968
298.84830719225477,2861
301.23662233712923,2890
303.6242790972866,2873
306.01127767884,2815
308.39761828798066,2885
310.78330113097934,2746
313.16832641418534,2625
315.5526943440269,2630
317.9364051270112,2658
320.3194589697242,2560
322.70185607883093,2560
325.0835966610754,2605
327.4646809232805,2541
329.8451090723478,2490
332.2248813152577,2534
334.6039978590701,2532
336.9824589109231,2440
339.36026467803447,2477
341.7374153677,2442
344.113911187295,2364
346.48975234427337,2315
348.8649390461686,2352
351.2394715005918,2364
353.61334991523415,2275
355.9865744978655,2246
358.35914545633375,2449
360.73106299856715,2389
363.10232733257146,2284
365.47293866643247,2334
367.84289720831396,2247
370.2122031664593,2264
372.5808567491905,2342
374.9488581649083,2226
377.31620762209275,2265
379.6829053293021,2292
382.0489514951745,2257
384.4143463284262,2214
386.7790900378528,2160
389.14318283232853,2199
391.50662492080653,2209
393.86941651231916,2210
396.23155781597745,2082
398.5930490409713,2138
400.9538903965696,2156
403.3140820921202,2168
405.6736243370498,2177
408.03251734086336,2101
410.3907613131465,2149
412.74835646356166,2142
415.10530300185144,2114
417.4616011378372,2187
419.81725108141893,2211
422.1722530425758,2078
424.5266072313656,2032
426.880313857925,2149
429.2333731324701,2111
431.58578526529516,2088
433.9375504667738,2121
436.2886689473588,2130
438.63914091758113,2174
440.9889665880513,2034
443.33814616945835,2143
445.68667987257015,2070
448.03456790823395,2068
450.3818104873759,2109
452.72840782100013,2131
455.07436012019105,1990
457.41966759611057,2080
459.7643304600007,2094
462.10834892318155,2072
464.4517231970525,2015
466.79445349309174,2128
469.1365400228566,2089
471.4779829979826,2144
473.81878263018564,2150
476.15893913125876,2165
478.4984527130747,2174
480.8373235875855,2133
483.17555196682144,2169
485.5131380628919,2284
487.8500820879857,2374
490.1863842543697,2522
492.52204477439034,2725
494.8570638604725,2928
497.1914417251204,3071
499.52517858091653,3385
501.85827464052306,3760
504.19073011668036,3826
506.5225452222086,3761
508.85372017000566,3606
511.18425517304956,3621
513.514150444396,3764
515.8434061971808,4233
518.1720226446176,4808
520.4999999999999,5030
522.8273384766991,5423
525.1540382881666,5650
527.480099647932,5476
529.8055227696037,4764
532.1303078668694,3372
534.454455153496,2561
536.777964843328,2220
539.1008371502907,2166
541.4230722883866,2094
543.744670471698,2081
546.0656319143858,2003
548.3859568306899,1946
550.7056454349294,1916
553.0246979415016,1893
555.3431145648834,1912
557.6608955196306,1903
559.978041020377,1878
562.2945512818363,1836
564.6104265188006,1899
566.9256669461412,1808
569.2402727788082,1914
571.5542442318302,1884
573.8675815203156,1889
576.1802848594508,1891
578.4923544645015,1801
580.8037905508126,1859
583.114593333807,1866
585.4247630289875,1894
587.7342998519354,1872
590.0432040183106,1834
592.3514757438526,1803
594.6591152443794,1835
596.9661227357875,1861
599.2724984340531,1923
601.578242555231,1853
603.8833553154542,1884
606.1878369309362,1893
608.4916876179676,1893
610.7949075929192,1998
613.0974970722403,1934
615.3994562724587,1785
617.7007854101818,1842
620.0014847020951,1877
622.3015543649641,1915
624.6009946156324,1888
626.8998056710224,1900
629.1979877481361,1834
631.4955410640538,1849
633.7924658359349,1994
636.0887622810175,2004
638.3844306166192,1920
640.6794710601358,1906
642.9738838290426,1931
645.2676691408932,1916
647.5608272133207,1931
649.853358264037,1975
652.1452625108324,1930
654.4365401715764,1989
656.7271914642178,1950
659.0172166067838,1963
661.3066158173809,1949
663.5953893141935,1864
665.8835373154867,1907
668.1710600396028,1975
670.4579577049639,1960
672.7442305300709,1982
675.0298787335033,1980
677.3149025339197,1925
679.599302150058,1946
681.8830778007342,1978
684.1662297048437,1928
686.4487580813608,1947
688.7306631493387,2009
691.0119451279091,1897
693.2926042362834,1957
695.5726406937516,1958
697.8520547196814,1954
700.1308465335215,1978
702.4090163547982,1911
704.6865644031171,1932
706.9634908981619,1907
709.2397960596965,1935
711.5154801075631,1883
713.7905432616823,1846
716.0649857420548,1939
718.3388077687592,1978
720.612009561953,1932
722.8845913418733,1927
725.1565533288352,1889
727.427895743234,1925
729.6986188055427,1948
731.9687227363137,1890
734.238207756178,1934
736.5070740858458,1894
738.7753219461066,1906
741.0429515578281,1945
743.3099631419569,1893
745.5763569195191,1946
747.8421331116193,1943
750.1072919394409,1898
752.3718336242467,1924
754.6357583873777,1886
756.8990664502545,1932
759.1617580343765,1917
761.423833361321,1875
763.6852926527457,1943
765.9461361303862,1897
768.206364016058,1955
770.4659765316536,1893
772.7249738991469,1901
774.9833563405886,1877
777.2411240781092,1941
779.4982773339183,1843
781.7548163303044,1971
784.010741289634,2003
786.2660524343538,2056
788.5207499869881,1959
790.7748341701416,1956
793.0283052064964,1973
795.2811633188143,2020
797.5334087299362,1928
799.7850416627813,1942
802.0360623403484,1923
804.2864709857143,1937
806.5362678220353,1910
808.7854530725468,1944
811.0340269605625,1898
813.2819897094754,1896
815.5293415427581,1988
817.77608268396,1944
820.0222133567116,1881
822.2677337847211,1897
824.5126441917765,1958
826.7569448017433,1898
829.0006358385675,1933
831.2437175262731,1960
833.4861900889629,1948
835.7280537508192,1945
837.9693087361026,1980
840.2099552691533,1993
842.4499935743896,1933
844.689423876309,2004
846.9282463994886,1948
849.1664613685833,1970
851.4040690083276,1953
853.6410695435349,1901
855.877463199097,1962
858.1132501999847,1956
860.3484307712487,1963
862.5830051380175,2007
864.8169735254988,1973
867.0503361589791,1956
869.2830932638243,1948
871.5152450654786,1959
873.7467917894654,2021
875.9777336613873,1941
878.2080709069252,1998
880.4378037518389,2054
882.666932421968,1995
884.8954571432301,1962
887.1233781416219,1970
889.3506956432192,1991
891.5774098741766,1975
893.803521060728,2020
896.0290294291852,2058
898.2539352059397,2095
900.4782386174619,2022
902.7019398903011,2033
904.925039251085,1963
907.147536926521,1949
909.3694331433943,2012
911.59072812857,2010
913.8114221089921,2066
916.0315153116827,1953
918.2510079637437,1980
920.4699002923547,2015
922.6881925247761,2010
924.905884888345,1986
927.1229776104793,1996
929.3394709186747,1981
931.555365040506,2040
933.7706602036275,2043
935.9853566357709,1999
938.1994545647489,1997
940.4129542184515,1992
942.6258558248488,2129
944.8381596119883,2031
947.0498658079974,1970
949.2609746410825,1975
951.4714863395287,1998
953.6814011316998,1999
955.8907192460387,1992
958.0994409110671,1915
960.3075663553858,1975
962.5150958076741,2008
964.7220294966913,1930
966.928367651274,1887
969.1341105003388,1880
971.3392582728806,1873
973.5438111979742,1911
975.747769504772,1904
977.9511334225061,1934
980.153903180487,1910
982.3560790081052,1896
984.5576611348289,1959
986.7586497902058,1886
988.9590452038618,1864
991.158847605503,1830
993.3580572249133,1870
995.5566742919558,1776
997.7546990365728,1699
999.952131688785,1737
1002.1489724786926,1639
1004.3452216364743,1725
1006.5408793923874,1677
1008.7359459767691,1728
1010.9304216200343,1697
1013.1243065526781,1630
1015.3176010052733,1661
1017.510305208472,1641
1019.7024193930064,1561
1021.8939437896848,1613
1024.0848786293977,1646
1026.2752241431122,1633
1028.4649805618747,1610
1030.6541481168115,1598
1032.842727039127,1629
1035.0307175601051,1540
1037.2181199111074,1567
1039.4049343235752,1591
1041.591161029029,1563
1043.7768002590683,1619
1045.9618522453698,1578
1048.1463172196918,1586
1050.3301954138697,1587
1052.513487059818,1513
1054.69619238953,1524
1056.8783116350783,1581
1059.0598450286152,1542
1061.2407928023704,1522
1063.4211551886528,1516
1065.6009324198508,1528
1067.780124728432,1581
1069.9587323469414,1495
1072.1367555080046,1592
1074.314194444325,1524
1076.4910493886855,1468
1078.667320573947,1457
1080.843008233051,1430
1083.0181125990161,1498
1085.1926339049414,1439
1087.3665723840027,1533
1089.5399282694575,1517
1091.7127017946405,1508
1093.8848931929647,1504
1096.0565026979243,1455
1098.2275305430899,1492
1100.3979769621128,1499
1102.567842188722,1452
1104.737126456726,1435
1106.9058300000124,1445
1109.0739530525475,1525
1111.2414958483764,1395
1113.4084586216231,1366
1115.5748416064907,1461
1117.7406450372605,1418
1119.9058691482942,1468
1122.0705141740304,1424
1124.2345803489884,1492
1126.3980679077658,1467
1128.5609770850388,1362
1130.7233081155623,1373
1132.8850612341707,1397
1135.0462366757774,1426
1137.2068346753745,1424
1139.3668554680326,1406
1141.526299288901,1367
1143.68516637321,1451
1145.8434569562655,1433
1148.001171273455,1411
1150.158309560244,1401
1152.3148720521767,1394
1154.470858984876,1405
1156.626270594044,1404
1158.7811071154629,1437
1160.9353687849912,1376
1163.089055838569,1411
1165.242168512213,1503
1167.3947070420209,1393
1169.5466716641677,1396
1171.6980626149075,1397
1173.8488801305748,1423
1175.9991244475814,1395
1178.1487958024186,1412
1180.2978944316555,1445
1182.4464205719428,1405
1184.5943744600072,1394
1186.7417563326567,1400
1188.8885664267755,1458
1191.0348049793297,1349
1193.1804722273619,1371
1195.325568407995,1465
1197.4700937584303,1456
1199.614048515948,1361
1201.7574329179074,1377
1203.900247201746,1378
1206.042491604982,1412
1208.1841663652099,1401
1210.3252717201053,1401
1212.465807907422,1391
1214.6057751649923,1367
1216.7451737307279,1405
1218.8840038426192,1407
1221.0222657387353,1384
1223.1599596572241,1381
1225.2970858363137,1345
1227.4336445143094,1446
1229.5696359295966,1402
1231.705060320639,1423
1233.8399179259786,1432
1235.9742089842384,1443
1238.107933734118,1369
1240.2410924143974,1448
1242.373685263935,1410
1244.5057125216676,1469
1246.6371744266116,1430
1248.7680712178621,1421
1250.898403134593,1429
1253.028170416058,1447
1255.1573733015875,1467
1257.2860120305932,1403
1259.4140868425648,1454
1261.54159797707,1493
1263.6685456737569,1451
1265.7949301723515,1438
1267.9207517126597,1408
1270.046010534565,1385
1272.1707068780306,1445
1274.2948409830983,1480
1276.4184130898889,1494
1278.541423438603,1456
1280.6638722695184,1445
1282.785759822993,1444
1284.9070863394636,1476
1287.0278520594447,1516
1289.1480572235314,1538
1291.2677020723963,1512
1293.3867868467923,1498
1295.5053117875495,1500
1297.623277135579,1498
1299.740683131868,1567
1301.8575300174857,1591
1303.973818033578,1615
1306.0895474213703,1626
1308.2047184221678,1576
1310.3193312773528,1611
1312.4333862283888,1531
1314.5468835168163,1474
1316.659823384255,1581
1318.7722060724045,1557
1320.8840318230418,1588
1322.9953008780249,1589
1325.1060134792888,1637
1327.2161698688478,1627
1329.3257702887959,1551
1331.4348149813054,1567
1333.5433041886276,1544
1335.6512381530933,1642
1337.7586171171101,1600
1339.8654413231675,1598
1341.9717110138317,1567
1344.0774264317488,1554
1346.1825878196432,1565
1348.2871954203192,1594
1350.3912494766587,1530
1352.4947502316231,1478
1354.5976979282532,1567
1356.7000928096686,1579
1358.8019351190665,1579
1360.9032250997243,1560
1363.0039629949988,1547
1365.1041490483235,1503
1367.2037835032133,1559
1369.3028666032606,1577
1371.401398592137,1566
1373.4993797135926,1567
1375.5968102114575,1510
1377.6936903296396,1570
1379.7900203121262,1616
1381.8858004029835,1565
1383.9810308463561,1553
1386.075711886469,1596
1388.1698437676241,1557
1390.2634267342032,1592
1392.356461030667,1574
1394.4489469015557,1563
1396.5408845914872,1592
1398.6322743451592,1658
1400.7231164073469,1619
1402.813411022907,1634
1404.903158436773,1566
1406.9923588939578,1602
1409.0810126395531,1577
1411.1691199187303,1603
1413.2566809767386,1608
1415.343696058907,1650
1417.4301654106425,1715
1419.5160892774315,1663
1421.6014679048399,1638
1423.6863015385125,1670
1425.7705904241707,1677
1427.8543348076178,1743
1429.9375349347342,1702
1432.0201910514802,1754
1434.102303403894,1793
1436.1838722380944,1762
1438.2648978002767,1781
1440.3453803367174,1792
1442.4253200937692,1810
1444.5047173178677,1839
1446.5835722555234,1867
1448.6618851533285,1925
1450.739656257952,1938
1452.8168858161434,1916
1454.8935740747306,2016
1456.96972128062,1988
1459.045327680797,2006
1461.120393522327,2065
1463.1949190523528,2143
1465.2689045180973,2135
1467.3423501668608,2233
1469.415256246024,2264
1471.4876230030463,2202
1473.559450685465,2230
1475.6307395408976,2235
1477.7014898170391,2329
1479.771701761665,2368
1481.8413756226287,2398
1483.9105116478618,2504
1485.9791100853772,2520
1488.0471711832643,2405
1490.1146951896926,2635
1492.1816823529098,2607
1494.2481329212433,2582
1496.3140471430984,2576
1498.3794252669609,2650
1500.4442675413939,2705
1502.5085742150404,2677
1504.572345536622,2804
1506.6355817549388,2728
1508.6982831188702,2766
1510.7604498773744,2775
1512.8220822794883,2855
1514.8831805743293,2841
1516.9437450110909,2882
1519.003775839048,2920
1521.0632733075522,2869
1523.1222376660367,2865
1525.1806691640113,2940
1527.2385680510652,2934
1529.2959345768668,3094
1531.3527689911643,2953
1533.4090715437833,2966
1535.4648424846291,3143
1537.5200820636855,3107
1539.5747905310159,3131
1541.6289681367616,3191
1543.6826151311434,3221
1545.7357317644614,3294
1547.7883182870937,3251
1549.8403749494987,3306
1551.8919020022113,3518
1553.9428996958477,3455
1555.9933682811015,3411
1558.0433080087469,3548
1560.0927191296346,3640
1562.1416018946961,3670
1564.1899565549415,3620
1566.2377833614592,3625
1568.2850825654164,3675
1570.3318544180606,3590
1572.3780991707158,3496
1574.423817074788,3302
1576.4690083817595,3172
1578.5136733431923,3038
1580.5578122107272,2962
1582.601425236085,2853
1584.6445126710646,2712
1586.6870747675434,2538
1588.7291117774776,2429
1590.7706239529034,2353
1592.8116115459347,2278
1594.8520748087658,2223
1596.8920139936686,2137
1598.9314293529933,2072
1600.9703211391711,2022
1603.008689604711,2050
1605.0465350022005,1994
1607.0838575843068,1877
1609.1206576037753,1759
1611.1569353134305,1753
1613.1926909661765,1757
1615.2279248149953,1772
1617.2626371129481,1642
1619.2968281131757,1650
1621.3304980688963,1660
1623.3636472334088,1644
1625.39627586009,1620
1627.428384202396,1627
1629.459972513861,1601
1631.4910410480993,1605
1633.5215900588028,1569
1635.551619799744,1564
1637.5811305247717,1611
1639.6101224878166,1583
1641.6385959428862,1523
1643.6665511440683,1514
1645.693988345528,1526
1647.7209078015112,1545
1649.7473097663405,1462
1651.7731944944203,1476
1653.7985622402307,1500
1655.823413258333,1488
1657.847747803366,1497
1659.8715661300494,1535
1661.8948684931793,1454
1663.9176551476316,1440
1665.9399263483624,1456
1667.9616823504057,1486
1669.982923408873,1480
1672.0036497789574,1460
1674.0238617159293,1457
1676.043559475138,1481
1678.0627433120121,1413
1680.081413482059,1454
1682.0995702408654,1413
1684.117213844096,1448
1686.134344547495,1436
1688.1509626068864,1484
1690.1670682781705,1433
1692.182661817329,1427
1694.1977434804217,1436
1696.2123135235875,1409
1698.226372203043,1420
1700.2399197750851,1431
1702.2529564960905,1413
1704.2654826225112,1437
1706.277498410882,1421
1708.2890041178139,1466
1710.2999999999988,1445
1712.3104863142066,1464
1714.3204633172854,1412
1716.329931266163,1447
1718.3388904178469,1475
1720.3473410294214,1425
1722.3552833580516,1380
1724.3627176609807,1412
1726.3696441955308,1398
1728.3760632191033,1361
1730.3819749891782,1368
1732.3873797633146,1330
1734.3922777991502,1382
1736.3966693544012,1330
1738.4005546868639,1360
1740.4039340544127,1328
1742.406807715001,1334
1744.4091759266616,1344
1746.4110389475054,1404
1748.4123970357223,1317
1750.413250449582,1358
1752.4135994474318,1370
1754.4134442876993,1401
1756.4127852288902,1328
1758.4116225295893,1324
1760.4099564484595,1332
1762.407787244244,1377
1764.405115175764,1346
1766.4019405019203,1358
1768.3982634816916,1354
1770.3940843741357,1346
1772.3894034383907,1298
1774.3842209336717,1304
1776.378537119274,1355
1778.372352254571,1297
1780.3656665990156,1293
1782.3584804121397,1244
1784.3507939535534,1338
1786.3426074829463,1321
1788.3339212600863,1279
1790.3247355448211,1336
1792.3150505970766,1248
1794.3048666768573,1265
1796.2941840442477,1300
1798.2830029594106,1308
1800.2713236825884,1311
1802.2591464741004,1276
1804.2464715943465,1280
1806.2332993038058,1269
1808.2196298630352,1286
1810.2054635326708,1222
1812.190800573428,1278
1814.175641246101,1298
1816.1599858115628,1276
1818.1438345307652,1309
1820.127187664738,1286
1822.1100454745924,1295
1824.092408221516,1279
1826.0742761667766,1307
1828.055649571721,1294
1830.0365286977735,1306
1832.0169138064398,1274
1833.9968051593014,1274
1835.9762030180214,1229
1837.9551076443408,1281
1839.9335193000788,1238
1841.9114382471344,1281
1843.888864747485,1252
1845.8657990631878,1224
1847.842241456378,1278
1849.8181921892697,1214
1851.7936515241558,1265
1853.7686197234098,1197
1855.7430970494815,1283
1857.7170837649014,1283
1859.6905801322787,1304
1861.6635864143004,1243
1863.6361028737338,1308
1865.608129773424,1270
1867.5796673762961,1285
1869.5507159453537,1285
1871.521275743678,1269
1873.4913470344313,1236
1875.4609300808534,1323
1877.4300251462632,1280
1879.3986324940588,1248
1881.366752387717,1251
1883.3343850907936,1312
1885.3015308669228,1310
1887.268189979819,1303
1889.2343626932739,1248
1891.2000492711595,1275
1893.1652499774254,1312
1895.1299650761011,1273
1897.0941948312952,1311
1899.0579395071945,1336
1901.0211993680641,1256
1902.98397467825,1321
1904.9462657021745,1311
1906.9080727043415,1258
1908.869395949332,1276
1910.8302357018065,1347
1912.790592226504,1261
1914.7504657882428,1285
1916.7098566519212,1310
1918.6687650825133,1303
1920.6271913450764,1271
1922.5851357047422,1255
1924.5425984267245,1247
1926.499579776314,1249
1928.4560800188833,1259
1930.4120994198802,1287
1932.367638244833,1284
1934.32269675935,1234
1936.2772752291175,1230
1938.231373919899,1281
1940.1849930975404,1299
1942.1381330279637,1313
1944.0907939771696,1282
1946.0429762112412,1294
1947.9946799963363,1316
1949.9459055986945,1267
1951.896653284633,1289
1953.8469233205478,1270
1955.7967159729142,1238
1957.7460315082863,1279
1959.6948701932974,1257
1961.6432322946594,1244
1963.5911180791632,1262
1965.5385278136787,1254
1967.4854617651545,1294
1969.4319202006182,1274
1971.377903387176,1245
1973.3234115920136,1326
1975.268445082395,1269
1977.2130041256642,1280
1979.1570889892423,1230
1981.1006999406304,1290
1983.04383724741,1285
1984.986501177238,1260
1986.928691997853,1260
1988.8704099770712,1246
1990.811655382789,1252
1992.7524284829801,1239
1994.692729545698,1220
1996.6325588390755,1251
1998.5719166313224,1296
2000.5108031907307,1254
2002.4492187856677,1235
2004.387163684583,1274
2006.3246381560011,1212
2008.2616424685298,1236
2010.1981768908527,1251
2012.1342416917332,1228
2014.069837140014,1249
2016.0049635046162,1252
2017.9396210545406,1275
2019.8738100588666,1251
2021.8075307867502,1225
2023.740783507431,1212
2025.6735684902228,1233
2027.6058860045214,1243
2029.5377363198004,1269
2031.4691197056118,1239
2033.4000364315875,1260
2035.3304867674374,1277
2037.260470982952,1216
2039.189989347998,1232
2041.1190421325232,1222
2043.047629606554,1179
2044.9757520401945,1186
2046.9034097036288,1255
2048.8306028671195,1196
2050.7573318010086,1206
2052.683596775716,1196
2054.609398061742,1255
2056.5347359296647,1256
2058.4596106501403,1234
2060.384022493906,1226
2062.3079717317764,1233
2064.231458634646,1235
2066.1544834734873,1210
2068.077046519352,1234
2069.99914804337,1282
2071.9207883167524,1236
2073.8419676107865,1221
2075.7626861968406,1237
2077.6829443463607,1237
2079.6027423308715,1222
2081.522080421977,1278
2083.440958891362,1208
2085.359378010786,1289
2087.2773380520907,1214
2089.194839287196,1194
2091.111881988101,1321
2093.0284664268825,1253
2094.9445928756973,1209
2096.86026160678,1239
2098.775472892446,1277
2100.690227005088,1219
2102.604524217178,1226
2104.5183648012676,1143
2106.431749029985,1251
2108.34467717604,1251
2110.2571495122206,1216
2112.169166311393,1217
2114.080727846503,1246
2115.9918343905747,1206
2117.902486216711,1230
2119.8126835980956,1218
2121.722426807987,1243
2123.6317161197285,1232
2125.5405518067364,1204
2127.448934142509,1187
2129.356863400624,1255
2131.264339854737,1271
2133.1713637785815,1196
2135.077935445972,1193
2136.9840551308002,1250
2138.889723107037,1275
2140.7949396487334,1228
2142.699705030018,1209
2144.6040195250994,1231
2146.507883408264,1214
2148.4112969538774,1229
2150.3142604363848,1279
2152.2167741303097,1276
2154.1188383102535,1284
2156.0204532508997,1255
2157.9216192270064,1246
2159.822336513414,1277
2161.7226053850413,1228
2163.622426116884,1288
2165.5217989840185,1224
2167.4207242616,1243
2169.319202224862,1243
2171.2172331491165,1216
2173.1148173097563,1248
2175.0119549822507,1207
2176.90864644215,1210
2178.8048919650823,1270
2180.7006918267534,1207
2182.596046302952,1238
2184.4909556695407,1244
2186.3854202024645,1265
2188.279440177746,1252
2190.173015871487,1251
2192.066147559868,1263
2193.958835519149,1241
2195.851080025667,1260
2197.7428813558417,1258
2199.6342397861667,1213
2201.5251555932186,1230
2203.415629053651,1274
2205.3056604441986,1230
2207.19525004167,1207
2209.084398122958,1215
2210.9731049650327,1218
2212.861370844941,1199
2214.749196039812,1222
2216.636580826851,1209
2218.523525483344,1258
2220.410030286655,1213
2222.296095514226,1235
2224.1817214435805,1223
2226.066908352319,1266
2227.951656518121,1193
2229.835966218746,1240
2231.71983773203,1248
2233.6032713358913,1190
2235.486267308324,1175
2237.3688259274036,1270
2239.2509474712824,1206
2241.132632218193,1234
2243.013880446447,1245
2244.8946924344323,1191
2246.7750684606203,1210
2248.6550088035574,1238
2250.534513741871,1223
2252.413583554265,1179
2254.292218519526,1181
2256.170418916517,1223
2258.0481850241786,1257
2259.925517121534,1214
2261.8024154876825,1202
2263.678880401803,1204
2265.5549121431536,1268
2267.430510991071,1284
2269.305677224971,1240
2271.180411124348,1253
2273.0547129687766,1222
2274.9285830379076,1237
2276.8020216114737,1246
2278.6750289692845,1239
2280.5476053912294,1225
2282.4197511572766,1246
2284.2914665474727,1241
2286.162751841943,1213
2288.0336073208937,1173
2289.904033264608,1189
2291.774029953448,1241
2293.6435976678554,1245
2295.5127366883517,1231
2297.381447295534,1250
2299.2497297700825,1296
2301.1175843927526,1215
2302.9850114443825,1245
2304.852011205885,1297
2306.7185839582553,1249
2308.5847299825664,1243
2310.4504495599676,1244
2312.3157429716925,1225
2314.1806104990483,1257
2316.0450524234247,1229
2317.9090690262888,1258
2319.772660589186,1251
2321.635827393742,1246
2323.498569721661,1280
2325.3608878547248,1212
2327.2227820747967,1280
2329.0842526638157,1296
2330.945299903803,1282
2332.805924076857,1289
2334.6661254651535,1229
2336.525904350951,1264
2338.3852610165827,1244
2340.244195744464,1254
2342.102708817088,1304
2343.9608005170253,1293
2345.8184711269287,1239
2347.675720929526,1292
2349.532550207628,1308
2351.38895924412,1269
2353.24494832197,1257
2355.100517724223,1240
2356.955667734004,1220
2358.810398634514,1283
2360.664710709037,1289
2362.5186042409337,1274
2364.3720795136437,1271
2366.225136810686,1278
2368.0777764156583,1274
2369.929998612237,1248
2371.7818036841777,1253
2373.633191915315,1228
2375.484163589562,1283
2377.3347189909114,1286
2379.184858403434,1289
2381.03458211128,1286
2382.8838903986775,1303
2384.732783549936,1344
2386.5812618494406,1281
2388.4293255816588,1321
2390.2769750311327,1287
2392.1242104824883,1289
2393.971032220427,1311
2395.8174405297295,1292
2397.6634356952563,1295
2399.509018001947,1294
2401.3541877348193,1315
2403.1989451789705,1269
2405.043290619576,1298
2406.8872243418905,1276
2408.730746631247,1314
2410.5738577730594,1299
2412.4165580528183,1342
2414.258847756095,1317
2416.100727168537,1284
2417.9421965758734,1339
2419.783256263912,1350
2421.623906518538,1277
2423.4641476257157,1314
2425.303979871491,1331
2427.143403541984,1386
2428.9824189233977,1324
2430.821026302012,1311
2432.6592259641866,1359
2434.497018196361,1347
2436.33440328505,1318
2438.171381516851,1316
2440.00795317844,1287
2441.844118556569,1357
2443.6798779380724,1378
2445.5152316098606,1340
2447.3501798589255,1304
2449.1847229723357,1298
2451.0188612372403,1309
2452.8525949408663,1326
2454.6859243705203,1322
2456.518849813587,1273
2458.3513715575314,1330
2460.183489889895,1352
2462.015205098301,1330
2463.8465174704493,1369
2465.67742729412,1316
2467.5079348571717,1290
2469.338040447542,1332
2471.1677443532476,1334
2472.9970468623833,1274
2474.825948263123,1314
2476.6544488437207,1295
2478.482548892508,1328
2480.310248697896,1322
2482.137548548374,1324
2483.9644487325118,1285
2485.790949538956,1330
2487.617051256433,1284
2489.44275417375,1360
2491.26805857979,1313
2493.0929647635157,1339
2494.917473013971,1329
2496.741583620276,1315
2498.5652968716304,1360
2500.3886130573137,1448
2502.2115324666834,1356
2504.0340553891765,1367
2505.856182114308,1266
2507.6779129316733,1299
2509.499248130945,1373
2511.3201880018764,1341
2513.140732834298,1340
2514.9608829181198,1374
2516.780638543331,1393
2518.6,1362
2520.418967578273,1418
2522.237541568376,1373
2524.0557222606144,1473
2525.8735099453706,1396
2527.6909049131086,1399
2529.507907454368,1381
2531.32451785977,1417
2533.140736420014,1350
2534.9565634258774,1421
2536.771999168218,1422
2538.5870439379714,1404
2540.4016980261526,1438
2542.2159617238544,1448
2544.02983532225,1390
2545.8433191125914,1480
2547.656413386209,1441
2549.4691184345115,1478
2551.2814345489874,1437
2553.093362021204,1476
2554.904901142808,1533
2556.716052205523,1469
2558.526815501153,1509
2560.3371913215824,1484
2562.147179958771,1496
2563.956781704761,1576
2565.7659968516705,1563
2567.5748256916986,1580
2569.3832685171224,1545
2571.1913256202984,1552
2572.9989972936614,1573
2574.806283829725,1570
2576.613185521084,1645
2578.4197026604074,1566
2580.2258355404483,1600
2582.031584454035,1587
2583.836949694077,1563
2585.6419315535613,1597
2587.4465303255533,1576
2589.2507463032002,1545
2591.0545797797245,1572
2592.8580310484303,1574
2594.6611004026995,1610
2596.463788135992,1613
2598.266094541849,1616
2600.0680199138874,1594
2601.869564545807,1650
2603.670728731383,1654
2605.4715127644704,1655
2607.2719169390048,1609
2609.071941548998,1592
2610.8715868885433,1627
2612.670853251811,1623
2614.469740933052,1587
2616.268250226594,1679
2618.0663814268455,1625
2619.864134828292,1600
2621.6615107255006,1662
2623.458509413115,1585
2625.2551311858597,1613
2627.0513763385347,1585
2628.8472451660223,1595
2630.6427379632833,1565
2632.4378550253564,1630
2634.232596647359,1525
2636.026963124488,1564
2637.8209547520187,1607
2639.6145718253065,1559
2641.407814639785,1530
2643.200683490966,1520
2644.9931786744414,1523
2646.7853004858807,1492
2648.577049221034,1538
2650.3684251757277,1482
2652.1594286458712,1479
2653.9500599274484,1409
2655.740319316525,1420
2657.5302071092437,1509
2659.3197236018286,1384
2661.10886909058,1432
2662.8976438718782,1390
2664.686048242183,1431
2666.4740824980327,1434
2668.2617469360443,1415
2670.0490418529134,1370
2671.8359675454153,1371
2673.622524310403,1400
2675.408712444811,1403
2677.1945322456495,1370
2678.979984010009,1340
2680.76506803506,1314
2682.5497846180497,1348
2684.334134056306,1368
2686.1181166472343,1327
2687.9017326883213,1331
2689.6849824771293,1408
2691.4678663113013,1318
2693.2503844885596,1313
2695.032537306705,1247
2696.8143250636167,1357
2698.5957480572542,1293
2700.3768065856534,1292
2702.1575009469316,1307
2703.937831439283,1277
2705.717798360982,1316
2707.4974020103837,1291
2709.276642685917,1271
2711.055520686095,1259
2712.834036309506,1246
2714.612189854819,1285
2716.389981620782,1261
2718.1674119062204,1258
2719.944481010041,1312
2721.721189231226,1285
2723.4975368688415,1265
2725.273524222027,1222
2727.0491515900053,1251
2728.824419272075,1273
2730.5993275676146,1300
2732.3738767760838,1226
2734.148067197016,1315
2735.921899130031,1238
2737.6953728748194,1238
2739.468488731156,1284
2741.2412469988926,1306
2743.0136479779617,1230
2744.785691968372,1236
2746.5573792702116,1268
2748.3287101836504,1248
2750.099685008934,1221
2751.870304046388,1281
2753.640567596418,1246
2755.4104759595057,1240
2757.1800294362156,1270
2758.949228327187,1264
2760.7180729331412,1222
2762.486563554877,1248
2764.254700493272,1244
2766.022484049284,1237
2767.789914523947,1284
2769.5569922183786,1254
2771.3237174337705,1238
2773.090090471394,1242
2774.8561116326036,1255
2776.6217812188274,1214
2778.3870995315756,1249
2780.1520668724356,1193
2781.9166835430747,1233
2783.6809498452394,1267
2785.444866080754,1255
2787.2084325515225,1212
2788.971649559527,1250
2790.73451740683,1193
2792.4970363955713,1179
2794.2592068279705,1224
2796.0210290063264,1235
2797.7825032330147,1270
2799.543629810493,1221
2801.304409041296,1217
2803.0648412280366,1240
2804.8249266734088,1235
2806.5846656801846,1231
2808.344058551212,1197
2810.1031055894246,1241
2811.8618070978273,1225
2813.6201633795085,1292
2815.378174737636,1253
2817.1358414754536,1258
2818.893163896285,1260
2820.6501423035334,1232
2822.4067770006814,1251
2824.1630682912883,1208
2825.9190164789957,1219
2827.6746218675207,1242
2829.429884760661,1255
2831.184805462294,1230
2832.9393842763743,1233
2834.693621506936,1245
2836.4475174580916,1247
2838.201072434034,1227
2839.954286739034,1255
2841.707160677441,1256
2843.459694553685,1225
2845.2118886722724,1240
2846.96374333779,1216
2848.7152588549034,1211
2850.4664355283567,1230
2852.217273662973,1220
2853.9677735636546,1231
2855.7179355353833,1222
2857.4677598832186,1228
2859.217246912299,1206
2860.9663969278427,1263
2862.715210235146,1163
2864.4636871395846,1206
2866.211827946614,1216
2867.9596329617652,1205
2869.7071024906536,1253
2871.4542368389684,1210
2873.20103631248,1219
2874.947501217038,1257
2876.6936318585695,1208
2878.4394285430812,1212
2880.1848915766604,1214
2881.9300212654707,1226
2883.6748179157553,1210
2885.4192818338374,1213
2887.1634133261173,1240
2888.907212699077,1233
2890.6506802592744,1240
2892.393816313348,1252
2894.1366211680142,1238
2895.8790951300693,1238
2897.621238506388,1251
2899.363051603925,1280
2901.1045347297118,1285
2902.8456881908596,1207
2904.58651229456,1249
2906.327007348081,1247
2908.067173658772,1238
2909.8070115340597,1258
2911.5465212814497,1194
2913.285703208527,1242
2915.0245576229563,1200
2916.7630848324807,1186
2918.5012851449196,1214
2920.2391588681758,1207
2921.976706310227,1181
2923.7139277791334,1239
2925.4508235830313,1228
2927.187394030137,1254
2928.923639428745,1195
2930.6595600872306,1223
2932.395156314046,1205
2934.1304284177218,1209
2935.8653767068713,1223
2937.6000014901815,1215
2939.3343030764227,1192
2941.068281774442,1243
2942.8019378931644,1249
2944.5352717415976,1274
2946.2682836288236,1251
2948.0009738640065,1243
2949.7333427563885,1210
2951.465390615289,1241
2953.1971177501086,1242
2954.9285244703265,1179
2956.6596110855,1196
2958.3903779052657,1210
2960.1208252393385,1153
2961.8509533975125,1216
2963.5807626896617,1261
2965.3102534257378,1243
2967.0394259157715,1179
2968.768280469873,1233
2970.496817398232,1189
2972.2250370111146,1219
2973.952939618869,1263
2975.6805255319196,1192
2977.4077950607707,1215
2979.134748516006,1231
2980.861386208289,1199
2982.587708448359,1218
2984.313715547037,1260
2986.039407815222,1253
2987.764785563891,1264
2989.489849104102,1244
2991.2145987469908,1199
2992.9390348037705,1241
2994.6631575857346,1244
2996.3869674042576,1200
2998.1104645707887,1195
2999.83364939686,1227
3001.5565221940783,1222
3003.2790832741334,1206
3005.0013329487924,1233
3006.7232715298996,1216
3008.4448993293804,1213
3010.166216659239,1156
3011.887223831558,1186
3013.607921158498,1168
3015.3283089522993,1163
3017.0483875252826,1202
3018.7681571898443,1224
3020.4876182584626,1222
3022.2067710436927,1223
3023.9256158581707,1190
3025.644153014609,1224
3027.362382825801,1219
3029.0803056046193,1220
3030.797921664012,1233
3032.5152313170106,1228
3034.2322348767225,1182
3035.9489326563353,1199
3037.665324969115,1198
3039.3814121284063,1217
3041.097194447633,1243
3042.812672240299,1198
3044.5278458199855,1200
3046.2427155003525,1259
3047.9572815951406,1207
3049.671544418167,1187
3051.38550428333,1207
3053.0991615046073,1205
3054.812516396051,1184
3056.5255692717974,1223
3058.2383204460575,1205
3059.9507702331257,1216
3061.662918947372,1258
3063.3747669032446,1265
3065.0863144152736,1231
3066.7975617980674,1202
3068.508509366309,1227
3070.219157434767,1274
3071.9295063182844,1180
3073.639556331785,1226
3075.3493077902704,1275
3077.058761008821,1194
3078.7679163025964,1259
3080.476773986837,1239
3082.1853343768594,1224
3083.89359778806,1192
3085.6015645359153,1153
3087.3092349359786,1282
3089.016609303884,1238
3090.7236879553434,1155
3092.4304712061476,1175
3094.136959372166,1205
3095.843152769349,1220
3097.5490517137237,1187
3099.2546565213966,1228
3100.959967508554,1244
3102.66498499146,1196
3104.3697092864577,1219
3106.0741407099695,1177
3107.778279578498,1207
3109.482126208622,1218
3111.1856809170004,1221
3112.8889440203716,1275
3114.5919158355528,1228
3116.294596679439,1226
3117.996986869006,1268
3119.6990867213062,1230
3121.4008965534726,1198
3123.102416682717,1191
3124.803647426329,1262
3126.5045891016784,1268
3128.205242026213,1281
3129.90560651746,1236
3131.605682893025,1242
3133.3054714705922,1226
3135.0049725679282,1206
3136.7041865028714,1193
3138.4031135933465,1228
3140.101754157353,1290
3141.800108512971,1232
3143.498176978357,1252
3145.1959598717494,1210
3146.8934575114636,1221
3148.5906702158954,1201
3150.2875983035183,1192
3151.9842420928853,1208
3153.680601902627,1216
3155.376678051456,1184
3157.07247085816,1187
3158.767980641609,1213
3160.463207720748,1137
3162.158152414606,1231
3163.8528150422862,1250
3165.5471959229726,1246
3167.2412953759303,1174
3168.9351137204976,1223
3170.628651276098,1225
3172.3219083622307,1227
3174.014885298474,1218
3175.707582404485,1224
3177.4000000000005,1209
3179.092138404835,1169
3180.7839979388846,1222
3182.47557892212,1226
3184.166881674594,1181
3185.8579065164386,1192
3187.5486537678626,1261
3189.2391237491547,1237
3190.9293167806827,1217
3192.6192331828934,1199
3194.3088732763117,1143
3195.998237381542,1196
3197.687325819268,1205
3199.376138910251,1221
3201.064676975334,1217
3202.7529403354347,1186
3204.4409293115523,1249
3206.1286442247647,1196
3207.816085396229,1203
3209.5032531471825,1172
3211.190147798936,1151
3212.8767696728846,1178
3214.5631190905015,1178
3216.2491963733373,1142
3217.9350018430214,1175
3219.6205358212637,1131
3221.305798629851,1161
3222.990790590651,1165
3224.6755120256103,1198
3226.359963256751,1214
3228.0441446061795,1174
3229.7280563960758,1197
3231.411698948703,1201
3233.0950725863995,1198
3234.778177631587,1211
3236.461014406761,1149
3238.1435832345005,1213
3239.8258844374595,1195
3241.507918338374,1202
3243.1896852600576,1176
3244.8711855254023,1204
3246.552419457381,1186
3248.233387379042,1238
3249.914089613516,1175
3251.59452648401,1194
3253.274698313813,1195
3254.95460542629,1172
3256.6342481448855,1134
3258.313626793125,1190
3259.9927416946084,1181
3261.6715931730196,1199
3263.3501815521176,1185
3265.0285071557437,1168
3266.706570307815,1137
3268.3843713323286,1189
3270.0619105533615,1218
3271.739188295068,1157
3273.4162048816834,1170
3275.0929606375184,1172
3276.769455886966,1190
3278.445690954498,1199
3280.1216661646613,1202
3281.797381842087,1211
3283.4728383114807,1196
3285.1480358976296,1183
3286.8229749253996,1184
3288.4976557197333,1174
3290.172078605655,1208
3291.846243908266,1156
3293.5201519527463,1174
3295.193803064357,1181
3296.8671975684374,1162
3298.5403357904024,1180
3300.21321805575,1156
3301.8858446900567,1190
3303.558216018975,1222
3305.23033236824,1210
3306.9021940636603,1207
3308.57380143113,1142
3310.2451547966184,1190
3311.916254486174,1204
3313.5871008259246,1210
3315.2576941420766,1207
3316.9280347609147,1212
3318.5981230088046,1205
3320.2679592121895,1205
3321.9375436975924,1183
3323.606876791612,1176
3325.27595882093,1120
3326.944790112305,1205
3328.6133709925753,1187
3330.2817017886573,1190
3331.949782827547,1173
3333.617614436319,1182
3335.2851969421245,1179
3336.952530672199,1229
3338.619615953853,1239
3340.286453114475,1146
3341.9530424815357,1170
3343.619384382583,1241
3345.2854791452437,1190
3346.951327097224,1211
3348.6169285663073,1240
3350.2822838803577,1200
3351.947393367319,1203
3353.61225735521,1223
3355.2768761721345,1153
3356.9412501462693,1198
3358.605379605873,1204
3360.2692648792827,1175
3361.9329062949146,1256
3363.596304181263,1195
