CollectionTime,6/26/2024 4:10:17 PM
ExposureUsed,3
CalibratedSpectrum
-962.7078968117929,680
-959.9714848408522,743
-957.2358232597828,763
-954.5009119013725,723
-951.7667505983302,776
-949.0333391832855,777
-946.3006774887896,724
-943.5687653473143,784
-940.837602591253,800
-938.1071890529199,751
-935.3775245645503,776
-932.6486089583007,786
-929.9204420662485,784
-927.1930237203925,769
-924.4663537526524,740
-921.7404319948689,743
-919.0152582788041,754
-916.2908324361409,775
-913.5671542984834,770
-910.8442236973568,783
-908.1220404642074,796
-905.4006044304027,778
-902.679915427231,776
-899.959973285902,806
-897.2407778375464,827
-894.5223289132158,733
-891.8046263438832,680
-889.0876699604426,734
-886.3714595937089,689
-883.6559950744183,768
-880.9412762332282,725
-878.2273029007168,711
-875.5140749073835,764
-872.8015920836489,742
-870.0898542598545,750
-867.3788612662631,718
-864.6686129330585,676
-861.9591090903457,718
-859.2503495681506,687
-856.5423341964203,680
-853.8350628050229,754
-851.1285352237478,762
-848.4227512823054,707
-845.7177108103272,702
-843.0134136373656,706
-840.3098595928943,672
-837.6070485063082,663
-834.9049802069229,715
-832.2036545239757,681
-829.5030712866244,700
-826.8032303239481,721
-824.1041314649472,718
-821.4057745385428,711
-818.7081593735775,692
-816.0112857988148,718
-813.3151536429393,673
-810.6197627345566,703
-807.9251129021936,735
-805.2312039742981,725
-802.5380357792392,687
-799.8456081453069,705
-797.1539209007124,686
-794.462973873588,735
-791.772766891987,725
-789.083299783884,713
-786.3945723771743,703
-783.7065844996748,755
-781.0193359791231,736
-778.3328266431781,748
-775.6470563194197,758
-772.9620248353489,726
-770.2777320183878,734
-767.5941776958798,743
-764.9113616950891,779
-762.2292838432011,761
-759.5479439673222,720
-756.8673418944801,729
-754.1874774516235,735
-751.5083504656222,707
-748.8299607632671,748
-746.15230817127,760
-743.475392516264,720
-740.7992136248035,733
-738.1237713233636,772
-735.4490654383407,741
-732.7750957960521,816
-730.1018622227365,754
-727.4293645445534,774
-724.7576025875837,756
-722.0865761778291,757
-719.4162851412126,765
-716.7467293035781,760
-714.0779084906909,806
-711.409822528237,854
-708.7424712418238,780
-706.0758544569796,806
-703.4099719991541,772
-700.7448236937178,884
-698.0804093659622,870
-695.4167288411002,789
-692.7537819442656,810
-690.0915685005134,778
-687.4300883348199,792
-684.7693412720819,803
-682.1093271371178,844
-679.4500457546669,794
-676.7914969493897,763
-674.1336805458676,840
-671.4765963686034,850
-668.8202442420206,829
-666.1646239904642,847
-663.5097354382001,889
-660.8555784094151,817
-658.2021527282176,859
-655.5494582186366,873
-652.8974947046223,849
-650.2462620100463,885
-647.5957599587009,869
-644.9459883742998,867
-642.2969470804776,845
-639.6486359007902,870
-637.0010546587141,918
-634.3542031776476,848
-631.7080812809096,883
-629.0626887917401,911
-626.4180255333008,806
-623.7740913286734,812
-621.1308860008619,825
-618.4884093727904,829
-615.8466612673046,840
-613.2056415071715,821
-610.5653499150785,816
-607.9257863136347,890
-605.28695052537,864
-602.6488423727357,826
-600.0114616781036,826
-597.3748082637674,852
-594.7388819519412,887
-592.1036825647604,853
-589.4692099242818,858
-586.8354638524829,875
-584.2024441712624,826
-581.5701507024403,832
-578.9385832677575,858
-576.3077416888759,892
-573.6776257873787,847
-571.0482353847704,837
-568.4195703024757,862
-565.7916303618415,875
-563.164415384135,933
-560.5379251905453,826
-557.9121596021815,852
-555.2871184400748,872
-552.6628015251767,935
-550.0392086783606,892
-547.4163397204204,883
-544.794194472071,833
-542.1727727539491,895
-539.5520743866118,924
-536.9320991905377,943
-534.3128469861261,966
-531.6943175936979,920
-529.0765108334947,914
-526.4594265256793,1054
-523.8430644903358,1224
-521.2274245474689,1328
-518.612506517005,1488
-515.9983102187913,1544
-513.3848354725959,1725
-510.77208209810846,1773
-508.16004991493924,1846
-505.5487387426199,2002
-502.9381484006032,2062
-500.3282787082628,2145
-497.71912948489364,2093
-495.1107005497117,2130
-492.5029917218539,1956
-489.8960028203786,1796
-487.28973366426493,1616
-484.68418407241325,1360
-482.07935386364494,1274
-479.47524285670266,1185
-476.87185087025,1204
-474.2691777228715,1238
-471.66722323307334,1193
-469.0659872192821,1137
-466.4654694998459,1120
-463.86566989303384,1120
-461.26658821703614,1081
-458.66822428996414,1082
-456.07057792985,1073
-453.4736489546475,1087
-450.877437182231,1142
-448.28194243039627,1104
-445.68716451686,1077
-443.09310325926003,1081
-440.49975847515555,1073
-437.9071299820263,1049
-435.31521759727354,1055
-432.72402113821954,1022
-430.13354042210767,1060
-427.5437752661022,1115
-424.95472548728867,1139
-422.36639090267386,1127
-419.7787713291855,1109
-417.1918665836721,1080
-414.60567648290385,1203
-412.0202008435715,1151
-409.4354394822874,1123
-406.8513922155845,1106
-404.26805885991723,1177
-401.685439231661,1175
-399.103533147112,1094
-396.522340422488,1131
-393.9418608739278,1120
-391.3620943174908,1107
-388.7830405691583,1159
-386.2046994448317,1127
-383.6270707603344,1075
-381.05015433141045,1023
-378.473949973725,963
-375.8984575028645,926
-373.32367673433623,836
-370.74960748356875,828
-368.1762495659117,758
-365.60360279663576,700
-363.03166699093265,606
-360.4604419639154,633
-357.8899275306178,651
-355.32012350599507,592
-352.7510297049233,564
-350.1826459421999,579
-347.61497203254316,570
-345.04800779059235,579
-342.4817530309082,577
-339.91620756797226,529
-337.35137121618743,538
-334.7872437898774,531
-332.22382510328725,547
-329.66111497058273,568
-327.09911320585127,594
-324.53781962310075,563
-321.9772340362607,625
-319.4173562591816,603
-316.8581861056348,595
-314.2997233893127,611
-311.7419679238294,662
-309.1849195227194,631
-306.62857799943856,612
-304.0729431673641,585
-301.51801483979375,567
-298.963792829947,597
-296.41027695096386,636
-293.85746701590574,699
-291.3053628377552,695
-288.7539642294155,642
-286.2032710037115,676
-283.65328297338897,676
-281.1039999511146,691
-278.5554217494762,807
-276.007548180983,710
-273.4603790580651,641
-270.9139141930734,623
-268.3681533982807,677
-265.8230964858798,699
-263.27874326798565,687
-260.7350935566336,685
-258.1921471637804,822
-255.6499039013039,841
-253.10836358100266,765
-250.56752601459698,753
-248.02739101372765,810
-245.48795838995704,793
-242.94922795476816,766
-240.41119951956557,741
-237.8738728956746,808
-235.33724789434166,874
-232.80132432673452,906
-230.2661020039418,1162
-227.73158073697357,1124
-225.19776033676033,882
-222.66464061415422,837
-220.1322213799284,808
-217.60050244477725,878
-215.06948361931552,959
-212.53916471408013,877
-210.00954553952818,914
-207.48062590603843,981
-204.9524056239104,1086
-202.4248845033651,967
-199.8980623545441,896
-197.37193898751036,930
-194.84651421224817,1069
-192.32178783866232,1035
-189.79775967657952,997
-187.27442953574644,1035
-184.7517972258321,953
-182.2298625564256,915
-179.7086253370378,1155
-177.18808537710026,1253
-174.66824248596583,1075
-172.14909647290835,1195
-169.6306471471229,1205
-167.11289431772548,1096
-164.59583779375328,1118
-162.07947738416453,1087
-159.5638128978386,1201
-157.04884414357605,1266
-154.53457093009854,1260
-152.02099306604828,1158
-149.50811035998936,1191
-146.99592262040665,1210
-144.48442965570587,1205
-141.97363127421409,1257
-139.46352728417958,1319
-136.95411749377126,1290
-134.44540171107985,1489
-131.93737974411636,1539
-129.43005140081357,1576
-126.92341648902493,1537
-124.41747481652521,1660
-121.91222619101006,1457
-119.40767042009657,1413
-116.90380731132257,1499
-114.40063667214702,1701
-111.8981583099503,1839
-109.3963720320337,1707
-106.89527764561933,1545
-104.39487495785067,1577
-101.89516377579241,1666
-99.39614390642998,1727
-96.89781515667039,1854
-94.40017733334128,2009
-91.90323024319173,2226
-89.40697369289148,2154
-86.91140748903172,1932
-84.41653143812482,1864
-81.92234534660395,2057
-79.42884902082358,2184
-76.93604226705907,2247
-74.4439248915071,2301
-71.95249670028534,2119
-69.46175749943245,2380
-66.97170709490854,2680
-64.48234529259423,2917
-61.99367189829195,2845
-59.50568671772464,2929
-57.01838955653636,3385
-54.53178022029283,3496
-52.045858514480074,3511
-49.560624244506016,3910
-47.07607721569923,3790
-44.59221723330904,3876
-42.10904410250669,3632
-39.62655762838392,4586
-37.14475761595372,6277
-34.66364387015028,6096
-32.18321619582866,6206
-29.70347439776515,6995
-27.224418280657005,8007
-24.74604764912317,11764
-22.26836230770266,18185
-19.7913620608565,27838
-17.315046712966478,41519
-14.83941606833514,47263
-12.36446993118659,65038
-9.89020810566592,65038
-7.416630395839093,65038
-4.94373660569363,65038
-2.471526539137585,65038
-6.821210263296962E-13,65038
2.47084320796705,65038
4.941003281093458,65038
7.410480415786196,65038
9.879274808531363,65038
12.347386655893956,65038
14.814816154518212,65038
17.28156350112681,65038
19.74762889252179,65038
22.21301252558385,65038
24.67771459727237,65038
27.141735304626195,47316
29.605074844762612,19183
32.06773341487792,15650
34.52971121224755,11720
36.99100843422559,9563
39.45162527824516,8757
41.91156194181792,9375
44.370818622535126,11350
46.82939551806646,12173
49.287292826160524,13628
51.74451074464503,12372
54.201049471426245,10120
56.65690920448981,7442
59.112090141899785,4379
61.56659248179983,3724
64.02041642241159,3672
66.4735621620365,4075
68.92602989905402,3405
71.37781983192338,3259
73.82893215918205,3101
76.27936707944684,3395
78.72912479141326,4278
81.17820549385567,4081
83.62660938562783,3658
86.07433666566146,2842
88.5213875329681,3269
90.96776218663751,3491
93.41346082583925,3020
95.85848364982041,3034
98.30283085790859,2443
100.7465026495089,2883
103.18949922410604,2932
105.63182078126385,2264
108.07346752062438,2565
110.51443964190923,2613
112.95473734491827,2327
115.39436082953114,1935
117.83331029570547,2240
120.27158594347827,2071
122.7091879729652,2130
125.1461165843615,1881
127.58237197794062,1704
130.01795435405518,1444
132.4528639131364,1481
134.88710085569494,1659
137.32066538231982,1738
139.75355769367923,1736
142.1857779905207,1858
144.61732647366978,1774
147.04820334403132,1758
149.47840880258934,1585
151.90794305040674,1911
154.33680628862487,2025
156.76499871846443,1727
159.19252054122433,1779
161.61937195828352,2137
164.04555317109896,1979
166.47106438120693,2197
168.89590579022217,2654
171.320077599839,2724
173.7435800118302,2663
176.16641322804742,2693
178.58857745042144,2664
181.01007288096173,2949
183.43089972175687,2949
185.85105817497413,2991
188.27054844285988,3152
190.6893707277394,2988
193.10752523201643,2922
195.5250121581745,3149
197.9418317087751,3277
200.3579840864594,3152
202.7734694939469,3123
205.18828813403627,3244
207.6024402096051,3096
210.01592592360964,3304
212.42874547908548,3184
214.84089907914665,3050
217.2523869269868,2984
219.66320922587727,3049
222.0733661791695,3188
224.48285799029293,3085
226.8916848627572,3168
229.29984700014882,3387
231.7073446061355,3310
234.11417788446204,3378
236.520347038953,3287
238.92585227351185,3555
241.33069379212054,3690
243.73487179884035,3723
246.1383864978112,3584
248.541238093252,3597
250.9434267894609,3742
253.34495279081432,3869
255.74581630176783,3824
258.1460175268563,3919
260.54555667069314,3919
262.9444339379703,3724
265.3426495334594,3723
267.7402036620107,3636
270.1370965285529,3584
272.53332833809407,3233
274.9288992957214,3216
277.32380960660055,3074
279.718059475976,2975
282.1116491091717,2966
284.5045787115897,2927
286.89684848871195,3017
289.2884586460981,2926
291.67940938938807,2907
294.0697009242996,2883
296.4593334566299,2852
298.84830719225477,2872
301.23662233712923,2813
303.6242790972866,2894
306.01127767884,2803
308.39761828798066,2789
310.78330113097934,2746
313.16832641418534,2648
315.5526943440269,2571
317.9364051270112,2691
320.3194589697242,2548
322.70185607883093,2575
325.0835966610754,2604
327.4646809232805,2504
329.8451090723478,2482
332.2248813152577,2413
334.6039978590701,2441
336.9824589109231,2510
339.36026467803447,2506
341.7374153677,2426
344.113911187295,2292
346.48975234427337,2334
348.8649390461686,2319
351.2394715005918,2386
353.61334991523415,2301
355.9865744978655,2289
358.35914545633375,2274
360.73106299856715,2308
363.10232733257146,2327
365.47293866643247,2321
367.84289720831396,2292
370.2122031664593,2310
372.5808567491905,2154
374.9488581649083,2217
377.31620762209275,2195
379.6829053293021,2256
382.0489514951745,2216
384.4143463284262,2233
386.7790900378528,2242
389.14318283232853,2186
391.50662492080653,2213
393.86941651231916,2163
396.23155781597745,2197
398.5930490409713,2128
400.9538903965696,2148
403.3140820921202,2142
405.6736243370498,2212
408.03251734086336,2170
410.3907613131465,1994
412.74835646356166,2050
415.10530300185144,2066
417.4616011378372,2032
419.81725108141893,2102
422.1722530425758,2072
424.5266072313656,2105
426.880313857925,2076
429.2333731324701,2072
431.58578526529516,2066
433.9375504667738,2014
436.2886689473588,2142
438.63914091758113,1959
440.9889665880513,2026
443.33814616945835,2031
445.68667987257015,2096
448.03456790823395,2025
450.3818104873759,2014
452.72840782100013,2105
455.07436012019105,2029
457.41966759611057,2030
459.7643304600007,2101
462.10834892318155,2012
464.4517231970525,2026
466.79445349309174,2048
469.1365400228566,2035
471.4779829979826,2147
473.81878263018564,2139
476.15893913125876,2097
478.4984527130747,2056
480.8373235875855,2159
483.17555196682144,2247
485.5131380628919,2164
487.8500820879857,2300
490.1863842543697,2454
492.52204477439034,2624
494.8570638604725,2795
497.1914417251204,3116
499.52517858091653,3272
501.85827464052306,3624
504.19073011668036,3739
506.5225452222086,3887
508.85372017000566,3826
511.18425517304956,3886
513.514150444396,3865
515.8434061971808,4334
518.1720226446176,4780
520.4999999999999,5015
522.8273384766991,5324
525.1540382881666,5545
527.480099647932,5271
529.8055227696037,4763
532.1303078668694,3351
534.454455153496,2518
536.777964843328,2170
539.1008371502907,2119
541.4230722883866,1969
543.744670471698,1953
546.0656319143858,1981
548.3859568306899,1970
550.7056454349294,1981
553.0246979415016,1913
555.3431145648834,1894
557.6608955196306,1886
559.978041020377,1834
562.2945512818363,1792
564.6104265188006,1839
566.9256669461412,1817
569.2402727788082,1843
571.5542442318302,1854
573.8675815203156,1877
576.1802848594508,1805
578.4923544645015,1831
580.8037905508126,1790
583.114593333807,1849
585.4247630289875,1856
587.7342998519354,1870
590.0432040183106,1761
592.3514757438526,1830
594.6591152443794,1889
596.9661227357875,1884
599.2724984340531,1842
601.578242555231,1812
603.8833553154542,1838
606.1878369309362,1799
608.4916876179676,1907
610.7949075929192,1894
613.0974970722403,1919
615.3994562724587,1840
617.7007854101818,1867
620.0014847020951,1895
622.3015543649641,1868
624.6009946156324,1862
626.8998056710224,1881
629.1979877481361,1873
631.4955410640538,1833
633.7924658359349,1882
636.0887622810175,1868
638.3844306166192,1895
640.6794710601358,1904
642.9738838290426,1815
645.2676691408932,1965
647.5608272133207,1910
649.853358264037,1871
652.1452625108324,1922
654.4365401715764,1895
656.7271914642178,1881
659.0172166067838,1945
661.3066158173809,1977
663.5953893141935,1935
665.8835373154867,1952
668.1710600396028,1934
670.4579577049639,1896
672.7442305300709,1982
675.0298787335033,1926
677.3149025339197,1972
679.599302150058,1953
681.8830778007342,1957
684.1662297048437,2019
686.4487580813608,1919
688.7306631493387,1909
691.0119451279091,1803
693.2926042362834,1906
695.5726406937516,1954
697.8520547196814,1953
700.1308465335215,1932
702.4090163547982,1896
704.6865644031171,1918
706.9634908981619,1955
709.2397960596965,1897
711.5154801075631,1928
713.7905432616823,1914
716.0649857420548,1891
718.3388077687592,1897
720.612009561953,1835
722.8845913418733,1861
725.1565533288352,1883
727.427895743234,1931
729.6986188055427,1970
731.9687227363137,1909
734.238207756178,1937
736.5070740858458,1895
738.7753219461066,1847
741.0429515578281,1830
743.3099631419569,1954
745.5763569195191,1915
747.8421331116193,1950
750.1072919394409,1872
752.3718336242467,1873
754.6357583873777,1906
756.8990664502545,1821
759.1617580343765,1889
761.423833361321,1887
763.6852926527457,1915
765.9461361303862,1928
768.206364016058,1841
770.4659765316536,1918
772.7249738991469,1918
774.9833563405886,1955
777.2411240781092,1933
779.4982773339183,1912
781.7548163303044,1906
784.010741289634,2002
786.2660524343538,2004
788.5207499869881,1925
790.7748341701416,1927
793.0283052064964,1896
795.2811633188143,1955
797.5334087299362,1888
799.7850416627813,1942
802.0360623403484,1925
804.2864709857143,1876
806.5362678220353,1947
808.7854530725468,1882
811.0340269605625,1843
813.2819897094754,1847
815.5293415427581,1936
817.77608268396,1876
820.0222133567116,1911
822.2677337847211,1870
824.5126441917765,1883
826.7569448017433,1901
829.0006358385675,1934
831.2437175262731,1900
833.4861900889629,1829
835.7280537508192,1958
837.9693087361026,1936
840.2099552691533,1900
842.4499935743896,1898
844.689423876309,1878
846.9282463994886,1855
849.1664613685833,1906
851.4040690083276,1908
853.6410695435349,1893
855.877463199097,1894
858.1132501999847,1923
860.3484307712487,1895
862.5830051380175,1941
864.8169735254988,1900
867.0503361589791,1913
869.2830932638243,1999
871.5152450654786,2005
873.7467917894654,1957
875.9777336613873,1979
878.2080709069252,1983
880.4378037518389,1920
882.666932421968,1939
884.8954571432301,1972
887.1233781416219,1967
889.3506956432192,1982
891.5774098741766,1985
893.803521060728,1991
896.0290294291852,1937
898.2539352059397,2039
900.4782386174619,2019
902.7019398903011,2023
904.925039251085,2002
907.147536926521,1961
909.3694331433943,1956
911.59072812857,1923
913.8114221089921,1954
916.0315153116827,1949
918.2510079637437,1925
920.4699002923547,1941
922.6881925247761,1916
924.905884888345,1980
927.1229776104793,1958
929.3394709186747,1946
931.555365040506,1980
933.7706602036275,1912
935.9853566357709,2021
938.1994545647489,1935
940.4129542184515,1919
942.6258558248488,2005
944.8381596119883,1998
947.0498658079974,1979
949.2609746410825,1963
951.4714863395287,1926
953.6814011316998,1992
955.8907192460387,1932
958.0994409110671,2023
960.3075663553858,2023
962.5150958076741,1950
964.7220294966913,1836
966.928367651274,1897
969.1341105003388,1863
971.3392582728806,1887
973.5438111979742,1890
975.747769504772,1887
977.9511334225061,1798
980.153903180487,1780
982.3560790081052,1935
984.5576611348289,1875
986.7586497902058,1855
988.9590452038618,1818
991.158847605503,1833
993.3580572249133,1724
995.5566742919558,1751
997.7546990365728,1709
999.952131688785,1657
1002.1489724786926,1709
1004.3452216364743,1669
1006.5408793923874,1651
1008.7359459767691,1599
1010.9304216200343,1703
1013.1243065526781,1626
1015.3176010052733,1609
1017.510305208472,1541
1019.7024193930064,1602
1021.8939437896848,1584
1024.0848786293977,1557
1026.2752241431122,1544
1028.4649805618747,1602
1030.6541481168115,1583
1032.842727039127,1580
1035.0307175601051,1545
1037.2181199111074,1547
1039.4049343235752,1507
1041.591161029029,1521
1043.7768002590683,1576
1045.9618522453698,1559
1048.1463172196918,1513
1050.3301954138697,1507
1052.513487059818,1518
1054.69619238953,1500
1056.8783116350783,1481
1059.0598450286152,1513
1061.2407928023704,1506
1063.4211551886528,1444
1065.6009324198508,1551
1067.780124728432,1543
1069.9587323469414,1488
1072.1367555080046,1511
1074.314194444325,1533
1076.4910493886855,1527
1078.667320573947,1585
1080.843008233051,1474
1083.0181125990161,1507
1085.1926339049414,1432
1087.3665723840027,1432
1089.5399282694575,1492
1091.7127017946405,1461
1093.8848931929647,1410
1096.0565026979243,1492
1098.2275305430899,1461
1100.3979769621128,1476
1102.567842188722,1421
1104.737126456726,1388
1106.9058300000124,1415
1109.0739530525475,1462
1111.2414958483764,1456
1113.4084586216231,1397
1115.5748416064907,1423
1117.7406450372605,1436
1119.9058691482942,1421
1122.0705141740304,1394
1124.2345803489884,1410
1126.3980679077658,1397
1128.5609770850388,1463
1130.7233081155623,1383
1132.8850612341707,1370
1135.0462366757774,1360
1137.2068346753745,1350
1139.3668554680326,1444
1141.526299288901,1374
1143.68516637321,1365
1145.8434569562655,1409
1148.001171273455,1368
1150.158309560244,1354
1152.3148720521767,1389
1154.470858984876,1366
1156.626270594044,1397
1158.7811071154629,1330
1160.9353687849912,1362
1163.089055838569,1382
1165.242168512213,1458
1167.3947070420209,1403
1169.5466716641677,1392
1171.6980626149075,1394
1173.8488801305748,1390
1175.9991244475814,1370
1178.1487958024186,1416
1180.2978944316555,1408
1182.4464205719428,1341
1184.5943744600072,1362
1186.7417563326567,1314
1188.8885664267755,1317
1191.0348049793297,1414
1193.1804722273619,1341
1195.325568407995,1354
1197.4700937584303,1393
1199.614048515948,1318
1201.7574329179074,1373
1203.900247201746,1370
1206.042491604982,1372
1208.1841663652099,1388
1210.3252717201053,1364
1212.465807907422,1386
1214.6057751649923,1370
1216.7451737307279,1315
1218.8840038426192,1345
1221.0222657387353,1356
1223.1599596572241,1425
1225.2970858363137,1408
1227.4336445143094,1395
1229.5696359295966,1369
1231.705060320639,1349
1233.8399179259786,1434
1235.9742089842384,1405
1238.107933734118,1367
1240.2410924143974,1363
1242.373685263935,1410
1244.5057125216676,1417
1246.6371744266116,1430
1248.7680712178621,1360
1250.898403134593,1425
1253.028170416058,1363
1255.1573733015875,1469
1257.2860120305932,1424
1259.4140868425648,1405
1261.54159797707,1428
1263.6685456737569,1411
1265.7949301723515,1432
1267.9207517126597,1407
1270.046010534565,1442
1272.1707068780306,1389
1274.2948409830983,1434
1276.4184130898889,1397
1278.541423438603,1408
1280.6638722695184,1479
1282.785759822993,1476
1284.9070863394636,1507
1287.0278520594447,1471
1289.1480572235314,1542
1291.2677020723963,1494
1293.3867868467923,1488
1295.5053117875495,1503
1297.623277135579,1469
1299.740683131868,1557
1301.8575300174857,1607
1303.973818033578,1562
1306.0895474213703,1539
1308.2047184221678,1560
1310.3193312773528,1575
1312.4333862283888,1551
1314.5468835168163,1522
1316.659823384255,1572
1318.7722060724045,1526
1320.8840318230418,1511
1322.9953008780249,1549
1325.1060134792888,1536
1327.2161698688478,1560
1329.3257702887959,1619
1331.4348149813054,1583
1333.5433041886276,1530
1335.6512381530933,1556
1337.7586171171101,1543
1339.8654413231675,1522
1341.9717110138317,1561
1344.0774264317488,1583
1346.1825878196432,1587
1348.2871954203192,1561
1350.3912494766587,1466
1352.4947502316231,1545
1354.5976979282532,1513
1356.7000928096686,1519
1358.8019351190665,1562
1360.9032250997243,1526
1363.0039629949988,1572
1365.1041490483235,1542
1367.2037835032133,1543
1369.3028666032606,1557
1371.401398592137,1556
1373.4993797135926,1587
1375.5968102114575,1566
1377.6936903296396,1566
1379.7900203121262,1490
1381.8858004029835,1520
1383.9810308463561,1517
1386.075711886469,1585
1388.1698437676241,1512
1390.2634267342032,1542
1392.356461030667,1522
1394.4489469015557,1526
1396.5408845914872,1553
1398.6322743451592,1578
1400.7231164073469,1612
1402.813411022907,1593
1404.903158436773,1581
1406.9923588939578,1597
1409.0810126395531,1629
1411.1691199187303,1626
1413.2566809767386,1649
1415.343696058907,1673
1417.4301654106425,1691
1419.5160892774315,1618
1421.6014679048399,1698
1423.6863015385125,1701
1425.7705904241707,1622
1427.8543348076178,1688
1429.9375349347342,1726
1432.0201910514802,1750
1434.102303403894,1751
1436.1838722380944,1711
1438.2648978002767,1767
1440.3453803367174,1735
1442.4253200937692,1801
1444.5047173178677,1810
1446.5835722555234,1872
1448.6618851533285,1895
1450.739656257952,1915
1452.8168858161434,1955
1454.8935740747306,1857
1456.96972128062,1932
1459.045327680797,2005
1461.120393522327,1989
1463.1949190523528,2089
1465.2689045180973,2090
1467.3423501668608,2108
1469.415256246024,2072
1471.4876230030463,2111
1473.559450685465,2200
1475.6307395408976,2239
1477.7014898170391,2278
1479.771701761665,2302
1481.8413756226287,2416
1483.9105116478618,2442
1485.9791100853772,2375
1488.0471711832643,2483
1490.1146951896926,2498
1492.1816823529098,2516
1494.2481329212433,2564
1496.3140471430984,2600
1498.3794252669609,2620
1500.4442675413939,2615
1502.5085742150404,2637
1504.572345536622,2620
1506.6355817549388,2675
1508.6982831188702,2768
1510.7604498773744,2714
1512.8220822794883,2738
1514.8831805743293,2657
1516.9437450110909,2667
1519.003775839048,2862
1521.0632733075522,2730
1523.1222376660367,2808
1525.1806691640113,2778
1527.2385680510652,2892
1529.2959345768668,2859
1531.3527689911643,2929
1533.4090715437833,2955
1535.4648424846291,2957
1537.5200820636855,3035
1539.5747905310159,2986
1541.6289681367616,2973
1543.6826151311434,3106
1545.7357317644614,3103
1547.7883182870937,3160
1549.8403749494987,3278
1551.8919020022113,3333
1553.9428996958477,3252
1555.9933682811015,3254
1558.0433080087469,3372
1560.0927191296346,3386
1562.1416018946961,3486
1564.1899565549415,3566
1566.2377833614592,3471
1568.2850825654164,3553
1570.3318544180606,3586
1572.3780991707158,3422
1574.423817074788,3213
1576.4690083817595,3206
1578.5136733431923,3108
1580.5578122107272,2918
1582.601425236085,2897
1584.6445126710646,2698
1586.6870747675434,2560
1588.7291117774776,2390
1590.7706239529034,2349
1592.8116115459347,2244
1594.8520748087658,2151
1596.8920139936686,2094
1598.9314293529933,2105
1600.9703211391711,2000
1603.008689604711,1969
1605.0465350022005,1951
1607.0838575843068,1810
1609.1206576037753,1839
1611.1569353134305,1743
1613.1926909661765,1766
1615.2279248149953,1699
1617.2626371129481,1643
1619.2968281131757,1674
1621.3304980688963,1694
1623.3636472334088,1567
1625.39627586009,1591
1627.428384202396,1534
1629.459972513861,1598
1631.4910410480993,1538
1633.5215900588028,1528
1635.551619799744,1520
1637.5811305247717,1496
1639.6101224878166,1527
1641.6385959428862,1511
1643.6665511440683,1521
1645.693988345528,1468
1647.7209078015112,1467
1649.7473097663405,1427
1651.7731944944203,1468
1653.7985622402307,1416
1655.823413258333,1461
1657.847747803366,1448
1659.8715661300494,1398
1661.8948684931793,1378
1663.9176551476316,1494
1665.9399263483624,1425
1667.9616823504057,1381
1669.982923408873,1416
1672.0036497789574,1468
1674.0238617159293,1443
1676.043559475138,1462
1678.0627433120121,1453
1680.081413482059,1402
1682.0995702408654,1439
1684.117213844096,1436
1686.134344547495,1449
1688.1509626068864,1429
1690.1670682781705,1445
1692.182661817329,1386
1694.1977434804217,1412
1696.2123135235875,1424
1698.226372203043,1415
1700.2399197750851,1380
1702.2529564960905,1400
1704.2654826225112,1386
1706.277498410882,1402
1708.2890041178139,1440
1710.2999999999988,1446
1712.3104863142066,1387
1714.3204633172854,1420
1716.329931266163,1384
1718.3388904178469,1393
1720.3473410294214,1400
1722.3552833580516,1371
1724.3627176609807,1354
1726.3696441955308,1399
1728.3760632191033,1343
1730.3819749891782,1357
1732.3873797633146,1389
1734.3922777991502,1353
1736.3966693544012,1319
1738.4005546868639,1354
1740.4039340544127,1351
1742.406807715001,1344
1744.4091759266616,1334
1746.4110389475054,1370
1748.4123970357223,1331
1750.413250449582,1298
1752.4135994474318,1289
1754.4134442876993,1324
1756.4127852288902,1286
1758.4116225295893,1308
1760.4099564484595,1269
1762.407787244244,1326
1764.405115175764,1297
1766.4019405019203,1296
1768.3982634816916,1280
1770.3940843741357,1203
1772.3894034383907,1291
1774.3842209336717,1307
1776.378537119274,1309
1778.372352254571,1312
1780.3656665990156,1333
1782.3584804121397,1293
1784.3507939535534,1266
1786.3426074829463,1304
1788.3339212600863,1285
1790.3247355448211,1327
1792.3150505970766,1274
1794.3048666768573,1284
1796.2941840442477,1267
1798.2830029594106,1266
1800.2713236825884,1233
1802.2591464741004,1273
1804.2464715943465,1299
1806.2332993038058,1244
1808.2196298630352,1215
1810.2054635326708,1288
1812.190800573428,1282
1814.175641246101,1297
1816.1599858115628,1275
1818.1438345307652,1261
1820.127187664738,1235
1822.1100454745924,1257
1824.092408221516,1265
1826.0742761667766,1256
1828.055649571721,1276
1830.0365286977735,1255
1832.0169138064398,1222
1833.9968051593014,1288
1835.9762030180214,1270
1837.9551076443408,1254
1839.9335193000788,1242
1841.9114382471344,1306
1843.888864747485,1265
1845.8657990631878,1248
1847.842241456378,1278
1849.8181921892697,1247
1851.7936515241558,1277
1853.7686197234098,1266
1855.7430970494815,1206
1857.7170837649014,1244
1859.6905801322787,1246
1861.6635864143004,1270
1863.6361028737338,1273
1865.608129773424,1234
1867.5796673762961,1237
1869.5507159453537,1274
1871.521275743678,1270
1873.4913470344313,1273
1875.4609300808534,1306
1877.4300251462632,1250
1879.3986324940588,1263
1881.366752387717,1263
1883.3343850907936,1238
1885.3015308669228,1262
1887.268189979819,1263
1889.2343626932739,1266
1891.2000492711595,1331
1893.1652499774254,1318
1895.1299650761011,1255
1897.0941948312952,1317
1899.0579395071945,1254
1901.0211993680641,1306
1902.98397467825,1282
1904.9462657021745,1278
1906.9080727043415,1220
1908.869395949332,1238
1910.8302357018065,1306
1912.790592226504,1238
1914.7504657882428,1282
1916.7098566519212,1343
1918.6687650825133,1287
1920.6271913450764,1255
1922.5851357047422,1253
1924.5425984267245,1307
1926.499579776314,1277
1928.4560800188833,1275
1930.4120994198802,1282
1932.367638244833,1248
1934.32269675935,1288
1936.2772752291175,1325
1938.231373919899,1234
1940.1849930975404,1241
1942.1381330279637,1260
1944.0907939771696,1244
1946.0429762112412,1244
1947.9946799963363,1315
1949.9459055986945,1282
1951.896653284633,1201
1953.8469233205478,1254
1955.7967159729142,1281
1957.7460315082863,1267
1959.6948701932974,1311
1961.6432322946594,1245
1963.5911180791632,1213
1965.5385278136787,1231
1967.4854617651545,1336
1969.4319202006182,1283
1971.377903387176,1287
1973.3234115920136,1266
1975.268445082395,1229
1977.2130041256642,1309
1979.1570889892423,1208
1981.1006999406304,1250
1983.04383724741,1260
1984.986501177238,1238
1986.928691997853,1284
1988.8704099770712,1196
1990.811655382789,1179
1992.7524284829801,1197
1994.692729545698,1211
1996.6325588390755,1244
1998.5719166313224,1258
2000.5108031907307,1236
2002.4492187856677,1252
2004.387163684583,1222
2006.3246381560011,1212
2008.2616424685298,1193
2010.1981768908527,1208
2012.1342416917332,1262
2014.069837140014,1236
2016.0049635046162,1272
2017.9396210545406,1222
2019.8738100588666,1221
2021.8075307867502,1238
2023.740783507431,1247
2025.6735684902228,1211
2027.6058860045214,1207
2029.5377363198004,1229
2031.4691197056118,1251
2033.4000364315875,1174
2035.3304867674374,1256
2037.260470982952,1149
2039.189989347998,1224
2041.1190421325232,1211
2043.047629606554,1201
2044.9757520401945,1198
2046.9034097036288,1235
2048.8306028671195,1231
2050.7573318010086,1231
2052.683596775716,1184
2054.609398061742,1207
2056.5347359296647,1220
2058.4596106501403,1212
2060.384022493906,1224
2062.3079717317764,1219
2064.231458634646,1171
2066.1544834734873,1173
2068.077046519352,1241
2069.99914804337,1264
2071.9207883167524,1186
2073.8419676107865,1234
2075.7626861968406,1236
2077.6829443463607,1205
2079.6027423308715,1228
2081.522080421977,1247
2083.440958891362,1242
2085.359378010786,1199
2087.2773380520907,1194
2089.194839287196,1208
2091.111881988101,1192
2093.0284664268825,1225
2094.9445928756973,1188
2096.86026160678,1202
2098.775472892446,1204
2100.690227005088,1162
2102.604524217178,1180
2104.5183648012676,1245
2106.431749029985,1253
2108.34467717604,1175
2110.2571495122206,1227
2112.169166311393,1208
2114.080727846503,1189
2115.9918343905747,1237
2117.902486216711,1189
2119.8126835980956,1199
2121.722426807987,1188
2123.6317161197285,1247
2125.5405518067364,1237
2127.448934142509,1185
2129.356863400624,1180
2131.264339854737,1194
2133.1713637785815,1213
2135.077935445972,1184
2136.9840551308002,1245
2138.889723107037,1234
2140.7949396487334,1212
2142.699705030018,1152
2144.6040195250994,1220
2146.507883408264,1271
2148.4112969538774,1203
2150.3142604363848,1237
2152.2167741303097,1217
2154.1188383102535,1207
2156.0204532508997,1199
2157.9216192270064,1176
2159.822336513414,1200
2161.7226053850413,1220
2163.622426116884,1175
2165.5217989840185,1211
2167.4207242616,1213
2169.319202224862,1153
2171.2172331491165,1237
2173.1148173097563,1192
2175.0119549822507,1203
2176.90864644215,1226
2178.8048919650823,1305
2180.7006918267534,1200
2182.596046302952,1178
2184.4909556695407,1193
2186.3854202024645,1233
2188.279440177746,1222
2190.173015871487,1149
2192.066147559868,1177
2193.958835519149,1207
2195.851080025667,1206
2197.7428813558417,1233
2199.6342397861667,1239
2201.5251555932186,1213
2203.415629053651,1223
2205.3056604441986,1211
2207.19525004167,1201
2209.084398122958,1272
2210.9731049650327,1185
2212.861370844941,1230
2214.749196039812,1210
2216.636580826851,1268
2218.523525483344,1214
2220.410030286655,1194
2222.296095514226,1215
2224.1817214435805,1202
2226.066908352319,1200
2227.951656518121,1231
2229.835966218746,1212
2231.71983773203,1243
2233.6032713358913,1187
2235.486267308324,1237
2237.3688259274036,1212
2239.2509474712824,1208
2241.132632218193,1163
2243.013880446447,1203
2244.8946924344323,1195
2246.7750684606203,1229
2248.6550088035574,1220
2250.534513741871,1263
2252.413583554265,1208
2254.292218519526,1261
2256.170418916517,1244
2258.0481850241786,1250
2259.925517121534,1186
2261.8024154876825,1232
2263.678880401803,1264
2265.5549121431536,1250
2267.430510991071,1223
2269.305677224971,1241
2271.180411124348,1215
2273.0547129687766,1244
2274.9285830379076,1252
2276.8020216114737,1217
2278.6750289692845,1239
2280.5476053912294,1236
2282.4197511572766,1213
2284.2914665474727,1168
2286.162751841943,1251
2288.0336073208937,1236
2289.904033264608,1202
2291.774029953448,1197
2293.6435976678554,1177
2295.5127366883517,1211
2297.381447295534,1233
2299.2497297700825,1221
2301.1175843927526,1223
2302.9850114443825,1246
2304.852011205885,1249
2306.7185839582553,1157
2308.5847299825664,1214
2310.4504495599676,1232
2312.3157429716925,1197
2314.1806104990483,1256
2316.0450524234247,1309
2317.9090690262888,1216
2319.772660589186,1246
2321.635827393742,1289
2323.498569721661,1274
2325.3608878547248,1239
2327.2227820747967,1251
2329.0842526638157,1201
2330.945299903803,1290
2332.805924076857,1243
2334.6661254651535,1216
2336.525904350951,1233
2338.3852610165827,1267
2340.244195744464,1278
2342.102708817088,1243
2343.9608005170253,1218
2345.8184711269287,1219
2347.675720929526,1234
2349.532550207628,1230
2351.38895924412,1211
2353.24494832197,1249
2355.100517724223,1290
2356.955667734004,1222
2358.810398634514,1284
2360.664710709037,1261
2362.5186042409337,1204
2364.3720795136437,1283
2366.225136810686,1249
2368.0777764156583,1255
2369.929998612237,1248
2371.7818036841777,1265
2373.633191915315,1256
2375.484163589562,1292
2377.3347189909114,1250
2379.184858403434,1281
2381.03458211128,1239
2382.8838903986775,1275
2384.732783549936,1285
2386.5812618494406,1229
2388.4293255816588,1279
2390.2769750311327,1261
2392.1242104824883,1314
2393.971032220427,1252
2395.8174405297295,1290
2397.6634356952563,1278
2399.509018001947,1326
2401.3541877348193,1275
2403.1989451789705,1294
2405.043290619576,1247
2406.8872243418905,1280
2408.730746631247,1304
2410.5738577730594,1281
2412.4165580528183,1301
2414.258847756095,1247
2416.100727168537,1297
2417.9421965758734,1354
2419.783256263912,1289
2421.623906518538,1267
2423.4641476257157,1274
2425.303979871491,1282
2427.143403541984,1339
2428.9824189233977,1270
2430.821026302012,1318
2432.6592259641866,1315
2434.497018196361,1359
2436.33440328505,1334
2438.171381516851,1306
2440.00795317844,1306
2441.844118556569,1250
2443.6798779380724,1287
2445.5152316098606,1314
2447.3501798589255,1307
2449.1847229723357,1328
2451.0188612372403,1253
2452.8525949408663,1356
2454.6859243705203,1327
2456.518849813587,1349
2458.3513715575314,1294
2460.183489889895,1262
2462.015205098301,1303
2463.8465174704493,1295
2465.67742729412,1282
2467.5079348571717,1259
2469.338040447542,1307
2471.1677443532476,1317
2472.9970468623833,1313
2474.825948263123,1263
2476.6544488437207,1274
2478.482548892508,1291
2480.310248697896,1296
2482.137548548374,1308
2483.9644487325118,1306
2485.790949538956,1293
2487.617051256433,1321
2489.44275417375,1330
2491.26805857979,1354
2493.0929647635157,1361
2494.917473013971,1245
2496.741583620276,1339
2498.5652968716304,1288
2500.3886130573137,1332
2502.2115324666834,1300
2504.0340553891765,1327
2505.856182114308,1388
2507.6779129316733,1341
2509.499248130945,1377
2511.3201880018764,1338
2513.140732834298,1383
2514.9608829181198,1386
2516.780638543331,1346
2518.6,1349
2520.418967578273,1325
2522.237541568376,1398
2524.0557222606144,1351
2525.8735099453706,1350
2527.6909049131086,1356
2529.507907454368,1354
2531.32451785977,1410
2533.140736420014,1356
2534.9565634258774,1374
2536.771999168218,1313
2538.5870439379714,1394
2540.4016980261526,1462
2542.2159617238544,1427
2544.02983532225,1432
2545.8433191125914,1393
2547.656413386209,1440
2549.4691184345115,1472
2551.2814345489874,1422
2553.093362021204,1473
2554.904901142808,1401
2556.716052205523,1464
2558.526815501153,1450
2560.3371913215824,1480
2562.147179958771,1463
2563.956781704761,1530
2565.7659968516705,1480
2567.5748256916986,1487
2569.3832685171224,1545
2571.1913256202984,1564
2572.9989972936614,1570
2574.806283829725,1557
2576.613185521084,1557
2578.4197026604074,1574
2580.2258355404483,1494
2582.031584454035,1594
2583.836949694077,1565
2585.6419315535613,1530
2587.4465303255533,1592
2589.2507463032002,1560
2591.0545797797245,1614
2592.8580310484303,1616
2594.6611004026995,1608
2596.463788135992,1642
2598.266094541849,1616
2600.0680199138874,1618
2601.869564545807,1639
2603.670728731383,1584
2605.4715127644704,1687
2607.2719169390048,1610
2609.071941548998,1582
2610.8715868885433,1622
2612.670853251811,1616
2614.469740933052,1603
2616.268250226594,1626
2618.0663814268455,1529
2619.864134828292,1561
2621.6615107255006,1578
2623.458509413115,1593
2625.2551311858597,1637
2627.0513763385347,1591
2628.8472451660223,1529
2630.6427379632833,1520
2632.4378550253564,1556
2634.232596647359,1578
2636.026963124488,1539
2637.8209547520187,1512
2639.6145718253065,1480
2641.407814639785,1511
2643.200683490966,1441
2644.9931786744414,1432
2646.7853004858807,1501
2648.577049221034,1414
2650.3684251757277,1434
2652.1594286458712,1471
2653.9500599274484,1432
2655.740319316525,1413
2657.5302071092437,1414
2659.3197236018286,1402
2661.10886909058,1395
2662.8976438718782,1428
2664.686048242183,1414
2666.4740824980327,1398
2668.2617469360443,1398
2670.0490418529134,1348
2671.8359675454153,1384
2673.622524310403,1415
2675.408712444811,1410
2677.1945322456495,1390
2678.979984010009,1349
2680.76506803506,1364
2682.5497846180497,1309
2684.334134056306,1331
2686.1181166472343,1332
2687.9017326883213,1331
2689.6849824771293,1325
2691.4678663113013,1320
2693.2503844885596,1334
2695.032537306705,1318
2696.8143250636167,1285
2698.5957480572542,1312
2700.3768065856534,1276
2702.1575009469316,1268
2703.937831439283,1266
2705.717798360982,1283
2707.4974020103837,1266
2709.276642685917,1283
2711.055520686095,1270
2712.834036309506,1291
2714.612189854819,1274
2716.389981620782,1267
2718.1674119062204,1264
2719.944481010041,1309
2721.721189231226,1286
2723.4975368688415,1253
2725.273524222027,1243
2727.0491515900053,1242
2728.824419272075,1215
2730.5993275676146,1250
2732.3738767760838,1203
2734.148067197016,1236
2735.921899130031,1271
2737.6953728748194,1213
2739.468488731156,1271
2741.2412469988926,1305
2743.0136479779617,1257
2744.785691968372,1224
2746.5573792702116,1204
2748.3287101836504,1233
2750.099685008934,1211
2751.870304046388,1181
2753.640567596418,1226
2755.4104759595057,1239
2757.1800294362156,1241
2758.949228327187,1238
2760.7180729331412,1237
2762.486563554877,1240
2764.254700493272,1188
2766.022484049284,1183
2767.789914523947,1227
2769.5569922183786,1272
2771.3237174337705,1228
2773.090090471394,1210
2774.8561116326036,1234
2776.6217812188274,1201
2778.3870995315756,1225
2780.1520668724356,1219
2781.9166835430747,1162
2783.6809498452394,1224
2785.444866080754,1279
2787.2084325515225,1209
2788.971649559527,1204
2790.73451740683,1239
2792.4970363955713,1192
2794.2592068279705,1185
2796.0210290063264,1214
2797.7825032330147,1220
2799.543629810493,1233
2801.304409041296,1220
2803.0648412280366,1195
2804.8249266734088,1239
2806.5846656801846,1207
2808.344058551212,1185
2810.1031055894246,1238
2811.8618070978273,1201
2813.6201633795085,1187
2815.378174737636,1207
2817.1358414754536,1167
2818.893163896285,1242
2820.6501423035334,1189
2822.4067770006814,1221
2824.1630682912883,1195
2825.9190164789957,1196
2827.6746218675207,1238
2829.429884760661,1185
2831.184805462294,1261
2832.9393842763743,1176
2834.693621506936,1222
2836.4475174580916,1215
2838.201072434034,1161
2839.954286739034,1174
2841.707160677441,1216
2843.459694553685,1234
2845.2118886722724,1192
2846.96374333779,1231
2848.7152588549034,1209
2850.4664355283567,1170
2852.217273662973,1249
2853.9677735636546,1201
2855.7179355353833,1198
2857.4677598832186,1215
2859.217246912299,1210
2860.9663969278427,1196
2862.715210235146,1174
2864.4636871395846,1222
2866.211827946614,1178
2867.9596329617652,1202
2869.7071024906536,1192
2871.4542368389684,1181
2873.20103631248,1178
2874.947501217038,1230
2876.6936318585695,1158
2878.4394285430812,1221
2880.1848915766604,1174
2881.9300212654707,1222
2883.6748179157553,1222
2885.4192818338374,1199
2887.1634133261173,1205
2888.907212699077,1240
2890.6506802592744,1187
2892.393816313348,1203
2894.1366211680142,1193
2895.8790951300693,1253
2897.621238506388,1198
2899.363051603925,1212
2901.1045347297118,1143
2902.8456881908596,1164
2904.58651229456,1161
2906.327007348081,1194
2908.067173658772,1198
2909.8070115340597,1179
2911.5465212814497,1205
2913.285703208527,1197
2915.0245576229563,1154
2916.7630848324807,1173
2918.5012851449196,1206
2920.2391588681758,1211
2921.976706310227,1192
2923.7139277791334,1180
2925.4508235830313,1210
2927.187394030137,1242
2928.923639428745,1210
2930.6595600872306,1190
2932.395156314046,1265
2934.1304284177218,1189
2935.8653767068713,1184
2937.6000014901815,1182
2939.3343030764227,1260
2941.068281774442,1259
2942.8019378931644,1185
2944.5352717415976,1231
2946.2682836288236,1233
2948.0009738640065,1231
2949.7333427563885,1237
2951.465390615289,1226
2953.1971177501086,1218
2954.9285244703265,1207
2956.6596110855,1183
2958.3903779052657,1195
2960.1208252393385,1197
2961.8509533975125,1162
2963.5807626896617,1193
2965.3102534257378,1184
2967.0394259157715,1229
2968.768280469873,1212
2970.496817398232,1204
2972.2250370111146,1213
2973.952939618869,1175
2975.6805255319196,1216
2977.4077950607707,1217
2979.134748516006,1213
2980.861386208289,1232
2982.587708448359,1211
2984.313715547037,1221
2986.039407815222,1200
2987.764785563891,1215
2989.489849104102,1186
2991.2145987469908,1288
2992.9390348037705,1195
2994.6631575857346,1193
2996.3869674042576,1133
2998.1104645707887,1202
2999.83364939686,1224
3001.5565221940783,1217
3003.2790832741334,1177
3005.0013329487924,1235
3006.7232715298996,1204
3008.4448993293804,1184
3010.166216659239,1209
3011.887223831558,1130
3013.607921158498,1157
3015.3283089522993,1196
3017.0483875252826,1137
3018.7681571898443,1230
3020.4876182584626,1194
3022.2067710436927,1182
3023.9256158581707,1182
3025.644153014609,1177
3027.362382825801,1189
3029.0803056046193,1204
3030.797921664012,1213
3032.5152313170106,1196
3034.2322348767225,1230
3035.9489326563353,1203
3037.665324969115,1183
3039.3814121284063,1140
3041.097194447633,1164
3042.812672240299,1187
3044.5278458199855,1186
3046.2427155003525,1170
3047.9572815951406,1202
3049.671544418167,1193
3051.38550428333,1192
3053.0991615046073,1193
3054.812516396051,1199
3056.5255692717974,1210
3058.2383204460575,1227
3059.9507702331257,1234
3061.662918947372,1214
3063.3747669032446,1186
3065.0863144152736,1204
3066.7975617980674,1228
3068.508509366309,1201
3070.219157434767,1193
3071.9295063182844,1202
3073.639556331785,1226
3075.3493077902704,1178
3077.058761008821,1206
3078.7679163025964,1130
3080.476773986837,1180
3082.1853343768594,1145
3083.89359778806,1167
3085.6015645359153,1231
3087.3092349359786,1162
3089.016609303884,1182
3090.7236879553434,1178
3092.4304712061476,1187
3094.136959372166,1227
3095.843152769349,1203
3097.5490517137237,1171
3099.2546565213966,1205
3100.959967508554,1237
3102.66498499146,1189
3104.3697092864577,1203
3106.0741407099695,1214
3107.778279578498,1155
3109.482126208622,1206
3111.1856809170004,1196
3112.8889440203716,1175
3114.5919158355528,1198
3116.294596679439,1168
3117.996986869006,1243
3119.6990867213062,1158
3121.4008965534726,1218
3123.102416682717,1233
3124.803647426329,1184
3126.5045891016784,1205
3128.205242026213,1227
3129.90560651746,1236
3131.605682893025,1220
3133.3054714705922,1223
3135.0049725679282,1214
3136.7041865028714,1181
3138.4031135933465,1188
3140.101754157353,1204
3141.800108512971,1188
3143.498176978357,1215
3145.1959598717494,1197
3146.8934575114636,1164
3148.5906702158954,1152
3150.2875983035183,1200
3151.9842420928853,1208
3153.680601902627,1177
3155.376678051456,1193
3157.07247085816,1247
3158.767980641609,1180
3160.463207720748,1244
3162.158152414606,1230
3163.8528150422862,1168
3165.5471959229726,1217
3167.2412953759303,1217
3168.9351137204976,1175
3170.628651276098,1182
3172.3219083622307,1202
3174.014885298474,1145
3175.707582404485,1226
3177.4000000000005,1212
3179.092138404835,1209
3180.7839979388846,1202
3182.47557892212,1214
3184.166881674594,1184
3185.8579065164386,1185
3187.5486537678626,1170
3189.2391237491547,1200
3190.9293167806827,1175
3192.6192331828934,1143
3194.3088732763117,1187
3195.998237381542,1180
3197.687325819268,1175
3199.376138910251,1201
3201.064676975334,1164
3202.7529403354347,1203
3204.4409293115523,1228
3206.1286442247647,1169
3207.816085396229,1164
3209.5032531471825,1185
3211.190147798936,1155
3212.8767696728846,1148
3214.5631190905015,1183
3216.2491963733373,1152
3217.9350018430214,1188
3219.6205358212637,1210
3221.305798629851,1133
3222.990790590651,1147
3224.6755120256103,1163
3226.359963256751,1173
3228.0441446061795,1130
3229.7280563960758,1181
3231.411698948703,1193
3233.0950725863995,1160
3234.778177631587,1117
3236.461014406761,1178
3238.1435832345005,1217
3239.8258844374595,1181
3241.507918338374,1228
3243.1896852600576,1194
3244.8711855254023,1171
3246.552419457381,1138
3248.233387379042,1148
3249.914089613516,1189
3251.59452648401,1173
3253.274698313813,1178
3254.95460542629,1162
3256.6342481448855,1165
3258.313626793125,1114
3259.9927416946084,1117
3261.6715931730196,1175
3263.3501815521176,1134
3265.0285071557437,1113
3266.706570307815,1152
3268.3843713323286,1172
3270.0619105533615,1183
3271.739188295068,1168
3273.4162048816834,1185
3275.0929606375184,1157
3276.769455886966,1227
3278.445690954498,1177
3280.1216661646613,1167
3281.797381842087,1154
3283.4728383114807,1142
3285.1480358976296,1181
3286.8229749253996,1206
3288.4976557197333,1175
3290.172078605655,1116
3291.846243908266,1126
3293.5201519527463,1126
3295.193803064357,1116
3296.8671975684374,1180
3298.5403357904024,1135
3300.21321805575,1140
3301.8858446900567,1140
3303.558216018975,1147
3305.23033236824,1167
3306.9021940636603,1147
3308.57380143113,1189
3310.2451547966184,1131
3311.916254486174,1197
3313.5871008259246,1202
3315.2576941420766,1120
3316.9280347609147,1142
3318.5981230088046,1087
3320.2679592121895,1100
3321.9375436975924,1157
3323.606876791612,1155
3325.27595882093,1114
3326.944790112305,1152
3328.6133709925753,1134
3330.2817017886573,1145
3331.949782827547,1137
3333.617614436319,1186
3335.2851969421245,1131
3336.952530672199,1139
3338.619615953853,1161
3340.286453114475,1201
3341.9530424815357,1172
3343.619384382583,1174
3345.2854791452437,1183
3346.951327097224,1129
3348.6169285663073,1170
3350.2822838803577,1156
3351.947393367319,1178
3353.61225735521,1171
3355.2768761721345,1148
3356.9412501462693,1205
3358.605379605873,1143
3360.2692648792827,1188
3361.9329062949146,1172
3363.596304181263,1154
