CollectionTime,6/26/2024 4:10:37 PM
ExposureUsed,3
CalibratedSpectrum
-962.7078968117929,697
-959.9714848408522,757
-957.2358232597828,723
-954.5009119013725,769
-951.7667505983302,787
-949.0333391832855,809
-946.3006774887896,777
-943.5687653473143,799
-940.837602591253,779
-938.1071890529199,783
-935.3775245645503,754
-932.6486089583007,795
-929.9204420662485,776
-927.1930237203925,808
-924.4663537526524,774
-921.7404319948689,761
-919.0152582788041,812
-916.2908324361409,817
-913.5671542984834,793
-910.8442236973568,786
-908.1220404642074,768
-905.4006044304027,772
-902.679915427231,812
-899.959973285902,770
-897.2407778375464,809
-894.5223289132158,802
-891.8046263438832,765
-889.0876699604426,733
-886.3714595937089,732
-883.6559950744183,725
-880.9412762332282,747
-878.2273029007168,741
-875.5140749073835,756
-872.8015920836489,759
-870.0898542598545,726
-867.3788612662631,736
-864.6686129330585,732
-861.9591090903457,751
-859.2503495681506,731
-856.5423341964203,740
-853.8350628050229,754
-851.1285352237478,741
-848.4227512823054,725
-845.7177108103272,713
-843.0134136373656,765
-840.3098595928943,734
-837.6070485063082,749
-834.9049802069229,736
-832.2036545239757,739
-829.5030712866244,758
-826.8032303239481,765
-824.1041314649472,706
-821.4057745385428,745
-818.7081593735775,735
-816.0112857988148,747
-813.3151536429393,729
-810.6197627345566,746
-807.9251129021936,736
-805.2312039742981,719
-802.5380357792392,750
-799.8456081453069,730
-797.1539209007124,709
-794.462973873588,700
-791.772766891987,766
-789.083299783884,751
-786.3945723771743,733
-783.7065844996748,722
-781.0193359791231,705
-778.3328266431781,750
-775.6470563194197,759
-772.9620248353489,765
-770.2777320183878,728
-767.5941776958798,745
-764.9113616950891,745
-762.2292838432011,740
-759.5479439673222,737
-756.8673418944801,727
-754.1874774516235,739
-751.5083504656222,735
-748.8299607632671,746
-746.15230817127,737
-743.475392516264,740
-740.7992136248035,737
-738.1237713233636,772
-735.4490654383407,787
-732.7750957960521,774
-730.1018622227365,782
-727.4293645445534,756
-724.7576025875837,742
-722.0865761778291,786
-719.4162851412126,812
-716.7467293035781,778
-714.0779084906909,787
-711.409822528237,824
-708.7424712418238,838
-706.0758544569796,801
-703.4099719991541,798
-700.7448236937178,845
-698.0804093659622,855
-695.4167288411002,822
-692.7537819442656,832
-690.0915685005134,806
-687.4300883348199,846
-684.7693412720819,789
-682.1093271371178,825
-679.4500457546669,833
-676.7914969493897,869
-674.1336805458676,822
-671.4765963686034,852
-668.8202442420206,847
-666.1646239904642,858
-663.5097354382001,842
-660.8555784094151,791
-658.2021527282176,860
-655.5494582186366,902
-652.8974947046223,916
-650.2462620100463,899
-647.5957599587009,915
-644.9459883742998,933
-642.2969470804776,901
-639.6486359007902,867
-637.0010546587141,908
-634.3542031776476,928
-631.7080812809096,890
-629.0626887917401,889
-626.4180255333008,856
-623.7740913286734,915
-621.1308860008619,847
-618.4884093727904,889
-615.8466612673046,905
-613.2056415071715,863
-610.5653499150785,852
-607.9257863136347,906
-605.28695052537,853
-602.6488423727357,841
-600.0114616781036,861
-597.3748082637674,881
-594.7388819519412,882
-592.1036825647604,870
-589.4692099242818,856
-586.8354638524829,856
-584.2024441712624,866
-581.5701507024403,885
-578.9385832677575,889
-576.3077416888759,911
-573.6776257873787,834
-571.0482353847704,853
-568.4195703024757,870
-565.7916303618415,894
-563.164415384135,960
-560.5379251905453,890
-557.9121596021815,880
-555.2871184400748,880
-552.6628015251767,874
-550.0392086783606,871
-547.4163397204204,928
-544.794194472071,930
-542.1727727539491,893
-539.5520743866118,841
-536.9320991905377,915
-534.3128469861261,1003
-531.6943175936979,1007
-529.0765108334947,1018
-526.4594265256793,1096
-523.8430644903358,1176
-521.2274245474689,1410
-518.612506517005,1507
-515.9983102187913,1586
-513.3848354725959,1691
-510.77208209810846,1765
-508.16004991493924,1803
-505.5487387426199,1905
-502.9381484006032,2044
-500.3282787082628,2148
-497.71912948489364,2177
-495.1107005497117,2162
-492.5029917218539,2081
-489.8960028203786,1869
-487.28973366426493,1637
-484.68418407241325,1452
-482.07935386364494,1343
-479.47524285670266,1272
-476.87185087025,1298
-474.2691777228715,1191
-471.66722323307334,1159
-469.0659872192821,1176
-466.4654694998459,1155
-463.86566989303384,1156
-461.26658821703614,1147
-458.66822428996414,1136
-456.07057792985,1136
-453.4736489546475,1143
-450.877437182231,1139
-448.28194243039627,1110
-445.68716451686,1074
-443.09310325926003,1082
-440.49975847515555,1123
-437.9071299820263,1059
-435.31521759727354,1115
-432.72402113821954,1082
-430.13354042210767,1124
-427.5437752661022,1116
-424.95472548728867,1175
-422.36639090267386,1168
-419.7787713291855,1171
-417.1918665836721,1161
-414.60567648290385,1171
-412.0202008435715,1154
-409.4354394822874,1161
-406.8513922155845,1156
-404.26805885991723,1175
-401.685439231661,1162
-399.103533147112,1139
-396.522340422488,1217
-393.9418608739278,1153
-391.3620943174908,1188
-388.7830405691583,1169
-386.2046994448317,1169
-383.6270707603344,1068
-381.05015433141045,980
-378.473949973725,948
-375.8984575028645,895
-373.32367673433623,804
-370.74960748356875,751
-368.1762495659117,692
-365.60360279663576,679
-363.03166699093265,609
-360.4604419639154,616
-357.8899275306178,598
-355.32012350599507,533
-352.7510297049233,551
-350.1826459421999,574
-347.61497203254316,573
-345.04800779059235,531
-342.4817530309082,526
-339.91620756797226,513
-337.35137121618743,498
-334.7872437898774,543
-332.22382510328725,470
-329.66111497058273,527
-327.09911320585127,527
-324.53781962310075,514
-321.9772340362607,525
-319.4173562591816,586
-316.8581861056348,646
-314.2997233893127,620
-311.7419679238294,633
-309.1849195227194,614
-306.62857799943856,578
-304.0729431673641,554
-301.51801483979375,554
-298.963792829947,564
-296.41027695096386,622
-293.85746701590574,635
-291.3053628377552,683
-288.7539642294155,629
-286.2032710037115,627
-283.65328297338897,602
-281.1039999511146,641
-278.5554217494762,748
-276.007548180983,670
-273.4603790580651,613
-270.9139141930734,575
-268.3681533982807,630
-265.8230964858798,659
-263.27874326798565,601
-260.7350935566336,629
-258.1921471637804,700
-255.6499039013039,720
-253.10836358100266,697
-250.56752601459698,675
-248.02739101372765,762
-245.48795838995704,853
-242.94922795476816,792
-240.41119951956557,687
-237.8738728956746,812
-235.33724789434166,860
-232.80132432673452,912
-230.2661020039418,978
-227.73158073697357,929
-225.19776033676033,744
-222.66464061415422,822
-220.1322213799284,775
-217.60050244477725,741
-215.06948361931552,773
-212.53916471408013,757
-210.00954553952818,698
-207.48062590603843,770
-204.9524056239104,842
-202.4248845033651,861
-199.8980623545441,902
-197.37193898751036,824
-194.84651421224817,925
-192.32178783866232,960
-189.79775967657952,911
-187.27442953574644,917
-184.7517972258321,862
-182.2298625564256,830
-179.7086253370378,951
-177.18808537710026,998
-174.66824248596583,1083
-172.14909647290835,1112
-169.6306471471229,1083
-167.11289431772548,994
-164.59583779375328,1051
-162.07947738416453,1071
-159.5638128978386,1009
-157.04884414357605,1075
-154.53457093009854,1087
-152.02099306604828,1043
-149.50811035998936,1002
-146.99592262040665,1140
-144.48442965570587,1236
-141.97363127421409,1247
-139.46352728417958,1364
-136.95411749377126,1367
-134.44540171107985,1626
-131.93737974411636,1571
-129.43005140081357,1534
-126.92341648902493,1550
-124.41747481652521,1669
-121.91222619101006,1588
-119.40767042009657,1526
-116.90380731132257,1416
-114.40063667214702,1567
-111.8981583099503,1730
-109.3963720320337,1717
-106.89527764561933,1511
-104.39487495785067,1600
-101.89516377579241,1823
-99.39614390642998,1885
-96.89781515667039,1721
-94.40017733334128,2079
-91.90323024319173,2042
-89.40697369289148,1768
-86.91140748903172,1679
-84.41653143812482,1814
-81.92234534660395,2012
-79.42884902082358,2165
-76.93604226705907,2152
-74.4439248915071,2319
-71.95249670028534,2236
-69.46175749943245,2371
-66.97170709490854,2520
-64.48234529259423,2682
-61.99367189829195,2852
-59.50568671772464,3029
-57.01838955653636,3165
-54.53178022029283,3094
-52.045858514480074,3204
-49.560624244506016,4195
-47.07607721569923,3920
-44.59221723330904,3737
-42.10904410250669,3209
-39.62655762838392,4074
-37.14475761595372,5372
-34.66364387015028,5645
-32.18321619582866,6005
-29.70347439776515,7171
-27.224418280657005,7726
-24.74604764912317,10958
-22.26836230770266,15970
-19.7913620608565,25525
-17.315046712966478,38663
-14.83941606833514,46231
-12.36446993118659,65037
-9.89020810566592,65037
-7.416630395839093,65037
-4.94373660569363,65037
-2.471526539137585,65037
-6.821210263296962E-13,65037
2.47084320796705,65037
4.941003281093458,65037
7.410480415786196,65037
9.879274808531363,65037
12.347386655893956,65037
14.814816154518212,65037
17.28156350112681,65037
19.74762889252179,65037
22.21301252558385,65037
24.67771459727237,65037
27.141735304626195,38908
29.605074844762612,13926
32.06773341487792,12023
34.52971121224755,8782
36.99100843422559,8092
39.45162527824516,8209
41.91156194181792,8456
44.370818622535126,10307
46.82939551806646,11494
49.287292826160524,13078
51.74451074464503,11484
54.201049471426245,9300
56.65690920448981,7637
59.112090141899785,4623
61.56659248179983,3926
64.02041642241159,3257
66.4735621620365,3561
68.92602989905402,3144
71.37781983192338,2790
73.82893215918205,2781
76.27936707944684,3209
78.72912479141326,3511
81.17820549385567,3199
83.62660938562783,3154
86.07433666566146,2527
88.5213875329681,3075
90.96776218663751,3093
93.41346082583925,3115
95.85848364982041,3006
98.30283085790859,2112
100.7465026495089,2422
103.18949922410604,2936
105.63182078126385,2336
108.07346752062438,2853
110.51443964190923,2565
112.95473734491827,2052
115.39436082953114,2058
117.83331029570547,1957
120.27158594347827,2006
122.7091879729652,2044
125.1461165843615,1704
127.58237197794062,1625
130.01795435405518,1471
132.4528639131364,1365
134.88710085569494,1541
137.32066538231982,1686
139.75355769367923,1552
142.1857779905207,1673
144.61732647366978,1666
147.04820334403132,1624
149.47840880258934,1477
151.90794305040674,1659
154.33680628862487,1845
156.76499871846443,1726
159.19252054122433,1890
161.61937195828352,2134
164.04555317109896,2086
166.47106438120693,2361
168.89590579022217,2746
171.320077599839,2741
173.7435800118302,2585
176.16641322804742,2717
178.58857745042144,2982
181.01007288096173,3029
183.43089972175687,2948
185.85105817497413,2856
188.27054844285988,2965
190.6893707277394,3027
193.10752523201643,3077
195.5250121581745,3313
197.9418317087751,3266
200.3579840864594,3178
202.7734694939469,3103
205.18828813403627,3156
207.6024402096051,3190
210.01592592360964,3104
212.42874547908548,3162
214.84089907914665,2956
217.2523869269868,3077
219.66320922587727,3090
222.0733661791695,3084
224.48285799029293,3007
226.8916848627572,3207
229.29984700014882,3442
231.7073446061355,3391
234.11417788446204,3410
236.520347038953,3417
238.92585227351185,3695
241.33069379212054,3772
243.73487179884035,3753
246.1383864978112,3582
248.541238093252,3608
250.9434267894609,3747
253.34495279081432,3761
255.74581630176783,3799
258.1460175268563,3861
260.54555667069314,3858
262.9444339379703,3768
265.3426495334594,3661
267.7402036620107,3636
270.1370965285529,3481
272.53332833809407,3350
274.9288992957214,3294
277.32380960660055,3066
279.718059475976,2881
282.1116491091717,2992
284.5045787115897,3073
286.89684848871195,3004
289.2884586460981,2970
291.67940938938807,2922
294.0697009242996,2974
296.4593334566299,2954
298.84830719225477,2862
301.23662233712923,2922
303.6242790972866,2833
306.01127767884,2793
308.39761828798066,2836
310.78330113097934,2809
313.16832641418534,2729
315.5526943440269,2684
317.9364051270112,2639
320.3194589697242,2546
322.70185607883093,2446
325.0835966610754,2527
327.4646809232805,2493
329.8451090723478,2581
332.2248813152577,2546
334.6039978590701,2593
336.9824589109231,2477
339.36026467803447,2444
341.7374153677,2433
344.113911187295,2414
346.48975234427337,2281
348.8649390461686,2291
351.2394715005918,2324
353.61334991523415,2438
355.9865744978655,2337
358.35914545633375,2234
360.73106299856715,2341
363.10232733257146,2325
365.47293866643247,2378
367.84289720831396,2293
370.2122031664593,2375
372.5808567491905,2228
374.9488581649083,2319
377.31620762209275,2250
379.6829053293021,2237
382.0489514951745,2343
384.4143463284262,2273
386.7790900378528,2260
389.14318283232853,2204
391.50662492080653,2205
393.86941651231916,2142
396.23155781597745,2151
398.5930490409713,2237
400.9538903965696,2109
403.3140820921202,2181
405.6736243370498,2147
408.03251734086336,2127
410.3907613131465,2101
412.74835646356166,2187
415.10530300185144,2124
417.4616011378372,2257
419.81725108141893,2112
422.1722530425758,2109
424.5266072313656,2144
426.880313857925,2123
429.2333731324701,2158
431.58578526529516,2194
433.9375504667738,2055
436.2886689473588,2106
438.63914091758113,2067
440.9889665880513,2054
443.33814616945835,2093
445.68667987257015,2070
448.03456790823395,2056
450.3818104873759,2037
452.72840782100013,2038
455.07436012019105,2040
457.41966759611057,2013
459.7643304600007,2037
462.10834892318155,2058
464.4517231970525,2094
466.79445349309174,2079
469.1365400228566,2157
471.4779829979826,2147
473.81878263018564,2148
476.15893913125876,2116
478.4984527130747,2132
480.8373235875855,2166
483.17555196682144,2314
485.5131380628919,2268
487.8500820879857,2432
490.1863842543697,2480
492.52204477439034,2713
494.8570638604725,2891
497.1914417251204,3266
499.52517858091653,3448
501.85827464052306,3680
504.19073011668036,3716
506.5225452222086,3927
508.85372017000566,3703
511.18425517304956,3723
513.514150444396,3793
515.8434061971808,4201
518.1720226446176,4853
520.4999999999999,5126
522.8273384766991,5398
525.1540382881666,5692
527.480099647932,5455
529.8055227696037,4738
532.1303078668694,3386
534.454455153496,2567
536.777964843328,2293
539.1008371502907,2121
541.4230722883866,2070
543.744670471698,2025
546.0656319143858,1977
548.3859568306899,1984
550.7056454349294,1941
553.0246979415016,1957
555.3431145648834,1889
557.6608955196306,1903
559.978041020377,1817
562.2945512818363,1885
564.6104265188006,1897
566.9256669461412,1901
569.2402727788082,1871
571.5542442318302,1814
573.8675815203156,1877
576.1802848594508,1873
578.4923544645015,1810
580.8037905508126,1842
583.114593333807,1852
585.4247630289875,1859
587.7342998519354,1881
590.0432040183106,1828
592.3514757438526,1853
594.6591152443794,1871
596.9661227357875,1867
599.2724984340531,1844
601.578242555231,1835
603.8833553154542,1864
606.1878369309362,1951
608.4916876179676,1952
610.7949075929192,2009
613.0974970722403,1937
615.3994562724587,1826
617.7007854101818,1925
620.0014847020951,1845
622.3015543649641,1908
624.6009946156324,1869
626.8998056710224,1921
629.1979877481361,1888
631.4955410640538,1918
633.7924658359349,1947
636.0887622810175,1897
638.3844306166192,1932
640.6794710601358,1915
642.9738838290426,1944
645.2676691408932,1941
647.5608272133207,1897
649.853358264037,1861
652.1452625108324,1963
654.4365401715764,1981
656.7271914642178,1992
659.0172166067838,1920
661.3066158173809,1932
663.5953893141935,1921
665.8835373154867,1946
668.1710600396028,2003
670.4579577049639,1968
672.7442305300709,1900
675.0298787335033,1937
677.3149025339197,1970
679.599302150058,2006
681.8830778007342,1983
684.1662297048437,1959
686.4487580813608,2002
688.7306631493387,2013
691.0119451279091,1987
693.2926042362834,1987
695.5726406937516,1960
697.8520547196814,1994
700.1308465335215,2005
702.4090163547982,1965
704.6865644031171,1967
706.9634908981619,1942
709.2397960596965,1940
711.5154801075631,1900
713.7905432616823,2036
716.0649857420548,1897
718.3388077687592,1974
720.612009561953,1927
722.8845913418733,1982
725.1565533288352,1966
727.427895743234,1896
729.6986188055427,1932
731.9687227363137,1912
734.238207756178,1958
736.5070740858458,1909
738.7753219461066,1912
741.0429515578281,1945
743.3099631419569,1873
745.5763569195191,1883
747.8421331116193,1918
750.1072919394409,1895
752.3718336242467,1869
754.6357583873777,1914
756.8990664502545,1891
759.1617580343765,1952
761.423833361321,1925
763.6852926527457,1913
765.9461361303862,1908
768.206364016058,1897
770.4659765316536,1940
772.7249738991469,1916
774.9833563405886,1990
777.2411240781092,1987
779.4982773339183,1913
781.7548163303044,1929
784.010741289634,1953
786.2660524343538,2097
788.5207499869881,1991
790.7748341701416,1907
793.0283052064964,1945
795.2811633188143,1954
797.5334087299362,1975
799.7850416627813,2023
802.0360623403484,2024
804.2864709857143,1941
806.5362678220353,1962
808.7854530725468,1969
811.0340269605625,1956
813.2819897094754,1952
815.5293415427581,1985
817.77608268396,1929
820.0222133567116,1965
822.2677337847211,1933
824.5126441917765,1948
826.7569448017433,1931
829.0006358385675,1884
831.2437175262731,1877
833.4861900889629,1880
835.7280537508192,1908
837.9693087361026,1918
840.2099552691533,1939
842.4499935743896,1891
844.689423876309,1933
846.9282463994886,1976
849.1664613685833,1955
851.4040690083276,1996
853.6410695435349,1925
855.877463199097,1971
858.1132501999847,1977
860.3484307712487,1898
862.5830051380175,1996
864.8169735254988,1966
867.0503361589791,2007
869.2830932638243,1971
871.5152450654786,1982
873.7467917894654,1993
875.9777336613873,2024
878.2080709069252,2055
880.4378037518389,1953
882.666932421968,1965
884.8954571432301,1996
887.1233781416219,2039
889.3506956432192,1993
891.5774098741766,2002
893.803521060728,1998
896.0290294291852,1998
898.2539352059397,2064
900.4782386174619,2062
902.7019398903011,2040
904.925039251085,2007
907.147536926521,2077
909.3694331433943,2026
911.59072812857,2025
913.8114221089921,1932
916.0315153116827,2046
918.2510079637437,2024
920.4699002923547,2010
922.6881925247761,2063
924.905884888345,1956
927.1229776104793,2006
929.3394709186747,2040
931.555365040506,2029
933.7706602036275,1998
935.9853566357709,1954
938.1994545647489,2003
940.4129542184515,1979
942.6258558248488,1966
944.8381596119883,1962
947.0498658079974,2017
949.2609746410825,1979
951.4714863395287,1931
953.6814011316998,1898
955.8907192460387,2001
958.0994409110671,2051
960.3075663553858,1992
962.5150958076741,1987
964.7220294966913,1843
966.928367651274,1900
969.1341105003388,1947
971.3392582728806,1996
973.5438111979742,1873
975.747769504772,1930
977.9511334225061,1898
980.153903180487,1842
982.3560790081052,1800
984.5576611348289,1859
986.7586497902058,1895
988.9590452038618,1897
991.158847605503,1828
993.3580572249133,1832
995.5566742919558,1684
997.7546990365728,1799
999.952131688785,1608
1002.1489724786926,1731
1004.3452216364743,1663
1006.5408793923874,1658
1008.7359459767691,1681
1010.9304216200343,1685
1013.1243065526781,1682
1015.3176010052733,1668
1017.510305208472,1633
1019.7024193930064,1687
1021.8939437896848,1599
1024.0848786293977,1617
1026.2752241431122,1614
1028.4649805618747,1601
1030.6541481168115,1574
1032.842727039127,1627
1035.0307175601051,1644
1037.2181199111074,1562
1039.4049343235752,1611
1041.591161029029,1567
1043.7768002590683,1566
1045.9618522453698,1570
1048.1463172196918,1546
1050.3301954138697,1544
1052.513487059818,1543
1054.69619238953,1570
1056.8783116350783,1604
1059.0598450286152,1520
1061.2407928023704,1551
1063.4211551886528,1616
1065.6009324198508,1566
1067.780124728432,1534
1069.9587323469414,1507
1072.1367555080046,1576
1074.314194444325,1557
1076.4910493886855,1582
1078.667320573947,1494
1080.843008233051,1540
1083.0181125990161,1473
1085.1926339049414,1450
1087.3665723840027,1512
1089.5399282694575,1521
1091.7127017946405,1535
1093.8848931929647,1495
1096.0565026979243,1480
1098.2275305430899,1464
1100.3979769621128,1507
1102.567842188722,1490
1104.737126456726,1496
1106.9058300000124,1386
1109.0739530525475,1481
1111.2414958483764,1450
1113.4084586216231,1486
1115.5748416064907,1437
1117.7406450372605,1453
1119.9058691482942,1404
1122.0705141740304,1468
1124.2345803489884,1428
1126.3980679077658,1413
1128.5609770850388,1446
1130.7233081155623,1431
1132.8850612341707,1483
1135.0462366757774,1430
1137.2068346753745,1434
1139.3668554680326,1467
1141.526299288901,1431
1143.68516637321,1440
1145.8434569562655,1410
1148.001171273455,1438
1150.158309560244,1365
1152.3148720521767,1355
1154.470858984876,1404
1156.626270594044,1396
1158.7811071154629,1399
1160.9353687849912,1420
1163.089055838569,1408
1165.242168512213,1414
1167.3947070420209,1390
1169.5466716641677,1356
1171.6980626149075,1417
1173.8488801305748,1420
1175.9991244475814,1346
1178.1487958024186,1375
1180.2978944316555,1387
1182.4464205719428,1390
1184.5943744600072,1411
1186.7417563326567,1448
1188.8885664267755,1393
1191.0348049793297,1345
1193.1804722273619,1399
1195.325568407995,1493
1197.4700937584303,1419
1199.614048515948,1457
1201.7574329179074,1393
1203.900247201746,1397
1206.042491604982,1374
1208.1841663652099,1418
1210.3252717201053,1448
1212.465807907422,1384
1214.6057751649923,1394
1216.7451737307279,1422
1218.8840038426192,1412
1221.0222657387353,1399
1223.1599596572241,1480
1225.2970858363137,1406
1227.4336445143094,1459
1229.5696359295966,1438
1231.705060320639,1375
1233.8399179259786,1394
1235.9742089842384,1419
1238.107933734118,1365
1240.2410924143974,1434
1242.373685263935,1404
1244.5057125216676,1425
1246.6371744266116,1446
1248.7680712178621,1454
1250.898403134593,1402
1253.028170416058,1464
1255.1573733015875,1521
1257.2860120305932,1462
1259.4140868425648,1502
1261.54159797707,1460
1263.6685456737569,1458
1265.7949301723515,1430
1267.9207517126597,1463
1270.046010534565,1465
1272.1707068780306,1469
1274.2948409830983,1500
1276.4184130898889,1507
1278.541423438603,1538
1280.6638722695184,1496
1282.785759822993,1479
1284.9070863394636,1552
1287.0278520594447,1474
1289.1480572235314,1525
1291.2677020723963,1523
1293.3867868467923,1555
1295.5053117875495,1508
1297.623277135579,1536
1299.740683131868,1572
1301.8575300174857,1579
1303.973818033578,1584
1306.0895474213703,1549
1308.2047184221678,1580
1310.3193312773528,1552
1312.4333862283888,1608
1314.5468835168163,1520
1316.659823384255,1587
1318.7722060724045,1577
1320.8840318230418,1595
1322.9953008780249,1640
1325.1060134792888,1633
1327.2161698688478,1574
1329.3257702887959,1608
1331.4348149813054,1617
1333.5433041886276,1537
1335.6512381530933,1632
1337.7586171171101,1596
1339.8654413231675,1577
1341.9717110138317,1566
1344.0774264317488,1568
1346.1825878196432,1566
1348.2871954203192,1559
1350.3912494766587,1530
1352.4947502316231,1558
1354.5976979282532,1473
1356.7000928096686,1486
1358.8019351190665,1545
1360.9032250997243,1533
1363.0039629949988,1560
1365.1041490483235,1618
1367.2037835032133,1550
1369.3028666032606,1506
1371.401398592137,1506
1373.4993797135926,1521
1375.5968102114575,1628
1377.6936903296396,1538
1379.7900203121262,1496
1381.8858004029835,1628
1383.9810308463561,1601
1386.075711886469,1572
1388.1698437676241,1573
1390.2634267342032,1650
1392.356461030667,1656
1394.4489469015557,1671
1396.5408845914872,1642
1398.6322743451592,1621
1400.7231164073469,1630
1402.813411022907,1657
1404.903158436773,1654
1406.9923588939578,1656
1409.0810126395531,1644
1411.1691199187303,1665
1413.2566809767386,1662
1415.343696058907,1657
1417.4301654106425,1691
1419.5160892774315,1727
1421.6014679048399,1671
1423.6863015385125,1746
1425.7705904241707,1739
1427.8543348076178,1737
1429.9375349347342,1749
1432.0201910514802,1716
1434.102303403894,1752
1436.1838722380944,1772
1438.2648978002767,1732
1440.3453803367174,1796
1442.4253200937692,1778
1444.5047173178677,1857
1446.5835722555234,1938
1448.6618851533285,1909
1450.739656257952,1921
1452.8168858161434,1890
1454.8935740747306,1986
1456.96972128062,1954
1459.045327680797,2037
1461.120393522327,2065
1463.1949190523528,2169
1465.2689045180973,2147
1467.3423501668608,2203
1469.415256246024,2177
1471.4876230030463,2159
1473.559450685465,2203
1475.6307395408976,2350
1477.7014898170391,2333
1479.771701761665,2320
1481.8413756226287,2391
1483.9105116478618,2407
1485.9791100853772,2371
1488.0471711832643,2480
1490.1146951896926,2554
1492.1816823529098,2585
1494.2481329212433,2628
1496.3140471430984,2674
1498.3794252669609,2654
1500.4442675413939,2711
1502.5085742150404,2844
1504.572345536622,2752
1506.6355817549388,2798
1508.6982831188702,2827
1510.7604498773744,2820
1512.8220822794883,2750
1514.8831805743293,2771
1516.9437450110909,2829
1519.003775839048,2792
1521.0632733075522,2922
1523.1222376660367,2911
1525.1806691640113,2896
1527.2385680510652,2937
1529.2959345768668,2958
1531.3527689911643,3084
1533.4090715437833,2981
1535.4648424846291,3128
1537.5200820636855,3024
1539.5747905310159,3134
1541.6289681367616,3151
1543.6826151311434,3188
1545.7357317644614,3265
1547.7883182870937,3259
1549.8403749494987,3265
1551.8919020022113,3301
1553.9428996958477,3391
1555.9933682811015,3567
1558.0433080087469,3568
1560.0927191296346,3599
1562.1416018946961,3524
1564.1899565549415,3617
1566.2377833614592,3608
1568.2850825654164,3591
1570.3318544180606,3416
1572.3780991707158,3474
1574.423817074788,3341
1576.4690083817595,3140
1578.5136733431923,3123
1580.5578122107272,3005
1582.601425236085,2771
1584.6445126710646,2674
1586.6870747675434,2557
1588.7291117774776,2473
1590.7706239529034,2370
1592.8116115459347,2338
1594.8520748087658,2250
1596.8920139936686,2176
1598.9314293529933,2169
1600.9703211391711,2100
1603.008689604711,1932
1605.0465350022005,1942
1607.0838575843068,1846
1609.1206576037753,1853
1611.1569353134305,1846
1613.1926909661765,1770
1615.2279248149953,1721
1617.2626371129481,1740
1619.2968281131757,1668
1621.3304980688963,1696
1623.3636472334088,1663
1625.39627586009,1622
1627.428384202396,1613
1629.459972513861,1640
1631.4910410480993,1599
1633.5215900588028,1596
1635.551619799744,1594
1637.5811305247717,1509
1639.6101224878166,1514
1641.6385959428862,1530
1643.6665511440683,1539
1645.693988345528,1473
1647.7209078015112,1495
1649.7473097663405,1578
1651.7731944944203,1504
1653.7985622402307,1522
1655.823413258333,1461
1657.847747803366,1424
1659.8715661300494,1446
1661.8948684931793,1477
1663.9176551476316,1496
1665.9399263483624,1434
1667.9616823504057,1470
1669.982923408873,1466
1672.0036497789574,1433
1674.0238617159293,1499
1676.043559475138,1484
1678.0627433120121,1407
1680.081413482059,1463
1682.0995702408654,1453
1684.117213844096,1396
1686.134344547495,1506
1688.1509626068864,1455
1690.1670682781705,1403
1692.182661817329,1422
1694.1977434804217,1407
1696.2123135235875,1454
1698.226372203043,1411
1700.2399197750851,1469
1702.2529564960905,1445
1704.2654826225112,1433
1706.277498410882,1513
1708.2890041178139,1515
1710.2999999999988,1450
1712.3104863142066,1501
1714.3204633172854,1476
1716.329931266163,1469
1718.3388904178469,1402
1720.3473410294214,1410
1722.3552833580516,1399
1724.3627176609807,1379
1726.3696441955308,1423
1728.3760632191033,1434
1730.3819749891782,1428
1732.3873797633146,1395
1734.3922777991502,1381
1736.3966693544012,1392
1738.4005546868639,1344
1740.4039340544127,1336
1742.406807715001,1379
1744.4091759266616,1401
1746.4110389475054,1346
1748.4123970357223,1351
1750.413250449582,1261
1752.4135994474318,1312
1754.4134442876993,1376
1756.4127852288902,1321
1758.4116225295893,1398
1760.4099564484595,1319
1762.407787244244,1334
1764.405115175764,1320
1766.4019405019203,1377
1768.3982634816916,1349
1770.3940843741357,1354
1772.3894034383907,1276
1774.3842209336717,1266
1776.378537119274,1244
1778.372352254571,1278
1780.3656665990156,1318
1782.3584804121397,1361
1784.3507939535534,1291
1786.3426074829463,1340
1788.3339212600863,1274
1790.3247355448211,1267
1792.3150505970766,1281
1794.3048666768573,1310
1796.2941840442477,1321
1798.2830029594106,1320
1800.2713236825884,1299
1802.2591464741004,1311
1804.2464715943465,1273
1806.2332993038058,1285
1808.2196298630352,1288
1810.2054635326708,1278
1812.190800573428,1320
1814.175641246101,1286
1816.1599858115628,1317
1818.1438345307652,1320
1820.127187664738,1273
1822.1100454745924,1198
1824.092408221516,1232
1826.0742761667766,1181
1828.055649571721,1314
1830.0365286977735,1293
1832.0169138064398,1331
1833.9968051593014,1298
1835.9762030180214,1224
1837.9551076443408,1287
1839.9335193000788,1219
1841.9114382471344,1260
1843.888864747485,1312
1845.8657990631878,1232
1847.842241456378,1239
1849.8181921892697,1332
1851.7936515241558,1259
1853.7686197234098,1291
1855.7430970494815,1257
1857.7170837649014,1265
1859.6905801322787,1265
1861.6635864143004,1317
1863.6361028737338,1257
1865.608129773424,1250
1867.5796673762961,1250
1869.5507159453537,1293
1871.521275743678,1264
1873.4913470344313,1317
1875.4609300808534,1283
1877.4300251462632,1287
1879.3986324940588,1268
1881.366752387717,1275
1883.3343850907936,1293
1885.3015308669228,1256
1887.268189979819,1217
1889.2343626932739,1297
1891.2000492711595,1325
1893.1652499774254,1314
1895.1299650761011,1353
1897.0941948312952,1285
1899.0579395071945,1274
1901.0211993680641,1303
1902.98397467825,1337
1904.9462657021745,1325
1906.9080727043415,1292
1908.869395949332,1309
1910.8302357018065,1306
1912.790592226504,1279
1914.7504657882428,1274
1916.7098566519212,1296
1918.6687650825133,1270
1920.6271913450764,1287
1922.5851357047422,1279
1924.5425984267245,1311
1926.499579776314,1329
1928.4560800188833,1266
1930.4120994198802,1301
1932.367638244833,1301
1934.32269675935,1315
1936.2772752291175,1267
1938.231373919899,1320
1940.1849930975404,1248
1942.1381330279637,1312
1944.0907939771696,1282
1946.0429762112412,1282
1947.9946799963363,1285
1949.9459055986945,1294
1951.896653284633,1265
1953.8469233205478,1275
1955.7967159729142,1251
1957.7460315082863,1260
1959.6948701932974,1276
1961.6432322946594,1252
1963.5911180791632,1240
1965.5385278136787,1321
1967.4854617651545,1298
1969.4319202006182,1288
1971.377903387176,1280
1973.3234115920136,1248
1975.268445082395,1303
1977.2130041256642,1324
1979.1570889892423,1228
1981.1006999406304,1293
1983.04383724741,1308
1984.986501177238,1187
1986.928691997853,1233
1988.8704099770712,1248
1990.811655382789,1288
1992.7524284829801,1279
1994.692729545698,1257
1996.6325588390755,1257
1998.5719166313224,1266
2000.5108031907307,1273
2002.4492187856677,1313
2004.387163684583,1247
2006.3246381560011,1271
2008.2616424685298,1254
2010.1981768908527,1207
2012.1342416917332,1260
2014.069837140014,1214
2016.0049635046162,1218
2017.9396210545406,1253
2019.8738100588666,1305
2021.8075307867502,1266
2023.740783507431,1226
2025.6735684902228,1241
2027.6058860045214,1217
2029.5377363198004,1234
2031.4691197056118,1257
2033.4000364315875,1177
2035.3304867674374,1207
2037.260470982952,1237
2039.189989347998,1213
2041.1190421325232,1256
2043.047629606554,1210
2044.9757520401945,1237
2046.9034097036288,1241
2048.8306028671195,1255
2050.7573318010086,1283
2052.683596775716,1196
2054.609398061742,1251
2056.5347359296647,1290
2058.4596106501403,1238
2060.384022493906,1183
2062.3079717317764,1248
2064.231458634646,1202
2066.1544834734873,1247
2068.077046519352,1220
2069.99914804337,1282
2071.9207883167524,1258
2073.8419676107865,1254
2075.7626861968406,1238
2077.6829443463607,1255
2079.6027423308715,1215
2081.522080421977,1251
2083.440958891362,1299
2085.359378010786,1250
2087.2773380520907,1197
2089.194839287196,1241
2091.111881988101,1242
2093.0284664268825,1211
2094.9445928756973,1256
2096.86026160678,1258
2098.775472892446,1247
2100.690227005088,1215
2102.604524217178,1193
2104.5183648012676,1227
2106.431749029985,1242
2108.34467717604,1241
2110.2571495122206,1208
2112.169166311393,1210
2114.080727846503,1257
2115.9918343905747,1239
2117.902486216711,1245
2119.8126835980956,1228
2121.722426807987,1266
2123.6317161197285,1254
2125.5405518067364,1287
2127.448934142509,1271
2129.356863400624,1249
2131.264339854737,1222
2133.1713637785815,1255
2135.077935445972,1226
2136.9840551308002,1252
2138.889723107037,1204
2140.7949396487334,1248
2142.699705030018,1229
2144.6040195250994,1219
2146.507883408264,1242
2148.4112969538774,1262
2150.3142604363848,1273
2152.2167741303097,1221
2154.1188383102535,1216
2156.0204532508997,1298
2157.9216192270064,1318
2159.822336513414,1241
2161.7226053850413,1238
2163.622426116884,1233
2165.5217989840185,1250
2167.4207242616,1195
2169.319202224862,1270
2171.2172331491165,1255
2173.1148173097563,1240
2175.0119549822507,1289
2176.90864644215,1206
2178.8048919650823,1240
2180.7006918267534,1257
2182.596046302952,1268
2184.4909556695407,1227
2186.3854202024645,1221
2188.279440177746,1196
2190.173015871487,1211
2192.066147559868,1234
2193.958835519149,1269
2195.851080025667,1241
2197.7428813558417,1239
2199.6342397861667,1249
2201.5251555932186,1272
2203.415629053651,1206
2205.3056604441986,1203
2207.19525004167,1233
2209.084398122958,1185
2210.9731049650327,1227
2212.861370844941,1220
2214.749196039812,1230
2216.636580826851,1241
2218.523525483344,1230
2220.410030286655,1210
2222.296095514226,1256
2224.1817214435805,1226
2226.066908352319,1209
2227.951656518121,1220
2229.835966218746,1246
2231.71983773203,1266
2233.6032713358913,1269
2235.486267308324,1272
2237.3688259274036,1246
2239.2509474712824,1216
2241.132632218193,1184
2243.013880446447,1226
2244.8946924344323,1241
2246.7750684606203,1227
2248.6550088035574,1235
2250.534513741871,1221
2252.413583554265,1249
2254.292218519526,1248
2256.170418916517,1201
2258.0481850241786,1202
2259.925517121534,1216
2261.8024154876825,1250
2263.678880401803,1212
2265.5549121431536,1248
2267.430510991071,1254
2269.305677224971,1216
2271.180411124348,1255
2273.0547129687766,1245
2274.9285830379076,1212
2276.8020216114737,1309
2278.6750289692845,1236
2280.5476053912294,1198
2282.4197511572766,1241
2284.2914665474727,1258
2286.162751841943,1304
2288.0336073208937,1219
2289.904033264608,1252
2291.774029953448,1256
2293.6435976678554,1265
2295.5127366883517,1265
2297.381447295534,1243
2299.2497297700825,1241
2301.1175843927526,1295
2302.9850114443825,1265
2304.852011205885,1250
2306.7185839582553,1265
2308.5847299825664,1225
2310.4504495599676,1194
2312.3157429716925,1289
2314.1806104990483,1243
2316.0450524234247,1317
2317.9090690262888,1282
2319.772660589186,1226
2321.635827393742,1253
2323.498569721661,1250
2325.3608878547248,1217
2327.2227820747967,1266
2329.0842526638157,1283
2330.945299903803,1288
2332.805924076857,1337
2334.6661254651535,1282
2336.525904350951,1189
2338.3852610165827,1269
2340.244195744464,1225
2342.102708817088,1242
2343.9608005170253,1242
2345.8184711269287,1299
2347.675720929526,1258
2349.532550207628,1248
2351.38895924412,1218
2353.24494832197,1228
2355.100517724223,1272
2356.955667734004,1273
2358.810398634514,1277
2360.664710709037,1294
2362.5186042409337,1272
2364.3720795136437,1300
2366.225136810686,1328
2368.0777764156583,1254
2369.929998612237,1298
2371.7818036841777,1300
2373.633191915315,1356
2375.484163589562,1319
2377.3347189909114,1294
2379.184858403434,1287
2381.03458211128,1308
2382.8838903986775,1347
2384.732783549936,1314
2386.5812618494406,1253
2388.4293255816588,1289
2390.2769750311327,1354
2392.1242104824883,1309
2393.971032220427,1328
2395.8174405297295,1305
2397.6634356952563,1267
2399.509018001947,1308
2401.3541877348193,1237
2403.1989451789705,1316
2405.043290619576,1291
2406.8872243418905,1274
2408.730746631247,1273
2410.5738577730594,1281
2412.4165580528183,1316
2414.258847756095,1317
2416.100727168537,1310
2417.9421965758734,1325
2419.783256263912,1360
2421.623906518538,1354
2423.4641476257157,1310
2425.303979871491,1317
2427.143403541984,1301
2428.9824189233977,1345
2430.821026302012,1290
2432.6592259641866,1352
2434.497018196361,1320
2436.33440328505,1321
2438.171381516851,1338
2440.00795317844,1327
2441.844118556569,1279
2443.6798779380724,1329
2445.5152316098606,1324
2447.3501798589255,1320
2449.1847229723357,1328
2451.0188612372403,1318
2452.8525949408663,1297
2454.6859243705203,1345
2456.518849813587,1333
2458.3513715575314,1320
2460.183489889895,1305
2462.015205098301,1309
2463.8465174704493,1326
2465.67742729412,1349
2467.5079348571717,1282
2469.338040447542,1315
2471.1677443532476,1296
2472.9970468623833,1291
2474.825948263123,1293
2476.6544488437207,1275
2478.482548892508,1331
2480.310248697896,1333
2482.137548548374,1358
2483.9644487325118,1313
2485.790949538956,1353
2487.617051256433,1367
2489.44275417375,1385
2491.26805857979,1370
2493.0929647635157,1307
2494.917473013971,1359
2496.741583620276,1362
2498.5652968716304,1346
2500.3886130573137,1318
2502.2115324666834,1359
2504.0340553891765,1391
2505.856182114308,1353
2507.6779129316733,1366
2509.499248130945,1341
2511.3201880018764,1365
2513.140732834298,1317
2514.9608829181198,1392
2516.780638543331,1394
2518.6,1380
2520.418967578273,1365
2522.237541568376,1337
2524.0557222606144,1342
2525.8735099453706,1424
2527.6909049131086,1428
2529.507907454368,1385
2531.32451785977,1388
2533.140736420014,1379
2534.9565634258774,1400
2536.771999168218,1376
2538.5870439379714,1431
2540.4016980261526,1370
2542.2159617238544,1459
2544.02983532225,1383
2545.8433191125914,1437
2547.656413386209,1399
2549.4691184345115,1533
2551.2814345489874,1456
2553.093362021204,1490
2554.904901142808,1458
2556.716052205523,1493
2558.526815501153,1523
2560.3371913215824,1489
2562.147179958771,1447
2563.956781704761,1468
2565.7659968516705,1499
2567.5748256916986,1508
2569.3832685171224,1585
2571.1913256202984,1569
2572.9989972936614,1589
2574.806283829725,1567
2576.613185521084,1607
2578.4197026604074,1560
2580.2258355404483,1541
2582.031584454035,1610
2583.836949694077,1603
2585.6419315535613,1567
2587.4465303255533,1577
2589.2507463032002,1631
2591.0545797797245,1596
2592.8580310484303,1567
2594.6611004026995,1591
2596.463788135992,1585
2598.266094541849,1667
2600.0680199138874,1637
2601.869564545807,1627
2603.670728731383,1642
2605.4715127644704,1663
2607.2719169390048,1634
2609.071941548998,1652
2610.8715868885433,1615
2612.670853251811,1666
2614.469740933052,1606
2616.268250226594,1620
2618.0663814268455,1640
2619.864134828292,1593
2621.6615107255006,1614
2623.458509413115,1575
2625.2551311858597,1654
2627.0513763385347,1581
2628.8472451660223,1554
2630.6427379632833,1525
2632.4378550253564,1566
2634.232596647359,1527
2636.026963124488,1563
2637.8209547520187,1559
2639.6145718253065,1554
2641.407814639785,1516
2643.200683490966,1488
2644.9931786744414,1518
2646.7853004858807,1530
2648.577049221034,1452
2650.3684251757277,1425
2652.1594286458712,1435
2653.9500599274484,1486
2655.740319316525,1433
2657.5302071092437,1479
2659.3197236018286,1431
2661.10886909058,1404
2662.8976438718782,1388
2664.686048242183,1402
2666.4740824980327,1449
2668.2617469360443,1398
2670.0490418529134,1406
2671.8359675454153,1345
2673.622524310403,1418
2675.408712444811,1386
2677.1945322456495,1416
2678.979984010009,1344
2680.76506803506,1337
2682.5497846180497,1322
2684.334134056306,1389
2686.1181166472343,1347
2687.9017326883213,1305
2689.6849824771293,1368
2691.4678663113013,1316
2693.2503844885596,1397
2695.032537306705,1309
2696.8143250636167,1340
2698.5957480572542,1267
2700.3768065856534,1306
2702.1575009469316,1279
2703.937831439283,1288
2705.717798360982,1323
2707.4974020103837,1311
2709.276642685917,1261
2711.055520686095,1286
2712.834036309506,1304
2714.612189854819,1271
2716.389981620782,1295
2718.1674119062204,1257
2719.944481010041,1348
2721.721189231226,1282
2723.4975368688415,1303
2725.273524222027,1283
2727.0491515900053,1276
2728.824419272075,1276
2730.5993275676146,1317
2732.3738767760838,1282
2734.148067197016,1285
2735.921899130031,1281
2737.6953728748194,1260
2739.468488731156,1268
2741.2412469988926,1258
2743.0136479779617,1248
2744.785691968372,1250
2746.5573792702116,1254
2748.3287101836504,1266
2750.099685008934,1243
2751.870304046388,1265
2753.640567596418,1252
2755.4104759595057,1214
2757.1800294362156,1213
2758.949228327187,1241
2760.7180729331412,1218
2762.486563554877,1204
2764.254700493272,1293
2766.022484049284,1258
2767.789914523947,1250
2769.5569922183786,1230
2771.3237174337705,1208
2773.090090471394,1217
2774.8561116326036,1231
2776.6217812188274,1246
2778.3870995315756,1241
2780.1520668724356,1242
2781.9166835430747,1281
2783.6809498452394,1223
2785.444866080754,1236
2787.2084325515225,1232
2788.971649559527,1238
2790.73451740683,1241
2792.4970363955713,1256
2794.2592068279705,1256
2796.0210290063264,1248
2797.7825032330147,1257
2799.543629810493,1302
2801.304409041296,1235
2803.0648412280366,1222
2804.8249266734088,1243
2806.5846656801846,1251
2808.344058551212,1247
2810.1031055894246,1228
2811.8618070978273,1235
2813.6201633795085,1214
2815.378174737636,1210
2817.1358414754536,1278
2818.893163896285,1242
2820.6501423035334,1241
2822.4067770006814,1243
2824.1630682912883,1267
2825.9190164789957,1216
2827.6746218675207,1240
2829.429884760661,1275
2831.184805462294,1220
2832.9393842763743,1245
2834.693621506936,1211
2836.4475174580916,1227
2838.201072434034,1303
2839.954286739034,1231
2841.707160677441,1240
2843.459694553685,1215
2845.2118886722724,1217
2846.96374333779,1172
2848.7152588549034,1249
2850.4664355283567,1248
2852.217273662973,1215
2853.9677735636546,1243
2855.7179355353833,1270
2857.4677598832186,1166
2859.217246912299,1172
2860.9663969278427,1245
2862.715210235146,1269
2864.4636871395846,1280
2866.211827946614,1258
2867.9596329617652,1200
2869.7071024906536,1293
2871.4542368389684,1241
2873.20103631248,1238
2874.947501217038,1222
2876.6936318585695,1203
2878.4394285430812,1245
2880.1848915766604,1245
2881.9300212654707,1188
2883.6748179157553,1202
2885.4192818338374,1272
2887.1634133261173,1227
2888.907212699077,1225
2890.6506802592744,1245
2892.393816313348,1219
2894.1366211680142,1230
2895.8790951300693,1241
2897.621238506388,1249
2899.363051603925,1231
2901.1045347297118,1275
2902.8456881908596,1294
2904.58651229456,1220
2906.327007348081,1235
2908.067173658772,1249
2909.8070115340597,1197
2911.5465212814497,1212
2913.285703208527,1257
2915.0245576229563,1246
2916.7630848324807,1202
2918.5012851449196,1210
2920.2391588681758,1258
2921.976706310227,1233
2923.7139277791334,1185
2925.4508235830313,1218
2927.187394030137,1200
2928.923639428745,1207
2930.6595600872306,1288
2932.395156314046,1270
2934.1304284177218,1206
2935.8653767068713,1252
2937.6000014901815,1248
2939.3343030764227,1200
2941.068281774442,1220
2942.8019378931644,1242
2944.5352717415976,1195
2946.2682836288236,1167
2948.0009738640065,1188
2949.7333427563885,1238
2951.465390615289,1224
2953.1971177501086,1200
2954.9285244703265,1208
2956.6596110855,1248
2958.3903779052657,1225
2960.1208252393385,1176
2961.8509533975125,1194
2963.5807626896617,1184
2965.3102534257378,1227
2967.0394259157715,1221
2968.768280469873,1203
2970.496817398232,1186
2972.2250370111146,1217
2973.952939618869,1192
2975.6805255319196,1222
2977.4077950607707,1243
2979.134748516006,1212
2980.861386208289,1229
2982.587708448359,1162
2984.313715547037,1233
2986.039407815222,1262
2987.764785563891,1176
2989.489849104102,1266
2991.2145987469908,1192
2992.9390348037705,1242
2994.6631575857346,1208
2996.3869674042576,1230
2998.1104645707887,1186
2999.83364939686,1209
3001.5565221940783,1192
3003.2790832741334,1204
3005.0013329487924,1249
3006.7232715298996,1273
3008.4448993293804,1216
3010.166216659239,1254
3011.887223831558,1230
3013.607921158498,1220
3015.3283089522993,1230
3017.0483875252826,1205
3018.7681571898443,1215
3020.4876182584626,1195
3022.2067710436927,1220
3023.9256158581707,1167
3025.644153014609,1207
3027.362382825801,1170
3029.0803056046193,1201
3030.797921664012,1215
3032.5152313170106,1229
3034.2322348767225,1190
3035.9489326563353,1228
3037.665324969115,1224
3039.3814121284063,1226
3041.097194447633,1170
3042.812672240299,1219
3044.5278458199855,1242
3046.2427155003525,1184
3047.9572815951406,1245
3049.671544418167,1166
3051.38550428333,1203
3053.0991615046073,1189
3054.812516396051,1251
3056.5255692717974,1219
3058.2383204460575,1201
3059.9507702331257,1209
3061.662918947372,1250
3063.3747669032446,1198
3065.0863144152736,1212
3066.7975617980674,1240
3068.508509366309,1206
3070.219157434767,1186
3071.9295063182844,1243
3073.639556331785,1285
3075.3493077902704,1220
3077.058761008821,1220
3078.7679163025964,1252
3080.476773986837,1185
3082.1853343768594,1239
3083.89359778806,1288
3085.6015645359153,1198
3087.3092349359786,1218
3089.016609303884,1211
3090.7236879553434,1235
3092.4304712061476,1220
3094.136959372166,1234
3095.843152769349,1193
3097.5490517137237,1226
3099.2546565213966,1210
3100.959967508554,1216
3102.66498499146,1245
3104.3697092864577,1242
3106.0741407099695,1241
3107.778279578498,1196
3109.482126208622,1228
3111.1856809170004,1220
3112.8889440203716,1246
3114.5919158355528,1204
3116.294596679439,1229
3117.996986869006,1201
3119.6990867213062,1247
3121.4008965534726,1254
3123.102416682717,1255
3124.803647426329,1228
3126.5045891016784,1226
3128.205242026213,1269
3129.90560651746,1213
3131.605682893025,1231
3133.3054714705922,1253
3135.0049725679282,1258
3136.7041865028714,1227
3138.4031135933465,1205
3140.101754157353,1208
3141.800108512971,1219
3143.498176978357,1198
3145.1959598717494,1218
3146.8934575114636,1228
3148.5906702158954,1206
3150.2875983035183,1193
3151.9842420928853,1231
3153.680601902627,1241
3155.376678051456,1207
3157.07247085816,1163
3158.767980641609,1196
3160.463207720748,1257
3162.158152414606,1279
3163.8528150422862,1244
3165.5471959229726,1164
3167.2412953759303,1197
3168.9351137204976,1185
3170.628651276098,1192
3172.3219083622307,1217
3174.014885298474,1203
3175.707582404485,1227
3177.4000000000005,1223
3179.092138404835,1273
3180.7839979388846,1223
3182.47557892212,1258
3184.166881674594,1225
3185.8579065164386,1199
3187.5486537678626,1232
3189.2391237491547,1252
3190.9293167806827,1206
3192.6192331828934,1238
3194.3088732763117,1184
3195.998237381542,1167
3197.687325819268,1208
3199.376138910251,1235
3201.064676975334,1210
3202.7529403354347,1189
3204.4409293115523,1205
3206.1286442247647,1135
3207.816085396229,1230
3209.5032531471825,1136
3211.190147798936,1225
3212.8767696728846,1255
3214.5631190905015,1203
3216.2491963733373,1157
3217.9350018430214,1185
3219.6205358212637,1160
3221.305798629851,1202
3222.990790590651,1214
3224.6755120256103,1197
3226.359963256751,1169
3228.0441446061795,1147
3229.7280563960758,1138
3231.411698948703,1215
3233.0950725863995,1150
3234.778177631587,1221
3236.461014406761,1176
3238.1435832345005,1232
3239.8258844374595,1199
3241.507918338374,1185
3243.1896852600576,1210
3244.8711855254023,1247
3246.552419457381,1211
3248.233387379042,1180
3249.914089613516,1197
3251.59452648401,1205
3253.274698313813,1171
3254.95460542629,1229
3256.6342481448855,1204
3258.313626793125,1228
3259.9927416946084,1142
3261.6715931730196,1165
3263.3501815521176,1165
3265.0285071557437,1168
3266.706570307815,1153
3268.3843713323286,1154
3270.0619105533615,1176
3271.739188295068,1146
3273.4162048816834,1191
3275.0929606375184,1195
3276.769455886966,1196
3278.445690954498,1136
3280.1216661646613,1195
3281.797381842087,1231
3283.4728383114807,1253
3285.1480358976296,1228
3286.8229749253996,1180
3288.4976557197333,1169
3290.172078605655,1225
3291.846243908266,1138
3293.5201519527463,1183
3295.193803064357,1176
3296.8671975684374,1142
3298.5403357904024,1170
3300.21321805575,1212
3301.8858446900567,1239
3303.558216018975,1152
3305.23033236824,1169
3306.9021940636603,1149
3308.57380143113,1141
3310.2451547966184,1150
3311.916254486174,1217
3313.5871008259246,1145
3315.2576941420766,1158
3316.9280347609147,1153
3318.5981230088046,1166
3320.2679592121895,1174
3321.9375436975924,1128
3323.606876791612,1157
3325.27595882093,1206
3326.944790112305,1206
3328.6133709925753,1159
3330.2817017886573,1150
3331.949782827547,1207
3333.617614436319,1138
3335.2851969421245,1155
3336.952530672199,1200
3338.619615953853,1208
3340.286453114475,1156
3341.9530424815357,1209
3343.619384382583,1231
3345.2854791452437,1226
3346.951327097224,1201
3348.6169285663073,1162
3350.2822838803577,1252
3351.947393367319,1200
3353.61225735521,1201
3355.2768761721345,1161
3356.9412501462693,1149
3358.605379605873,1127
3360.2692648792827,1123
3361.9329062949146,1160
3363.596304181263,1236
