CollectionTime,6/26/2024 4:13:39 PM
ExposureUsed,3
CalibratedSpectrum
-962.7078968117929,738
-959.9714848408522,791
-957.2358232597828,742
-954.5009119013725,833
-951.7667505983302,786
-949.0333391832855,790
-946.3006774887896,809
-943.5687653473143,819
-940.837602591253,788
-938.1071890529199,787
-935.3775245645503,803
-932.6486089583007,815
-929.9204420662485,799
-927.1930237203925,828
-924.4663537526524,785
-921.7404319948689,810
-919.0152582788041,791
-916.2908324361409,813
-913.5671542984834,822
-910.8442236973568,801
-908.1220404642074,784
-905.4006044304027,771
-902.679915427231,792
-899.959973285902,812
-897.2407778375464,773
-894.5223289132158,783
-891.8046263438832,766
-889.0876699604426,733
-886.3714595937089,782
-883.6559950744183,765
-880.9412762332282,759
-878.2273029007168,782
-875.5140749073835,764
-872.8015920836489,764
-870.0898542598545,743
-867.3788612662631,758
-864.6686129330585,732
-861.9591090903457,745
-859.2503495681506,739
-856.5423341964203,732
-853.8350628050229,735
-851.1285352237478,799
-848.4227512823054,748
-845.7177108103272,748
-843.0134136373656,759
-840.3098595928943,752
-837.6070485063082,754
-834.9049802069229,750
-832.2036545239757,731
-829.5030712866244,740
-826.8032303239481,763
-824.1041314649472,749
-821.4057745385428,761
-818.7081593735775,776
-816.0112857988148,766
-813.3151536429393,756
-810.6197627345566,766
-807.9251129021936,721
-805.2312039742981,771
-802.5380357792392,746
-799.8456081453069,720
-797.1539209007124,715
-794.462973873588,740
-791.772766891987,762
-789.083299783884,749
-786.3945723771743,760
-783.7065844996748,727
-781.0193359791231,765
-778.3328266431781,798
-775.6470563194197,774
-772.9620248353489,781
-770.2777320183878,768
-767.5941776958798,776
-764.9113616950891,765
-762.2292838432011,785
-759.5479439673222,754
-756.8673418944801,729
-754.1874774516235,786
-751.5083504656222,790
-748.8299607632671,729
-746.15230817127,775
-743.475392516264,794
-740.7992136248035,773
-738.1237713233636,754
-735.4490654383407,752
-732.7750957960521,806
-730.1018622227365,841
-727.4293645445534,794
-724.7576025875837,757
-722.0865761778291,770
-719.4162851412126,831
-716.7467293035781,807
-714.0779084906909,827
-711.409822528237,909
-708.7424712418238,841
-706.0758544569796,792
-703.4099719991541,821
-700.7448236937178,875
-698.0804093659622,880
-695.4167288411002,852
-692.7537819442656,880
-690.0915685005134,803
-687.4300883348199,854
-684.7693412720819,799
-682.1093271371178,836
-679.4500457546669,843
-676.7914969493897,857
-674.1336805458676,870
-671.4765963686034,914
-668.8202442420206,890
-666.1646239904642,881
-663.5097354382001,902
-660.8555784094151,865
-658.2021527282176,880
-655.5494582186366,923
-652.8974947046223,926
-650.2462620100463,899
-647.5957599587009,919
-644.9459883742998,869
-642.2969470804776,939
-639.6486359007902,883
-637.0010546587141,933
-634.3542031776476,891
-631.7080812809096,878
-629.0626887917401,890
-626.4180255333008,903
-623.7740913286734,871
-621.1308860008619,872
-618.4884093727904,885
-615.8466612673046,858
-613.2056415071715,843
-610.5653499150785,835
-607.9257863136347,873
-605.28695052537,891
-602.6488423727357,875
-600.0114616781036,857
-597.3748082637674,901
-594.7388819519412,869
-592.1036825647604,928
-589.4692099242818,944
-586.8354638524829,897
-584.2024441712624,838
-581.5701507024403,919
-578.9385832677575,950
-576.3077416888759,935
-573.6776257873787,872
-571.0482353847704,881
-568.4195703024757,924
-565.7916303618415,954
-563.164415384135,913
-560.5379251905453,889
-557.9121596021815,935
-555.2871184400748,916
-552.6628015251767,880
-550.0392086783606,928
-547.4163397204204,917
-544.794194472071,886
-542.1727727539491,897
-539.5520743866118,934
-536.9320991905377,932
-534.3128469861261,949
-531.6943175936979,1021
-529.0765108334947,1008
-526.4594265256793,1052
-523.8430644903358,1242
-521.2274245474689,1360
-518.612506517005,1402
-515.9983102187913,1496
-513.3848354725959,1645
-510.77208209810846,1732
-508.16004991493924,1751
-505.5487387426199,1875
-502.9381484006032,1979
-500.3282787082628,1997
-497.71912948489364,2064
-495.1107005497117,2066
-492.5029917218539,1813
-489.8960028203786,1717
-487.28973366426493,1498
-484.68418407241325,1359
-482.07935386364494,1225
-479.47524285670266,1162
-476.87185087025,1204
-474.2691777228715,1209
-471.66722323307334,1170
-469.0659872192821,1174
-466.4654694998459,1173
-463.86566989303384,1101
-461.26658821703614,1078
-458.66822428996414,1119
-456.07057792985,1152
-453.4736489546475,1078
-450.877437182231,1112
-448.28194243039627,1154
-445.68716451686,1143
-443.09310325926003,1115
-440.49975847515555,1141
-437.9071299820263,1038
-435.31521759727354,1070
-432.72402113821954,1129
-430.13354042210767,1089
-427.5437752661022,1156
-424.95472548728867,1147
-422.36639090267386,1133
-419.7787713291855,1172
-417.1918665836721,1114
-414.60567648290385,1131
-412.0202008435715,1158
-409.4354394822874,1189
-406.8513922155845,1149
-404.26805885991723,1210
-401.685439231661,1201
-399.103533147112,1158
-396.522340422488,1168
-393.9418608739278,1186
-391.3620943174908,1179
-388.7830405691583,1169
-386.2046994448317,1068
-383.6270707603344,1061
-381.05015433141045,1012
-378.473949973725,933
-375.8984575028645,949
-373.32367673433623,841
-370.74960748356875,773
-368.1762495659117,737
-365.60360279663576,687
-363.03166699093265,620
-360.4604419639154,598
-357.8899275306178,582
-355.32012350599507,527
-352.7510297049233,537
-350.1826459421999,555
-347.61497203254316,533
-345.04800779059235,547
-342.4817530309082,525
-339.91620756797226,506
-337.35137121618743,535
-334.7872437898774,534
-332.22382510328725,520
-329.66111497058273,562
-327.09911320585127,582
-324.53781962310075,564
-321.9772340362607,525
-319.4173562591816,581
-316.8581861056348,590
-314.2997233893127,609
-311.7419679238294,630
-309.1849195227194,595
-306.62857799943856,584
-304.0729431673641,578
-301.51801483979375,577
-298.963792829947,600
-296.41027695096386,634
-293.85746701590574,639
-291.3053628377552,701
-288.7539642294155,671
-286.2032710037115,666
-283.65328297338897,714
-281.1039999511146,667
-278.5554217494762,781
-276.007548180983,672
-273.4603790580651,578
-270.9139141930734,621
-268.3681533982807,646
-265.8230964858798,672
-263.27874326798565,674
-260.7350935566336,687
-258.1921471637804,774
-255.6499039013039,766
-253.10836358100266,736
-250.56752601459698,698
-248.02739101372765,736
-245.48795838995704,730
-242.94922795476816,703
-240.41119951956557,713
-237.8738728956746,784
-235.33724789434166,789
-232.80132432673452,808
-230.2661020039418,1029
-227.73158073697357,1035
-225.19776033676033,845
-222.66464061415422,828
-220.1322213799284,756
-217.60050244477725,807
-215.06948361931552,835
-212.53916471408013,833
-210.00954553952818,755
-207.48062590603843,842
-204.9524056239104,1071
-202.4248845033651,984
-199.8980623545441,847
-197.37193898751036,891
-194.84651421224817,1023
-192.32178783866232,1015
-189.79775967657952,962
-187.27442953574644,960
-184.7517972258321,900
-182.2298625564256,818
-179.7086253370378,1023
-177.18808537710026,1105
-174.66824248596583,1013
-172.14909647290835,1159
-169.6306471471229,1086
-167.11289431772548,989
-164.59583779375328,1056
-162.07947738416453,1028
-159.5638128978386,1044
-157.04884414357605,1170
-154.53457093009854,1158
-152.02099306604828,1078
-149.50811035998936,1089
-146.99592262040665,1156
-144.48442965570587,1144
-141.97363127421409,1227
-139.46352728417958,1324
-136.95411749377126,1258
-134.44540171107985,1378
-131.93737974411636,1380
-129.43005140081357,1475
-126.92341648902493,1471
-124.41747481652521,1586
-121.91222619101006,1518
-119.40767042009657,1392
-116.90380731132257,1420
-114.40063667214702,1577
-111.8981583099503,1671
-109.3963720320337,1547
-106.89527764561933,1397
-104.39487495785067,1423
-101.89516377579241,1518
-99.39614390642998,1582
-96.89781515667039,1624
-94.40017733334128,1814
-91.90323024319173,2001
-89.40697369289148,1822
-86.91140748903172,1679
-84.41653143812482,1711
-81.92234534660395,1888
-79.42884902082358,2026
-76.93604226705907,1948
-74.4439248915071,1946
-71.95249670028534,1872
-69.46175749943245,2096
-66.97170709490854,2277
-64.48234529259423,2557
-61.99367189829195,2626
-59.50568671772464,2701
-57.01838955653636,3085
-54.53178022029283,3091
-52.045858514480074,3161
-49.560624244506016,3751
-47.07607721569923,3616
-44.59221723330904,3458
-42.10904410250669,3422
-39.62655762838392,4099
-37.14475761595372,5359
-34.66364387015028,5541
-32.18321619582866,5935
-29.70347439776515,6883
-27.224418280657005,7744
-24.74604764912317,10125
-22.26836230770266,15475
-19.7913620608565,24361
-17.315046712966478,36315
-14.83941606833514,41604
-12.36446993118659,65038
-9.89020810566592,65038
-7.416630395839093,65038
-4.94373660569363,65038
-2.471526539137585,65038
-6.821210263296962E-13,65038
2.47084320796705,65038
4.941003281093458,65038
7.410480415786196,65038
9.879274808531363,65038
12.347386655893956,65038
14.814816154518212,65038
17.28156350112681,65038
19.74762889252179,65038
22.21301252558385,65038
24.67771459727237,65038
27.141735304626195,43812
29.605074844762612,17287
32.06773341487792,13968
34.52971121224755,10442
36.99100843422559,9309
39.45162527824516,7880
41.91156194181792,8073
44.370818622535126,9427
46.82939551806646,9470
49.287292826160524,10398
51.74451074464503,10219
54.201049471426245,8625
56.65690920448981,6815
59.112090141899785,3976
61.56659248179983,3474
64.02041642241159,3305
66.4735621620365,3931
68.92602989905402,3074
71.37781983192338,2651
73.82893215918205,2757
76.27936707944684,2785
78.72912479141326,3493
81.17820549385567,3444
83.62660938562783,3321
86.07433666566146,2546
88.5213875329681,3100
90.96776218663751,3074
93.41346082583925,2829
95.85848364982041,2756
98.30283085790859,2300
100.7465026495089,2520
103.18949922410604,2806
105.63182078126385,2209
108.07346752062438,2477
110.51443964190923,2395
112.95473734491827,2164
115.39436082953114,2025
117.83331029570547,2027
120.27158594347827,2031
122.7091879729652,1862
125.1461165843615,1745
127.58237197794062,1566
130.01795435405518,1252
132.4528639131364,1350
134.88710085569494,1607
137.32066538231982,1654
139.75355769367923,1594
142.1857779905207,1713
144.61732647366978,1759
147.04820334403132,1574
149.47840880258934,1486
151.90794305040674,1822
154.33680628862487,2059
156.76499871846443,1749
159.19252054122433,1842
161.61937195828352,2039
164.04555317109896,1994
166.47106438120693,2210
168.89590579022217,2627
171.320077599839,2717
173.7435800118302,2715
176.16641322804742,2860
178.58857745042144,2829
181.01007288096173,2937
183.43089972175687,3013
185.85105817497413,3023
188.27054844285988,3078
190.6893707277394,3121
193.10752523201643,2925
195.5250121581745,3170
197.9418317087751,3202
200.3579840864594,3100
202.7734694939469,3078
205.18828813403627,3266
207.6024402096051,3170
210.01592592360964,3251
212.42874547908548,3324
214.84089907914665,3105
217.2523869269868,3085
219.66320922587727,3176
222.0733661791695,3162
224.48285799029293,3121
226.8916848627572,3228
229.29984700014882,3395
231.7073446061355,3391
234.11417788446204,3362
236.520347038953,3366
238.92585227351185,3672
241.33069379212054,3746
243.73487179884035,3658
246.1383864978112,3753
248.541238093252,3731
250.9434267894609,3861
253.34495279081432,3892
255.74581630176783,3756
258.1460175268563,4027
260.54555667069314,4073
262.9444339379703,3853
265.3426495334594,3754
267.7402036620107,3715
270.1370965285529,3518
272.53332833809407,3371
274.9288992957214,3280
277.32380960660055,3089
279.718059475976,2977
282.1116491091717,2978
284.5045787115897,3064
286.89684848871195,2974
289.2884586460981,2867
291.67940938938807,2938
294.0697009242996,2857
296.4593334566299,2804
298.84830719225477,2899
301.23662233712923,2764
303.6242790972866,2735
306.01127767884,2797
308.39761828798066,2818
310.78330113097934,2719
313.16832641418534,2588
315.5526943440269,2599
317.9364051270112,2524
320.3194589697242,2511
322.70185607883093,2509
325.0835966610754,2486
327.4646809232805,2516
329.8451090723478,2463
332.2248813152577,2471
334.6039978590701,2460
336.9824589109231,2455
339.36026467803447,2413
341.7374153677,2421
344.113911187295,2357
346.48975234427337,2249
348.8649390461686,2307
351.2394715005918,2260
353.61334991523415,2313
355.9865744978655,2308
358.35914545633375,2279
360.73106299856715,2288
363.10232733257146,2284
365.47293866643247,2252
367.84289720831396,2279
370.2122031664593,2249
372.5808567491905,2231
374.9488581649083,2308
377.31620762209275,2333
379.6829053293021,2222
382.0489514951745,2203
384.4143463284262,2304
386.7790900378528,2180
389.14318283232853,2192
391.50662492080653,2222
393.86941651231916,2236
396.23155781597745,2058
398.5930490409713,2186
400.9538903965696,2176
403.3140820921202,2127
405.6736243370498,2125
408.03251734086336,2101
410.3907613131465,2074
412.74835646356166,2077
415.10530300185144,2070
417.4616011378372,2169
419.81725108141893,2104
422.1722530425758,2058
424.5266072313656,2031
426.880313857925,2048
429.2333731324701,2137
431.58578526529516,2129
433.9375504667738,2048
436.2886689473588,2050
438.63914091758113,2026
440.9889665880513,1985
443.33814616945835,2040
445.68667987257015,2102
448.03456790823395,2057
450.3818104873759,2006
452.72840782100013,2038
455.07436012019105,2035
457.41966759611057,2029
459.7643304600007,2082
462.10834892318155,2070
464.4517231970525,2010
466.79445349309174,2033
469.1365400228566,2001
471.4779829979826,2009
473.81878263018564,2161
476.15893913125876,2162
478.4984527130747,2091
480.8373235875855,2131
483.17555196682144,2059
485.5131380628919,2188
487.8500820879857,2260
490.1863842543697,2275
492.52204477439034,2518
494.8570638604725,2744
497.1914417251204,2904
499.52517858091653,3215
501.85827464052306,3416
504.19073011668036,3563
506.5225452222086,3656
508.85372017000566,3526
511.18425517304956,3494
513.514150444396,3572
515.8434061971808,4169
518.1720226446176,4705
520.4999999999999,4888
522.8273384766991,5165
525.1540382881666,5324
527.480099647932,5163
529.8055227696037,4537
532.1303078668694,3296
534.454455153496,2481
536.777964843328,2167
539.1008371502907,1995
541.4230722883866,2008
543.744670471698,1990
546.0656319143858,1927
548.3859568306899,1948
550.7056454349294,1950
553.0246979415016,1974
555.3431145648834,1912
557.6608955196306,1966
559.978041020377,1897
562.2945512818363,1884
564.6104265188006,1843
566.9256669461412,1777
569.2402727788082,1792
571.5542442318302,1828
573.8675815203156,1818
576.1802848594508,1802
578.4923544645015,1782
580.8037905508126,1874
583.114593333807,1814
585.4247630289875,1859
587.7342998519354,1915
590.0432040183106,1839
592.3514757438526,1808
594.6591152443794,1840
596.9661227357875,1842
599.2724984340531,1795
601.578242555231,1805
603.8833553154542,1868
606.1878369309362,1774
608.4916876179676,1878
610.7949075929192,1889
613.0974970722403,1839
615.3994562724587,1942
617.7007854101818,1903
620.0014847020951,1914
622.3015543649641,1895
624.6009946156324,1858
626.8998056710224,1881
629.1979877481361,1864
631.4955410640538,1817
633.7924658359349,1917
636.0887622810175,1922
638.3844306166192,1845
640.6794710601358,1871
642.9738838290426,1859
645.2676691408932,1884
647.5608272133207,1968
649.853358264037,1887
652.1452625108324,1825
654.4365401715764,1955
656.7271914642178,1854
659.0172166067838,1889
661.3066158173809,1949
663.5953893141935,1945
665.8835373154867,1893
668.1710600396028,2020
670.4579577049639,2017
672.7442305300709,1943
675.0298787335033,1923
677.3149025339197,1958
679.599302150058,1998
681.8830778007342,1912
684.1662297048437,1926
686.4487580813608,1988
688.7306631493387,1918
691.0119451279091,1912
693.2926042362834,1945
695.5726406937516,1955
697.8520547196814,1927
700.1308465335215,1929
702.4090163547982,2011
704.6865644031171,1918
706.9634908981619,1953
709.2397960596965,1932
711.5154801075631,1909
713.7905432616823,1878
716.0649857420548,1872
718.3388077687592,1931
720.612009561953,1912
722.8845913418733,1900
725.1565533288352,1922
727.427895743234,1908
729.6986188055427,1898
731.9687227363137,1869
734.238207756178,1987
736.5070740858458,1828
738.7753219461066,1915
741.0429515578281,1845
743.3099631419569,1905
745.5763569195191,1887
747.8421331116193,1936
750.1072919394409,1855
752.3718336242467,1900
754.6357583873777,1898
756.8990664502545,1885
759.1617580343765,1903
761.423833361321,1951
763.6852926527457,1891
765.9461361303862,1856
768.206364016058,1878
770.4659765316536,1866
772.7249738991469,1868
774.9833563405886,1841
777.2411240781092,1925
779.4982773339183,1946
781.7548163303044,1956
784.010741289634,1925
786.2660524343538,2041
788.5207499869881,1981
790.7748341701416,1917
793.0283052064964,1865
795.2811633188143,1930
797.5334087299362,1981
799.7850416627813,1987
802.0360623403484,1930
804.2864709857143,1943
806.5362678220353,2001
808.7854530725468,1891
811.0340269605625,1854
813.2819897094754,1925
815.5293415427581,1913
817.77608268396,1923
820.0222133567116,1971
822.2677337847211,1905
824.5126441917765,1889
826.7569448017433,1805
829.0006358385675,1868
831.2437175262731,2005
833.4861900889629,1972
835.7280537508192,1933
837.9693087361026,1965
840.2099552691533,1910
842.4499935743896,1863
844.689423876309,1863
846.9282463994886,1906
849.1664613685833,1906
851.4040690083276,1965
853.6410695435349,1888
855.877463199097,1962
858.1132501999847,1953
860.3484307712487,1964
862.5830051380175,1980
864.8169735254988,1922
867.0503361589791,1908
869.2830932638243,1960
871.5152450654786,2013
873.7467917894654,1943
875.9777336613873,1959
878.2080709069252,1997
880.4378037518389,1966
882.666932421968,1904
884.8954571432301,1954
887.1233781416219,1983
889.3506956432192,1961
891.5774098741766,1949
893.803521060728,2012
896.0290294291852,1959
898.2539352059397,1999
900.4782386174619,2002
902.7019398903011,2059
904.925039251085,1968
907.147536926521,1988
909.3694331433943,2016
911.59072812857,2017
913.8114221089921,2065
916.0315153116827,2037
918.2510079637437,1977
920.4699002923547,1977
922.6881925247761,1941
924.905884888345,2065
927.1229776104793,1990
929.3394709186747,1979
931.555365040506,2034
933.7706602036275,2023
935.9853566357709,2014
938.1994545647489,1981
940.4129542184515,1996
942.6258558248488,2021
944.8381596119883,1990
947.0498658079974,1974
949.2609746410825,1972
951.4714863395287,1942
953.6814011316998,2000
955.8907192460387,2020
958.0994409110671,1965
960.3075663553858,1962
962.5150958076741,1914
964.7220294966913,1904
966.928367651274,1929
969.1341105003388,1858
971.3392582728806,1925
973.5438111979742,1840
975.747769504772,1856
977.9511334225061,1849
980.153903180487,1912
982.3560790081052,1910
984.5576611348289,1858
986.7586497902058,1859
988.9590452038618,1834
991.158847605503,1794
993.3580572249133,1819
995.5566742919558,1750
997.7546990365728,1713
999.952131688785,1713
1002.1489724786926,1671
1004.3452216364743,1700
1006.5408793923874,1705
1008.7359459767691,1678
1010.9304216200343,1636
1013.1243065526781,1655
1015.3176010052733,1659
1017.510305208472,1623
1019.7024193930064,1587
1021.8939437896848,1588
1024.0848786293977,1602
1026.2752241431122,1555
1028.4649805618747,1656
1030.6541481168115,1644
1032.842727039127,1517
1035.0307175601051,1575
1037.2181199111074,1524
1039.4049343235752,1596
1041.591161029029,1676
1043.7768002590683,1554
1045.9618522453698,1545
1048.1463172196918,1579
1050.3301954138697,1586
1052.513487059818,1599
1054.69619238953,1567
1056.8783116350783,1554
1059.0598450286152,1618
1061.2407928023704,1586
1063.4211551886528,1547
1065.6009324198508,1529
1067.780124728432,1538
1069.9587323469414,1556
1072.1367555080046,1543
1074.314194444325,1538
1076.4910493886855,1552
1078.667320573947,1541
1080.843008233051,1556
1083.0181125990161,1461
1085.1926339049414,1487
1087.3665723840027,1461
1089.5399282694575,1513
1091.7127017946405,1497
1093.8848931929647,1371
1096.0565026979243,1435
1098.2275305430899,1483
1100.3979769621128,1513
1102.567842188722,1445
1104.737126456726,1475
1106.9058300000124,1459
1109.0739530525475,1428
1111.2414958483764,1469
1113.4084586216231,1486
1115.5748416064907,1457
1117.7406450372605,1477
1119.9058691482942,1461
1122.0705141740304,1434
1124.2345803489884,1452
1126.3980679077658,1437
1128.5609770850388,1371
1130.7233081155623,1444
1132.8850612341707,1453
1135.0462366757774,1420
1137.2068346753745,1402
1139.3668554680326,1410
1141.526299288901,1447
1143.68516637321,1434
1145.8434569562655,1361
1148.001171273455,1350
1150.158309560244,1356
1152.3148720521767,1401
1154.470858984876,1379
1156.626270594044,1472
1158.7811071154629,1429
1160.9353687849912,1371
1163.089055838569,1399
1165.242168512213,1415
1167.3947070420209,1400
1169.5466716641677,1398
1171.6980626149075,1387
1173.8488801305748,1465
1175.9991244475814,1406
1178.1487958024186,1377
1180.2978944316555,1371
1182.4464205719428,1404
1184.5943744600072,1342
1186.7417563326567,1402
1188.8885664267755,1464
1191.0348049793297,1366
1193.1804722273619,1359
1195.325568407995,1392
1197.4700937584303,1433
1199.614048515948,1359
1201.7574329179074,1383
1203.900247201746,1365
1206.042491604982,1415
1208.1841663652099,1393
1210.3252717201053,1382
1212.465807907422,1350
1214.6057751649923,1425
1216.7451737307279,1354
1218.8840038426192,1419
1221.0222657387353,1407
1223.1599596572241,1455
1225.2970858363137,1460
1227.4336445143094,1510
1229.5696359295966,1464
1231.705060320639,1386
1233.8399179259786,1418
1235.9742089842384,1445
1238.107933734118,1483
1240.2410924143974,1473
1242.373685263935,1421
1244.5057125216676,1439
1246.6371744266116,1497
1248.7680712178621,1407
1250.898403134593,1448
1253.028170416058,1417
1255.1573733015875,1447
1257.2860120305932,1452
1259.4140868425648,1433
1261.54159797707,1441
1263.6685456737569,1430
1265.7949301723515,1476
1267.9207517126597,1511
1270.046010534565,1502
1272.1707068780306,1527
1274.2948409830983,1479
1276.4184130898889,1525
1278.541423438603,1498
1280.6638722695184,1487
1282.785759822993,1502
1284.9070863394636,1502
1287.0278520594447,1498
1289.1480572235314,1532
1291.2677020723963,1564
1293.3867868467923,1543
1295.5053117875495,1489
1297.623277135579,1599
1299.740683131868,1548
1301.8575300174857,1582
1303.973818033578,1578
1306.0895474213703,1599
1308.2047184221678,1634
1310.3193312773528,1575
1312.4333862283888,1577
1314.5468835168163,1651
1316.659823384255,1541
1318.7722060724045,1585
1320.8840318230418,1583
1322.9953008780249,1566
1325.1060134792888,1570
1327.2161698688478,1618
1329.3257702887959,1682
1331.4348149813054,1644
1333.5433041886276,1640
1335.6512381530933,1588
1337.7586171171101,1585
1339.8654413231675,1538
1341.9717110138317,1590
1344.0774264317488,1611
1346.1825878196432,1598
1348.2871954203192,1579
1350.3912494766587,1645
1352.4947502316231,1568
1354.5976979282532,1612
1356.7000928096686,1562
1358.8019351190665,1575
1360.9032250997243,1558
1363.0039629949988,1586
1365.1041490483235,1631
1367.2037835032133,1633
1369.3028666032606,1591
1371.401398592137,1591
1373.4993797135926,1571
1375.5968102114575,1564
1377.6936903296396,1695
1379.7900203121262,1621
1381.8858004029835,1567
1383.9810308463561,1594
1386.075711886469,1566
1388.1698437676241,1603
1390.2634267342032,1642
1392.356461030667,1642
1394.4489469015557,1641
1396.5408845914872,1664
1398.6322743451592,1678
1400.7231164073469,1672
1402.813411022907,1693
1404.903158436773,1669
1406.9923588939578,1674
1409.0810126395531,1626
1411.1691199187303,1725
1413.2566809767386,1652
1415.343696058907,1673
1417.4301654106425,1776
1419.5160892774315,1719
1421.6014679048399,1668
1423.6863015385125,1684
1425.7705904241707,1816
1427.8543348076178,1774
1429.9375349347342,1800
1432.0201910514802,1796
1434.102303403894,1726
1436.1838722380944,1826
1438.2648978002767,1900
1440.3453803367174,1871
1442.4253200937692,1846
1444.5047173178677,1955
1446.5835722555234,1948
1448.6618851533285,1892
1450.739656257952,2021
1452.8168858161434,2063
1454.8935740747306,1993
1456.96972128062,2084
1459.045327680797,2115
1461.120393522327,2182
1463.1949190523528,2241
1465.2689045180973,2246
1467.3423501668608,2276
1469.415256246024,2313
1471.4876230030463,2320
1473.559450685465,2379
1475.6307395408976,2376
1477.7014898170391,2505
1479.771701761665,2580
1481.8413756226287,2569
1483.9105116478618,2661
1485.9791100853772,2603
1488.0471711832643,2661
1490.1146951896926,2703
1492.1816823529098,2731
1494.2481329212433,2799
1496.3140471430984,2819
1498.3794252669609,2907
1500.4442675413939,2948
1502.5085742150404,2990
1504.572345536622,2943
1506.6355817549388,3100
1508.6982831188702,2968
1510.7604498773744,3008
1512.8220822794883,2928
1514.8831805743293,3028
1516.9437450110909,3090
1519.003775839048,3149
1521.0632733075522,3047
1523.1222376660367,3144
1525.1806691640113,3222
1527.2385680510652,3211
1529.2959345768668,3242
1531.3527689911643,3198
1533.4090715437833,3261
1535.4648424846291,3369
1537.5200820636855,3320
1539.5747905310159,3478
1541.6289681367616,3558
1543.6826151311434,3449
1545.7357317644614,3514
1547.7883182870937,3684
1549.8403749494987,3598
1551.8919020022113,3726
1553.9428996958477,3792
1555.9933682811015,3758
1558.0433080087469,3908
1560.0927191296346,3925
1562.1416018946961,3970
1564.1899565549415,4012
1566.2377833614592,4092
1568.2850825654164,3999
1570.3318544180606,3970
1572.3780991707158,3784
1574.423817074788,3785
1576.4690083817595,3546
1578.5136733431923,3425
1580.5578122107272,3302
1582.601425236085,3094
1584.6445126710646,2963
1586.6870747675434,2873
1588.7291117774776,2764
1590.7706239529034,2675
1592.8116115459347,2463
1594.8520748087658,2439
1596.8920139936686,2249
1598.9314293529933,2115
1600.9703211391711,2070
1603.008689604711,2037
1605.0465350022005,2051
1607.0838575843068,1965
1609.1206576037753,1882
1611.1569353134305,1836
1613.1926909661765,1788
1615.2279248149953,1772
1617.2626371129481,1720
1619.2968281131757,1725
1621.3304980688963,1774
1623.3636472334088,1666
1625.39627586009,1656
1627.428384202396,1670
1629.459972513861,1622
1631.4910410480993,1630
1633.5215900588028,1555
1635.551619799744,1633
1637.5811305247717,1574
1639.6101224878166,1609
1641.6385959428862,1580
1643.6665511440683,1591
1645.693988345528,1482
1647.7209078015112,1486
1649.7473097663405,1511
1651.7731944944203,1499
1653.7985622402307,1541
1655.823413258333,1522
1657.847747803366,1460
1659.8715661300494,1535
1661.8948684931793,1519
1663.9176551476316,1476
1665.9399263483624,1463
1667.9616823504057,1475
1669.982923408873,1490
1672.0036497789574,1517
1674.0238617159293,1453
1676.043559475138,1481
1678.0627433120121,1484
1680.081413482059,1478
1682.0995702408654,1441
1684.117213844096,1406
1686.134344547495,1492
1688.1509626068864,1416
1690.1670682781705,1450
1692.182661817329,1492
1694.1977434804217,1441
1696.2123135235875,1454
1698.226372203043,1481
1700.2399197750851,1439
1702.2529564960905,1455
1704.2654826225112,1446
1706.277498410882,1441
1708.2890041178139,1406
1710.2999999999988,1469
1712.3104863142066,1469
1714.3204633172854,1507
1716.329931266163,1450
1718.3388904178469,1418
1720.3473410294214,1434
1722.3552833580516,1415
1724.3627176609807,1380
1726.3696441955308,1403
1728.3760632191033,1385
1730.3819749891782,1430
1732.3873797633146,1379
1734.3922777991502,1399
1736.3966693544012,1341
1738.4005546868639,1376
1740.4039340544127,1381
1742.406807715001,1400
1744.4091759266616,1317
1746.4110389475054,1316
1748.4123970357223,1354
1750.413250449582,1353
1752.4135994474318,1385
1754.4134442876993,1346
1756.4127852288902,1347
1758.4116225295893,1303
1760.4099564484595,1275
1762.407787244244,1360
1764.405115175764,1312
1766.4019405019203,1367
1768.3982634816916,1344
1770.3940843741357,1310
1772.3894034383907,1331
1774.3842209336717,1346
1776.378537119274,1304
1778.372352254571,1280
1780.3656665990156,1327
1782.3584804121397,1299
1784.3507939535534,1312
1786.3426074829463,1294
1788.3339212600863,1285
1790.3247355448211,1322
1792.3150505970766,1288
1794.3048666768573,1290
1796.2941840442477,1318
1798.2830029594106,1258
1800.2713236825884,1274
1802.2591464741004,1297
1804.2464715943465,1291
1806.2332993038058,1249
1808.2196298630352,1236
1810.2054635326708,1272
1812.190800573428,1286
1814.175641246101,1293
1816.1599858115628,1290
1818.1438345307652,1256
1820.127187664738,1200
1822.1100454745924,1312
1824.092408221516,1275
1826.0742761667766,1282
1828.055649571721,1316
1830.0365286977735,1230
1832.0169138064398,1222
1833.9968051593014,1275
1835.9762030180214,1226
1837.9551076443408,1235
1839.9335193000788,1237
1841.9114382471344,1261
1843.888864747485,1238
1845.8657990631878,1246
1847.842241456378,1225
1849.8181921892697,1220
1851.7936515241558,1244
1853.7686197234098,1248
1855.7430970494815,1218
1857.7170837649014,1223
1859.6905801322787,1266
1861.6635864143004,1234
1863.6361028737338,1259
1865.608129773424,1264
1867.5796673762961,1293
1869.5507159453537,1242
1871.521275743678,1320
1873.4913470344313,1208
1875.4609300808534,1288
1877.4300251462632,1231
1879.3986324940588,1299
1881.366752387717,1256
1883.3343850907936,1234
1885.3015308669228,1320
1887.268189979819,1322
1889.2343626932739,1255
1891.2000492711595,1290
1893.1652499774254,1316
1895.1299650761011,1277
1897.0941948312952,1301
1899.0579395071945,1267
1901.0211993680641,1294
1902.98397467825,1364
1904.9462657021745,1303
1906.9080727043415,1289
1908.869395949332,1252
1910.8302357018065,1317
1912.790592226504,1260
1914.7504657882428,1327
1916.7098566519212,1248
1918.6687650825133,1283
1920.6271913450764,1242
1922.5851357047422,1252
1924.5425984267245,1298
1926.499579776314,1233
1928.4560800188833,1288
1930.4120994198802,1307
1932.367638244833,1294
1934.32269675935,1271
1936.2772752291175,1275
1938.231373919899,1270
1940.1849930975404,1264
1942.1381330279637,1251
1944.0907939771696,1309
1946.0429762112412,1246
1947.9946799963363,1295
1949.9459055986945,1237
1951.896653284633,1255
1953.8469233205478,1221
1955.7967159729142,1295
1957.7460315082863,1259
1959.6948701932974,1255
1961.6432322946594,1256
1963.5911180791632,1290
1965.5385278136787,1230
1967.4854617651545,1317
1969.4319202006182,1276
1971.377903387176,1200
1973.3234115920136,1229
1975.268445082395,1227
1977.2130041256642,1274
1979.1570889892423,1242
1981.1006999406304,1218
1983.04383724741,1237
1984.986501177238,1217
1986.928691997853,1287
1988.8704099770712,1270
1990.811655382789,1277
1992.7524284829801,1250
1994.692729545698,1250
1996.6325588390755,1268
1998.5719166313224,1265
2000.5108031907307,1287
2002.4492187856677,1237
2004.387163684583,1190
2006.3246381560011,1236
2008.2616424685298,1234
2010.1981768908527,1217
2012.1342416917332,1246
2014.069837140014,1236
2016.0049635046162,1231
2017.9396210545406,1257
2019.8738100588666,1212
2021.8075307867502,1245
2023.740783507431,1183
2025.6735684902228,1208
2027.6058860045214,1280
2029.5377363198004,1270
2031.4691197056118,1172
2033.4000364315875,1184
2035.3304867674374,1229
2037.260470982952,1201
2039.189989347998,1199
2041.1190421325232,1221
2043.047629606554,1209
2044.9757520401945,1224
2046.9034097036288,1220
2048.8306028671195,1227
2050.7573318010086,1201
2052.683596775716,1229
2054.609398061742,1227
2056.5347359296647,1182
2058.4596106501403,1229
2060.384022493906,1245
2062.3079717317764,1206
2064.231458634646,1167
2066.1544834734873,1155
2068.077046519352,1192
2069.99914804337,1232
2071.9207883167524,1204
2073.8419676107865,1173
2075.7626861968406,1210
2077.6829443463607,1246
2079.6027423308715,1124
2081.522080421977,1185
2083.440958891362,1167
2085.359378010786,1237
2087.2773380520907,1229
2089.194839287196,1227
2091.111881988101,1201
2093.0284664268825,1170
2094.9445928756973,1210
2096.86026160678,1206
2098.775472892446,1167
2100.690227005088,1190
2102.604524217178,1176
2104.5183648012676,1173
2106.431749029985,1199
2108.34467717604,1241
2110.2571495122206,1169
2112.169166311393,1208
2114.080727846503,1201
2115.9918343905747,1199
2117.902486216711,1192
2119.8126835980956,1172
2121.722426807987,1222
2123.6317161197285,1203
2125.5405518067364,1266
2127.448934142509,1231
2129.356863400624,1171
2131.264339854737,1147
2133.1713637785815,1206
2135.077935445972,1176
2136.9840551308002,1186
2138.889723107037,1163
2140.7949396487334,1207
2142.699705030018,1160
2144.6040195250994,1221
2146.507883408264,1211
2148.4112969538774,1210
2150.3142604363848,1206
2152.2167741303097,1233
2154.1188383102535,1202
2156.0204532508997,1221
2157.9216192270064,1219
2159.822336513414,1179
2161.7226053850413,1209
2163.622426116884,1199
2165.5217989840185,1226
2167.4207242616,1289
2169.319202224862,1210
2171.2172331491165,1264
2173.1148173097563,1276
2175.0119549822507,1186
2176.90864644215,1208
2178.8048919650823,1204
2180.7006918267534,1181
2182.596046302952,1170
2184.4909556695407,1194
2186.3854202024645,1214
2188.279440177746,1163
2190.173015871487,1245
2192.066147559868,1220
2193.958835519149,1251
2195.851080025667,1208
2197.7428813558417,1233
2199.6342397861667,1178
2201.5251555932186,1238
2203.415629053651,1201
2205.3056604441986,1221
2207.19525004167,1214
2209.084398122958,1214
2210.9731049650327,1216
2212.861370844941,1184
2214.749196039812,1231
2216.636580826851,1193
2218.523525483344,1198
2220.410030286655,1221
2222.296095514226,1281
2224.1817214435805,1200
2226.066908352319,1262
2227.951656518121,1238
2229.835966218746,1223
2231.71983773203,1190
2233.6032713358913,1169
2235.486267308324,1173
2237.3688259274036,1175
2239.2509474712824,1234
2241.132632218193,1153
2243.013880446447,1216
2244.8946924344323,1242
2246.7750684606203,1206
2248.6550088035574,1170
2250.534513741871,1118
2252.413583554265,1226
2254.292218519526,1184
2256.170418916517,1192
2258.0481850241786,1170
2259.925517121534,1217
2261.8024154876825,1205
2263.678880401803,1220
2265.5549121431536,1181
2267.430510991071,1204
2269.305677224971,1241
2271.180411124348,1162
2273.0547129687766,1171
2274.9285830379076,1173
2276.8020216114737,1234
2278.6750289692845,1250
2280.5476053912294,1241
2282.4197511572766,1239
2284.2914665474727,1224
2286.162751841943,1221
2288.0336073208937,1225
2289.904033264608,1209
2291.774029953448,1237
2293.6435976678554,1159
2295.5127366883517,1223
2297.381447295534,1252
2299.2497297700825,1255
2301.1175843927526,1273
2302.9850114443825,1207
2304.852011205885,1267
2306.7185839582553,1215
2308.5847299825664,1218
2310.4504495599676,1206
2312.3157429716925,1186
2314.1806104990483,1179
2316.0450524234247,1208
2317.9090690262888,1233
2319.772660589186,1214
2321.635827393742,1265
2323.498569721661,1247
2325.3608878547248,1286
2327.2227820747967,1196
2329.0842526638157,1253
2330.945299903803,1235
2332.805924076857,1222
2334.6661254651535,1262
2336.525904350951,1199
2338.3852610165827,1220
2340.244195744464,1228
2342.102708817088,1257
2343.9608005170253,1215
2345.8184711269287,1231
2347.675720929526,1300
2349.532550207628,1246
2351.38895924412,1246
2353.24494832197,1252
2355.100517724223,1250
2356.955667734004,1249
2358.810398634514,1250
2360.664710709037,1277
2362.5186042409337,1270
2364.3720795136437,1230
2366.225136810686,1303
2368.0777764156583,1296
2369.929998612237,1295
2371.7818036841777,1200
2373.633191915315,1276
2375.484163589562,1235
2377.3347189909114,1235
2379.184858403434,1343
2381.03458211128,1266
2382.8838903986775,1255
2384.732783549936,1227
2386.5812618494406,1255
2388.4293255816588,1267
2390.2769750311327,1236
2392.1242104824883,1272
2393.971032220427,1274
2395.8174405297295,1234
2397.6634356952563,1256
2399.509018001947,1303
2401.3541877348193,1270
2403.1989451789705,1295
2405.043290619576,1226
2406.8872243418905,1310
2408.730746631247,1264
2410.5738577730594,1257
2412.4165580528183,1292
2414.258847756095,1303
2416.100727168537,1272
2417.9421965758734,1293
2419.783256263912,1268
2421.623906518538,1286
2423.4641476257157,1284
2425.303979871491,1266
2427.143403541984,1310
2428.9824189233977,1286
2430.821026302012,1283
2432.6592259641866,1301
2434.497018196361,1320
2436.33440328505,1294
2438.171381516851,1293
2440.00795317844,1325
2441.844118556569,1298
2443.6798779380724,1308
2445.5152316098606,1285
2447.3501798589255,1357
2449.1847229723357,1354
2451.0188612372403,1343
2452.8525949408663,1304
2454.6859243705203,1302
2456.518849813587,1292
2458.3513715575314,1330
2460.183489889895,1283
2462.015205098301,1334
2463.8465174704493,1332
2465.67742729412,1299
2467.5079348571717,1291
2469.338040447542,1279
2471.1677443532476,1324
2472.9970468623833,1307
2474.825948263123,1307
2476.6544488437207,1314
2478.482548892508,1335
2480.310248697896,1288
2482.137548548374,1339
2483.9644487325118,1324
2485.790949538956,1303
2487.617051256433,1306
2489.44275417375,1325
2491.26805857979,1338
2493.0929647635157,1298
2494.917473013971,1344
2496.741583620276,1321
2498.5652968716304,1330
2500.3886130573137,1322
2502.2115324666834,1354
2504.0340553891765,1377
2505.856182114308,1348
2507.6779129316733,1328
2509.499248130945,1352
2511.3201880018764,1325
2513.140732834298,1350
2514.9608829181198,1377
2516.780638543331,1322
2518.6,1391
2520.418967578273,1347
2522.237541568376,1374
2524.0557222606144,1416
2525.8735099453706,1396
2527.6909049131086,1399
2529.507907454368,1393
2531.32451785977,1351
2533.140736420014,1364
2534.9565634258774,1406
2536.771999168218,1433
2538.5870439379714,1348
2540.4016980261526,1381
2542.2159617238544,1417
2544.02983532225,1461
2545.8433191125914,1431
2547.656413386209,1417
2549.4691184345115,1472
2551.2814345489874,1442
2553.093362021204,1500
2554.904901142808,1499
2556.716052205523,1463
2558.526815501153,1479
2560.3371913215824,1499
2562.147179958771,1474
2563.956781704761,1572
2565.7659968516705,1577
2567.5748256916986,1545
2569.3832685171224,1579
2571.1913256202984,1508
2572.9989972936614,1546
2574.806283829725,1555
2576.613185521084,1570
2578.4197026604074,1552
2580.2258355404483,1584
2582.031584454035,1643
2583.836949694077,1592
2585.6419315535613,1551
2587.4465303255533,1645
2589.2507463032002,1642
2591.0545797797245,1655
2592.8580310484303,1700
2594.6611004026995,1698
2596.463788135992,1673
2598.266094541849,1627
2600.0680199138874,1662
2601.869564545807,1664
2603.670728731383,1689
2605.4715127644704,1637
2607.2719169390048,1675
2609.071941548998,1638
2610.8715868885433,1666
2612.670853251811,1649
2614.469740933052,1687
2616.268250226594,1641
2618.0663814268455,1636
2619.864134828292,1598
2621.6615107255006,1687
2623.458509413115,1658
2625.2551311858597,1633
2627.0513763385347,1618
2628.8472451660223,1615
2630.6427379632833,1599
2632.4378550253564,1607
2634.232596647359,1607
2636.026963124488,1613
2637.8209547520187,1593
2639.6145718253065,1574
2641.407814639785,1571
2643.200683490966,1524
2644.9931786744414,1527
2646.7853004858807,1560
2648.577049221034,1514
2650.3684251757277,1522
2652.1594286458712,1493
2653.9500599274484,1511
2655.740319316525,1492
2657.5302071092437,1463
2659.3197236018286,1453
2661.10886909058,1546
2662.8976438718782,1421
2664.686048242183,1475
2666.4740824980327,1345
2668.2617469360443,1361
2670.0490418529134,1408
2671.8359675454153,1420
2673.622524310403,1366
2675.408712444811,1383
2677.1945322456495,1329
2678.979984010009,1317
2680.76506803506,1334
2682.5497846180497,1346
2684.334134056306,1385
2686.1181166472343,1336
2687.9017326883213,1328
2689.6849824771293,1313
2691.4678663113013,1379
2693.2503844885596,1383
2695.032537306705,1293
2696.8143250636167,1334
2698.5957480572542,1349
2700.3768065856534,1321
2702.1575009469316,1301
2703.937831439283,1313
2705.717798360982,1276
2707.4974020103837,1289
2709.276642685917,1287
2711.055520686095,1265
2712.834036309506,1268
2714.612189854819,1290
2716.389981620782,1234
2718.1674119062204,1260
2719.944481010041,1193
2721.721189231226,1253
2723.4975368688415,1256
2725.273524222027,1253
2727.0491515900053,1204
2728.824419272075,1256
2730.5993275676146,1305
2732.3738767760838,1283
2734.148067197016,1215
2735.921899130031,1255
2737.6953728748194,1205
2739.468488731156,1280
2741.2412469988926,1222
2743.0136479779617,1247
2744.785691968372,1272
2746.5573792702116,1267
2748.3287101836504,1204
2750.099685008934,1235
2751.870304046388,1209
2753.640567596418,1220
2755.4104759595057,1257
2757.1800294362156,1240
2758.949228327187,1205
2760.7180729331412,1221
2762.486563554877,1155
2764.254700493272,1216
2766.022484049284,1198
2767.789914523947,1189
2769.5569922183786,1237
2771.3237174337705,1202
2773.090090471394,1192
2774.8561116326036,1248
2776.6217812188274,1255
2778.3870995315756,1189
2780.1520668724356,1259
2781.9166835430747,1225
2783.6809498452394,1179
2785.444866080754,1277
2787.2084325515225,1205
2788.971649559527,1202
2790.73451740683,1221
2792.4970363955713,1252
2794.2592068279705,1168
2796.0210290063264,1210
2797.7825032330147,1179
2799.543629810493,1209
2801.304409041296,1176
2803.0648412280366,1189
2804.8249266734088,1205
2806.5846656801846,1243
2808.344058551212,1213
2810.1031055894246,1244
2811.8618070978273,1180
2813.6201633795085,1177
2815.378174737636,1220
2817.1358414754536,1280
2818.893163896285,1195
2820.6501423035334,1220
2822.4067770006814,1165
2824.1630682912883,1200
2825.9190164789957,1189
2827.6746218675207,1214
2829.429884760661,1213
2831.184805462294,1205
2832.9393842763743,1228
2834.693621506936,1226
2836.4475174580916,1220
2838.201072434034,1230
2839.954286739034,1204
2841.707160677441,1201
2843.459694553685,1245
2845.2118886722724,1230
2846.96374333779,1226
2848.7152588549034,1184
2850.4664355283567,1150
2852.217273662973,1206
2853.9677735636546,1203
2855.7179355353833,1229
2857.4677598832186,1197
2859.217246912299,1187
2860.9663969278427,1190
2862.715210235146,1150
2864.4636871395846,1185
2866.211827946614,1246
2867.9596329617652,1196
2869.7071024906536,1216
2871.4542368389684,1211
2873.20103631248,1193
2874.947501217038,1217
2876.6936318585695,1220
2878.4394285430812,1205
2880.1848915766604,1168
2881.9300212654707,1218
2883.6748179157553,1197
2885.4192818338374,1161
2887.1634133261173,1163
2888.907212699077,1143
2890.6506802592744,1185
2892.393816313348,1208
2894.1366211680142,1228
2895.8790951300693,1201
2897.621238506388,1207
2899.363051603925,1188
2901.1045347297118,1214
2902.8456881908596,1161
2904.58651229456,1171
2906.327007348081,1228
2908.067173658772,1247
2909.8070115340597,1129
2911.5465212814497,1177
2913.285703208527,1152
2915.0245576229563,1221
2916.7630848324807,1205
2918.5012851449196,1206
2920.2391588681758,1208
2921.976706310227,1143
2923.7139277791334,1206
2925.4508235830313,1173
2927.187394030137,1223
2928.923639428745,1170
2930.6595600872306,1233
2932.395156314046,1220
2934.1304284177218,1204
2935.8653767068713,1200
2937.6000014901815,1231
2939.3343030764227,1192
2941.068281774442,1229
2942.8019378931644,1250
2944.5352717415976,1212
2946.2682836288236,1177
2948.0009738640065,1155
2949.7333427563885,1234
2951.465390615289,1218
2953.1971177501086,1199
2954.9285244703265,1207
2956.6596110855,1203
2958.3903779052657,1183
2960.1208252393385,1205
2961.8509533975125,1194
2963.5807626896617,1189
2965.3102534257378,1185
2967.0394259157715,1160
2968.768280469873,1185
2970.496817398232,1240
2972.2250370111146,1153
2973.952939618869,1163
2975.6805255319196,1198
2977.4077950607707,1232
2979.134748516006,1185
2980.861386208289,1159
2982.587708448359,1196
2984.313715547037,1121
2986.039407815222,1186
2987.764785563891,1227
2989.489849104102,1197
2991.2145987469908,1147
2992.9390348037705,1234
2994.6631575857346,1178
2996.3869674042576,1163
2998.1104645707887,1187
2999.83364939686,1199
3001.5565221940783,1208
3003.2790832741334,1210
3005.0013329487924,1169
3006.7232715298996,1202
3008.4448993293804,1202
3010.166216659239,1245
3011.887223831558,1167
3013.607921158498,1201
3015.3283089522993,1188
3017.0483875252826,1196
3018.7681571898443,1176
3020.4876182584626,1198
3022.2067710436927,1183
3023.9256158581707,1172
3025.644153014609,1234
3027.362382825801,1152
3029.0803056046193,1173
3030.797921664012,1139
3032.5152313170106,1186
3034.2322348767225,1115
3035.9489326563353,1270
3037.665324969115,1155
3039.3814121284063,1219
3041.097194447633,1204
3042.812672240299,1197
3044.5278458199855,1180
3046.2427155003525,1233
3047.9572815951406,1195
3049.671544418167,1203
3051.38550428333,1202
3053.0991615046073,1212
3054.812516396051,1151
3056.5255692717974,1123
3058.2383204460575,1154
3059.9507702331257,1189
3061.662918947372,1189
3063.3747669032446,1185
3065.0863144152736,1178
3066.7975617980674,1200
3068.508509366309,1168
3070.219157434767,1226
3071.9295063182844,1176
3073.639556331785,1229
3075.3493077902704,1241
3077.058761008821,1129
3078.7679163025964,1206
3080.476773986837,1182
3082.1853343768594,1223
3083.89359778806,1186
3085.6015645359153,1194
3087.3092349359786,1201
3089.016609303884,1173
3090.7236879553434,1228
3092.4304712061476,1185
3094.136959372166,1167
3095.843152769349,1199
3097.5490517137237,1165
3099.2546565213966,1218
3100.959967508554,1192
3102.66498499146,1181
3104.3697092864577,1168
3106.0741407099695,1162
3107.778279578498,1167
3109.482126208622,1154
3111.1856809170004,1170
3112.8889440203716,1212
3114.5919158355528,1211
3116.294596679439,1192
3117.996986869006,1208
3119.6990867213062,1137
3121.4008965534726,1199
3123.102416682717,1226
3124.803647426329,1223
3126.5045891016784,1221
3128.205242026213,1184
3129.90560651746,1266
3131.605682893025,1229
3133.3054714705922,1212
3135.0049725679282,1218
3136.7041865028714,1202
3138.4031135933465,1193
3140.101754157353,1222
3141.800108512971,1202
3143.498176978357,1203
3145.1959598717494,1222
3146.8934575114636,1208
3148.5906702158954,1139
3150.2875983035183,1196
3151.9842420928853,1189
3153.680601902627,1191
3155.376678051456,1154
3157.07247085816,1176
3158.767980641609,1163
3160.463207720748,1156
3162.158152414606,1152
3163.8528150422862,1146
3165.5471959229726,1190
3167.2412953759303,1194
3168.9351137204976,1186
3170.628651276098,1167
3172.3219083622307,1178
3174.014885298474,1160
3175.707582404485,1195
3177.4000000000005,1227
3179.092138404835,1245
3180.7839979388846,1164
3182.47557892212,1248
3184.166881674594,1189
3185.8579065164386,1208
3187.5486537678626,1160
3189.2391237491547,1159
3190.9293167806827,1148
3192.6192331828934,1152
3194.3088732763117,1214
3195.998237381542,1170
3197.687325819268,1199
3199.376138910251,1215
3201.064676975334,1155
3202.7529403354347,1202
3204.4409293115523,1199
3206.1286442247647,1098
3207.816085396229,1127
3209.5032531471825,1189
3211.190147798936,1158
3212.8767696728846,1189
3214.5631190905015,1131
3216.2491963733373,1162
3217.9350018430214,1163
3219.6205358212637,1118
3221.305798629851,1142
3222.990790590651,1133
3224.6755120256103,1156
3226.359963256751,1174
3228.0441446061795,1174
3229.7280563960758,1146
3231.411698948703,1156
3233.0950725863995,1174
3234.778177631587,1175
3236.461014406761,1117
3238.1435832345005,1180
3239.8258844374595,1196
3241.507918338374,1133
3243.1896852600576,1185
3244.8711855254023,1163
3246.552419457381,1147
3248.233387379042,1166
3249.914089613516,1166
3251.59452648401,1127
3253.274698313813,1146
3254.95460542629,1151
3256.6342481448855,1177
3258.313626793125,1146
3259.9927416946084,1099
3261.6715931730196,1098
3263.3501815521176,1119
3265.0285071557437,1131
3266.706570307815,1156
3268.3843713323286,1154
3270.0619105533615,1136
3271.739188295068,1130
3273.4162048816834,1167
3275.0929606375184,1146
3276.769455886966,1165
3278.445690954498,1178
3280.1216661646613,1158
3281.797381842087,1138
3283.4728383114807,1164
3285.1480358976296,1138
3286.8229749253996,1122
3288.4976557197333,1145
3290.172078605655,1205
3291.846243908266,1155
3293.5201519527463,1136
3295.193803064357,1155
3296.8671975684374,1117
3298.5403357904024,1141
3300.21321805575,1149
3301.8858446900567,1156
3303.558216018975,1141
3305.23033236824,1144
3306.9021940636603,1123
3308.57380143113,1165
3310.2451547966184,1132
3311.916254486174,1140
3313.5871008259246,1196
3315.2576941420766,1158
3316.9280347609147,1090
3318.5981230088046,1136
3320.2679592121895,1126
3321.9375436975924,1124
3323.606876791612,1127
3325.27595882093,1092
3326.944790112305,1149
3328.6133709925753,1125
3330.2817017886573,1129
3331.949782827547,1136
3333.617614436319,1156
3335.2851969421245,1099
3336.952530672199,1144
3338.619615953853,1118
3340.286453114475,1160
3341.9530424815357,1151
3343.619384382583,1170
3345.2854791452437,1195
3346.951327097224,1159
3348.6169285663073,1121
3350.2822838803577,1155
3351.947393367319,1163
3353.61225735521,1142
3355.2768761721345,1138
3356.9412501462693,1111
3358.605379605873,1149
3360.2692648792827,1146
3361.9329062949146,1141
3363.596304181263,1127
