CollectionTime,6/26/2024 4:10:24 PM
ExposureUsed,3
CalibratedSpectrum
-962.7078968117929,700
-959.9714848408522,752
-957.2358232597828,747
-954.5009119013725,735
-951.7667505983302,753
-949.0333391832855,749
-946.3006774887896,755
-943.5687653473143,749
-940.837602591253,776
-938.1071890529199,795
-935.3775245645503,753
-932.6486089583007,777
-929.9204420662485,759
-927.1930237203925,769
-924.4663537526524,773
-921.7404319948689,747
-919.0152582788041,763
-916.2908324361409,804
-913.5671542984834,801
-910.8442236973568,755
-908.1220404642074,777
-905.4006044304027,772
-902.679915427231,769
-899.959973285902,776
-897.2407778375464,754
-894.5223289132158,796
-891.8046263438832,706
-889.0876699604426,748
-886.3714595937089,767
-883.6559950744183,739
-880.9412762332282,753
-878.2273029007168,742
-875.5140749073835,725
-872.8015920836489,737
-870.0898542598545,730
-867.3788612662631,723
-864.6686129330585,704
-861.9591090903457,674
-859.2503495681506,679
-856.5423341964203,709
-853.8350628050229,750
-851.1285352237478,739
-848.4227512823054,735
-845.7177108103272,741
-843.0134136373656,697
-840.3098595928943,723
-837.6070485063082,765
-834.9049802069229,749
-832.2036545239757,724
-829.5030712866244,699
-826.8032303239481,701
-824.1041314649472,693
-821.4057745385428,666
-818.7081593735775,723
-816.0112857988148,766
-813.3151536429393,711
-810.6197627345566,697
-807.9251129021936,703
-805.2312039742981,687
-802.5380357792392,726
-799.8456081453069,714
-797.1539209007124,720
-794.462973873588,710
-791.772766891987,693
-789.083299783884,707
-786.3945723771743,717
-783.7065844996748,724
-781.0193359791231,750
-778.3328266431781,765
-775.6470563194197,723
-772.9620248353489,733
-770.2777320183878,719
-767.5941776958798,758
-764.9113616950891,774
-762.2292838432011,754
-759.5479439673222,746
-756.8673418944801,688
-754.1874774516235,735
-751.5083504656222,716
-748.8299607632671,737
-746.15230817127,731
-743.475392516264,792
-740.7992136248035,772
-738.1237713233636,737
-735.4490654383407,742
-732.7750957960521,800
-730.1018622227365,778
-727.4293645445534,759
-724.7576025875837,767
-722.0865761778291,747
-719.4162851412126,764
-716.7467293035781,786
-714.0779084906909,787
-711.409822528237,818
-708.7424712418238,771
-706.0758544569796,792
-703.4099719991541,787
-700.7448236937178,794
-698.0804093659622,865
-695.4167288411002,784
-692.7537819442656,822
-690.0915685005134,768
-687.4300883348199,813
-684.7693412720819,806
-682.1093271371178,786
-679.4500457546669,786
-676.7914969493897,832
-674.1336805458676,793
-671.4765963686034,808
-668.8202442420206,793
-666.1646239904642,816
-663.5097354382001,835
-660.8555784094151,845
-658.2021527282176,826
-655.5494582186366,855
-652.8974947046223,907
-650.2462620100463,875
-647.5957599587009,883
-644.9459883742998,879
-642.2969470804776,890
-639.6486359007902,867
-637.0010546587141,914
-634.3542031776476,908
-631.7080812809096,863
-629.0626887917401,849
-626.4180255333008,821
-623.7740913286734,770
-621.1308860008619,832
-618.4884093727904,841
-615.8466612673046,840
-613.2056415071715,801
-610.5653499150785,817
-607.9257863136347,847
-605.28695052537,837
-602.6488423727357,812
-600.0114616781036,842
-597.3748082637674,805
-594.7388819519412,865
-592.1036825647604,850
-589.4692099242818,838
-586.8354638524829,836
-584.2024441712624,818
-581.5701507024403,831
-578.9385832677575,922
-576.3077416888759,873
-573.6776257873787,845
-571.0482353847704,865
-568.4195703024757,867
-565.7916303618415,885
-563.164415384135,915
-560.5379251905453,923
-557.9121596021815,888
-555.2871184400748,889
-552.6628015251767,919
-550.0392086783606,887
-547.4163397204204,853
-544.794194472071,875
-542.1727727539491,880
-539.5520743866118,912
-536.9320991905377,931
-534.3128469861261,956
-531.6943175936979,1013
-529.0765108334947,971
-526.4594265256793,1042
-523.8430644903358,1158
-521.2274245474689,1301
-518.612506517005,1372
-515.9983102187913,1514
-513.3848354725959,1621
-510.77208209810846,1746
-508.16004991493924,1843
-505.5487387426199,1982
-502.9381484006032,2085
-500.3282787082628,2160
-497.71912948489364,2213
-495.1107005497117,2174
-492.5029917218539,1964
-489.8960028203786,1816
-487.28973366426493,1551
-484.68418407241325,1371
-482.07935386364494,1227
-479.47524285670266,1175
-476.87185087025,1191
-474.2691777228715,1177
-471.66722323307334,1165
-469.0659872192821,1142
-466.4654694998459,1087
-463.86566989303384,1112
-461.26658821703614,1142
-458.66822428996414,1104
-456.07057792985,1078
-453.4736489546475,1106
-450.877437182231,1149
-448.28194243039627,1113
-445.68716451686,1056
-443.09310325926003,1083
-440.49975847515555,1045
-437.9071299820263,1050
-435.31521759727354,1043
-432.72402113821954,1094
-430.13354042210767,1091
-427.5437752661022,1120
-424.95472548728867,1137
-422.36639090267386,1104
-419.7787713291855,1114
-417.1918665836721,1116
-414.60567648290385,1185
-412.0202008435715,1129
-409.4354394822874,1090
-406.8513922155845,1168
-404.26805885991723,1115
-401.685439231661,1182
-399.103533147112,1119
-396.522340422488,1157
-393.9418608739278,1168
-391.3620943174908,1115
-388.7830405691583,1139
-386.2046994448317,1131
-383.6270707603344,1036
-381.05015433141045,958
-378.473949973725,886
-375.8984575028645,926
-373.32367673433623,866
-370.74960748356875,756
-368.1762495659117,744
-365.60360279663576,688
-363.03166699093265,632
-360.4604419639154,625
-357.8899275306178,634
-355.32012350599507,579
-352.7510297049233,560
-350.1826459421999,555
-347.61497203254316,556
-345.04800779059235,565
-342.4817530309082,549
-339.91620756797226,510
-337.35137121618743,535
-334.7872437898774,547
-332.22382510328725,525
-329.66111497058273,587
-327.09911320585127,609
-324.53781962310075,591
-321.9772340362607,542
-319.4173562591816,607
-316.8581861056348,625
-314.2997233893127,635
-311.7419679238294,696
-309.1849195227194,638
-306.62857799943856,608
-304.0729431673641,575
-301.51801483979375,597
-298.963792829947,591
-296.41027695096386,610
-293.85746701590574,679
-291.3053628377552,685
-288.7539642294155,687
-286.2032710037115,647
-283.65328297338897,648
-281.1039999511146,665
-278.5554217494762,723
-276.007548180983,673
-273.4603790580651,606
-270.9139141930734,633
-268.3681533982807,634
-265.8230964858798,677
-263.27874326798565,657
-260.7350935566336,645
-258.1921471637804,754
-255.6499039013039,775
-253.10836358100266,730
-250.56752601459698,701
-248.02739101372765,803
-245.48795838995704,734
-242.94922795476816,659
-240.41119951956557,702
-237.8738728956746,776
-235.33724789434166,838
-232.80132432673452,764
-230.2661020039418,948
-227.73158073697357,1052
-225.19776033676033,875
-222.66464061415422,818
-220.1322213799284,791
-217.60050244477725,853
-215.06948361931552,824
-212.53916471408013,794
-210.00954553952818,813
-207.48062590603843,956
-204.9524056239104,1030
-202.4248845033651,1032
-199.8980623545441,951
-197.37193898751036,978
-194.84651421224817,1112
-192.32178783866232,1087
-189.79775967657952,951
-187.27442953574644,978
-184.7517972258321,902
-182.2298625564256,877
-179.7086253370378,1033
-177.18808537710026,1143
-174.66824248596583,1047
-172.14909647290835,1135
-169.6306471471229,1127
-167.11289431772548,1060
-164.59583779375328,1114
-162.07947738416453,1062
-159.5638128978386,1149
-157.04884414357605,1292
-154.53457093009854,1214
-152.02099306604828,1145
-149.50811035998936,1141
-146.99592262040665,1209
-144.48442965570587,1220
-141.97363127421409,1299
-139.46352728417958,1378
-136.95411749377126,1397
-134.44540171107985,1495
-131.93737974411636,1558
-129.43005140081357,1607
-126.92341648902493,1542
-124.41747481652521,1663
-121.91222619101006,1552
-119.40767042009657,1448
-116.90380731132257,1479
-114.40063667214702,1736
-111.8981583099503,1825
-109.3963720320337,1701
-106.89527764561933,1548
-104.39487495785067,1586
-101.89516377579241,1743
-99.39614390642998,1822
-96.89781515667039,1767
-94.40017733334128,1860
-91.90323024319173,2019
-89.40697369289148,1927
-86.91140748903172,1864
-84.41653143812482,1990
-81.92234534660395,2089
-79.42884902082358,2193
-76.93604226705907,2210
-74.4439248915071,2190
-71.95249670028534,2057
-69.46175749943245,2354
-66.97170709490854,2413
-64.48234529259423,2742
-61.99367189829195,2757
-59.50568671772464,2845
-57.01838955653636,3282
-54.53178022029283,3372
-52.045858514480074,3510
-49.560624244506016,4031
-47.07607721569923,3817
-44.59221723330904,3764
-42.10904410250669,3689
-39.62655762838392,4456
-37.14475761595372,5828
-34.66364387015028,6063
-32.18321619582866,6564
-29.70347439776515,7590
-27.224418280657005,8091
-24.74604764912317,11241
-22.26836230770266,17720
-19.7913620608565,27265
-17.315046712966478,41167
-14.83941606833514,47600
-12.36446993118659,65038
-9.89020810566592,65038
-7.416630395839093,65038
-4.94373660569363,65038
-2.471526539137585,65038
-6.821210263296962E-13,65038
2.47084320796705,65038
4.941003281093458,65038
7.410480415786196,65038
9.879274808531363,65038
12.347386655893956,65038
14.814816154518212,65038
17.28156350112681,65038
19.74762889252179,65038
22.21301252558385,65038
24.67771459727237,65038
27.141735304626195,65038
29.605074844762612,23728
32.06773341487792,14869
34.52971121224755,11152
36.99100843422559,9714
39.45162527824516,8719
41.91156194181792,8915
44.370818622535126,10791
46.82939551806646,11632
49.287292826160524,13072
51.74451074464503,12397
54.201049471426245,10476
56.65690920448981,8013
59.112090141899785,4479
61.56659248179983,3798
64.02041642241159,3462
66.4735621620365,4061
68.92602989905402,3362
71.37781983192338,3092
73.82893215918205,2905
76.27936707944684,2879
78.72912479141326,3562
81.17820549385567,3560
83.62660938562783,3406
86.07433666566146,2839
88.5213875329681,3202
90.96776218663751,3247
93.41346082583925,2899
95.85848364982041,2874
98.30283085790859,2264
100.7465026495089,2620
103.18949922410604,3013
105.63182078126385,2339
108.07346752062438,2725
110.51443964190923,2475
112.95473734491827,2235
115.39436082953114,2055
117.83331029570547,2023
120.27158594347827,2169
122.7091879729652,1943
125.1461165843615,1768
127.58237197794062,1591
130.01795435405518,1391
132.4528639131364,1382
134.88710085569494,1698
137.32066538231982,1860
139.75355769367923,1715
142.1857779905207,1850
144.61732647366978,1782
147.04820334403132,1665
149.47840880258934,1592
151.90794305040674,1837
154.33680628862487,2046
156.76499871846443,1725
159.19252054122433,1834
161.61937195828352,2005
164.04555317109896,2040
166.47106438120693,2227
168.89590579022217,2727
171.320077599839,2723
173.7435800118302,2707
176.16641322804742,2864
178.58857745042144,2939
181.01007288096173,2951
183.43089972175687,3017
185.85105817497413,3005
188.27054844285988,2906
190.6893707277394,2975
193.10752523201643,2851
195.5250121581745,3095
197.9418317087751,3177
200.3579840864594,2990
202.7734694939469,3010
205.18828813403627,3134
207.6024402096051,3084
210.01592592360964,3195
212.42874547908548,3349
214.84089907914665,3050
217.2523869269868,3045
219.66320922587727,3205
222.0733661791695,3184
224.48285799029293,3071
226.8916848627572,3259
229.29984700014882,3399
231.7073446061355,3297
234.11417788446204,3378
236.520347038953,3473
238.92585227351185,3529
241.33069379212054,3601
243.73487179884035,3544
246.1383864978112,3511
248.541238093252,3629
250.9434267894609,3765
253.34495279081432,3793
255.74581630176783,3864
258.1460175268563,3915
260.54555667069314,4035
262.9444339379703,3757
265.3426495334594,3652
267.7402036620107,3644
270.1370965285529,3481
272.53332833809407,3234
274.9288992957214,3245
277.32380960660055,3097
279.718059475976,2896
282.1116491091717,2966
284.5045787115897,2879
286.89684848871195,2925
289.2884586460981,2883
291.67940938938807,2926
294.0697009242996,2890
296.4593334566299,2882
298.84830719225477,2886
301.23662233712923,2890
303.6242790972866,2844
306.01127767884,2799
308.39761828798066,2766
310.78330113097934,2731
313.16832641418534,2714
315.5526943440269,2618
317.9364051270112,2623
320.3194589697242,2653
322.70185607883093,2528
325.0835966610754,2532
327.4646809232805,2548
329.8451090723478,2547
332.2248813152577,2411
334.6039978590701,2458
336.9824589109231,2408
339.36026467803447,2409
341.7374153677,2480
344.113911187295,2383
346.48975234427337,2363
348.8649390461686,2317
351.2394715005918,2300
353.61334991523415,2339
355.9865744978655,2257
358.35914545633375,2287
360.73106299856715,2390
363.10232733257146,2356
365.47293866643247,2288
367.84289720831396,2298
370.2122031664593,2262
372.5808567491905,2259
374.9488581649083,2233
377.31620762209275,2243
379.6829053293021,2252
382.0489514951745,2246
384.4143463284262,2296
386.7790900378528,2205
389.14318283232853,2229
391.50662492080653,2297
393.86941651231916,2176
396.23155781597745,2189
398.5930490409713,2183
400.9538903965696,2162
403.3140820921202,2137
405.6736243370498,2138
408.03251734086336,2198
410.3907613131465,2096
412.74835646356166,2086
415.10530300185144,2056
417.4616011378372,2146
419.81725108141893,2205
422.1722530425758,2133
424.5266072313656,2130
426.880313857925,2149
429.2333731324701,2182
431.58578526529516,2109
433.9375504667738,2046
436.2886689473588,2011
438.63914091758113,2070
440.9889665880513,2042
443.33814616945835,1950
445.68667987257015,2028
448.03456790823395,2104
450.3818104873759,2021
452.72840782100013,2033
455.07436012019105,2021
457.41966759611057,1998
459.7643304600007,2082
462.10834892318155,2018
464.4517231970525,2011
466.79445349309174,2045
469.1365400228566,2132
471.4779829979826,2062
473.81878263018564,2081
476.15893913125876,2146
478.4984527130747,2186
480.8373235875855,2138
483.17555196682144,2166
485.5131380628919,2178
487.8500820879857,2277
490.1863842543697,2391
492.52204477439034,2556
494.8570638604725,2820
497.1914417251204,3098
499.52517858091653,3367
501.85827464052306,3527
504.19073011668036,3754
506.5225452222086,3876
508.85372017000566,3814
511.18425517304956,3765
513.514150444396,3808
515.8434061971808,4324
518.1720226446176,4856
520.4999999999999,4990
522.8273384766991,5359
525.1540382881666,5546
527.480099647932,5299
529.8055227696037,4708
532.1303078668694,3315
534.454455153496,2591
536.777964843328,2247
539.1008371502907,2105
541.4230722883866,1954
543.744670471698,2020
546.0656319143858,1937
548.3859568306899,1932
550.7056454349294,1925
553.0246979415016,1879
555.3431145648834,1899
557.6608955196306,1841
559.978041020377,1785
562.2945512818363,1760
564.6104265188006,1846
566.9256669461412,1826
569.2402727788082,1796
571.5542442318302,1808
573.8675815203156,1819
576.1802848594508,1818
578.4923544645015,1782
580.8037905508126,1727
583.114593333807,1791
585.4247630289875,1856
587.7342998519354,1807
590.0432040183106,1811
592.3514757438526,1818
594.6591152443794,1886
596.9661227357875,1857
599.2724984340531,1850
601.578242555231,1810
603.8833553154542,1828
606.1878369309362,1846
608.4916876179676,1884
610.7949075929192,1914
613.0974970722403,1875
615.3994562724587,1870
617.7007854101818,1913
620.0014847020951,1886
622.3015543649641,1820
624.6009946156324,1817
626.8998056710224,1852
629.1979877481361,1895
631.4955410640538,1910
633.7924658359349,1878
636.0887622810175,1886
638.3844306166192,1887
640.6794710601358,1874
642.9738838290426,1820
645.2676691408932,1899
647.5608272133207,1885
649.853358264037,1896
652.1452625108324,1903
654.4365401715764,1871
656.7271914642178,1864
659.0172166067838,1879
661.3066158173809,1963
663.5953893141935,1914
665.8835373154867,1940
668.1710600396028,1882
670.4579577049639,1968
672.7442305300709,1923
675.0298787335033,1970
677.3149025339197,1963
679.599302150058,1935
681.8830778007342,1906
684.1662297048437,1854
686.4487580813608,1938
688.7306631493387,1935
691.0119451279091,1932
693.2926042362834,1903
695.5726406937516,1933
697.8520547196814,1916
700.1308465335215,1929
702.4090163547982,1937
704.6865644031171,1919
706.9634908981619,1919
709.2397960596965,1884
711.5154801075631,1884
713.7905432616823,1955
716.0649857420548,1899
718.3388077687592,1921
720.612009561953,1952
722.8845913418733,1896
725.1565533288352,1856
727.427895743234,1928
729.6986188055427,1910
731.9687227363137,1848
734.238207756178,1904
736.5070740858458,1920
738.7753219461066,1903
741.0429515578281,1807
743.3099631419569,1911
745.5763569195191,1871
747.8421331116193,1927
750.1072919394409,1834
752.3718336242467,1821
754.6357583873777,1864
756.8990664502545,1891
759.1617580343765,1864
761.423833361321,1861
763.6852926527457,1795
765.9461361303862,1836
768.206364016058,1905
770.4659765316536,1872
772.7249738991469,1912
774.9833563405886,1916
777.2411240781092,1897
779.4982773339183,1899
781.7548163303044,1846
784.010741289634,1999
786.2660524343538,1954
788.5207499869881,1918
790.7748341701416,1962
793.0283052064964,1878
795.2811633188143,1889
797.5334087299362,1907
799.7850416627813,1879
802.0360623403484,1997
804.2864709857143,2022
806.5362678220353,1988
808.7854530725468,1945
811.0340269605625,1949
813.2819897094754,1926
815.5293415427581,1901
817.77608268396,1931
820.0222133567116,1895
822.2677337847211,1923
824.5126441917765,1936
826.7569448017433,1897
829.0006358385675,1918
831.2437175262731,1949
833.4861900889629,1871
835.7280537508192,1928
837.9693087361026,1910
840.2099552691533,1942
842.4499935743896,1911
844.689423876309,1917
846.9282463994886,1893
849.1664613685833,1877
851.4040690083276,1887
853.6410695435349,1883
855.877463199097,1911
858.1132501999847,1925
860.3484307712487,1926
862.5830051380175,1951
864.8169735254988,1935
867.0503361589791,2000
869.2830932638243,1882
871.5152450654786,1871
873.7467917894654,1964
875.9777336613873,1984
878.2080709069252,2046
880.4378037518389,1949
882.666932421968,1972
884.8954571432301,1968
887.1233781416219,1939
889.3506956432192,2010
891.5774098741766,1993
893.803521060728,1947
896.0290294291852,1993
898.2539352059397,1955
900.4782386174619,2023
902.7019398903011,1975
904.925039251085,2017
907.147536926521,1975
909.3694331433943,1964
911.59072812857,1990
913.8114221089921,2023
916.0315153116827,2003
918.2510079637437,2006
920.4699002923547,2010
922.6881925247761,2001
924.905884888345,2011
927.1229776104793,1935
929.3394709186747,1967
931.555365040506,1988
933.7706602036275,1899
935.9853566357709,1933
938.1994545647489,1956
940.4129542184515,1960
942.6258558248488,1930
944.8381596119883,1960
947.0498658079974,2022
949.2609746410825,1942
951.4714863395287,1977
953.6814011316998,2002
955.8907192460387,1949
958.0994409110671,1962
960.3075663553858,1986
962.5150958076741,1918
964.7220294966913,1814
966.928367651274,1901
969.1341105003388,1939
971.3392582728806,1882
973.5438111979742,1883
975.747769504772,1894
977.9511334225061,1931
980.153903180487,1856
982.3560790081052,1873
984.5576611348289,1788
986.7586497902058,1828
988.9590452038618,1877
991.158847605503,1747
993.3580572249133,1750
995.5566742919558,1760
997.7546990365728,1667
999.952131688785,1625
1002.1489724786926,1662
1004.3452216364743,1650
1006.5408793923874,1642
1008.7359459767691,1687
1010.9304216200343,1633
1013.1243065526781,1607
1015.3176010052733,1608
1017.510305208472,1656
1019.7024193930064,1622
1021.8939437896848,1551
1024.0848786293977,1544
1026.2752241431122,1481
1028.4649805618747,1502
1030.6541481168115,1515
1032.842727039127,1580
1035.0307175601051,1567
1037.2181199111074,1570
1039.4049343235752,1567
1041.591161029029,1537
1043.7768002590683,1512
1045.9618522453698,1511
1048.1463172196918,1540
1050.3301954138697,1534
1052.513487059818,1488
1054.69619238953,1485
1056.8783116350783,1546
1059.0598450286152,1597
1061.2407928023704,1541
1063.4211551886528,1546
1065.6009324198508,1509
1067.780124728432,1464
1069.9587323469414,1469
1072.1367555080046,1520
1074.314194444325,1506
1076.4910493886855,1501
1078.667320573947,1494
1080.843008233051,1491
1083.0181125990161,1514
1085.1926339049414,1485
1087.3665723840027,1510
1089.5399282694575,1471
1091.7127017946405,1438
1093.8848931929647,1447
1096.0565026979243,1428
1098.2275305430899,1451
1100.3979769621128,1446
1102.567842188722,1410
1104.737126456726,1459
1106.9058300000124,1413
1109.0739530525475,1416
1111.2414958483764,1420
1113.4084586216231,1452
1115.5748416064907,1422
1117.7406450372605,1407
1119.9058691482942,1409
1122.0705141740304,1413
1124.2345803489884,1379
1126.3980679077658,1432
1128.5609770850388,1429
1130.7233081155623,1437
1132.8850612341707,1464
1135.0462366757774,1409
1137.2068346753745,1386
1139.3668554680326,1403
1141.526299288901,1404
1143.68516637321,1404
1145.8434569562655,1404
1148.001171273455,1385
1150.158309560244,1399
1152.3148720521767,1394
1154.470858984876,1404
1156.626270594044,1358
1158.7811071154629,1377
1160.9353687849912,1365
1163.089055838569,1370
1165.242168512213,1414
1167.3947070420209,1423
1169.5466716641677,1400
1171.6980626149075,1394
1173.8488801305748,1419
1175.9991244475814,1393
1178.1487958024186,1376
1180.2978944316555,1326
1182.4464205719428,1429
1184.5943744600072,1415
1186.7417563326567,1365
1188.8885664267755,1379
1191.0348049793297,1364
1193.1804722273619,1326
1195.325568407995,1376
1197.4700937584303,1380
1199.614048515948,1370
1201.7574329179074,1413
1203.900247201746,1339
1206.042491604982,1362
1208.1841663652099,1397
1210.3252717201053,1399
1212.465807907422,1339
1214.6057751649923,1410
1216.7451737307279,1419
1218.8840038426192,1409
1221.0222657387353,1333
1223.1599596572241,1411
1225.2970858363137,1363
1227.4336445143094,1393
1229.5696359295966,1393
1231.705060320639,1381
1233.8399179259786,1471
1235.9742089842384,1398
1238.107933734118,1489
1240.2410924143974,1466
1242.373685263935,1397
1244.5057125216676,1410
1246.6371744266116,1431
1248.7680712178621,1377
1250.898403134593,1391
1253.028170416058,1400
1255.1573733015875,1405
1257.2860120305932,1491
1259.4140868425648,1391
1261.54159797707,1380
1263.6685456737569,1380
1265.7949301723515,1446
1267.9207517126597,1498
1270.046010534565,1418
1272.1707068780306,1438
1274.2948409830983,1446
1276.4184130898889,1426
1278.541423438603,1438
1280.6638722695184,1533
1282.785759822993,1544
1284.9070863394636,1448
1287.0278520594447,1453
1289.1480572235314,1506
1291.2677020723963,1570
1293.3867868467923,1550
1295.5053117875495,1514
1297.623277135579,1497
1299.740683131868,1517
1301.8575300174857,1560
1303.973818033578,1522
1306.0895474213703,1567
1308.2047184221678,1474
1310.3193312773528,1507
1312.4333862283888,1502
1314.5468835168163,1555
1316.659823384255,1492
1318.7722060724045,1551
1320.8840318230418,1538
1322.9953008780249,1570
1325.1060134792888,1548
1327.2161698688478,1558
1329.3257702887959,1622
1331.4348149813054,1511
1333.5433041886276,1532
1335.6512381530933,1564
1337.7586171171101,1549
1339.8654413231675,1512
1341.9717110138317,1519
1344.0774264317488,1629
1346.1825878196432,1521
1348.2871954203192,1537
1350.3912494766587,1522
1352.4947502316231,1499
1354.5976979282532,1531
1356.7000928096686,1557
1358.8019351190665,1530
1360.9032250997243,1506
1363.0039629949988,1619
1365.1041490483235,1553
1367.2037835032133,1590
1369.3028666032606,1518
1371.401398592137,1535
1373.4993797135926,1509
1375.5968102114575,1530
1377.6936903296396,1522
1379.7900203121262,1584
1381.8858004029835,1562
1383.9810308463561,1588
1386.075711886469,1555
1388.1698437676241,1549
1390.2634267342032,1584
1392.356461030667,1571
1394.4489469015557,1580
1396.5408845914872,1613
1398.6322743451592,1573
1400.7231164073469,1640
1402.813411022907,1603
1404.903158436773,1600
1406.9923588939578,1612
1409.0810126395531,1652
1411.1691199187303,1609
1413.2566809767386,1603
1415.343696058907,1715
1417.4301654106425,1665
1419.5160892774315,1710
1421.6014679048399,1636
1423.6863015385125,1702
1425.7705904241707,1691
1427.8543348076178,1671
1429.9375349347342,1683
1432.0201910514802,1761
1434.102303403894,1760
1436.1838722380944,1760
1438.2648978002767,1738
1440.3453803367174,1753
1442.4253200937692,1889
1444.5047173178677,1828
1446.5835722555234,1862
1448.6618851533285,1856
1450.739656257952,1879
1452.8168858161434,1934
1454.8935740747306,1930
1456.96972128062,1954
1459.045327680797,2037
1461.120393522327,2032
1463.1949190523528,2026
1465.2689045180973,2064
1467.3423501668608,2081
1469.415256246024,2180
1471.4876230030463,2229
1473.559450685465,2254
1475.6307395408976,2285
1477.7014898170391,2321
1479.771701761665,2425
1481.8413756226287,2285
1483.9105116478618,2379
1485.9791100853772,2448
1488.0471711832643,2514
1490.1146951896926,2451
1492.1816823529098,2583
1494.2481329212433,2586
1496.3140471430984,2623
1498.3794252669609,2562
1500.4442675413939,2633
1502.5085742150404,2688
1504.572345536622,2679
1506.6355817549388,2752
1508.6982831188702,2684
1510.7604498773744,2708
1512.8220822794883,2738
1514.8831805743293,2732
1516.9437450110909,2719
1519.003775839048,2791
1521.0632733075522,2857
1523.1222376660367,2721
1525.1806691640113,2912
1527.2385680510652,2837
1529.2959345768668,2967
1531.3527689911643,2941
1533.4090715437833,2905
1535.4648424846291,3053
1537.5200820636855,2933
1539.5747905310159,3051
1541.6289681367616,3048
1543.6826151311434,3175
1545.7357317644614,3084
1547.7883182870937,3171
1549.8403749494987,3234
1551.8919020022113,3233
1553.9428996958477,3345
1555.9933682811015,3444
1558.0433080087469,3449
1560.0927191296346,3537
1562.1416018946961,3546
1564.1899565549415,3621
1566.2377833614592,3519
1568.2850825654164,3585
1570.3318544180606,3497
1572.3780991707158,3354
1574.423817074788,3283
1576.4690083817595,3190
1578.5136733431923,3066
1580.5578122107272,3020
1582.601425236085,2886
1584.6445126710646,2759
1586.6870747675434,2625
1588.7291117774776,2482
1590.7706239529034,2444
1592.8116115459347,2235
1594.8520748087658,2198
1596.8920139936686,2104
1598.9314293529933,2045
1600.9703211391711,2039
1603.008689604711,1949
1605.0465350022005,1849
1607.0838575843068,1876
1609.1206576037753,1742
1611.1569353134305,1804
1613.1926909661765,1678
1615.2279248149953,1680
1617.2626371129481,1687
1619.2968281131757,1684
1621.3304980688963,1636
1623.3636472334088,1597
1625.39627586009,1570
1627.428384202396,1592
1629.459972513861,1603
1631.4910410480993,1558
1633.5215900588028,1541
1635.551619799744,1623
1637.5811305247717,1550
1639.6101224878166,1456
1641.6385959428862,1475
1643.6665511440683,1474
1645.693988345528,1456
1647.7209078015112,1472
1649.7473097663405,1465
1651.7731944944203,1482
1653.7985622402307,1475
1655.823413258333,1461
1657.847747803366,1461
1659.8715661300494,1421
1661.8948684931793,1454
1663.9176551476316,1449
1665.9399263483624,1433
1667.9616823504057,1489
1669.982923408873,1433
1672.0036497789574,1383
1674.0238617159293,1433
1676.043559475138,1423
1678.0627433120121,1401
1680.081413482059,1439
1682.0995702408654,1459
1684.117213844096,1397
1686.134344547495,1446
1688.1509626068864,1442
1690.1670682781705,1408
1692.182661817329,1391
1694.1977434804217,1404
1696.2123135235875,1462
1698.226372203043,1469
1700.2399197750851,1387
1702.2529564960905,1381
1704.2654826225112,1431
1706.277498410882,1430
1708.2890041178139,1435
1710.2999999999988,1421
1712.3104863142066,1445
1714.3204633172854,1382
1716.329931266163,1422
1718.3388904178469,1328
1720.3473410294214,1361
1722.3552833580516,1336
1724.3627176609807,1418
1726.3696441955308,1354
1728.3760632191033,1416
1730.3819749891782,1402
1732.3873797633146,1306
1734.3922777991502,1310
1736.3966693544012,1366
1738.4005546868639,1321
1740.4039340544127,1418
1742.406807715001,1400
1744.4091759266616,1337
1746.4110389475054,1362
1748.4123970357223,1441
1750.413250449582,1311
1752.4135994474318,1347
1754.4134442876993,1292
1756.4127852288902,1313
1758.4116225295893,1349
1760.4099564484595,1271
1762.407787244244,1307
1764.405115175764,1326
1766.4019405019203,1299
1768.3982634816916,1266
1770.3940843741357,1302
1772.3894034383907,1301
1774.3842209336717,1277
1776.378537119274,1281
1778.372352254571,1265
1780.3656665990156,1268
1782.3584804121397,1259
1784.3507939535534,1265
1786.3426074829463,1261
1788.3339212600863,1287
1790.3247355448211,1270
1792.3150505970766,1266
1794.3048666768573,1239
1796.2941840442477,1233
1798.2830029594106,1278
1800.2713236825884,1241
1802.2591464741004,1254
1804.2464715943465,1236
1806.2332993038058,1226
1808.2196298630352,1268
1810.2054635326708,1262
1812.190800573428,1216
1814.175641246101,1255
1816.1599858115628,1259
1818.1438345307652,1228
1820.127187664738,1227
1822.1100454745924,1208
1824.092408221516,1236
1826.0742761667766,1226
1828.055649571721,1272
1830.0365286977735,1247
1832.0169138064398,1275
1833.9968051593014,1219
1835.9762030180214,1230
1837.9551076443408,1202
1839.9335193000788,1225
1841.9114382471344,1213
1843.888864747485,1215
1845.8657990631878,1245
1847.842241456378,1298
1849.8181921892697,1245
1851.7936515241558,1275
1853.7686197234098,1243
1855.7430970494815,1251
1857.7170837649014,1224
1859.6905801322787,1225
1861.6635864143004,1279
1863.6361028737338,1214
1865.608129773424,1311
1867.5796673762961,1207
1869.5507159453537,1312
1871.521275743678,1317
1873.4913470344313,1222
1875.4609300808534,1250
1877.4300251462632,1291
1879.3986324940588,1301
1881.366752387717,1306
1883.3343850907936,1267
1885.3015308669228,1244
1887.268189979819,1284
1889.2343626932739,1242
1891.2000492711595,1286
1893.1652499774254,1292
1895.1299650761011,1257
1897.0941948312952,1294
1899.0579395071945,1331
1901.0211993680641,1269
1902.98397467825,1319
1904.9462657021745,1274
1906.9080727043415,1333
1908.869395949332,1296
1910.8302357018065,1263
1912.790592226504,1295
1914.7504657882428,1227
1916.7098566519212,1286
1918.6687650825133,1308
1920.6271913450764,1297
1922.5851357047422,1270
1924.5425984267245,1269
1926.499579776314,1254
1928.4560800188833,1274
1930.4120994198802,1302
1932.367638244833,1269
1934.32269675935,1266
1936.2772752291175,1256
1938.231373919899,1269
1940.1849930975404,1274
1942.1381330279637,1288
1944.0907939771696,1300
1946.0429762112412,1238
1947.9946799963363,1267
1949.9459055986945,1304
1951.896653284633,1219
1953.8469233205478,1239
1955.7967159729142,1212
1957.7460315082863,1250
1959.6948701932974,1272
1961.6432322946594,1222
1963.5911180791632,1239
1965.5385278136787,1218
1967.4854617651545,1241
1969.4319202006182,1283
1971.377903387176,1238
1973.3234115920136,1278
1975.268445082395,1265
1977.2130041256642,1267
1979.1570889892423,1211
1981.1006999406304,1260
1983.04383724741,1245
1984.986501177238,1213
1986.928691997853,1230
1988.8704099770712,1227
1990.811655382789,1236
1992.7524284829801,1218
1994.692729545698,1240
1996.6325588390755,1227
1998.5719166313224,1254
2000.5108031907307,1256
2002.4492187856677,1254
2004.387163684583,1207
2006.3246381560011,1222
2008.2616424685298,1189
2010.1981768908527,1199
2012.1342416917332,1248
2014.069837140014,1199
2016.0049635046162,1225
2017.9396210545406,1194
2019.8738100588666,1221
2021.8075307867502,1224
2023.740783507431,1173
2025.6735684902228,1194
2027.6058860045214,1240
2029.5377363198004,1218
2031.4691197056118,1311
2033.4000364315875,1251
2035.3304867674374,1239
2037.260470982952,1209
2039.189989347998,1186
2041.1190421325232,1177
2043.047629606554,1220
2044.9757520401945,1163
2046.9034097036288,1202
2048.8306028671195,1173
2050.7573318010086,1198
2052.683596775716,1212
2054.609398061742,1234
2056.5347359296647,1209
2058.4596106501403,1208
2060.384022493906,1225
2062.3079717317764,1207
2064.231458634646,1214
2066.1544834734873,1159
2068.077046519352,1135
2069.99914804337,1209
2071.9207883167524,1186
2073.8419676107865,1215
2075.7626861968406,1187
2077.6829443463607,1207
2079.6027423308715,1197
2081.522080421977,1228
2083.440958891362,1211
2085.359378010786,1186
2087.2773380520907,1182
2089.194839287196,1245
2091.111881988101,1229
2093.0284664268825,1219
2094.9445928756973,1192
2096.86026160678,1177
2098.775472892446,1214
2100.690227005088,1168
2102.604524217178,1217
2104.5183648012676,1188
2106.431749029985,1209
2108.34467717604,1175
2110.2571495122206,1226
2112.169166311393,1205
2114.080727846503,1202
2115.9918343905747,1172
2117.902486216711,1246
2119.8126835980956,1208
2121.722426807987,1204
2123.6317161197285,1178
2125.5405518067364,1173
2127.448934142509,1236
2129.356863400624,1242
2131.264339854737,1211
2133.1713637785815,1218
2135.077935445972,1172
2136.9840551308002,1192
2138.889723107037,1275
2140.7949396487334,1216
2142.699705030018,1218
2144.6040195250994,1169
2146.507883408264,1200
2148.4112969538774,1235
2150.3142604363848,1190
2152.2167741303097,1234
2154.1188383102535,1224
2156.0204532508997,1202
2157.9216192270064,1214
2159.822336513414,1199
2161.7226053850413,1229
2163.622426116884,1178
2165.5217989840185,1240
2167.4207242616,1224
2169.319202224862,1219
2171.2172331491165,1204
2173.1148173097563,1218
2175.0119549822507,1209
2176.90864644215,1209
2178.8048919650823,1233
2180.7006918267534,1212
2182.596046302952,1247
2184.4909556695407,1204
2186.3854202024645,1187
2188.279440177746,1182
2190.173015871487,1220
2192.066147559868,1226
2193.958835519149,1172
2195.851080025667,1172
2197.7428813558417,1203
2199.6342397861667,1222
2201.5251555932186,1197
2203.415629053651,1193
2205.3056604441986,1211
2207.19525004167,1245
2209.084398122958,1227
2210.9731049650327,1152
2212.861370844941,1242
2214.749196039812,1288
2216.636580826851,1233
2218.523525483344,1205
2220.410030286655,1229
2222.296095514226,1198
2224.1817214435805,1227
2226.066908352319,1231
2227.951656518121,1198
2229.835966218746,1272
2231.71983773203,1246
2233.6032713358913,1258
2235.486267308324,1252
2237.3688259274036,1207
2239.2509474712824,1184
2241.132632218193,1160
2243.013880446447,1234
2244.8946924344323,1232
2246.7750684606203,1190
2248.6550088035574,1177
2250.534513741871,1214
2252.413583554265,1206
2254.292218519526,1178
2256.170418916517,1217
2258.0481850241786,1209
2259.925517121534,1172
2261.8024154876825,1227
2263.678880401803,1249
2265.5549121431536,1223
2267.430510991071,1243
2269.305677224971,1210
2271.180411124348,1230
2273.0547129687766,1207
2274.9285830379076,1176
2276.8020216114737,1240
2278.6750289692845,1171
2280.5476053912294,1183
2282.4197511572766,1198
2284.2914665474727,1214
2286.162751841943,1169
2288.0336073208937,1234
2289.904033264608,1215
2291.774029953448,1189
2293.6435976678554,1225
2295.5127366883517,1203
2297.381447295534,1219
2299.2497297700825,1209
2301.1175843927526,1247
2302.9850114443825,1204
2304.852011205885,1155
2306.7185839582553,1187
2308.5847299825664,1209
2310.4504495599676,1224
2312.3157429716925,1233
2314.1806104990483,1223
2316.0450524234247,1223
2317.9090690262888,1231
2319.772660589186,1218
2321.635827393742,1258
2323.498569721661,1225
2325.3608878547248,1296
2327.2227820747967,1311
2329.0842526638157,1266
2330.945299903803,1207
2332.805924076857,1257
2334.6661254651535,1240
2336.525904350951,1202
2338.3852610165827,1249
2340.244195744464,1274
2342.102708817088,1229
2343.9608005170253,1274
2345.8184711269287,1269
2347.675720929526,1228
2349.532550207628,1274
2351.38895924412,1261
2353.24494832197,1241
2355.100517724223,1293
2356.955667734004,1261
2358.810398634514,1234
2360.664710709037,1239
2362.5186042409337,1213
2364.3720795136437,1240
2366.225136810686,1258
2368.0777764156583,1239
2369.929998612237,1284
2371.7818036841777,1249
2373.633191915315,1308
2375.484163589562,1305
2377.3347189909114,1256
2379.184858403434,1257
2381.03458211128,1261
2382.8838903986775,1255
2384.732783549936,1300
2386.5812618494406,1292
2388.4293255816588,1275
2390.2769750311327,1307
2392.1242104824883,1251
2393.971032220427,1277
2395.8174405297295,1270
2397.6634356952563,1260
2399.509018001947,1345
2401.3541877348193,1320
2403.1989451789705,1325
2405.043290619576,1247
2406.8872243418905,1300
2408.730746631247,1265
2410.5738577730594,1250
2412.4165580528183,1278
2414.258847756095,1255
2416.100727168537,1273
2417.9421965758734,1316
2419.783256263912,1286
2421.623906518538,1284
2423.4641476257157,1302
2425.303979871491,1312
2427.143403541984,1276
2428.9824189233977,1276
2430.821026302012,1285
2432.6592259641866,1275
2434.497018196361,1313
2436.33440328505,1301
2438.171381516851,1317
2440.00795317844,1276
2441.844118556569,1280
2443.6798779380724,1295
2445.5152316098606,1299
2447.3501798589255,1329
2449.1847229723357,1311
2451.0188612372403,1308
2452.8525949408663,1264
2454.6859243705203,1299
2456.518849813587,1274
2458.3513715575314,1303
2460.183489889895,1328
2462.015205098301,1243
2463.8465174704493,1305
2465.67742729412,1359
2467.5079348571717,1261
2469.338040447542,1270
2471.1677443532476,1300
2472.9970468623833,1312
2474.825948263123,1258
2476.6544488437207,1219
2478.482548892508,1302
2480.310248697896,1287
2482.137548548374,1304
2483.9644487325118,1365
2485.790949538956,1260
2487.617051256433,1350
2489.44275417375,1348
2491.26805857979,1320
2493.0929647635157,1340
2494.917473013971,1295
2496.741583620276,1312
2498.5652968716304,1304
2500.3886130573137,1302
2502.2115324666834,1346
2504.0340553891765,1307
2505.856182114308,1335
2507.6779129316733,1334
2509.499248130945,1329
2511.3201880018764,1300
2513.140732834298,1350
2514.9608829181198,1321
2516.780638543331,1334
2518.6,1377
2520.418967578273,1335
2522.237541568376,1297
2524.0557222606144,1347
2525.8735099453706,1345
2527.6909049131086,1408
2529.507907454368,1390
2531.32451785977,1350
2533.140736420014,1382
2534.9565634258774,1376
2536.771999168218,1412
2538.5870439379714,1395
2540.4016980261526,1434
2542.2159617238544,1411
2544.02983532225,1418
2545.8433191125914,1387
2547.656413386209,1410
2549.4691184345115,1413
2551.2814345489874,1412
2553.093362021204,1439
2554.904901142808,1446
2556.716052205523,1459
2558.526815501153,1450
2560.3371913215824,1463
2562.147179958771,1514
2563.956781704761,1493
2565.7659968516705,1507
2567.5748256916986,1507
2569.3832685171224,1488
2571.1913256202984,1515
2572.9989972936614,1547
2574.806283829725,1538
2576.613185521084,1530
2578.4197026604074,1612
2580.2258355404483,1541
2582.031584454035,1538
2583.836949694077,1545
2585.6419315535613,1572
2587.4465303255533,1570
2589.2507463032002,1561
2591.0545797797245,1568
2592.8580310484303,1572
2594.6611004026995,1646
2596.463788135992,1583
2598.266094541849,1549
2600.0680199138874,1591
2601.869564545807,1616
2603.670728731383,1620
2605.4715127644704,1646
2607.2719169390048,1551
2609.071941548998,1603
2610.8715868885433,1571
2612.670853251811,1557
2614.469740933052,1619
2616.268250226594,1670
2618.0663814268455,1618
2619.864134828292,1611
2621.6615107255006,1613
2623.458509413115,1606
2625.2551311858597,1533
2627.0513763385347,1660
2628.8472451660223,1571
2630.6427379632833,1538
2632.4378550253564,1542
2634.232596647359,1519
2636.026963124488,1522
2637.8209547520187,1504
2639.6145718253065,1549
2641.407814639785,1478
2643.200683490966,1511
2644.9931786744414,1509
2646.7853004858807,1508
2648.577049221034,1483
2650.3684251757277,1445
2652.1594286458712,1492
2653.9500599274484,1449
2655.740319316525,1429
2657.5302071092437,1426
2659.3197236018286,1476
2661.10886909058,1436
2662.8976438718782,1492
2664.686048242183,1406
2666.4740824980327,1396
2668.2617469360443,1413
2670.0490418529134,1346
2671.8359675454153,1388
2673.622524310403,1346
2675.408712444811,1317
2677.1945322456495,1320
2678.979984010009,1383
2680.76506803506,1333
2682.5497846180497,1355
2684.334134056306,1363
2686.1181166472343,1376
2687.9017326883213,1340
2689.6849824771293,1343
2691.4678663113013,1320
2693.2503844885596,1276
2695.032537306705,1303
2696.8143250636167,1258
2698.5957480572542,1284
2700.3768065856534,1332
2702.1575009469316,1327
2703.937831439283,1260
2705.717798360982,1238
2707.4974020103837,1226
2709.276642685917,1256
2711.055520686095,1275
2712.834036309506,1320
2714.612189854819,1234
2716.389981620782,1265
2718.1674119062204,1274
2719.944481010041,1290
2721.721189231226,1248
2723.4975368688415,1267
2725.273524222027,1245
2727.0491515900053,1279
2728.824419272075,1221
2730.5993275676146,1277
2732.3738767760838,1248
2734.148067197016,1245
2735.921899130031,1254
2737.6953728748194,1252
2739.468488731156,1245
2741.2412469988926,1253
2743.0136479779617,1247
2744.785691968372,1278
2746.5573792702116,1225
2748.3287101836504,1214
2750.099685008934,1171
2751.870304046388,1199
2753.640567596418,1218
2755.4104759595057,1205
2757.1800294362156,1262
2758.949228327187,1196
2760.7180729331412,1246
2762.486563554877,1231
2764.254700493272,1191
2766.022484049284,1199
2767.789914523947,1233
2769.5569922183786,1254
2771.3237174337705,1245
2773.090090471394,1213
2774.8561116326036,1278
2776.6217812188274,1263
2778.3870995315756,1233
2780.1520668724356,1192
2781.9166835430747,1185
2783.6809498452394,1183
2785.444866080754,1202
2787.2084325515225,1188
2788.971649559527,1198
2790.73451740683,1178
2792.4970363955713,1209
2794.2592068279705,1232
2796.0210290063264,1214
2797.7825032330147,1242
2799.543629810493,1210
2801.304409041296,1234
2803.0648412280366,1194
2804.8249266734088,1198
2806.5846656801846,1220
2808.344058551212,1194
2810.1031055894246,1220
2811.8618070978273,1245
2813.6201633795085,1226
2815.378174737636,1195
2817.1358414754536,1241
2818.893163896285,1217
2820.6501423035334,1208
2822.4067770006814,1176
2824.1630682912883,1204
2825.9190164789957,1205
2827.6746218675207,1223
2829.429884760661,1165
2831.184805462294,1255
2832.9393842763743,1209
2834.693621506936,1174
2836.4475174580916,1186
2838.201072434034,1207
2839.954286739034,1167
2841.707160677441,1208
2843.459694553685,1188
2845.2118886722724,1243
2846.96374333779,1264
2848.7152588549034,1276
2850.4664355283567,1181
2852.217273662973,1239
2853.9677735636546,1180
2855.7179355353833,1263
2857.4677598832186,1211
2859.217246912299,1181
2860.9663969278427,1225
2862.715210235146,1202
2864.4636871395846,1223
2866.211827946614,1245
2867.9596329617652,1206
2869.7071024906536,1250
2871.4542368389684,1214
2873.20103631248,1220
2874.947501217038,1200
2876.6936318585695,1184
2878.4394285430812,1208
2880.1848915766604,1224
2881.9300212654707,1189
2883.6748179157553,1203
2885.4192818338374,1236
2887.1634133261173,1196
2888.907212699077,1179
2890.6506802592744,1231
2892.393816313348,1188
2894.1366211680142,1246
2895.8790951300693,1168
2897.621238506388,1220
2899.363051603925,1197
2901.1045347297118,1243
2902.8456881908596,1239
2904.58651229456,1246
2906.327007348081,1167
2908.067173658772,1269
2909.8070115340597,1249
2911.5465212814497,1227
2913.285703208527,1173
2915.0245576229563,1243
2916.7630848324807,1157
2918.5012851449196,1159
2920.2391588681758,1187
2921.976706310227,1181
2923.7139277791334,1286
2925.4508235830313,1208
2927.187394030137,1216
2928.923639428745,1161
2930.6595600872306,1233
2932.395156314046,1181
2934.1304284177218,1185
2935.8653767068713,1151
2937.6000014901815,1186
2939.3343030764227,1183
2941.068281774442,1187
2942.8019378931644,1167
2944.5352717415976,1246
2946.2682836288236,1208
2948.0009738640065,1192
2949.7333427563885,1180
2951.465390615289,1202
2953.1971177501086,1150
2954.9285244703265,1134
2956.6596110855,1224
2958.3903779052657,1163
2960.1208252393385,1202
2961.8509533975125,1189
2963.5807626896617,1174
2965.3102534257378,1203
2967.0394259157715,1147
2968.768280469873,1164
2970.496817398232,1206
2972.2250370111146,1195
2973.952939618869,1213
2975.6805255319196,1254
2977.4077950607707,1214
2979.134748516006,1183
2980.861386208289,1189
2982.587708448359,1199
2984.313715547037,1195
2986.039407815222,1199
2987.764785563891,1222
2989.489849104102,1235
2991.2145987469908,1206
2992.9390348037705,1226
2994.6631575857346,1203
2996.3869674042576,1194
2998.1104645707887,1183
2999.83364939686,1162
3001.5565221940783,1208
3003.2790832741334,1198
3005.0013329487924,1191
3006.7232715298996,1158
3008.4448993293804,1175
3010.166216659239,1167
3011.887223831558,1175
3013.607921158498,1219
3015.3283089522993,1213
3017.0483875252826,1154
3018.7681571898443,1164
3020.4876182584626,1163
3022.2067710436927,1167
3023.9256158581707,1206
3025.644153014609,1172
3027.362382825801,1237
3029.0803056046193,1191
3030.797921664012,1158
3032.5152313170106,1185
3034.2322348767225,1141
3035.9489326563353,1211
3037.665324969115,1204
3039.3814121284063,1218
3041.097194447633,1183
3042.812672240299,1142
3044.5278458199855,1225
3046.2427155003525,1129
3047.9572815951406,1219
3049.671544418167,1124
3051.38550428333,1183
3053.0991615046073,1245
3054.812516396051,1188
3056.5255692717974,1164
3058.2383204460575,1255
3059.9507702331257,1195
3061.662918947372,1194
3063.3747669032446,1198
3065.0863144152736,1199
3066.7975617980674,1215
3068.508509366309,1243
3070.219157434767,1248
3071.9295063182844,1217
3073.639556331785,1171
3075.3493077902704,1155
3077.058761008821,1242
3078.7679163025964,1190
3080.476773986837,1191
3082.1853343768594,1220
3083.89359778806,1235
3085.6015645359153,1191
3087.3092349359786,1242
3089.016609303884,1183
3090.7236879553434,1149
3092.4304712061476,1144
3094.136959372166,1177
3095.843152769349,1200
3097.5490517137237,1177
3099.2546565213966,1158
3100.959967508554,1211
3102.66498499146,1188
3104.3697092864577,1234
3106.0741407099695,1183
3107.778279578498,1173
3109.482126208622,1162
3111.1856809170004,1191
3112.8889440203716,1173
3114.5919158355528,1180
3116.294596679439,1221
3117.996986869006,1195
3119.6990867213062,1199
3121.4008965534726,1231
3123.102416682717,1205
3124.803647426329,1194
3126.5045891016784,1131
3128.205242026213,1182
3129.90560651746,1226
3131.605682893025,1209
3133.3054714705922,1248
3135.0049725679282,1200
3136.7041865028714,1211
3138.4031135933465,1202
3140.101754157353,1218
3141.800108512971,1194
3143.498176978357,1212
3145.1959598717494,1170
3146.8934575114636,1180
3148.5906702158954,1223
3150.2875983035183,1201
3151.9842420928853,1215
3153.680601902627,1210
3155.376678051456,1183
3157.07247085816,1202
3158.767980641609,1149
3160.463207720748,1195
3162.158152414606,1182
3163.8528150422862,1208
3165.5471959229726,1215
3167.2412953759303,1217
3168.9351137204976,1198
3170.628651276098,1140
3172.3219083622307,1219
3174.014885298474,1181
3175.707582404485,1171
3177.4000000000005,1215
3179.092138404835,1248
3180.7839979388846,1181
3182.47557892212,1175
3184.166881674594,1199
3185.8579065164386,1191
3187.5486537678626,1170
3189.2391237491547,1189
3190.9293167806827,1186
3192.6192331828934,1177
3194.3088732763117,1188
3195.998237381542,1159
3197.687325819268,1211
3199.376138910251,1140
3201.064676975334,1161
3202.7529403354347,1193
3204.4409293115523,1180
3206.1286442247647,1100
3207.816085396229,1198
3209.5032531471825,1135
3211.190147798936,1119
3212.8767696728846,1143
3214.5631190905015,1152
3216.2491963733373,1145
3217.9350018430214,1146
3219.6205358212637,1170
3221.305798629851,1136
3222.990790590651,1099
3224.6755120256103,1141
3226.359963256751,1186
3228.0441446061795,1155
3229.7280563960758,1167
3231.411698948703,1144
3233.0950725863995,1170
3234.778177631587,1188
3236.461014406761,1128
3238.1435832345005,1129
3239.8258844374595,1197
3241.507918338374,1143
3243.1896852600576,1205
3244.8711855254023,1173
3246.552419457381,1156
3248.233387379042,1124
3249.914089613516,1194
3251.59452648401,1164
3253.274698313813,1170
3254.95460542629,1162
3256.6342481448855,1137
3258.313626793125,1162
3259.9927416946084,1153
3261.6715931730196,1164
3263.3501815521176,1204
3265.0285071557437,1129
3266.706570307815,1139
3268.3843713323286,1170
3270.0619105533615,1176
3271.739188295068,1168
3273.4162048816834,1136
3275.0929606375184,1135
3276.769455886966,1135
3278.445690954498,1197
3280.1216661646613,1152
3281.797381842087,1145
3283.4728383114807,1191
3285.1480358976296,1133
3286.8229749253996,1151
3288.4976557197333,1191
3290.172078605655,1146
3291.846243908266,1183
3293.5201519527463,1179
3295.193803064357,1119
3296.8671975684374,1113
3298.5403357904024,1154
3300.21321805575,1138
3301.8858446900567,1166
3303.558216018975,1156
3305.23033236824,1183
3306.9021940636603,1162
3308.57380143113,1145
3310.2451547966184,1153
3311.916254486174,1134
3313.5871008259246,1164
3315.2576941420766,1171
3316.9280347609147,1144
3318.5981230088046,1155
3320.2679592121895,1155
3321.9375436975924,1136
3323.606876791612,1183
3325.27595882093,1159
3326.944790112305,1148
3328.6133709925753,1191
3330.2817017886573,1136
3331.949782827547,1083
3333.617614436319,1157
3335.2851969421245,1180
3336.952530672199,1164
3338.619615953853,1145
3340.286453114475,1137
3341.9530424815357,1130
3343.619384382583,1198
3345.2854791452437,1181
3346.951327097224,1159
3348.6169285663073,1202
3350.2822838803577,1138
3351.947393367319,1162
3353.61225735521,1170
3355.2768761721345,1150
3356.9412501462693,1216
3358.605379605873,1148
3360.2692648792827,1162
3361.9329062949146,1137
3363.596304181263,1133
