CollectionTime,7/9/2024 11:04:25 AM
ExposureUsed,3
CalibratedSpectrum
-962.7078968117929,573
-959.9714848408522,600
-957.2358232597828,640
-954.5009119013725,640
-951.7667505983302,631
-949.0333391832855,642
-946.3006774887896,609
-943.5687653473143,611
-940.837602591253,592
-938.1071890529199,593
-935.3775245645503,630
-932.6486089583007,637
-929.9204420662485,606
-927.1930237203925,631
-924.4663537526524,649
-921.7404319948689,651
-919.0152582788041,641
-916.2908324361409,695
-913.5671542984834,642
-910.8442236973568,592
-908.1220404642074,622
-905.4006044304027,634
-902.679915427231,637
-899.959973285902,608
-897.2407778375464,596
-894.5223289132158,617
-891.8046263438832,638
-889.0876699604426,598
-886.3714595937089,616
-883.6559950744183,605
-880.9412762332282,590
-878.2273029007168,628
-875.5140749073835,623
-872.8015920836489,606
-870.0898542598545,599
-867.3788612662631,607
-864.6686129330585,626
-861.9591090903457,634
-859.2503495681506,624
-856.5423341964203,590
-853.8350628050229,604
-851.1285352237478,602
-848.4227512823054,617
-845.7177108103272,634
-843.0134136373656,651
-840.3098595928943,640
-837.6070485063082,664
-834.9049802069229,641
-832.2036545239757,640
-829.5030712866244,693
-826.8032303239481,637
-824.1041314649472,651
-821.4057745385428,625
-818.7081593735775,649
-816.0112857988148,634
-813.3151536429393,660
-810.6197627345566,679
-807.9251129021936,648
-805.2312039742981,639
-802.5380357792392,670
-799.8456081453069,677
-797.1539209007124,650
-794.462973873588,654
-791.772766891987,687
-789.083299783884,650
-786.3945723771743,625
-783.7065844996748,660
-781.0193359791231,646
-778.3328266431781,641
-775.6470563194197,643
-772.9620248353489,650
-770.2777320183878,677
-767.5941776958798,663
-764.9113616950891,660
-762.2292838432011,660
-759.5479439673222,614
-756.8673418944801,692
-754.1874774516235,701
-751.5083504656222,651
-748.8299607632671,677
-746.15230817127,673
-743.475392516264,708
-740.7992136248035,646
-738.1237713233636,684
-735.4490654383407,686
-732.7750957960521,697
-730.1018622227365,668
-727.4293645445534,687
-724.7576025875837,663
-722.0865761778291,663
-719.4162851412126,710
-716.7467293035781,654
-714.0779084906909,677
-711.409822528237,676
-708.7424712418238,704
-706.0758544569796,679
-703.4099719991541,709
-700.7448236937178,735
-698.0804093659622,756
-695.4167288411002,704
-692.7537819442656,706
-690.0915685005134,745
-687.4300883348199,729
-684.7693412720819,707
-682.1093271371178,701
-679.4500457546669,745
-676.7914969493897,704
-674.1336805458676,753
-671.4765963686034,736
-668.8202442420206,726
-666.1646239904642,741
-663.5097354382001,742
-660.8555784094151,734
-658.2021527282176,781
-655.5494582186366,791
-652.8974947046223,752
-650.2462620100463,722
-647.5957599587009,744
-644.9459883742998,753
-642.2969470804776,764
-639.6486359007902,776
-637.0010546587141,715
-634.3542031776476,743
-631.7080812809096,779
-629.0626887917401,755
-626.4180255333008,758
-623.7740913286734,807
-621.1308860008619,742
-618.4884093727904,764
-615.8466612673046,778
-613.2056415071715,739
-610.5653499150785,754
-607.9257863136347,796
-605.28695052537,776
-602.6488423727357,735
-600.0114616781036,770
-597.3748082637674,759
-594.7388819519412,807
-592.1036825647604,804
-589.4692099242818,800
-586.8354638524829,806
-584.2024441712624,768
-581.5701507024403,799
-578.9385832677575,778
-576.3077416888759,778
-573.6776257873787,818
-571.0482353847704,776
-568.4195703024757,768
-565.7916303618415,862
-563.164415384135,830
-560.5379251905453,811
-557.9121596021815,828
-555.2871184400748,820
-552.6628015251767,815
-550.0392086783606,830
-547.4163397204204,818
-544.794194472071,854
-542.1727727539491,838
-539.5520743866118,829
-536.9320991905377,829
-534.3128469861261,855
-531.6943175936979,923
-529.0765108334947,925
-526.4594265256793,923
-523.8430644903358,1045
-521.2274245474689,1158
-518.612506517005,1276
-515.9983102187913,1233
-513.3848354725959,1218
-510.77208209810846,1245
-508.16004991493924,1289
-505.5487387426199,1443
-502.9381484006032,1562
-500.3282787082628,1625
-497.71912948489364,1628
-495.1107005497117,1614
-492.5029917218539,1472
-489.8960028203786,1380
-487.28973366426493,1278
-484.68418407241325,1122
-482.07935386364494,1120
-479.47524285670266,1053
-476.87185087025,1019
-474.2691777228715,1050
-471.66722323307334,1027
-469.0659872192821,997
-466.4654694998459,1031
-463.86566989303384,1024
-461.26658821703614,999
-458.66822428996414,1023
-456.07057792985,1035
-453.4736489546475,1005
-450.877437182231,1004
-448.28194243039627,1035
-445.68716451686,1019
-443.09310325926003,979
-440.49975847515555,1034
-437.9071299820263,1025
-435.31521759727354,1018
-432.72402113821954,1056
-430.13354042210767,1063
-427.5437752661022,1013
-424.95472548728867,1056
-422.36639090267386,1005
-419.7787713291855,1069
-417.1918665836721,1173
-414.60567648290385,1159
-412.0202008435715,1090
-409.4354394822874,1075
-406.8513922155845,1162
-404.26805885991723,1099
-401.685439231661,1056
-399.103533147112,1070
-396.522340422488,1084
-393.9418608739278,1046
-391.3620943174908,1080
-388.7830405691583,1029
-386.2046994448317,1008
-383.6270707603344,975
-381.05015433141045,899
-378.473949973725,861
-375.8984575028645,807
-373.32367673433623,729
-370.74960748356875,724
-368.1762495659117,687
-365.60360279663576,616
-363.03166699093265,542
-360.4604419639154,568
-357.8899275306178,517
-355.32012350599507,525
-352.7510297049233,536
-350.1826459421999,483
-347.61497203254316,490
-345.04800779059235,486
-342.4817530309082,497
-339.91620756797226,487
-337.35137121618743,499
-334.7872437898774,496
-332.22382510328725,560
-329.66111497058273,503
-327.09911320585127,506
-324.53781962310075,501
-321.9772340362607,528
-319.4173562591816,491
-316.8581861056348,479
-314.2997233893127,486
-311.7419679238294,497
-309.1849195227194,480
-306.62857799943856,521
-304.0729431673641,598
-301.51801483979375,601
-298.963792829947,548
-296.41027695096386,565
-293.85746701590574,589
-291.3053628377552,526
-288.7539642294155,600
-286.2032710037115,562
-283.65328297338897,539
-281.1039999511146,632
-278.5554217494762,644
-276.007548180983,608
-273.4603790580651,550
-270.9139141930734,557
-268.3681533982807,545
-265.8230964858798,595
-263.27874326798565,581
-260.7350935566336,604
-258.1921471637804,637
-255.6499039013039,620
-253.10836358100266,615
-250.56752601459698,617
-248.02739101372765,619
-245.48795838995704,710
-242.94922795476816,663
-240.41119951956557,637
-237.8738728956746,665
-235.33724789434166,657
-232.80132432673452,666
-230.2661020039418,670
-227.73158073697357,685
-225.19776033676033,716
-222.66464061415422,765
-220.1322213799284,691
-217.60050244477725,672
-215.06948361931552,671
-212.53916471408013,750
-210.00954553952818,716
-207.48062590603843,693
-204.9524056239104,691
-202.4248845033651,837
-199.8980623545441,856
-197.37193898751036,783
-194.84651421224817,786
-192.32178783866232,797
-189.79775967657952,826
-187.27442953574644,848
-184.7517972258321,880
-182.2298625564256,830
-179.7086253370378,710
-177.18808537710026,711
-174.66824248596583,798
-172.14909647290835,910
-169.6306471471229,939
-167.11289431772548,930
-164.59583779375328,897
-162.07947738416453,841
-159.5638128978386,949
-157.04884414357605,1168
-154.53457093009854,1322
-152.02099306604828,1219
-149.50811035998936,936
-146.99592262040665,860
-144.48442965570587,877
-141.97363127421409,997
-139.46352728417958,1226
-136.95411749377126,1373
-134.44540171107985,1294
-131.93737974411636,1081
-129.43005140081357,1196
-126.92341648902493,1572
-124.41747481652521,1566
-121.91222619101006,1736
-119.40767042009657,2163
-116.90380731132257,2584
-114.40063667214702,2415
-111.8981583099503,1809
-109.3963720320337,1789
-106.89527764561933,2491
-104.39487495785067,3083
-101.89516377579241,3626
-99.39614390642998,3778
-96.89781515667039,4026
-94.40017733334128,4327
-91.90323024319173,4670
-89.40697369289148,5524
-86.91140748903172,6807
-84.41653143812482,6874
-81.92234534660395,4938
-79.42884902082358,4164
-76.93604226705907,6654
-74.4439248915071,11311
-71.95249670028534,14720
-69.46175749943245,16178
-66.97170709490854,15207
-64.48234529259423,13013
-61.99367189829195,10686
-59.50568671772464,8988
-57.01838955653636,8593
-54.53178022029283,9878
-52.045858514480074,10861
-49.560624244506016,12227
-47.07607721569923,13654
-44.59221723330904,13442
-42.10904410250669,11746
-39.62655762838392,9738
-37.14475761595372,8334
-34.66364387015028,8253
-32.18321619582866,8674
-29.70347439776515,9242
-27.224418280657005,9489
-24.74604764912317,10804
-22.26836230770266,18130
-19.7913620608565,34158
-17.315046712966478,60871
-14.83941606833514,65041
-12.36446993118659,65041
-9.89020810566592,65041
-7.416630395839093,65041
-4.94373660569363,65041
-2.471526539137585,65041
-6.821210263296962E-13,65041
2.47084320796705,65041
4.941003281093458,65041
7.410480415786196,65041
9.879274808531363,65041
12.347386655893956,65041
14.814816154518212,65041
17.28156350112681,65041
19.74762889252179,65041
22.21301252558385,65041
24.67771459727237,21178
27.141735304626195,4134
29.605074844762612,2223
32.06773341487792,1908
34.52971121224755,2162
36.99100843422559,2173
39.45162527824516,1897
41.91156194181792,1717
44.370818622535126,1615
46.82939551806646,1442
49.287292826160524,1518
51.74451074464503,1490
54.201049471426245,1294
56.65690920448981,1312
59.112090141899785,1218
61.56659248179983,1115
64.02041642241159,1187
66.4735621620365,1177
68.92602989905402,1080
71.37781983192338,1040
73.82893215918205,1083
76.27936707944684,1307
78.72912479141326,1495
81.17820549385567,1453
83.62660938562783,1417
86.07433666566146,1154
88.5213875329681,931
90.96776218663751,908
93.41346082583925,943
95.85848364982041,1035
98.30283085790859,1033
100.7465026495089,1169
103.18949922410604,1121
105.63182078126385,1144
108.07346752062438,1263
110.51443964190923,1082
112.95473734491827,967
115.39436082953114,1005
117.83331029570547,963
120.27158594347827,930
122.7091879729652,947
125.1461165843615,928
127.58237197794062,889
130.01795435405518,859
132.4528639131364,1011
134.88710085569494,1035
137.32066538231982,902
139.75355769367923,795
142.1857779905207,907
144.61732647366978,897
147.04820334403132,928
149.47840880258934,931
151.90794305040674,973
154.33680628862487,1116
156.76499871846443,1377
159.19252054122433,1489
161.61937195828352,1691
164.04555317109896,1784
166.47106438120693,2001
168.89590579022217,2274
171.320077599839,2377
173.7435800118302,2467
176.16641322804742,2529
178.58857745042144,2849
181.01007288096173,2947
183.43089972175687,2950
185.85105817497413,3054
188.27054844285988,2930
190.6893707277394,2861
193.10752523201643,2949
195.5250121581745,3113
197.9418317087751,3312
200.3579840864594,3280
202.7734694939469,3116
205.18828813403627,3222
207.6024402096051,3311
210.01592592360964,3258
212.42874547908548,3161
214.84089907914665,3229
217.2523869269868,3143
219.66320922587727,3086
222.0733661791695,3084
224.48285799029293,3001
226.8916848627572,3129
229.29984700014882,3106
231.7073446061355,3090
234.11417788446204,3101
236.520347038953,3120
238.92585227351185,3217
241.33069379212054,3123
243.73487179884035,3178
246.1383864978112,3177
248.541238093252,3174
250.9434267894609,3165
253.34495279081432,3116
255.74581630176783,3160
258.1460175268563,3135
260.54555667069314,3139
262.9444339379703,3113
265.3426495334594,3094
267.7402036620107,3077
270.1370965285529,3075
272.53332833809407,2980
274.9288992957214,2927
277.32380960660055,2854
279.718059475976,2908
282.1116491091717,2871
284.5045787115897,2811
286.89684848871195,2781
289.2884586460981,2833
291.67940938938807,2919
294.0697009242996,2932
296.4593334566299,2999
298.84830719225477,2903
301.23662233712923,2949
303.6242790972866,2824
306.01127767884,2853
308.39761828798066,2765
310.78330113097934,2815
313.16832641418534,2670
315.5526943440269,2644
317.9364051270112,2628
320.3194589697242,2608
322.70185607883093,2627
325.0835966610754,2638
327.4646809232805,2574
329.8451090723478,2452
332.2248813152577,2591
334.6039978590701,2579
336.9824589109231,2541
339.36026467803447,2502
341.7374153677,2548
344.113911187295,2486
346.48975234427337,2430
348.8649390461686,2438
351.2394715005918,2508
353.61334991523415,2499
355.9865744978655,2460
358.35914545633375,2507
360.73106299856715,2477
363.10232733257146,2559
365.47293866643247,2379
367.84289720831396,2374
370.2122031664593,2362
372.5808567491905,2390
374.9488581649083,2351
377.31620762209275,2352
379.6829053293021,2309
382.0489514951745,2339
384.4143463284262,2329
386.7790900378528,2377
389.14318283232853,2334
391.50662492080653,2296
393.86941651231916,2355
396.23155781597745,2374
398.5930490409713,2261
400.9538903965696,2415
403.3140820921202,2352
405.6736243370498,2289
408.03251734086336,2335
410.3907613131465,2298
412.74835646356166,2183
415.10530300185144,2263
417.4616011378372,2248
419.81725108141893,2260
422.1722530425758,2245
424.5266072313656,2314
426.880313857925,2236
429.2333731324701,2287
431.58578526529516,2299
433.9375504667738,2234
436.2886689473588,2204
438.63914091758113,2239
440.9889665880513,2311
443.33814616945835,2172
445.68667987257015,2199
448.03456790823395,2286
450.3818104873759,2168
452.72840782100013,2238
455.07436012019105,2165
457.41966759611057,2333
459.7643304600007,2220
462.10834892318155,2206
464.4517231970525,2243
466.79445349309174,2232
469.1365400228566,2283
471.4779829979826,2284
473.81878263018564,2237
476.15893913125876,2281
478.4984527130747,2385
480.8373235875855,2313
483.17555196682144,2397
485.5131380628919,2483
487.8500820879857,2592
490.1863842543697,2754
492.52204477439034,2959
494.8570638604725,3235
497.1914417251204,3442
499.52517858091653,3593
501.85827464052306,3792
504.19073011668036,3663
506.5225452222086,3543
508.85372017000566,3388
511.18425517304956,3516
513.514150444396,3656
515.8434061971808,4441
518.1720226446176,5617
520.4999999999999,5873
522.8273384766991,5357
525.1540382881666,4943
527.480099647932,4362
529.8055227696037,3532
532.1303078668694,2981
534.454455153496,2717
536.777964843328,2554
539.1008371502907,2487
541.4230722883866,2426
543.744670471698,2439
546.0656319143858,2387
548.3859568306899,2475
550.7056454349294,2459
553.0246979415016,2345
555.3431145648834,2309
557.6608955196306,2295
559.978041020377,2230
562.2945512818363,2298
564.6104265188006,2381
566.9256669461412,2316
569.2402727788082,2428
571.5542442318302,2387
573.8675815203156,2329
576.1802848594508,2437
578.4923544645015,2366
580.8037905508126,2345
583.114593333807,2316
585.4247630289875,2434
587.7342998519354,2393
590.0432040183106,2404
592.3514757438526,2479
594.6591152443794,2378
596.9661227357875,2413
599.2724984340531,2336
601.578242555231,2283
603.8833553154542,2404
606.1878369309362,2337
608.4916876179676,2338
610.7949075929192,2344
613.0974970722403,2349
615.3994562724587,2340
617.7007854101818,2394
620.0014847020951,2288
622.3015543649641,2381
624.6009946156324,2319
626.8998056710224,2283
629.1979877481361,2329
631.4955410640538,2253
633.7924658359349,2285
636.0887622810175,2372
638.3844306166192,2266
640.6794710601358,2251
642.9738838290426,2275
645.2676691408932,2339
647.5608272133207,2332
649.853358264037,2311
652.1452625108324,2318
654.4365401715764,2440
656.7271914642178,2461
659.0172166067838,2363
661.3066158173809,2317
663.5953893141935,2337
665.8835373154867,2336
668.1710600396028,2314
670.4579577049639,2353
672.7442305300709,2398
675.0298787335033,2356
677.3149025339197,2361
679.599302150058,2376
681.8830778007342,2350
684.1662297048437,2383
686.4487580813608,2341
688.7306631493387,2362
691.0119451279091,2362
693.2926042362834,2336
695.5726406937516,2398
697.8520547196814,2413
700.1308465335215,2372
702.4090163547982,2333
704.6865644031171,2339
706.9634908981619,2250
709.2397960596965,2287
711.5154801075631,2417
713.7905432616823,2282
716.0649857420548,2359
718.3388077687592,2338
720.612009561953,2324
722.8845913418733,2346
725.1565533288352,2386
727.427895743234,2384
729.6986188055427,2364
731.9687227363137,2327
734.238207756178,2357
736.5070740858458,2279
738.7753219461066,2324
741.0429515578281,2310
743.3099631419569,2318
745.5763569195191,2334
747.8421331116193,2338
750.1072919394409,2263
752.3718336242467,2300
754.6357583873777,2370
756.8990664502545,2427
759.1617580343765,2471
761.423833361321,2331
763.6852926527457,2454
765.9461361303862,2377
768.206364016058,2416
770.4659765316536,2324
772.7249738991469,2415
774.9833563405886,2419
777.2411240781092,2385
779.4982773339183,2396
781.7548163303044,2430
784.010741289634,2439
786.2660524343538,2525
788.5207499869881,2437
790.7748341701416,2423
793.0283052064964,2400
795.2811633188143,2393
797.5334087299362,2362
799.7850416627813,2357
802.0360623403484,2305
804.2864709857143,2378
806.5362678220353,2369
808.7854530725468,2401
811.0340269605625,2350
813.2819897094754,2464
815.5293415427581,2410
817.77608268396,2403
820.0222133567116,2430
822.2677337847211,2331
824.5126441917765,2437
826.7569448017433,2355
829.0006358385675,2469
831.2437175262731,2338
833.4861900889629,2385
835.7280537508192,2380
837.9693087361026,2450
840.2099552691533,2446
842.4499935743896,2347
844.689423876309,2296
846.9282463994886,2425
849.1664613685833,2311
851.4040690083276,2375
853.6410695435349,2432
855.877463199097,2397
858.1132501999847,2364
860.3484307712487,2454
862.5830051380175,2399
864.8169735254988,2381
867.0503361589791,2387
869.2830932638243,2418
871.5152450654786,2521
873.7467917894654,2501
875.9777336613873,2401
878.2080709069252,2452
880.4378037518389,2535
882.666932421968,2521
884.8954571432301,2543
887.1233781416219,2460
889.3506956432192,2469
891.5774098741766,2519
893.803521060728,2443
896.0290294291852,2476
898.2539352059397,2489
900.4782386174619,2476
902.7019398903011,2477
904.925039251085,2537
907.147536926521,2456
909.3694331433943,2438
911.59072812857,2613
913.8114221089921,2381
916.0315153116827,2406
918.2510079637437,2403
920.4699002923547,2404
922.6881925247761,2407
924.905884888345,2471
927.1229776104793,2454
929.3394709186747,2372
931.555365040506,2371
933.7706602036275,2441
935.9853566357709,2400
938.1994545647489,2441
940.4129542184515,2402
942.6258558248488,2394
944.8381596119883,2367
947.0498658079974,2380
949.2609746410825,2402
951.4714863395287,2364
953.6814011316998,2313
955.8907192460387,2389
958.0994409110671,2409
960.3075663553858,2378
962.5150958076741,2373
964.7220294966913,2377
966.928367651274,2306
969.1341105003388,2274
971.3392582728806,2360
973.5438111979742,2241
975.747769504772,2342
977.9511334225061,2269
980.153903180487,2331
982.3560790081052,2282
984.5576611348289,2294
986.7586497902058,2233
988.9590452038618,2288
991.158847605503,2307
993.3580572249133,2189
995.5566742919558,2223
997.7546990365728,2155
999.952131688785,2119
1002.1489724786926,2149
1004.3452216364743,2097
1006.5408793923874,2096
1008.7359459767691,2083
1010.9304216200343,2083
1013.1243065526781,2083
1015.3176010052733,1978
1017.510305208472,1975
1019.7024193930064,2045
1021.8939437896848,2076
1024.0848786293977,2057
1026.2752241431122,1984
1028.4649805618747,2007
1030.6541481168115,2029
1032.842727039127,1909
1035.0307175601051,2031
1037.2181199111074,2008
1039.4049343235752,2029
1041.591161029029,1967
1043.7768002590683,1936
1045.9618522453698,1972
1048.1463172196918,1968
1050.3301954138697,2009
1052.513487059818,2023
1054.69619238953,2037
1056.8783116350783,1969
1059.0598450286152,1992
1061.2407928023704,1966
1063.4211551886528,1932
1065.6009324198508,1981
1067.780124728432,2001
1069.9587323469414,1929
1072.1367555080046,2011
1074.314194444325,1967
1076.4910493886855,1977
1078.667320573947,1903
1080.843008233051,1964
1083.0181125990161,1981
1085.1926339049414,1951
1087.3665723840027,1946
1089.5399282694575,1963
1091.7127017946405,1943
1093.8848931929647,1887
1096.0565026979243,1907
1098.2275305430899,1944
1100.3979769621128,1924
1102.567842188722,1889
1104.737126456726,1873
1106.9058300000124,1830
1109.0739530525475,1899
1111.2414958483764,1871
1113.4084586216231,1823
1115.5748416064907,1829
1117.7406450372605,1876
1119.9058691482942,1869
1122.0705141740304,1942
1124.2345803489884,1845
1126.3980679077658,1862
1128.5609770850388,1832
1130.7233081155623,1914
1132.8850612341707,1884
1135.0462366757774,1874
1137.2068346753745,1844
1139.3668554680326,1866
1141.526299288901,1759
1143.68516637321,1898
1145.8434569562655,1902
1148.001171273455,1864
1150.158309560244,1803
1152.3148720521767,1794
1154.470858984876,1802
1156.626270594044,1760
1158.7811071154629,1804
1160.9353687849912,1763
1163.089055838569,1813
1165.242168512213,1791
1167.3947070420209,1799
1169.5466716641677,1769
1171.6980626149075,1738
1173.8488801305748,1789
1175.9991244475814,1818
1178.1487958024186,1840
1180.2978944316555,1833
1182.4464205719428,1804
1184.5943744600072,1781
1186.7417563326567,1768
1188.8885664267755,1842
1191.0348049793297,1780
1193.1804722273619,1754
1195.325568407995,1773
1197.4700937584303,1796
1199.614048515948,1784
1201.7574329179074,1782
1203.900247201746,1820
1206.042491604982,1851
1208.1841663652099,1773
1210.3252717201053,1789
1212.465807907422,1794
1214.6057751649923,1850
1216.7451737307279,1802
1218.8840038426192,1803
1221.0222657387353,1804
1223.1599596572241,1808
1225.2970858363137,1906
1227.4336445143094,1772
1229.5696359295966,1868
1231.705060320639,1882
1233.8399179259786,1805
1235.9742089842384,1897
1238.107933734118,1869
1240.2410924143974,1911
1242.373685263935,1911
1244.5057125216676,1860
1246.6371744266116,1814
1248.7680712178621,1769
1250.898403134593,1835
1253.028170416058,1930
1255.1573733015875,1882
1257.2860120305932,1838
1259.4140868425648,1814
1261.54159797707,1848
1263.6685456737569,1881
1265.7949301723515,1884
1267.9207517126597,1903
1270.046010534565,1884
1272.1707068780306,1913
1274.2948409830983,1890
1276.4184130898889,1865
1278.541423438603,1867
1280.6638722695184,1929
1282.785759822993,1905
1284.9070863394636,1898
1287.0278520594447,1974
1289.1480572235314,1937
1291.2677020723963,2019
1293.3867868467923,2014
1295.5053117875495,2010
1297.623277135579,1918
1299.740683131868,1954
1301.8575300174857,2072
1303.973818033578,2027
1306.0895474213703,1974
1308.2047184221678,2037
1310.3193312773528,1994
1312.4333862283888,2018
1314.5468835168163,2023
1316.659823384255,2007
1318.7722060724045,2017
1320.8840318230418,2087
1322.9953008780249,2024
1325.1060134792888,2056
1327.2161698688478,1994
1329.3257702887959,2014
1331.4348149813054,2013
1333.5433041886276,2025
1335.6512381530933,1940
1337.7586171171101,2018
1339.8654413231675,1997
1341.9717110138317,1982
1344.0774264317488,2037
1346.1825878196432,1971
1348.2871954203192,1927
1350.3912494766587,1940
1352.4947502316231,1998
1354.5976979282532,2022
1356.7000928096686,2004
1358.8019351190665,1926
1360.9032250997243,1959
1363.0039629949988,1945
1365.1041490483235,1953
1367.2037835032133,1989
1369.3028666032606,2019
1371.401398592137,2050
1373.4993797135926,2013
1375.5968102114575,2045
1377.6936903296396,2027
1379.7900203121262,2020
1381.8858004029835,2044
1383.9810308463561,2048
1386.075711886469,1985
1388.1698437676241,2091
1390.2634267342032,1968
1392.356461030667,2041
1394.4489469015557,2061
1396.5408845914872,1963
1398.6322743451592,2021
1400.7231164073469,2001
1402.813411022907,2119
1404.903158436773,2134
1406.9923588939578,2113
1409.0810126395531,2089
1411.1691199187303,2093
1413.2566809767386,2101
1415.343696058907,2111
1417.4301654106425,2126
1419.5160892774315,2161
1421.6014679048399,2211
1423.6863015385125,2184
1425.7705904241707,2198
1427.8543348076178,2209
1429.9375349347342,2278
1432.0201910514802,2270
1434.102303403894,2262
1436.1838722380944,2228
1438.2648978002767,2214
1440.3453803367174,2183
1442.4253200937692,2272
1444.5047173178677,2369
1446.5835722555234,2350
1448.6618851533285,2358
1450.739656257952,2439
1452.8168858161434,2451
1454.8935740747306,2390
1456.96972128062,2484
1459.045327680797,2498
1461.120393522327,2510
1463.1949190523528,2607
1465.2689045180973,2568
1467.3423501668608,2649
1469.415256246024,2683
1471.4876230030463,2779
1473.559450685465,2791
1475.6307395408976,2801
1477.7014898170391,2899
1479.771701761665,2860
1481.8413756226287,2976
1483.9105116478618,2995
1485.9791100853772,2949
1488.0471711832643,3069
1490.1146951896926,3046
1492.1816823529098,3196
1494.2481329212433,3214
1496.3140471430984,3285
1498.3794252669609,3383
1500.4442675413939,3316
1502.5085742150404,3387
1504.572345536622,3426
1506.6355817549388,3502
1508.6982831188702,3510
1510.7604498773744,3644
1512.8220822794883,3515
1514.8831805743293,3634
1516.9437450110909,3786
1519.003775839048,3774
1521.0632733075522,3800
1523.1222376660367,3994
1525.1806691640113,4013
1527.2385680510652,4145
1529.2959345768668,4198
1531.3527689911643,4177
1533.4090715437833,4369
1535.4648424846291,4464
1537.5200820636855,4438
1539.5747905310159,4458
1541.6289681367616,4599
1543.6826151311434,4666
1545.7357317644614,4834
1547.7883182870937,4789
1549.8403749494987,4913
1551.8919020022113,5089
1553.9428996958477,5276
1555.9933682811015,5297
1558.0433080087469,5357
1560.0927191296346,5513
1562.1416018946961,5414
1564.1899565549415,5460
1566.2377833614592,5132
1568.2850825654164,5045
1570.3318544180606,4890
1572.3780991707158,4772
1574.423817074788,4575
1576.4690083817595,4208
1578.5136733431923,3986
1580.5578122107272,3848
1582.601425236085,3687
1584.6445126710646,3633
1586.6870747675434,3379
1588.7291117774776,3263
1590.7706239529034,3012
1592.8116115459347,2924
1594.8520748087658,2865
1596.8920139936686,2747
1598.9314293529933,2711
1600.9703211391711,2637
1603.008689604711,2557
1605.0465350022005,2529
1607.0838575843068,2396
1609.1206576037753,2355
1611.1569353134305,2376
1613.1926909661765,2293
1615.2279248149953,2330
1617.2626371129481,2211
1619.2968281131757,2198
1621.3304980688963,2171
1623.3636472334088,2153
1625.39627586009,2143
1627.428384202396,2117
1629.459972513861,2070
1631.4910410480993,2091
1633.5215900588028,2070
1635.551619799744,2092
1637.5811305247717,2150
1639.6101224878166,2066
1641.6385959428862,2051
1643.6665511440683,2064
1645.693988345528,1998
1647.7209078015112,2009
1649.7473097663405,2001
1651.7731944944203,1953
1653.7985622402307,2000
1655.823413258333,1958
1657.847747803366,1927
1659.8715661300494,1957
1661.8948684931793,1897
1663.9176551476316,1949
1665.9399263483624,1925
1667.9616823504057,1959
1669.982923408873,1904
1672.0036497789574,1930
1674.0238617159293,1950
1676.043559475138,1903
1678.0627433120121,1973
1680.081413482059,1966
1682.0995702408654,1968
1684.117213844096,1906
1686.134344547495,1905
1688.1509626068864,1909
1690.1670682781705,1911
1692.182661817329,1928
1694.1977434804217,1880
1696.2123135235875,1878
1698.226372203043,1867
1700.2399197750851,1948
1702.2529564960905,1955
1704.2654826225112,1973
1706.277498410882,1945
1708.2890041178139,1829
1710.2999999999988,1905
1712.3104863142066,1924
1714.3204633172854,1904
1716.329931266163,1909
1718.3388904178469,1928
1720.3473410294214,1879
1722.3552833580516,1882
1724.3627176609807,1989
1726.3696441955308,1864
1728.3760632191033,1815
1730.3819749891782,1885
1732.3873797633146,1829
1734.3922777991502,1877
1736.3966693544012,1802
1738.4005546868639,1782
1740.4039340544127,1834
1742.406807715001,1805
1744.4091759266616,1795
1746.4110389475054,1852
1748.4123970357223,1804
1750.413250449582,1842
1752.4135994474318,1854
1754.4134442876993,1810
1756.4127852288902,1737
1758.4116225295893,1837
1760.4099564484595,1792
1762.407787244244,1788
1764.405115175764,1810
1766.4019405019203,1794
1768.3982634816916,1742
1770.3940843741357,1753
1772.3894034383907,1773
1774.3842209336717,1773
1776.378537119274,1769
1778.372352254571,1819
1780.3656665990156,1759
1782.3584804121397,1825
1784.3507939535534,1703
1786.3426074829463,1735
1788.3339212600863,1785
1790.3247355448211,1736
1792.3150505970766,1743
1794.3048666768573,1702
1796.2941840442477,1745
1798.2830029594106,1735
1800.2713236825884,1734
1802.2591464741004,1729
1804.2464715943465,1770
1806.2332993038058,1780
1808.2196298630352,1816
1810.2054635326708,1702
1812.190800573428,1785
1814.175641246101,1722
1816.1599858115628,1757
1818.1438345307652,1738
1820.127187664738,1789
1822.1100454745924,1759
1824.092408221516,1746
1826.0742761667766,1763
1828.055649571721,1754
1830.0365286977735,1812
1832.0169138064398,1886
1833.9968051593014,1704
1835.9762030180214,1742
1837.9551076443408,1749
1839.9335193000788,1739
1841.9114382471344,1749
1843.888864747485,1707
1845.8657990631878,1770
1847.842241456378,1740
1849.8181921892697,1733
1851.7936515241558,1709
1853.7686197234098,1757
1855.7430970494815,1752
1857.7170837649014,1734
1859.6905801322787,1750
1861.6635864143004,1754
1863.6361028737338,1815
1865.608129773424,1712
1867.5796673762961,1704
1869.5507159453537,1782
1871.521275743678,1829
1873.4913470344313,1781
1875.4609300808534,1784
1877.4300251462632,1725
1879.3986324940588,1690
1881.366752387717,1772
1883.3343850907936,1704
1885.3015308669228,1813
1887.268189979819,1823
1889.2343626932739,1789
1891.2000492711595,1741
1893.1652499774254,1682
1895.1299650761011,1777
1897.0941948312952,1758
1899.0579395071945,1762
1901.0211993680641,1751
1902.98397467825,1795
1904.9462657021745,1719
1906.9080727043415,1710
1908.869395949332,1843
1910.8302357018065,1778
1912.790592226504,1758
1914.7504657882428,1753
1916.7098566519212,1780
1918.6687650825133,1828
1920.6271913450764,1748
1922.5851357047422,1809
1924.5425984267245,1800
1926.499579776314,1739
1928.4560800188833,1766
1930.4120994198802,1763
1932.367638244833,1723
1934.32269675935,1806
1936.2772752291175,1812
1938.231373919899,1757
1940.1849930975404,1796
1942.1381330279637,1782
1944.0907939771696,1710
1946.0429762112412,1774
1947.9946799963363,1721
1949.9459055986945,1788
1951.896653284633,1743
1953.8469233205478,1765
1955.7967159729142,1812
1957.7460315082863,1721
1959.6948701932974,1746
1961.6432322946594,1750
1963.5911180791632,1783
1965.5385278136787,1681
1967.4854617651545,1775
1969.4319202006182,1762
1971.377903387176,1755
1973.3234115920136,1768
1975.268445082395,1686
1977.2130041256642,1762
1979.1570889892423,1695
1981.1006999406304,1768
1983.04383724741,1721
1984.986501177238,1758
1986.928691997853,1788
1988.8704099770712,1703
1990.811655382789,1793
1992.7524284829801,1770
1994.692729545698,1775
1996.6325588390755,1737
1998.5719166313224,1707
2000.5108031907307,1706
2002.4492187856677,1715
2004.387163684583,1752
2006.3246381560011,1745
2008.2616424685298,1738
2010.1981768908527,1730
2012.1342416917332,1712
2014.069837140014,1731
2016.0049635046162,1733
2017.9396210545406,1701
2019.8738100588666,1657
2021.8075307867502,1753
2023.740783507431,1667
2025.6735684902228,1727
2027.6058860045214,1753
2029.5377363198004,1673
2031.4691197056118,1751
2033.4000364315875,1765
2035.3304867674374,1701
2037.260470982952,1698
2039.189989347998,1648
2041.1190421325232,1662
2043.047629606554,1709
2044.9757520401945,1753
2046.9034097036288,1748
2048.8306028671195,1664
2050.7573318010086,1743
2052.683596775716,1655
2054.609398061742,1694
2056.5347359296647,1663
2058.4596106501403,1698
2060.384022493906,1653
2062.3079717317764,1666
2064.231458634646,1731
2066.1544834734873,1702
2068.077046519352,1705
2069.99914804337,1687
2071.9207883167524,1710
2073.8419676107865,1665
2075.7626861968406,1686
2077.6829443463607,1657
2079.6027423308715,1702
2081.522080421977,1661
2083.440958891362,1688
2085.359378010786,1689
2087.2773380520907,1666
2089.194839287196,1733
2091.111881988101,1786
2093.0284664268825,1737
2094.9445928756973,1756
2096.86026160678,1739
2098.775472892446,1730
2100.690227005088,1710
2102.604524217178,1696
2104.5183648012676,1725
2106.431749029985,1663
2108.34467717604,1661
2110.2571495122206,1736
2112.169166311393,1705
2114.080727846503,1641
2115.9918343905747,1710
2117.902486216711,1734
2119.8126835980956,1738
2121.722426807987,1757
2123.6317161197285,1676
2125.5405518067364,1733
2127.448934142509,1725
2129.356863400624,1737
2131.264339854737,1708
2133.1713637785815,1751
2135.077935445972,1737
2136.9840551308002,1742
2138.889723107037,1757
2140.7949396487334,1794
2142.699705030018,1726
2144.6040195250994,1712
2146.507883408264,1744
2148.4112969538774,1792
2150.3142604363848,1757
2152.2167741303097,1736
2154.1188383102535,1728
2156.0204532508997,1773
2157.9216192270064,1781
2159.822336513414,1740
2161.7226053850413,1760
2163.622426116884,1798
2165.5217989840185,1822
2167.4207242616,1760
2169.319202224862,1791
2171.2172331491165,1737
2173.1148173097563,1730
2175.0119549822507,1762
2176.90864644215,1776
2178.8048919650823,1764
2180.7006918267534,1824
2182.596046302952,1829
2184.4909556695407,1814
2186.3854202024645,1786
2188.279440177746,1797
2190.173015871487,1794
2192.066147559868,1797
2193.958835519149,1785
2195.851080025667,1817
2197.7428813558417,1768
2199.6342397861667,1807
2201.5251555932186,1755
2203.415629053651,1729
2205.3056604441986,1833
2207.19525004167,1836
2209.084398122958,1864
2210.9731049650327,1883
2212.861370844941,1814
2214.749196039812,1903
2216.636580826851,1870
2218.523525483344,1873
2220.410030286655,1871
2222.296095514226,1874
2224.1817214435805,1879
2226.066908352319,1855
2227.951656518121,1900
2229.835966218746,1880
2231.71983773203,1855
2233.6032713358913,1852
2235.486267308324,1951
2237.3688259274036,1775
2239.2509474712824,1809
2241.132632218193,1835
2243.013880446447,1851
2244.8946924344323,1806
2246.7750684606203,1847
2248.6550088035574,1861
2250.534513741871,1859
2252.413583554265,1797
2254.292218519526,1874
2256.170418916517,1832
2258.0481850241786,1847
2259.925517121534,1793
2261.8024154876825,1827
2263.678880401803,1879
2265.5549121431536,1880
2267.430510991071,1834
2269.305677224971,1784
2271.180411124348,1837
2273.0547129687766,1881
2274.9285830379076,1783
2276.8020216114737,1724
2278.6750289692845,1869
2280.5476053912294,1819
2282.4197511572766,1903
2284.2914665474727,1897
2286.162751841943,1930
2288.0336073208937,1822
2289.904033264608,1882
2291.774029953448,1915
2293.6435976678554,1815
2295.5127366883517,1824
2297.381447295534,1796
2299.2497297700825,1805
2301.1175843927526,1744
2302.9850114443825,1778
2304.852011205885,1704
2306.7185839582553,1720
2308.5847299825664,1677
2310.4504495599676,1644
2312.3157429716925,1661
2314.1806104990483,1707
2316.0450524234247,1654
2317.9090690262888,1605
2319.772660589186,1621
2321.635827393742,1640
2323.498569721661,1632
2325.3608878547248,1637
2327.2227820747967,1621
2329.0842526638157,1607
2330.945299903803,1634
2332.805924076857,1586
2334.6661254651535,1640
2336.525904350951,1624
2338.3852610165827,1661
2340.244195744464,1647
2342.102708817088,1549
2343.9608005170253,1628
2345.8184711269287,1631
2347.675720929526,1634
2349.532550207628,1643
2351.38895924412,1680
2353.24494832197,1645
2355.100517724223,1596
2356.955667734004,1667
2358.810398634514,1628
2360.664710709037,1658
2362.5186042409337,1597
2364.3720795136437,1639
2366.225136810686,1641
2368.0777764156583,1626
2369.929998612237,1653
2371.7818036841777,1651
2373.633191915315,1671
2375.484163589562,1647
2377.3347189909114,1649
2379.184858403434,1671
2381.03458211128,1646
2382.8838903986775,1653
2384.732783549936,1639
2386.5812618494406,1705
2388.4293255816588,1683
2390.2769750311327,1633
2392.1242104824883,1674
2393.971032220427,1635
2395.8174405297295,1644
2397.6634356952563,1686
2399.509018001947,1751
2401.3541877348193,1697
2403.1989451789705,1666
2405.043290619576,1665
2406.8872243418905,1603
2408.730746631247,1656
2410.5738577730594,1660
2412.4165580528183,1569
2414.258847756095,1657
2416.100727168537,1685
2417.9421965758734,1669
2419.783256263912,1686
2421.623906518538,1668
2423.4641476257157,1665
2425.303979871491,1702
2427.143403541984,1667
2428.9824189233977,1669
2430.821026302012,1675
2432.6592259641866,1739
2434.497018196361,1720
2436.33440328505,1673
2438.171381516851,1710
2440.00795317844,1700
2441.844118556569,1701
2443.6798779380724,1682
2445.5152316098606,1690
2447.3501798589255,1711
2449.1847229723357,1654
2451.0188612372403,1680
2452.8525949408663,1768
2454.6859243705203,1691
2456.518849813587,1706
2458.3513715575314,1718
2460.183489889895,1725
2462.015205098301,1721
2463.8465174704493,1660
2465.67742729412,1685
2467.5079348571717,1692
2469.338040447542,1710
2471.1677443532476,1722
2472.9970468623833,1693
2474.825948263123,1687
2476.6544488437207,1727
2478.482548892508,1644
2480.310248697896,1730
2482.137548548374,1717
2483.9644487325118,1749
2485.790949538956,1749
2487.617051256433,1697
2489.44275417375,1708
2491.26805857979,1716
2493.0929647635157,1758
2494.917473013971,1708
2496.741583620276,1753
2498.5652968716304,1746
2500.3886130573137,1788
2502.2115324666834,1718
2504.0340553891765,1727
2505.856182114308,1769
2507.6779129316733,1768
2509.499248130945,1748
2511.3201880018764,1750
2513.140732834298,1745
2514.9608829181198,1712
2516.780638543331,1711
2518.6,1765
2520.418967578273,1759
2522.237541568376,1786
2524.0557222606144,1826
2525.8735099453706,1788
2527.6909049131086,1723
2529.507907454368,1804
2531.32451785977,1811
2533.140736420014,1885
2534.9565634258774,1755
2536.771999168218,1834
2538.5870439379714,1825
2540.4016980261526,1864
2542.2159617238544,1803
2544.02983532225,1857
2545.8433191125914,1887
2547.656413386209,1905
2549.4691184345115,1969
2551.2814345489874,1882
2553.093362021204,1909
2554.904901142808,1906
2556.716052205523,1923
2558.526815501153,1937
2560.3371913215824,1979
2562.147179958771,1959
2563.956781704761,1958
2565.7659968516705,1917
2567.5748256916986,1992
2569.3832685171224,1872
2571.1913256202984,2006
2572.9989972936614,1998
2574.806283829725,2056
2576.613185521084,1939
2578.4197026604074,1994
2580.2258355404483,2080
2582.031584454035,2064
2583.836949694077,2068
2585.6419315535613,2062
2587.4465303255533,2114
2589.2507463032002,2131
2591.0545797797245,2091
2592.8580310484303,2090
2594.6611004026995,2037
2596.463788135992,2058
2598.266094541849,2123
2600.0680199138874,2139
2601.869564545807,2140
2603.670728731383,2217
2605.4715127644704,2138
2607.2719169390048,2111
2609.071941548998,2131
2610.8715868885433,2167
2612.670853251811,2143
2614.469740933052,2169
2616.268250226594,2179
2618.0663814268455,2171
2619.864134828292,2146
2621.6615107255006,2104
2623.458509413115,2037
2625.2551311858597,2043
2627.0513763385347,2133
2628.8472451660223,2117
2630.6427379632833,2125
2632.4378550253564,2076
2634.232596647359,2097
2636.026963124488,2097
2637.8209547520187,2030
2639.6145718253065,2035
2641.407814639785,2028
2643.200683490966,2022
2644.9931786744414,1973
2646.7853004858807,1988
2648.577049221034,1953
2650.3684251757277,1944
2652.1594286458712,1937
2653.9500599274484,1951
2655.740319316525,1917
2657.5302071092437,1909
2659.3197236018286,1968
2661.10886909058,1947
2662.8976438718782,1874
2664.686048242183,1907
2666.4740824980327,1842
2668.2617469360443,1835
2670.0490418529134,1848
2671.8359675454153,1877
2673.622524310403,1829
2675.408712444811,1836
2677.1945322456495,1828
2678.979984010009,1792
2680.76506803506,1838
2682.5497846180497,1780
2684.334134056306,1734
2686.1181166472343,1786
2687.9017326883213,1718
2689.6849824771293,1734
2691.4678663113013,1775
2693.2503844885596,1739
2695.032537306705,1738
2696.8143250636167,1714
2698.5957480572542,1783
2700.3768065856534,1673
2702.1575009469316,1754
2703.937831439283,1745
2705.717798360982,1662
2707.4974020103837,1676
2709.276642685917,1715
2711.055520686095,1665
2712.834036309506,1650
2714.612189854819,1711
2716.389981620782,1701
2718.1674119062204,1685
2719.944481010041,1664
2721.721189231226,1638
2723.4975368688415,1673
2725.273524222027,1611
2727.0491515900053,1657
2728.824419272075,1690
2730.5993275676146,1709
2732.3738767760838,1713
2734.148067197016,1702
2735.921899130031,1716
2737.6953728748194,1680
2739.468488731156,1613
2741.2412469988926,1645
2743.0136479779617,1607
2744.785691968372,1608
2746.5573792702116,1674
2748.3287101836504,1702
2750.099685008934,1670
2751.870304046388,1669
2753.640567596418,1691
2755.4104759595057,1613
2757.1800294362156,1593
2758.949228327187,1641
2760.7180729331412,1602
2762.486563554877,1699
2764.254700493272,1659
2766.022484049284,1673
2767.789914523947,1674
2769.5569922183786,1654
2771.3237174337705,1638
2773.090090471394,1599
2774.8561116326036,1621
2776.6217812188274,1671
2778.3870995315756,1652
2780.1520668724356,1632
2781.9166835430747,1633
2783.6809498452394,1688
2785.444866080754,1635
2787.2084325515225,1590
2788.971649559527,1634
2790.73451740683,1581
2792.4970363955713,1654
2794.2592068279705,1705
2796.0210290063264,1633
2797.7825032330147,1608
2799.543629810493,1597
2801.304409041296,1666
2803.0648412280366,1621
2804.8249266734088,1609
2806.5846656801846,1636
2808.344058551212,1632
2810.1031055894246,1676
2811.8618070978273,1662
2813.6201633795085,1680
2815.378174737636,1648
2817.1358414754536,1606
2818.893163896285,1602
2820.6501423035334,1538
2822.4067770006814,1589
2824.1630682912883,1650
2825.9190164789957,1680
2827.6746218675207,1622
2829.429884760661,1676
2831.184805462294,1669
2832.9393842763743,1650
2834.693621506936,1602
2836.4475174580916,1657
2838.201072434034,1677
2839.954286739034,1648
2841.707160677441,1573
2843.459694553685,1639
2845.2118886722724,1632
2846.96374333779,1635
2848.7152588549034,1614
2850.4664355283567,1614
2852.217273662973,1634
2853.9677735636546,1662
2855.7179355353833,1638
2857.4677598832186,1656
2859.217246912299,1664
2860.9663969278427,1688
2862.715210235146,1585
2864.4636871395846,1595
2866.211827946614,1611
2867.9596329617652,1599
2869.7071024906536,1607
2871.4542368389684,1629
2873.20103631248,1640
2874.947501217038,1629
2876.6936318585695,1601
2878.4394285430812,1621
2880.1848915766604,1666
2881.9300212654707,1622
2883.6748179157553,1620
2885.4192818338374,1652
2887.1634133261173,1670
2888.907212699077,1688
2890.6506802592744,1569
2892.393816313348,1636
2894.1366211680142,1672
2895.8790951300693,1624
2897.621238506388,1622
2899.363051603925,1616
2901.1045347297118,1663
2902.8456881908596,1541
2904.58651229456,1641
2906.327007348081,1622
2908.067173658772,1627
2909.8070115340597,1659
2911.5465212814497,1622
2913.285703208527,1665
2915.0245576229563,1638
2916.7630848324807,1633
2918.5012851449196,1572
2920.2391588681758,1638
2921.976706310227,1627
2923.7139277791334,1607
2925.4508235830313,1668
2927.187394030137,1622
2928.923639428745,1617
2930.6595600872306,1578
2932.395156314046,1661
2934.1304284177218,1662
2935.8653767068713,1630
2937.6000014901815,1612
2939.3343030764227,1631
2941.068281774442,1591
2942.8019378931644,1634
2944.5352717415976,1666
2946.2682836288236,1652
2948.0009738640065,1626
2949.7333427563885,1582
2951.465390615289,1677
2953.1971177501086,1631
2954.9285244703265,1641
2956.6596110855,1629
2958.3903779052657,1623
2960.1208252393385,1616
2961.8509533975125,1671
2963.5807626896617,1733
2965.3102534257378,1620
2967.0394259157715,1602
2968.768280469873,1595
2970.496817398232,1602
2972.2250370111146,1568
2973.952939618869,1658
2975.6805255319196,1650
2977.4077950607707,1622
2979.134748516006,1664
2980.861386208289,1673
2982.587708448359,1660
2984.313715547037,1685
2986.039407815222,1638
2987.764785563891,1582
2989.489849104102,1593
2991.2145987469908,1592
2992.9390348037705,1602
2994.6631575857346,1671
2996.3869674042576,1617
2998.1104645707887,1626
2999.83364939686,1639
3001.5565221940783,1624
3003.2790832741334,1672
3005.0013329487924,1642
3006.7232715298996,1654
3008.4448993293804,1664
3010.166216659239,1618
3011.887223831558,1574
3013.607921158498,1662
3015.3283089522993,1616
3017.0483875252826,1602
3018.7681571898443,1629
3020.4876182584626,1623
3022.2067710436927,1654
3023.9256158581707,1609
3025.644153014609,1640
3027.362382825801,1616
3029.0803056046193,1672
3030.797921664012,1608
3032.5152313170106,1641
3034.2322348767225,1560
3035.9489326563353,1587
3037.665324969115,1650
3039.3814121284063,1662
3041.097194447633,1671
3042.812672240299,1582
3044.5278458199855,1628
3046.2427155003525,1679
3047.9572815951406,1625
3049.671544418167,1627
3051.38550428333,1700
3053.0991615046073,1688
3054.812516396051,1626
3056.5255692717974,1601
3058.2383204460575,1611
3059.9507702331257,1633
3061.662918947372,1611
3063.3747669032446,1696
3065.0863144152736,1609
3066.7975617980674,1624
3068.508509366309,1631
3070.219157434767,1635
3071.9295063182844,1610
3073.639556331785,1626
3075.3493077902704,1690
3077.058761008821,1645
3078.7679163025964,1630
3080.476773986837,1695
3082.1853343768594,1681
3083.89359778806,1651
3085.6015645359153,1661
3087.3092349359786,1707
3089.016609303884,1601
3090.7236879553434,1734
3092.4304712061476,1684
3094.136959372166,1596
3095.843152769349,1631
3097.5490517137237,1677
3099.2546565213966,1665
3100.959967508554,1662
3102.66498499146,1570
3104.3697092864577,1675
3106.0741407099695,1659
3107.778279578498,1688
3109.482126208622,1662
3111.1856809170004,1720
3112.8889440203716,1650
3114.5919158355528,1662
3116.294596679439,1629
3117.996986869006,1644
3119.6990867213062,1692
3121.4008965534726,1677
3123.102416682717,1742
3124.803647426329,1734
3126.5045891016784,1711
3128.205242026213,1656
3129.90560651746,1676
3131.605682893025,1691
3133.3054714705922,1644
3135.0049725679282,1716
3136.7041865028714,1725
3138.4031135933465,1685
3140.101754157353,1637
3141.800108512971,1593
3143.498176978357,1656
3145.1959598717494,1721
3146.8934575114636,1645
3148.5906702158954,1624
3150.2875983035183,1634
3151.9842420928853,1630
3153.680601902627,1640
3155.376678051456,1641
3157.07247085816,1617
3158.767980641609,1684
3160.463207720748,1685
3162.158152414606,1711
3163.8528150422862,1665
3165.5471959229726,1700
3167.2412953759303,1605
3168.9351137204976,1721
3170.628651276098,1667
3172.3219083622307,1666
3174.014885298474,1634
3175.707582404485,1689
3177.4000000000005,1610
3179.092138404835,1579
3180.7839979388846,1674
3182.47557892212,1631
3184.166881674594,1667
3185.8579065164386,1708
3187.5486537678626,1588
3189.2391237491547,1583
3190.9293167806827,1640
3192.6192331828934,1649
3194.3088732763117,1618
3195.998237381542,1585
3197.687325819268,1613
3199.376138910251,1663
3201.064676975334,1612
3202.7529403354347,1647
3204.4409293115523,1695
3206.1286442247647,1614
3207.816085396229,1565
3209.5032531471825,1628
3211.190147798936,1520
3212.8767696728846,1617
3214.5631190905015,1650
3216.2491963733373,1547
3217.9350018430214,1628
3219.6205358212637,1563
3221.305798629851,1612
3222.990790590651,1524
3224.6755120256103,1558
3226.359963256751,1548
3228.0441446061795,1605
3229.7280563960758,1590
3231.411698948703,1589
3233.0950725863995,1605
3234.778177631587,1643
3236.461014406761,1630
3238.1435832345005,1610
3239.8258844374595,1663
3241.507918338374,1626
3243.1896852600576,1620
3244.8711855254023,1699
3246.552419457381,1682
3248.233387379042,1636
3249.914089613516,1677
3251.59452648401,1698
3253.274698313813,1580
3254.95460542629,1605
3256.6342481448855,1620
3258.313626793125,1603
3259.9927416946084,1561
3261.6715931730196,1596
3263.3501815521176,1573
3265.0285071557437,1563
3266.706570307815,1622
3268.3843713323286,1607
3270.0619105533615,1581
3271.739188295068,1620
3273.4162048816834,1613
3275.0929606375184,1596
3276.769455886966,1638
3278.445690954498,1619
3280.1216661646613,1623
3281.797381842087,1673
3283.4728383114807,1597
3285.1480358976296,1617
3286.8229749253996,1573
3288.4976557197333,1627
3290.172078605655,1599
3291.846243908266,1629
3293.5201519527463,1603
3295.193803064357,1627
3296.8671975684374,1632
3298.5403357904024,1633
3300.21321805575,1590
3301.8858446900567,1631
3303.558216018975,1586
3305.23033236824,1654
3306.9021940636603,1584
3308.57380143113,1631
3310.2451547966184,1656
3311.916254486174,1696
3313.5871008259246,1613
3315.2576941420766,1622
3316.9280347609147,1617
3318.5981230088046,1594
3320.2679592121895,1605
3321.9375436975924,1624
3323.606876791612,1577
3325.27595882093,1579
3326.944790112305,1570
3328.6133709925753,1589
3330.2817017886573,1624
3331.949782827547,1578
3333.617614436319,1610
3335.2851969421245,1654
3336.952530672199,1610
3338.619615953853,1649
3340.286453114475,1655
3341.9530424815357,1605
3343.619384382583,1668
3345.2854791452437,1617
3346.951327097224,1565
3348.6169285663073,1578
3350.2822838803577,1646
3351.947393367319,1607
3353.61225735521,1613
3355.2768761721345,1577
3356.9412501462693,1609
3358.605379605873,1572
3360.2692648792827,1597
3361.9329062949146,1613
3363.596304181263,1610
