CollectionTime,7/9/2024 11:06:04 AM
ExposureUsed,3
CalibratedSpectrum
-962.7078968117929,559
-959.9714848408522,604
-957.2358232597828,640
-954.5009119013725,666
-951.7667505983302,610
-949.0333391832855,613
-946.3006774887896,624
-943.5687653473143,641
-940.837602591253,609
-938.1071890529199,656
-935.3775245645503,622
-932.6486089583007,614
-929.9204420662485,645
-927.1930237203925,622
-924.4663537526524,644
-921.7404319948689,645
-919.0152582788041,641
-916.2908324361409,657
-913.5671542984834,643
-910.8442236973568,607
-908.1220404642074,646
-905.4006044304027,651
-902.679915427231,646
-899.959973285902,646
-897.2407778375464,625
-894.5223289132158,619
-891.8046263438832,611
-889.0876699604426,636
-886.3714595937089,615
-883.6559950744183,612
-880.9412762332282,608
-878.2273029007168,634
-875.5140749073835,628
-872.8015920836489,627
-870.0898542598545,648
-867.3788612662631,598
-864.6686129330585,626
-861.9591090903457,626
-859.2503495681506,653
-856.5423341964203,649
-853.8350628050229,604
-851.1285352237478,583
-848.4227512823054,629
-845.7177108103272,656
-843.0134136373656,634
-840.3098595928943,652
-837.6070485063082,670
-834.9049802069229,671
-832.2036545239757,625
-829.5030712866244,594
-826.8032303239481,606
-824.1041314649472,635
-821.4057745385428,631
-818.7081593735775,623
-816.0112857988148,639
-813.3151536429393,626
-810.6197627345566,631
-807.9251129021936,642
-805.2312039742981,649
-802.5380357792392,638
-799.8456081453069,692
-797.1539209007124,656
-794.462973873588,671
-791.772766891987,682
-789.083299783884,673
-786.3945723771743,630
-783.7065844996748,639
-781.0193359791231,638
-778.3328266431781,645
-775.6470563194197,607
-772.9620248353489,654
-770.2777320183878,655
-767.5941776958798,624
-764.9113616950891,656
-762.2292838432011,671
-759.5479439673222,679
-756.8673418944801,680
-754.1874774516235,672
-751.5083504656222,695
-748.8299607632671,718
-746.15230817127,674
-743.475392516264,692
-740.7992136248035,696
-738.1237713233636,679
-735.4490654383407,676
-732.7750957960521,712
-730.1018622227365,693
-727.4293645445534,671
-724.7576025875837,640
-722.0865761778291,679
-719.4162851412126,709
-716.7467293035781,691
-714.0779084906909,684
-711.409822528237,714
-708.7424712418238,700
-706.0758544569796,750
-703.4099719991541,739
-700.7448236937178,716
-698.0804093659622,721
-695.4167288411002,701
-692.7537819442656,701
-690.0915685005134,714
-687.4300883348199,745
-684.7693412720819,753
-682.1093271371178,673
-679.4500457546669,746
-676.7914969493897,721
-674.1336805458676,737
-671.4765963686034,766
-668.8202442420206,756
-666.1646239904642,766
-663.5097354382001,745
-660.8555784094151,722
-658.2021527282176,723
-655.5494582186366,754
-652.8974947046223,765
-650.2462620100463,766
-647.5957599587009,738
-644.9459883742998,773
-642.2969470804776,752
-639.6486359007902,808
-637.0010546587141,793
-634.3542031776476,761
-631.7080812809096,807
-629.0626887917401,792
-626.4180255333008,780
-623.7740913286734,769
-621.1308860008619,756
-618.4884093727904,761
-615.8466612673046,747
-613.2056415071715,800
-610.5653499150785,824
-607.9257863136347,792
-605.28695052537,776
-602.6488423727357,762
-600.0114616781036,785
-597.3748082637674,770
-594.7388819519412,791
-592.1036825647604,816
-589.4692099242818,784
-586.8354638524829,814
-584.2024441712624,796
-581.5701507024403,792
-578.9385832677575,754
-576.3077416888759,803
-573.6776257873787,850
-571.0482353847704,820
-568.4195703024757,780
-565.7916303618415,809
-563.164415384135,817
-560.5379251905453,834
-557.9121596021815,800
-555.2871184400748,794
-552.6628015251767,821
-550.0392086783606,824
-547.4163397204204,814
-544.794194472071,813
-542.1727727539491,854
-539.5520743866118,815
-536.9320991905377,849
-534.3128469861261,861
-531.6943175936979,951
-529.0765108334947,935
-526.4594265256793,942
-523.8430644903358,1091
-521.2274245474689,1254
-518.612506517005,1225
-515.9983102187913,1247
-513.3848354725959,1215
-510.77208209810846,1223
-508.16004991493924,1247
-505.5487387426199,1343
-502.9381484006032,1500
-500.3282787082628,1505
-497.71912948489364,1595
-495.1107005497117,1479
-492.5029917218539,1453
-489.8960028203786,1268
-487.28973366426493,1245
-484.68418407241325,1181
-482.07935386364494,1033
-479.47524285670266,1020
-476.87185087025,1020
-474.2691777228715,1048
-471.66722323307334,1062
-469.0659872192821,1035
-466.4654694998459,1115
-463.86566989303384,994
-461.26658821703614,990
-458.66822428996414,1014
-456.07057792985,1036
-453.4736489546475,940
-450.877437182231,946
-448.28194243039627,952
-445.68716451686,990
-443.09310325926003,1000
-440.49975847515555,955
-437.9071299820263,1003
-435.31521759727354,964
-432.72402113821954,1006
-430.13354042210767,1040
-427.5437752661022,1020
-424.95472548728867,1016
-422.36639090267386,1027
-419.7787713291855,1041
-417.1918665836721,1175
-414.60567648290385,1106
-412.0202008435715,1072
-409.4354394822874,1088
-406.8513922155845,1145
-404.26805885991723,1139
-401.685439231661,1063
-399.103533147112,1073
-396.522340422488,1058
-393.9418608739278,1054
-391.3620943174908,1062
-388.7830405691583,1033
-386.2046994448317,967
-383.6270707603344,937
-381.05015433141045,874
-378.473949973725,857
-375.8984575028645,807
-373.32367673433623,738
-370.74960748356875,696
-368.1762495659117,681
-365.60360279663576,605
-363.03166699093265,576
-360.4604419639154,563
-357.8899275306178,511
-355.32012350599507,503
-352.7510297049233,528
-350.1826459421999,471
-347.61497203254316,484
-345.04800779059235,456
-342.4817530309082,504
-339.91620756797226,504
-337.35137121618743,539
-334.7872437898774,466
-332.22382510328725,499
-329.66111497058273,485
-327.09911320585127,514
-324.53781962310075,549
-321.9772340362607,546
-319.4173562591816,491
-316.8581861056348,475
-314.2997233893127,498
-311.7419679238294,492
-309.1849195227194,517
-306.62857799943856,524
-304.0729431673641,587
-301.51801483979375,585
-298.963792829947,528
-296.41027695096386,573
-293.85746701590574,538
-291.3053628377552,557
-288.7539642294155,660
-286.2032710037115,563
-283.65328297338897,521
-281.1039999511146,577
-278.5554217494762,574
-276.007548180983,567
-273.4603790580651,565
-270.9139141930734,531
-268.3681533982807,557
-265.8230964858798,577
-263.27874326798565,599
-260.7350935566336,590
-258.1921471637804,603
-255.6499039013039,611
-253.10836358100266,623
-250.56752601459698,611
-248.02739101372765,628
-245.48795838995704,625
-242.94922795476816,650
-240.41119951956557,618
-237.8738728956746,736
-235.33724789434166,703
-232.80132432673452,600
-230.2661020039418,616
-227.73158073697357,652
-225.19776033676033,680
-222.66464061415422,747
-220.1322213799284,652
-217.60050244477725,638
-215.06948361931552,685
-212.53916471408013,699
-210.00954553952818,783
-207.48062590603843,655
-204.9524056239104,672
-202.4248845033651,773
-199.8980623545441,749
-197.37193898751036,780
-194.84651421224817,785
-192.32178783866232,844
-189.79775967657952,784
-187.27442953574644,862
-184.7517972258321,863
-182.2298625564256,790
-179.7086253370378,741
-177.18808537710026,748
-174.66824248596583,810
-172.14909647290835,967
-169.6306471471229,1048
-167.11289431772548,975
-164.59583779375328,943
-162.07947738416453,871
-159.5638128978386,888
-157.04884414357605,1064
-154.53457093009854,1194
-152.02099306604828,1097
-149.50811035998936,914
-146.99592262040665,825
-144.48442965570587,892
-141.97363127421409,924
-139.46352728417958,1057
-136.95411749377126,1196
-134.44540171107985,1227
-131.93737974411636,1076
-129.43005140081357,1306
-126.92341648902493,1762
-124.41747481652521,1642
-121.91222619101006,1488
-119.40767042009657,1765
-116.90380731132257,2143
-114.40063667214702,2108
-111.8981583099503,1708
-109.3963720320337,2106
-106.89527764561933,3455
-104.39487495785067,4130
-101.89516377579241,3747
-99.39614390642998,3332
-96.89781515667039,3790
-94.40017733334128,4325
-91.90323024319173,3888
-89.40697369289148,3539
-86.91140748903172,4286
-84.41653143812482,5693
-81.92234534660395,5060
-79.42884902082358,4198
-76.93604226705907,5010
-74.4439248915071,7833
-71.95249670028534,10283
-69.46175749943245,12693
-66.97170709490854,12580
-64.48234529259423,10882
-61.99367189829195,8793
-59.50568671772464,8045
-57.01838955653636,7653
-54.53178022029283,7091
-52.045858514480074,6997
-49.560624244506016,7658
-47.07607721569923,7819
-44.59221723330904,7625
-42.10904410250669,7333
-39.62655762838392,6765
-37.14475761595372,6481
-34.66364387015028,6935
-32.18321619582866,7820
-29.70347439776515,8742
-27.224418280657005,8960
-24.74604764912317,11050
-22.26836230770266,15638
-19.7913620608565,26307
-17.315046712966478,47350
-14.83941606833514,65040
-12.36446993118659,65040
-9.89020810566592,65040
-7.416630395839093,65040
-4.94373660569363,65040
-2.471526539137585,65040
-6.821210263296962E-13,65040
2.47084320796705,65040
4.941003281093458,65040
7.410480415786196,65040
9.879274808531363,65040
12.347386655893956,65040
14.814816154518212,65040
17.28156350112681,65040
19.74762889252179,65040
22.21301252558385,65040
24.67771459727237,20843
27.141735304626195,4026
29.605074844762612,2550
32.06773341487792,2200
34.52971121224755,2022
36.99100843422559,2054
39.45162527824516,1948
41.91156194181792,1665
44.370818622535126,1525
46.82939551806646,1312
49.287292826160524,1689
51.74451074464503,1603
54.201049471426245,1210
56.65690920448981,1133
59.112090141899785,1214
61.56659248179983,1084
64.02041642241159,1119
66.4735621620365,1172
68.92602989905402,1081
71.37781983192338,1005
73.82893215918205,1091
76.27936707944684,1256
78.72912479141326,1393
81.17820549385567,1310
83.62660938562783,1375
86.07433666566146,1114
88.5213875329681,886
90.96776218663751,903
93.41346082583925,1015
95.85848364982041,1041
98.30283085790859,1086
100.7465026495089,1121
103.18949922410604,1081
105.63182078126385,1034
108.07346752062438,1088
110.51443964190923,912
112.95473734491827,980
115.39436082953114,1103
117.83331029570547,1196
120.27158594347827,1032
122.7091879729652,1018
125.1461165843615,1019
127.58237197794062,989
130.01795435405518,935
132.4528639131364,924
134.88710085569494,952
137.32066538231982,920
139.75355769367923,895
142.1857779905207,819
144.61732647366978,854
147.04820334403132,940
149.47840880258934,933
151.90794305040674,959
154.33680628862487,1054
156.76499871846443,1392
159.19252054122433,1525
161.61937195828352,1629
164.04555317109896,1760
166.47106438120693,2141
168.89590579022217,2247
171.320077599839,2359
173.7435800118302,2392
176.16641322804742,2643
178.58857745042144,2833
181.01007288096173,2906
183.43089972175687,2994
185.85105817497413,2908
188.27054844285988,2933
190.6893707277394,3036
193.10752523201643,3044
195.5250121581745,3126
197.9418317087751,3098
200.3579840864594,3205
202.7734694939469,3257
205.18828813403627,3129
207.6024402096051,3230
210.01592592360964,3276
212.42874547908548,3193
214.84089907914665,3138
217.2523869269868,3137
219.66320922587727,3018
222.0733661791695,3085
224.48285799029293,3054
226.8916848627572,3024
229.29984700014882,3156
231.7073446061355,3155
234.11417788446204,3115
236.520347038953,3148
238.92585227351185,3125
241.33069379212054,3064
243.73487179884035,3140
246.1383864978112,3128
248.541238093252,3112
250.9434267894609,3159
253.34495279081432,3104
255.74581630176783,3019
258.1460175268563,3102
260.54555667069314,3152
262.9444339379703,3097
265.3426495334594,3037
267.7402036620107,3006
270.1370965285529,2935
272.53332833809407,2867
274.9288992957214,2897
277.32380960660055,2785
279.718059475976,2856
282.1116491091717,2898
284.5045787115897,2859
286.89684848871195,2852
289.2884586460981,2841
291.67940938938807,2739
294.0697009242996,2808
296.4593334566299,2791
298.84830719225477,2870
301.23662233712923,2825
303.6242790972866,2741
306.01127767884,2734
308.39761828798066,2780
310.78330113097934,2752
313.16832641418534,2688
315.5526943440269,2652
317.9364051270112,2625
320.3194589697242,2652
322.70185607883093,2552
325.0835966610754,2652
327.4646809232805,2529
329.8451090723478,2539
332.2248813152577,2554
334.6039978590701,2477
336.9824589109231,2521
339.36026467803447,2435
341.7374153677,2389
344.113911187295,2453
346.48975234427337,2463
348.8649390461686,2364
351.2394715005918,2398
353.61334991523415,2388
355.9865744978655,2364
358.35914545633375,2432
360.73106299856715,2443
363.10232733257146,2412
365.47293866643247,2388
367.84289720831396,2401
370.2122031664593,2359
372.5808567491905,2421
374.9488581649083,2435
377.31620762209275,2348
379.6829053293021,2321
382.0489514951745,2306
384.4143463284262,2308
386.7790900378528,2311
389.14318283232853,2238
391.50662492080653,2257
393.86941651231916,2379
396.23155781597745,2313
398.5930490409713,2349
400.9538903965696,2351
403.3140820921202,2330
405.6736243370498,2250
408.03251734086336,2177
410.3907613131465,2188
412.74835646356166,2231
415.10530300185144,2257
417.4616011378372,2224
419.81725108141893,2268
422.1722530425758,2220
424.5266072313656,2195
426.880313857925,2176
429.2333731324701,2294
431.58578526529516,2234
433.9375504667738,2221
436.2886689473588,2199
438.63914091758113,2201
440.9889665880513,2153
443.33814616945835,2186
445.68667987257015,2201
448.03456790823395,2263
450.3818104873759,2164
452.72840782100013,2205
455.07436012019105,2151
457.41966759611057,2187
459.7643304600007,2127
462.10834892318155,2138
464.4517231970525,2165
466.79445349309174,2141
469.1365400228566,2210
471.4779829979826,2264
473.81878263018564,2176
476.15893913125876,2202
478.4984527130747,2244
480.8373235875855,2307
483.17555196682144,2327
485.5131380628919,2465
487.8500820879857,2587
490.1863842543697,2690
492.52204477439034,2871
494.8570638604725,3020
497.1914417251204,3372
499.52517858091653,3559
501.85827464052306,3555
504.19073011668036,3501
506.5225452222086,3462
508.85372017000566,3380
511.18425517304956,3348
513.514150444396,3599
515.8434061971808,4453
518.1720226446176,5474
520.4999999999999,5736
522.8273384766991,5326
525.1540382881666,4869
527.480099647932,4210
529.8055227696037,3435
532.1303078668694,2885
534.454455153496,2615
536.777964843328,2470
539.1008371502907,2328
541.4230722883866,2426
543.744670471698,2347
546.0656319143858,2337
548.3859568306899,2275
550.7056454349294,2261
553.0246979415016,2288
555.3431145648834,2287
557.6608955196306,2326
559.978041020377,2283
562.2945512818363,2252
564.6104265188006,2274
566.9256669461412,2371
569.2402727788082,2315
571.5542442318302,2307
573.8675815203156,2236
576.1802848594508,2368
578.4923544645015,2291
580.8037905508126,2303
583.114593333807,2350
585.4247630289875,2334
587.7342998519354,2325
590.0432040183106,2307
592.3514757438526,2294
594.6591152443794,2328
596.9661227357875,2360
599.2724984340531,2244
601.578242555231,2399
603.8833553154542,2330
606.1878369309362,2328
608.4916876179676,2258
610.7949075929192,2351
613.0974970722403,2295
615.3994562724587,2267
617.7007854101818,2335
620.0014847020951,2351
622.3015543649641,2245
624.6009946156324,2279
626.8998056710224,2217
629.1979877481361,2193
631.4955410640538,2323
633.7924658359349,2310
636.0887622810175,2256
638.3844306166192,2352
640.6794710601358,2268
642.9738838290426,2282
645.2676691408932,2334
647.5608272133207,2359
649.853358264037,2355
652.1452625108324,2228
654.4365401715764,2336
656.7271914642178,2328
659.0172166067838,2363
661.3066158173809,2270
663.5953893141935,2334
665.8835373154867,2334
668.1710600396028,2315
670.4579577049639,2381
672.7442305300709,2287
675.0298787335033,2344
677.3149025339197,2290
679.599302150058,2349
681.8830778007342,2308
684.1662297048437,2290
686.4487580813608,2276
688.7306631493387,2351
691.0119451279091,2323
693.2926042362834,2335
695.5726406937516,2304
697.8520547196814,2305
700.1308465335215,2331
702.4090163547982,2295
704.6865644031171,2308
706.9634908981619,2357
709.2397960596965,2308
711.5154801075631,2327
713.7905432616823,2401
716.0649857420548,2298
718.3388077687592,2330
720.612009561953,2248
722.8845913418733,2381
725.1565533288352,2320
727.427895743234,2324
729.6986188055427,2302
731.9687227363137,2281
734.238207756178,2337
736.5070740858458,2305
738.7753219461066,2236
741.0429515578281,2350
743.3099631419569,2315
745.5763569195191,2247
747.8421331116193,2355
750.1072919394409,2293
752.3718336242467,2298
754.6357583873777,2373
756.8990664502545,2323
759.1617580343765,2340
761.423833361321,2231
763.6852926527457,2277
765.9461361303862,2307
768.206364016058,2358
770.4659765316536,2346
772.7249738991469,2368
774.9833563405886,2359
777.2411240781092,2379
779.4982773339183,2413
781.7548163303044,2312
784.010741289634,2283
786.2660524343538,2357
788.5207499869881,2322
790.7748341701416,2299
793.0283052064964,2363
795.2811633188143,2386
797.5334087299362,2442
799.7850416627813,2393
802.0360623403484,2332
804.2864709857143,2408
806.5362678220353,2373
808.7854530725468,2310
811.0340269605625,2387
813.2819897094754,2273
815.5293415427581,2455
817.77608268396,2384
820.0222133567116,2404
822.2677337847211,2415
824.5126441917765,2324
826.7569448017433,2420
829.0006358385675,2279
831.2437175262731,2361
833.4861900889629,2355
835.7280537508192,2442
837.9693087361026,2297
840.2099552691533,2371
842.4499935743896,2353
844.689423876309,2351
846.9282463994886,2398
849.1664613685833,2378
851.4040690083276,2393
853.6410695435349,2369
855.877463199097,2366
858.1132501999847,2429
860.3484307712487,2417
862.5830051380175,2366
864.8169735254988,2453
867.0503361589791,2472
869.2830932638243,2398
871.5152450654786,2356
873.7467917894654,2414
875.9777336613873,2438
878.2080709069252,2364
880.4378037518389,2389
882.666932421968,2385
884.8954571432301,2456
887.1233781416219,2412
889.3506956432192,2421
891.5774098741766,2474
893.803521060728,2490
896.0290294291852,2520
898.2539352059397,2506
900.4782386174619,2393
902.7019398903011,2454
904.925039251085,2425
907.147536926521,2433
909.3694331433943,2380
911.59072812857,2417
913.8114221089921,2429
916.0315153116827,2441
918.2510079637437,2425
920.4699002923547,2367
922.6881925247761,2391
924.905884888345,2342
927.1229776104793,2392
929.3394709186747,2326
931.555365040506,2408
933.7706602036275,2407
935.9853566357709,2441
938.1994545647489,2361
940.4129542184515,2365
942.6258558248488,2295
944.8381596119883,2345
947.0498658079974,2311
949.2609746410825,2372
951.4714863395287,2342
953.6814011316998,2319
955.8907192460387,2292
958.0994409110671,2326
960.3075663553858,2331
962.5150958076741,2297
964.7220294966913,2334
966.928367651274,2222
969.1341105003388,2282
971.3392582728806,2297
973.5438111979742,2305
975.747769504772,2263
977.9511334225061,2245
980.153903180487,2238
982.3560790081052,2265
984.5576611348289,2242
986.7586497902058,2218
988.9590452038618,2240
991.158847605503,2170
993.3580572249133,2197
995.5566742919558,2222
997.7546990365728,2150
999.952131688785,2142
1002.1489724786926,2110
1004.3452216364743,2111
1006.5408793923874,2074
1008.7359459767691,2088
1010.9304216200343,2044
1013.1243065526781,2051
1015.3176010052733,1970
1017.510305208472,2044
1019.7024193930064,1993
1021.8939437896848,2001
1024.0848786293977,1973
1026.2752241431122,1976
1028.4649805618747,1956
1030.6541481168115,1992
1032.842727039127,1995
1035.0307175601051,2026
1037.2181199111074,1919
1039.4049343235752,2067
1041.591161029029,1977
1043.7768002590683,1946
1045.9618522453698,1928
1048.1463172196918,1971
1050.3301954138697,2014
1052.513487059818,2022
1054.69619238953,1984
1056.8783116350783,1978
1059.0598450286152,2036
1061.2407928023704,2006
1063.4211551886528,1948
1065.6009324198508,1941
1067.780124728432,1914
1069.9587323469414,1962
1072.1367555080046,1912
1074.314194444325,1949
1076.4910493886855,1987
1078.667320573947,1885
1080.843008233051,1896
1083.0181125990161,1987
1085.1926339049414,1882
1087.3665723840027,1921
1089.5399282694575,1928
1091.7127017946405,1910
1093.8848931929647,1747
1096.0565026979243,1895
1098.2275305430899,1938
1100.3979769621128,1913
1102.567842188722,1791
1104.737126456726,1802
1106.9058300000124,1809
1109.0739530525475,1804
1111.2414958483764,1765
1113.4084586216231,1909
1115.5748416064907,1886
1117.7406450372605,1829
1119.9058691482942,1801
1122.0705141740304,1885
1124.2345803489884,1898
1126.3980679077658,1869
1128.5609770850388,1823
1130.7233081155623,1828
1132.8850612341707,1871
1135.0462366757774,1856
1137.2068346753745,1820
1139.3668554680326,1795
1141.526299288901,1862
1143.68516637321,1763
1145.8434569562655,1874
1148.001171273455,1817
1150.158309560244,1803
1152.3148720521767,1844
1154.470858984876,1803
1156.626270594044,1775
1158.7811071154629,1809
1160.9353687849912,1827
1163.089055838569,1807
1165.242168512213,1807
1167.3947070420209,1850
1169.5466716641677,1744
1171.6980626149075,1769
1173.8488801305748,1793
1175.9991244475814,1794
1178.1487958024186,1756
1180.2978944316555,1781
1182.4464205719428,1817
1184.5943744600072,1761
1186.7417563326567,1796
1188.8885664267755,1802
1191.0348049793297,1750
1193.1804722273619,1822
1195.325568407995,1832
1197.4700937584303,1726
1199.614048515948,1802
1201.7574329179074,1756
1203.900247201746,1840
1206.042491604982,1828
1208.1841663652099,1734
1210.3252717201053,1816
1212.465807907422,1763
1214.6057751649923,1771
1216.7451737307279,1810
1218.8840038426192,1803
1221.0222657387353,1836
1223.1599596572241,1781
1225.2970858363137,1835
1227.4336445143094,1829
1229.5696359295966,1826
1231.705060320639,1797
1233.8399179259786,1819
1235.9742089842384,1814
1238.107933734118,1853
1240.2410924143974,1832
1242.373685263935,1847
1244.5057125216676,1859
1246.6371744266116,1813
1248.7680712178621,1896
1250.898403134593,1852
1253.028170416058,1780
1255.1573733015875,1851
1257.2860120305932,1855
1259.4140868425648,1824
1261.54159797707,1975
1263.6685456737569,1931
1265.7949301723515,1847
1267.9207517126597,1923
1270.046010534565,1879
1272.1707068780306,1877
1274.2948409830983,1914
1276.4184130898889,1841
1278.541423438603,1977
1280.6638722695184,1836
1282.785759822993,1926
1284.9070863394636,1912
1287.0278520594447,1981
1289.1480572235314,1992
1291.2677020723963,1948
1293.3867868467923,1980
1295.5053117875495,1974
1297.623277135579,1950
1299.740683131868,2012
1301.8575300174857,1988
1303.973818033578,1990
1306.0895474213703,2032
1308.2047184221678,2064
1310.3193312773528,2007
1312.4333862283888,2036
1314.5468835168163,2066
1316.659823384255,2033
1318.7722060724045,2021
1320.8840318230418,2060
1322.9953008780249,2059
1325.1060134792888,2071
1327.2161698688478,1999
1329.3257702887959,2106
1331.4348149813054,2088
1333.5433041886276,2074
1335.6512381530933,2105
1337.7586171171101,1991
1339.8654413231675,2012
1341.9717110138317,2105
1344.0774264317488,2063
1346.1825878196432,2030
1348.2871954203192,2036
1350.3912494766587,1992
1352.4947502316231,2020
1354.5976979282532,2001
1356.7000928096686,2072
1358.8019351190665,2008
1360.9032250997243,2027
1363.0039629949988,2036
1365.1041490483235,2005
1367.2037835032133,2064
1369.3028666032606,1973
1371.401398592137,1986
1373.4993797135926,2017
1375.5968102114575,1966
1377.6936903296396,1989
1379.7900203121262,2039
1381.8858004029835,2093
1383.9810308463561,1988
1386.075711886469,2100
1388.1698437676241,2085
1390.2634267342032,2076
1392.356461030667,2073
1394.4489469015557,2066
1396.5408845914872,2013
1398.6322743451592,2065
1400.7231164073469,2079
1402.813411022907,2132
1404.903158436773,2166
1406.9923588939578,2131
1409.0810126395531,2084
1411.1691199187303,2151
1413.2566809767386,2144
1415.343696058907,2074
1417.4301654106425,2123
1419.5160892774315,2153
1421.6014679048399,2099
1423.6863015385125,2203
1425.7705904241707,2162
1427.8543348076178,2253
1429.9375349347342,2224
1432.0201910514802,2248
1434.102303403894,2277
1436.1838722380944,2321
1438.2648978002767,2241
1440.3453803367174,2220
1442.4253200937692,2299
1444.5047173178677,2294
1446.5835722555234,2383
1448.6618851533285,2362
1450.739656257952,2412
1452.8168858161434,2438
1454.8935740747306,2457
1456.96972128062,2510
1459.045327680797,2527
1461.120393522327,2560
1463.1949190523528,2577
1465.2689045180973,2614
1467.3423501668608,2706
1469.415256246024,2753
1471.4876230030463,2815
1473.559450685465,2772
1475.6307395408976,2906
1477.7014898170391,2913
1479.771701761665,2923
1481.8413756226287,2940
1483.9105116478618,2970
1485.9791100853772,3063
1488.0471711832643,3201
1490.1146951896926,3162
1492.1816823529098,3254
1494.2481329212433,3266
1496.3140471430984,3257
1498.3794252669609,3298
1500.4442675413939,3278
1502.5085742150404,3334
1504.572345536622,3408
1506.6355817549388,3602
1508.6982831188702,3564
1510.7604498773744,3490
1512.8220822794883,3667
1514.8831805743293,3786
1516.9437450110909,3768
1519.003775839048,3815
1521.0632733075522,3893
1523.1222376660367,3962
1525.1806691640113,4085
1527.2385680510652,4116
1529.2959345768668,4244
1531.3527689911643,4323
1533.4090715437833,4316
1535.4648424846291,4470
1537.5200820636855,4388
1539.5747905310159,4601
1541.6289681367616,4618
1543.6826151311434,4658
1545.7357317644614,4709
1547.7883182870937,4973
1549.8403749494987,5056
1551.8919020022113,5135
1553.9428996958477,5172
1555.9933682811015,5323
1558.0433080087469,5378
1560.0927191296346,5414
1562.1416018946961,5463
1564.1899565549415,5520
1566.2377833614592,5188
1568.2850825654164,5020
1570.3318544180606,4984
1572.3780991707158,4753
1574.423817074788,4579
1576.4690083817595,4248
1578.5136733431923,4104
1580.5578122107272,3824
1582.601425236085,3758
1584.6445126710646,3541
1586.6870747675434,3434
1588.7291117774776,3245
1590.7706239529034,3183
1592.8116115459347,2995
1594.8520748087658,2945
1596.8920139936686,2820
1598.9314293529933,2665
1600.9703211391711,2620
1603.008689604711,2559
1605.0465350022005,2482
1607.0838575843068,2564
1609.1206576037753,2389
1611.1569353134305,2391
1613.1926909661765,2246
1615.2279248149953,2305
1617.2626371129481,2246
1619.2968281131757,2190
1621.3304980688963,2257
1623.3636472334088,2174
1625.39627586009,2214
1627.428384202396,2083
1629.459972513861,2206
1631.4910410480993,2042
1633.5215900588028,2059
1635.551619799744,2112
1637.5811305247717,2090
1639.6101224878166,2010
1641.6385959428862,2034
1643.6665511440683,2083
1645.693988345528,2032
1647.7209078015112,2015
1649.7473097663405,2042
1651.7731944944203,1988
1653.7985622402307,1969
1655.823413258333,2022
1657.847747803366,2014
1659.8715661300494,1940
1661.8948684931793,2028
1663.9176551476316,1940
1665.9399263483624,1974
1667.9616823504057,1978
1669.982923408873,1963
1672.0036497789574,2004
1674.0238617159293,1988
1676.043559475138,1998
1678.0627433120121,1978
1680.081413482059,1943
1682.0995702408654,1908
1684.117213844096,2045
1686.134344547495,2003
1688.1509626068864,1966
1690.1670682781705,1964
1692.182661817329,1934
1694.1977434804217,1944
1696.2123135235875,1966
1698.226372203043,1971
1700.2399197750851,1964
1702.2529564960905,1981
1704.2654826225112,1982
1706.277498410882,1942
1708.2890041178139,1941
1710.2999999999988,1925
1712.3104863142066,1916
1714.3204633172854,1952
1716.329931266163,1872
1718.3388904178469,1910
1720.3473410294214,1884
1722.3552833580516,1909
1724.3627176609807,1903
1726.3696441955308,1881
1728.3760632191033,1923
1730.3819749891782,1894
1732.3873797633146,1911
1734.3922777991502,1919
1736.3966693544012,1864
1738.4005546868639,1796
1740.4039340544127,1872
1742.406807715001,1936
1744.4091759266616,1836
1746.4110389475054,1893
1748.4123970357223,1822
1750.413250449582,1844
1752.4135994474318,1835
1754.4134442876993,1830
1756.4127852288902,1904
1758.4116225295893,1922
1760.4099564484595,1878
1762.407787244244,1801
1764.405115175764,1821
1766.4019405019203,1802
1768.3982634816916,1788
1770.3940843741357,1825
1772.3894034383907,1771
1774.3842209336717,1875
1776.378537119274,1787
1778.372352254571,1873
1780.3656665990156,1740
1782.3584804121397,1819
1784.3507939535534,1737
1786.3426074829463,1774
1788.3339212600863,1812
1790.3247355448211,1830
1792.3150505970766,1756
1794.3048666768573,1796
1796.2941840442477,1696
1798.2830029594106,1849
1800.2713236825884,1870
1802.2591464741004,1742
1804.2464715943465,1751
1806.2332993038058,1801
1808.2196298630352,1777
1810.2054635326708,1777
1812.190800573428,1734
1814.175641246101,1774
1816.1599858115628,1825
1818.1438345307652,1829
1820.127187664738,1794
1822.1100454745924,1816
1824.092408221516,1848
1826.0742761667766,1827
1828.055649571721,1737
1830.0365286977735,1770
1832.0169138064398,1747
1833.9968051593014,1736
1835.9762030180214,1695
1837.9551076443408,1857
1839.9335193000788,1776
1841.9114382471344,1732
1843.888864747485,1811
1845.8657990631878,1746
1847.842241456378,1701
1849.8181921892697,1777
1851.7936515241558,1775
1853.7686197234098,1722
1855.7430970494815,1754
1857.7170837649014,1771
1859.6905801322787,1669
1861.6635864143004,1774
1863.6361028737338,1764
1865.608129773424,1782
1867.5796673762961,1737
1869.5507159453537,1723
1871.521275743678,1762
1873.4913470344313,1706
1875.4609300808534,1784
1877.4300251462632,1802
1879.3986324940588,1744
1881.366752387717,1836
1883.3343850907936,1868
1885.3015308669228,1786
1887.268189979819,1859
1889.2343626932739,1828
1891.2000492711595,1698
1893.1652499774254,1746
1895.1299650761011,1707
1897.0941948312952,1809
1899.0579395071945,1768
1901.0211993680641,1847
1902.98397467825,1750
1904.9462657021745,1789
1906.9080727043415,1779
1908.869395949332,1781
1910.8302357018065,1761
1912.790592226504,1764
1914.7504657882428,1778
1916.7098566519212,1849
1918.6687650825133,1765
1920.6271913450764,1722
1922.5851357047422,1788
1924.5425984267245,1775
1926.499579776314,1763
1928.4560800188833,1794
1930.4120994198802,1835
1932.367638244833,1782
1934.32269675935,1832
1936.2772752291175,1822
1938.231373919899,1768
1940.1849930975404,1762
1942.1381330279637,1818
1944.0907939771696,1821
1946.0429762112412,1873
1947.9946799963363,1808
1949.9459055986945,1795
1951.896653284633,1815
1953.8469233205478,1786
1955.7967159729142,1824
1957.7460315082863,1750
1959.6948701932974,1736
1961.6432322946594,1839
1963.5911180791632,1753
1965.5385278136787,1875
1967.4854617651545,1788
1969.4319202006182,1799
1971.377903387176,1793
1973.3234115920136,1799
1975.268445082395,1772
1977.2130041256642,1743
1979.1570889892423,1726
1981.1006999406304,1790
1983.04383724741,1752
1984.986501177238,1814
1986.928691997853,1740
1988.8704099770712,1754
1990.811655382789,1770
1992.7524284829801,1731
1994.692729545698,1722
1996.6325588390755,1765
1998.5719166313224,1798
2000.5108031907307,1804
2002.4492187856677,1769
2004.387163684583,1716
2006.3246381560011,1764
2008.2616424685298,1660
2010.1981768908527,1769
2012.1342416917332,1749
2014.069837140014,1698
2016.0049635046162,1751
2017.9396210545406,1754
2019.8738100588666,1790
2021.8075307867502,1736
2023.740783507431,1767
2025.6735684902228,1782
2027.6058860045214,1815
2029.5377363198004,1724
2031.4691197056118,1724
2033.4000364315875,1758
2035.3304867674374,1649
2037.260470982952,1706
2039.189989347998,1697
2041.1190421325232,1776
2043.047629606554,1710
2044.9757520401945,1714
2046.9034097036288,1750
2048.8306028671195,1664
2050.7573318010086,1781
2052.683596775716,1825
2054.609398061742,1776
2056.5347359296647,1759
2058.4596106501403,1778
2060.384022493906,1679
2062.3079717317764,1735
2064.231458634646,1764
2066.1544834734873,1748
2068.077046519352,1751
2069.99914804337,1747
2071.9207883167524,1760
2073.8419676107865,1704
2075.7626861968406,1787
2077.6829443463607,1737
2079.6027423308715,1787
2081.522080421977,1818
2083.440958891362,1754
2085.359378010786,1759
2087.2773380520907,1768
2089.194839287196,1736
2091.111881988101,1674
2093.0284664268825,1728
2094.9445928756973,1764
2096.86026160678,1741
2098.775472892446,1747
2100.690227005088,1750
2102.604524217178,1682
2104.5183648012676,1788
2106.431749029985,1793
2108.34467717604,1776
2110.2571495122206,1804
2112.169166311393,1721
2114.080727846503,1802
2115.9918343905747,1750
2117.902486216711,1827
2119.8126835980956,1698
2121.722426807987,1752
2123.6317161197285,1774
2125.5405518067364,1814
2127.448934142509,1757
2129.356863400624,1737
2131.264339854737,1842
2133.1713637785815,1736
2135.077935445972,1776
2136.9840551308002,1826
2138.889723107037,1826
2140.7949396487334,1850
2142.699705030018,1803
2144.6040195250994,1777
2146.507883408264,1816
2148.4112969538774,1767
2150.3142604363848,1790
2152.2167741303097,1842
2154.1188383102535,1840
2156.0204532508997,1848
2157.9216192270064,1860
2159.822336513414,1784
2161.7226053850413,1825
2163.622426116884,1790
2165.5217989840185,1805
2167.4207242616,1812
2169.319202224862,1816
2171.2172331491165,1788
2173.1148173097563,1797
2175.0119549822507,1801
2176.90864644215,1776
2178.8048919650823,1805
2180.7006918267534,1893
2182.596046302952,1846
2184.4909556695407,1873
2186.3854202024645,1864
2188.279440177746,1852
2190.173015871487,1852
2192.066147559868,1896
2193.958835519149,1895
2195.851080025667,1817
2197.7428813558417,1888
2199.6342397861667,1841
2201.5251555932186,1891
2203.415629053651,1904
2205.3056604441986,1852
2207.19525004167,1856
2209.084398122958,1832
2210.9731049650327,1899
2212.861370844941,1872
2214.749196039812,1891
2216.636580826851,1932
2218.523525483344,1897
2220.410030286655,1884
2222.296095514226,1911
2224.1817214435805,1860
2226.066908352319,1916
2227.951656518121,1900
2229.835966218746,1873
2231.71983773203,1916
2233.6032713358913,1936
2235.486267308324,1946
2237.3688259274036,1899
2239.2509474712824,1887
2241.132632218193,1876
2243.013880446447,1833
2244.8946924344323,1805
2246.7750684606203,1848
2248.6550088035574,1942
2250.534513741871,1905
2252.413583554265,1967
2254.292218519526,1933
2256.170418916517,1899
2258.0481850241786,1913
2259.925517121534,1821
2261.8024154876825,1876
2263.678880401803,1991
2265.5549121431536,1920
2267.430510991071,1891
2269.305677224971,1897
2271.180411124348,1860
2273.0547129687766,1853
2274.9285830379076,1852
2276.8020216114737,1894
2278.6750289692845,1897
2280.5476053912294,1871
2282.4197511572766,1951
2284.2914665474727,1973
2286.162751841943,1960
2288.0336073208937,1927
2289.904033264608,1888
2291.774029953448,1895
2293.6435976678554,1921
2295.5127366883517,1894
2297.381447295534,1849
2299.2497297700825,1816
2301.1175843927526,1749
2302.9850114443825,1709
2304.852011205885,1758
2306.7185839582553,1725
2308.5847299825664,1670
2310.4504495599676,1675
2312.3157429716925,1608
2314.1806104990483,1680
2316.0450524234247,1725
2317.9090690262888,1672
2319.772660589186,1727
2321.635827393742,1665
2323.498569721661,1731
2325.3608878547248,1648
2327.2227820747967,1676
2329.0842526638157,1658
2330.945299903803,1634
2332.805924076857,1689
2334.6661254651535,1695
2336.525904350951,1691
2338.3852610165827,1663
2340.244195744464,1679
2342.102708817088,1669
2343.9608005170253,1737
2345.8184711269287,1630
2347.675720929526,1696
2349.532550207628,1723
2351.38895924412,1660
2353.24494832197,1712
2355.100517724223,1659
2356.955667734004,1785
2358.810398634514,1664
2360.664710709037,1694
2362.5186042409337,1705
2364.3720795136437,1714
2366.225136810686,1705
2368.0777764156583,1633
2369.929998612237,1650
2371.7818036841777,1693
2373.633191915315,1619
2375.484163589562,1709
2377.3347189909114,1711
2379.184858403434,1772
2381.03458211128,1665
2382.8838903986775,1749
2384.732783549936,1729
2386.5812618494406,1681
2388.4293255816588,1705
2390.2769750311327,1769
2392.1242104824883,1702
2393.971032220427,1716
2395.8174405297295,1755
2397.6634356952563,1686
2399.509018001947,1628
2401.3541877348193,1683
2403.1989451789705,1748
2405.043290619576,1733
2406.8872243418905,1709
2408.730746631247,1720
2410.5738577730594,1722
2412.4165580528183,1753
2414.258847756095,1737
2416.100727168537,1666
2417.9421965758734,1731
2419.783256263912,1755
2421.623906518538,1776
2423.4641476257157,1728
2425.303979871491,1766
2427.143403541984,1743
2428.9824189233977,1774
2430.821026302012,1776
2432.6592259641866,1775
2434.497018196361,1729
2436.33440328505,1795
2438.171381516851,1736
2440.00795317844,1750
2441.844118556569,1727
2443.6798779380724,1798
2445.5152316098606,1684
2447.3501798589255,1787
2449.1847229723357,1757
2451.0188612372403,1749
2452.8525949408663,1704
2454.6859243705203,1757
2456.518849813587,1690
2458.3513715575314,1799
2460.183489889895,1732
2462.015205098301,1736
2463.8465174704493,1684
2465.67742729412,1718
2467.5079348571717,1753
2469.338040447542,1757
2471.1677443532476,1736
2472.9970468623833,1771
2474.825948263123,1744
2476.6544488437207,1772
2478.482548892508,1758
2480.310248697896,1766
2482.137548548374,1781
2483.9644487325118,1755
2485.790949538956,1788
2487.617051256433,1820
2489.44275417375,1804
2491.26805857979,1738
2493.0929647635157,1751
2494.917473013971,1776
2496.741583620276,1846
2498.5652968716304,1798
2500.3886130573137,1853
2502.2115324666834,1812
2504.0340553891765,1844
2505.856182114308,1871
2507.6779129316733,1803
2509.499248130945,1839
2511.3201880018764,1839
2513.140732834298,1813
2514.9608829181198,1795
2516.780638543331,1764
2518.6,1739
2520.418967578273,1813
2522.237541568376,1733
2524.0557222606144,1831
2525.8735099453706,1809
2527.6909049131086,1815
2529.507907454368,1862
2531.32451785977,1876
2533.140736420014,1971
2534.9565634258774,1842
2536.771999168218,1878
2538.5870439379714,1868
2540.4016980261526,1880
2542.2159617238544,1884
2544.02983532225,1945
2545.8433191125914,2003
2547.656413386209,1938
2549.4691184345115,1949
2551.2814345489874,1969
2553.093362021204,1969
2554.904901142808,1975
2556.716052205523,1964
2558.526815501153,1927
2560.3371913215824,2007
2562.147179958771,2015
2563.956781704761,2030
2565.7659968516705,2096
2567.5748256916986,2025
2569.3832685171224,2056
2571.1913256202984,2065
2572.9989972936614,2051
2574.806283829725,2026
2576.613185521084,2134
2578.4197026604074,2138
2580.2258355404483,2083
2582.031584454035,2075
2583.836949694077,2133
2585.6419315535613,2106
2587.4465303255533,2113
2589.2507463032002,2230
2591.0545797797245,2205
2592.8580310484303,2169
2594.6611004026995,2192
2596.463788135992,2249
2598.266094541849,2185
2600.0680199138874,2223
2601.869564545807,2242
2603.670728731383,2213
2605.4715127644704,2243
2607.2719169390048,2270
2609.071941548998,2273
2610.8715868885433,2214
2612.670853251811,2278
2614.469740933052,2189
2616.268250226594,2254
2618.0663814268455,2171
2619.864134828292,2221
2621.6615107255006,2197
2623.458509413115,2188
2625.2551311858597,2228
2627.0513763385347,2151
2628.8472451660223,2244
2630.6427379632833,2186
2632.4378550253564,2178
2634.232596647359,2181
2636.026963124488,2160
2637.8209547520187,2092
2639.6145718253065,2073
2641.407814639785,2132
2643.200683490966,1995
2644.9931786744414,2067
2646.7853004858807,2127
2648.577049221034,2017
2650.3684251757277,2008
2652.1594286458712,2013
2653.9500599274484,2029
2655.740319316525,2108
2657.5302071092437,2031
2659.3197236018286,1946
2661.10886909058,1974
2662.8976438718782,1920
2664.686048242183,1925
2666.4740824980327,1934
2668.2617469360443,1926
2670.0490418529134,1931
2671.8359675454153,1900
2673.622524310403,1962
2675.408712444811,1902
2677.1945322456495,1938
2678.979984010009,1904
2680.76506803506,1877
2682.5497846180497,1781
2684.334134056306,1881
2686.1181166472343,1850
2687.9017326883213,1877
2689.6849824771293,1842
2691.4678663113013,1852
2693.2503844885596,1804
2695.032537306705,1805
2696.8143250636167,1756
2698.5957480572542,1768
2700.3768065856534,1784
2702.1575009469316,1818
2703.937831439283,1770
2705.717798360982,1742
2707.4974020103837,1764
2709.276642685917,1737
2711.055520686095,1824
2712.834036309506,1790
2714.612189854819,1753
2716.389981620782,1781
2718.1674119062204,1782
2719.944481010041,1727
2721.721189231226,1775
2723.4975368688415,1761
2725.273524222027,1707
2727.0491515900053,1736
2728.824419272075,1756
2730.5993275676146,1792
2732.3738767760838,1770
2734.148067197016,1706
2735.921899130031,1775
2737.6953728748194,1646
2739.468488731156,1716
2741.2412469988926,1733
2743.0136479779617,1727
2744.785691968372,1720
2746.5573792702116,1733
2748.3287101836504,1662
2750.099685008934,1760
2751.870304046388,1720
2753.640567596418,1733
2755.4104759595057,1688
2757.1800294362156,1694
2758.949228327187,1728
2760.7180729331412,1783
2762.486563554877,1816
2764.254700493272,1741
2766.022484049284,1709
2767.789914523947,1764
2769.5569922183786,1773
2771.3237174337705,1656
2773.090090471394,1744
2774.8561116326036,1684
2776.6217812188274,1738
2778.3870995315756,1726
2780.1520668724356,1695
2781.9166835430747,1798
2783.6809498452394,1808
2785.444866080754,1774
2787.2084325515225,1746
2788.971649559527,1672
2790.73451740683,1728
2792.4970363955713,1675
2794.2592068279705,1767
2796.0210290063264,1761
2797.7825032330147,1692
2799.543629810493,1649
2801.304409041296,1730
2803.0648412280366,1732
2804.8249266734088,1749
2806.5846656801846,1772
2808.344058551212,1752
2810.1031055894246,1677
2811.8618070978273,1708
2813.6201633795085,1691
2815.378174737636,1713
2817.1358414754536,1690
2818.893163896285,1706
2820.6501423035334,1743
2822.4067770006814,1711
2824.1630682912883,1741
2825.9190164789957,1658
2827.6746218675207,1709
2829.429884760661,1763
2831.184805462294,1681
2832.9393842763743,1705
2834.693621506936,1754
2836.4475174580916,1731
2838.201072434034,1784
2839.954286739034,1669
2841.707160677441,1724
2843.459694553685,1792
2845.2118886722724,1748
2846.96374333779,1652
2848.7152588549034,1744
2850.4664355283567,1727
2852.217273662973,1745
2853.9677735636546,1751
2855.7179355353833,1728
2857.4677598832186,1705
2859.217246912299,1696
2860.9663969278427,1771
2862.715210235146,1720
2864.4636871395846,1761
2866.211827946614,1732
2867.9596329617652,1717
2869.7071024906536,1727
2871.4542368389684,1717
2873.20103631248,1693
2874.947501217038,1684
2876.6936318585695,1722
2878.4394285430812,1679
2880.1848915766604,1759
2881.9300212654707,1703
2883.6748179157553,1652
2885.4192818338374,1672
2887.1634133261173,1750
2888.907212699077,1747
2890.6506802592744,1698
2892.393816313348,1716
2894.1366211680142,1717
2895.8790951300693,1680
2897.621238506388,1743
2899.363051603925,1727
2901.1045347297118,1701
2902.8456881908596,1748
2904.58651229456,1746
2906.327007348081,1654
2908.067173658772,1608
2909.8070115340597,1672
2911.5465212814497,1680
2913.285703208527,1691
2915.0245576229563,1653
2916.7630848324807,1743
2918.5012851449196,1713
2920.2391588681758,1705
2921.976706310227,1758
2923.7139277791334,1772
2925.4508235830313,1778
2927.187394030137,1840
2928.923639428745,1750
2930.6595600872306,1668
2932.395156314046,1693
2934.1304284177218,1778
2935.8653767068713,1739
2937.6000014901815,1720
2939.3343030764227,1717
2941.068281774442,1710
2942.8019378931644,1720
2944.5352717415976,1720
2946.2682836288236,1671
2948.0009738640065,1782
2949.7333427563885,1686
2951.465390615289,1712
2953.1971177501086,1745
2954.9285244703265,1719
2956.6596110855,1752
2958.3903779052657,1759
2960.1208252393385,1695
2961.8509533975125,1750
2963.5807626896617,1714
2965.3102534257378,1711
2967.0394259157715,1686
2968.768280469873,1746
2970.496817398232,1747
2972.2250370111146,1707
2973.952939618869,1740
2975.6805255319196,1734
2977.4077950607707,1686
2979.134748516006,1761
2980.861386208289,1746
2982.587708448359,1760
2984.313715547037,1797
2986.039407815222,1731
2987.764785563891,1699
2989.489849104102,1686
2991.2145987469908,1698
2992.9390348037705,1777
2994.6631575857346,1707
2996.3869674042576,1705
2998.1104645707887,1762
2999.83364939686,1725
3001.5565221940783,1730
3003.2790832741334,1779
3005.0013329487924,1708
3006.7232715298996,1781
3008.4448993293804,1712
3010.166216659239,1740
3011.887223831558,1731
3013.607921158498,1693
3015.3283089522993,1809
3017.0483875252826,1730
3018.7681571898443,1680
3020.4876182584626,1667
3022.2067710436927,1719
3023.9256158581707,1708
3025.644153014609,1702
3027.362382825801,1702
3029.0803056046193,1742
3030.797921664012,1761
3032.5152313170106,1779
3034.2322348767225,1708
3035.9489326563353,1711
3037.665324969115,1757
3039.3814121284063,1746
3041.097194447633,1682
3042.812672240299,1686
3044.5278458199855,1746
3046.2427155003525,1717
3047.9572815951406,1711
3049.671544418167,1716
3051.38550428333,1730
3053.0991615046073,1729
3054.812516396051,1750
3056.5255692717974,1752
3058.2383204460575,1778
3059.9507702331257,1724
3061.662918947372,1671
3063.3747669032446,1741
3065.0863144152736,1758
3066.7975617980674,1736
3068.508509366309,1733
3070.219157434767,1750
3071.9295063182844,1745
3073.639556331785,1748
3075.3493077902704,1722
3077.058761008821,1733
3078.7679163025964,1725
3080.476773986837,1797
3082.1853343768594,1795
3083.89359778806,1726
3085.6015645359153,1735
3087.3092349359786,1696
3089.016609303884,1790
3090.7236879553434,1756
3092.4304712061476,1733
3094.136959372166,1696
3095.843152769349,1718
3097.5490517137237,1781
3099.2546565213966,1820
3100.959967508554,1731
3102.66498499146,1763
3104.3697092864577,1693
3106.0741407099695,1774
3107.778279578498,1744
3109.482126208622,1743
3111.1856809170004,1763
3112.8889440203716,1779
3114.5919158355528,1797
3116.294596679439,1798
3117.996986869006,1760
3119.6990867213062,1895
3121.4008965534726,1837
3123.102416682717,1790
3124.803647426329,1795
3126.5045891016784,1756
3128.205242026213,1825
3129.90560651746,1821
3131.605682893025,1788
3133.3054714705922,1749
3135.0049725679282,1761
3136.7041865028714,1742
3138.4031135933465,1734
3140.101754157353,1731
3141.800108512971,1734
3143.498176978357,1762
3145.1959598717494,1776
3146.8934575114636,1729
3148.5906702158954,1761
3150.2875983035183,1714
3151.9842420928853,1752
3153.680601902627,1779
3155.376678051456,1676
3157.07247085816,1724
3158.767980641609,1771
3160.463207720748,1761
3162.158152414606,1734
3163.8528150422862,1751
3165.5471959229726,1737
3167.2412953759303,1755
3168.9351137204976,1772
3170.628651276098,1729
3172.3219083622307,1756
3174.014885298474,1683
3175.707582404485,1668
3177.4000000000005,1771
3179.092138404835,1748
3180.7839979388846,1708
3182.47557892212,1748
3184.166881674594,1735
3185.8579065164386,1745
3187.5486537678626,1728
3189.2391237491547,1775
3190.9293167806827,1801
3192.6192331828934,1707
3194.3088732763117,1737
3195.998237381542,1734
3197.687325819268,1671
3199.376138910251,1755
3201.064676975334,1751
3202.7529403354347,1773
3204.4409293115523,1761
3206.1286442247647,1720
3207.816085396229,1632
3209.5032531471825,1768
3211.190147798936,1700
3212.8767696728846,1691
3214.5631190905015,1710
3216.2491963733373,1692
3217.9350018430214,1692
3219.6205358212637,1599
3221.305798629851,1699
3222.990790590651,1646
3224.6755120256103,1702
3226.359963256751,1706
3228.0441446061795,1616
3229.7280563960758,1764
3231.411698948703,1814
3233.0950725863995,1776
3234.778177631587,1759
3236.461014406761,1762
3238.1435832345005,1806
3239.8258844374595,1722
3241.507918338374,1687
3243.1896852600576,1778
3244.8711855254023,1727
3246.552419457381,1805
3248.233387379042,1733
3249.914089613516,1776
3251.59452648401,1744
3253.274698313813,1741
3254.95460542629,1757
3256.6342481448855,1759
3258.313626793125,1739
3259.9927416946084,1720
3261.6715931730196,1701
3263.3501815521176,1714
3265.0285071557437,1667
3266.706570307815,1669
3268.3843713323286,1762
3270.0619105533615,1734
3271.739188295068,1731
3273.4162048816834,1748
3275.0929606375184,1717
3276.769455886966,1720
3278.445690954498,1739
3280.1216661646613,1751
3281.797381842087,1713
3283.4728383114807,1710
3285.1480358976296,1707
3286.8229749253996,1636
3288.4976557197333,1779
3290.172078605655,1648
3291.846243908266,1697
3293.5201519527463,1720
3295.193803064357,1711
3296.8671975684374,1694
3298.5403357904024,1680
3300.21321805575,1748
3301.8858446900567,1676
3303.558216018975,1716
3305.23033236824,1737
3306.9021940636603,1751
3308.57380143113,1769
3310.2451547966184,1778
3311.916254486174,1763
3313.5871008259246,1728
3315.2576941420766,1765
3316.9280347609147,1679
3318.5981230088046,1746
3320.2679592121895,1708
3321.9375436975924,1744
3323.606876791612,1770
3325.27595882093,1722
3326.944790112305,1674
3328.6133709925753,1669
3330.2817017886573,1666
3331.949782827547,1720
3333.617614436319,1632
3335.2851969421245,1679
3336.952530672199,1729
3338.619615953853,1735
3340.286453114475,1639
3341.9530424815357,1756
3343.619384382583,1783
3345.2854791452437,1759
3346.951327097224,1755
3348.6169285663073,1810
3350.2822838803577,1725
3351.947393367319,1800
3353.61225735521,1727
3355.2768761721345,1734
3356.9412501462693,1763
3358.605379605873,1677
3360.2692648792827,1710
3361.9329062949146,1744
3363.596304181263,1727
