CollectionTime,7/9/2024 11:07:26 AM
ExposureUsed,3
CalibratedSpectrum
-962.7078968117929,555
-959.9714848408522,661
-957.2358232597828,635
-954.5009119013725,625
-951.7667505983302,667
-949.0333391832855,613
-946.3006774887896,630
-943.5687653473143,656
-940.837602591253,629
-938.1071890529199,624
-935.3775245645503,643
-932.6486089583007,629
-929.9204420662485,648
-927.1930237203925,630
-924.4663537526524,645
-921.7404319948689,651
-919.0152582788041,649
-916.2908324361409,692
-913.5671542984834,679
-910.8442236973568,612
-908.1220404642074,626
-905.4006044304027,649
-902.679915427231,653
-899.959973285902,631
-897.2407778375464,640
-894.5223289132158,592
-891.8046263438832,603
-889.0876699604426,652
-886.3714595937089,625
-883.6559950744183,639
-880.9412762332282,655
-878.2273029007168,616
-875.5140749073835,611
-872.8015920836489,600
-870.0898542598545,628
-867.3788612662631,634
-864.6686129330585,656
-861.9591090903457,644
-859.2503495681506,665
-856.5423341964203,593
-853.8350628050229,609
-851.1285352237478,622
-848.4227512823054,640
-845.7177108103272,654
-843.0134136373656,667
-840.3098595928943,646
-837.6070485063082,658
-834.9049802069229,681
-832.2036545239757,638
-829.5030712866244,629
-826.8032303239481,672
-824.1041314649472,635
-821.4057745385428,646
-818.7081593735775,637
-816.0112857988148,677
-813.3151536429393,649
-810.6197627345566,665
-807.9251129021936,615
-805.2312039742981,684
-802.5380357792392,691
-799.8456081453069,652
-797.1539209007124,686
-794.462973873588,676
-791.772766891987,673
-789.083299783884,687
-786.3945723771743,662
-783.7065844996748,659
-781.0193359791231,626
-778.3328266431781,645
-775.6470563194197,636
-772.9620248353489,654
-770.2777320183878,654
-767.5941776958798,662
-764.9113616950891,652
-762.2292838432011,657
-759.5479439673222,698
-756.8673418944801,644
-754.1874774516235,676
-751.5083504656222,681
-748.8299607632671,682
-746.15230817127,707
-743.475392516264,706
-740.7992136248035,651
-738.1237713233636,697
-735.4490654383407,667
-732.7750957960521,705
-730.1018622227365,686
-727.4293645445534,678
-724.7576025875837,658
-722.0865761778291,674
-719.4162851412126,717
-716.7467293035781,723
-714.0779084906909,695
-711.409822528237,706
-708.7424712418238,700
-706.0758544569796,689
-703.4099719991541,732
-700.7448236937178,730
-698.0804093659622,770
-695.4167288411002,736
-692.7537819442656,702
-690.0915685005134,763
-687.4300883348199,720
-684.7693412720819,739
-682.1093271371178,733
-679.4500457546669,708
-676.7914969493897,742
-674.1336805458676,743
-671.4765963686034,761
-668.8202442420206,764
-666.1646239904642,708
-663.5097354382001,717
-660.8555784094151,750
-658.2021527282176,725
-655.5494582186366,723
-652.8974947046223,761
-650.2462620100463,760
-647.5957599587009,751
-644.9459883742998,796
-642.2969470804776,778
-639.6486359007902,776
-637.0010546587141,771
-634.3542031776476,764
-631.7080812809096,802
-629.0626887917401,747
-626.4180255333008,775
-623.7740913286734,747
-621.1308860008619,771
-618.4884093727904,791
-615.8466612673046,764
-613.2056415071715,754
-610.5653499150785,776
-607.9257863136347,827
-605.28695052537,772
-602.6488423727357,755
-600.0114616781036,777
-597.3748082637674,794
-594.7388819519412,772
-592.1036825647604,787
-589.4692099242818,820
-586.8354638524829,813
-584.2024441712624,792
-581.5701507024403,825
-578.9385832677575,769
-576.3077416888759,821
-573.6776257873787,836
-571.0482353847704,849
-568.4195703024757,819
-565.7916303618415,797
-563.164415384135,835
-560.5379251905453,766
-557.9121596021815,767
-555.2871184400748,825
-552.6628015251767,827
-550.0392086783606,768
-547.4163397204204,846
-544.794194472071,830
-542.1727727539491,822
-539.5520743866118,802
-536.9320991905377,848
-534.3128469861261,894
-531.6943175936979,884
-529.0765108334947,892
-526.4594265256793,975
-523.8430644903358,1062
-521.2274245474689,1120
-518.612506517005,1270
-515.9983102187913,1169
-513.3848354725959,1178
-510.77208209810846,1187
-508.16004991493924,1245
-505.5487387426199,1324
-502.9381484006032,1505
-500.3282787082628,1582
-497.71912948489364,1571
-495.1107005497117,1535
-492.5029917218539,1432
-489.8960028203786,1264
-487.28973366426493,1173
-484.68418407241325,1133
-482.07935386364494,1102
-479.47524285670266,1031
-476.87185087025,1065
-474.2691777228715,1023
-471.66722323307334,969
-469.0659872192821,994
-466.4654694998459,1011
-463.86566989303384,1008
-461.26658821703614,1049
-458.66822428996414,1006
-456.07057792985,1036
-453.4736489546475,1016
-450.877437182231,981
-448.28194243039627,942
-445.68716451686,970
-443.09310325926003,989
-440.49975847515555,998
-437.9071299820263,983
-435.31521759727354,979
-432.72402113821954,1055
-430.13354042210767,1097
-427.5437752661022,1023
-424.95472548728867,1026
-422.36639090267386,1051
-419.7787713291855,1093
-417.1918665836721,1206
-414.60567648290385,1128
-412.0202008435715,1039
-409.4354394822874,1129
-406.8513922155845,1133
-404.26805885991723,1126
-401.685439231661,1096
-399.103533147112,1085
-396.522340422488,1070
-393.9418608739278,1060
-391.3620943174908,1077
-388.7830405691583,1047
-386.2046994448317,980
-383.6270707603344,984
-381.05015433141045,943
-378.473949973725,928
-375.8984575028645,860
-373.32367673433623,775
-370.74960748356875,687
-368.1762495659117,679
-365.60360279663576,646
-363.03166699093265,596
-360.4604419639154,573
-357.8899275306178,520
-355.32012350599507,535
-352.7510297049233,522
-350.1826459421999,474
-347.61497203254316,477
-345.04800779059235,464
-342.4817530309082,491
-339.91620756797226,479
-337.35137121618743,479
-334.7872437898774,466
-332.22382510328725,539
-329.66111497058273,491
-327.09911320585127,517
-324.53781962310075,590
-321.9772340362607,551
-319.4173562591816,527
-316.8581861056348,477
-314.2997233893127,497
-311.7419679238294,499
-309.1849195227194,523
-306.62857799943856,529
-304.0729431673641,585
-301.51801483979375,587
-298.963792829947,608
-296.41027695096386,619
-293.85746701590574,593
-291.3053628377552,610
-288.7539642294155,630
-286.2032710037115,574
-283.65328297338897,598
-281.1039999511146,672
-278.5554217494762,693
-276.007548180983,629
-273.4603790580651,641
-270.9139141930734,643
-268.3681533982807,631
-265.8230964858798,678
-263.27874326798565,701
-260.7350935566336,694
-258.1921471637804,710
-255.6499039013039,727
-253.10836358100266,717
-250.56752601459698,674
-248.02739101372765,689
-245.48795838995704,647
-242.94922795476816,666
-240.41119951956557,657
-237.8738728956746,734
-235.33724789434166,789
-232.80132432673452,749
-230.2661020039418,751
-227.73158073697357,690
-225.19776033676033,699
-222.66464061415422,741
-220.1322213799284,736
-217.60050244477725,684
-215.06948361931552,690
-212.53916471408013,799
-210.00954553952818,722
-207.48062590603843,676
-204.9524056239104,728
-202.4248845033651,869
-199.8980623545441,804
-197.37193898751036,812
-194.84651421224817,793
-192.32178783866232,842
-189.79775967657952,803
-187.27442953574644,901
-184.7517972258321,902
-182.2298625564256,845
-179.7086253370378,851
-177.18808537710026,853
-174.66824248596583,951
-172.14909647290835,1018
-169.6306471471229,1013
-167.11289431772548,931
-164.59583779375328,940
-162.07947738416453,1001
-159.5638128978386,1018
-157.04884414357605,1225
-154.53457093009854,1575
-152.02099306604828,1426
-149.50811035998936,1115
-146.99592262040665,1040
-144.48442965570587,1118
-141.97363127421409,1070
-139.46352728417958,1234
-136.95411749377126,1420
-134.44540171107985,1448
-131.93737974411636,1238
-129.43005140081357,1509
-126.92341648902493,2095
-124.41747481652521,1895
-121.91222619101006,1602
-119.40767042009657,1871
-116.90380731132257,2311
-114.40063667214702,2274
-111.8981583099503,1910
-109.3963720320337,2578
-106.89527764561933,4161
-104.39487495785067,4546
-101.89516377579241,3868
-99.39614390642998,3458
-96.89781515667039,4182
-94.40017733334128,5001
-91.90323024319173,4227
-89.40697369289148,3429
-86.91140748903172,4166
-84.41653143812482,5225
-81.92234534660395,5075
-79.42884902082358,4388
-76.93604226705907,5678
-74.4439248915071,7764
-71.95249670028534,10758
-69.46175749943245,12499
-66.97170709490854,12644
-64.48234529259423,11218
-61.99367189829195,10082
-59.50568671772464,9879
-57.01838955653636,9912
-54.53178022029283,9808
-52.045858514480074,10261
-49.560624244506016,13989
-47.07607721569923,15241
-44.59221723330904,14816
-42.10904410250669,14226
-39.62655762838392,13155
-37.14475761595372,12059
-34.66364387015028,11637
-32.18321619582866,12013
-29.70347439776515,11358
-27.224418280657005,10922
-24.74604764912317,11879
-22.26836230770266,17176
-19.7913620608565,30873
-17.315046712966478,56223
-14.83941606833514,65041
-12.36446993118659,65041
-9.89020810566592,65041
-7.416630395839093,65041
-4.94373660569363,65041
-2.471526539137585,65041
-6.821210263296962E-13,65041
2.47084320796705,65041
4.941003281093458,65041
7.410480415786196,65041
9.879274808531363,65041
12.347386655893956,65041
14.814816154518212,65041
17.28156350112681,65041
19.74762889252179,65041
22.21301252558385,65041
24.67771459727237,21231
27.141735304626195,4600
29.605074844762612,2479
32.06773341487792,2327
34.52971121224755,2688
36.99100843422559,2572
39.45162527824516,2139
41.91156194181792,1891
44.370818622535126,1719
46.82939551806646,1620
49.287292826160524,1514
51.74451074464503,1401
54.201049471426245,1287
56.65690920448981,1368
59.112090141899785,1233
61.56659248179983,1273
64.02041642241159,1252
66.4735621620365,1362
68.92602989905402,1264
71.37781983192338,1151
73.82893215918205,1198
76.27936707944684,1389
78.72912479141326,1641
81.17820549385567,1545
83.62660938562783,1290
86.07433666566146,1110
88.5213875329681,895
90.96776218663751,961
93.41346082583925,1043
95.85848364982041,1273
98.30283085790859,1330
100.7465026495089,1375
103.18949922410604,1341
105.63182078126385,1309
108.07346752062438,1334
110.51443964190923,1146
112.95473734491827,1154
115.39436082953114,1189
117.83331029570547,1127
120.27158594347827,995
122.7091879729652,1216
125.1461165843615,1237
127.58237197794062,1235
130.01795435405518,1254
132.4528639131364,1394
134.88710085569494,1245
137.32066538231982,943
139.75355769367923,852
142.1857779905207,989
144.61732647366978,977
147.04820334403132,1046
149.47840880258934,1037
151.90794305040674,1104
154.33680628862487,1246
156.76499871846443,1407
159.19252054122433,1566
161.61937195828352,1675
164.04555317109896,1804
166.47106438120693,2063
168.89590579022217,2244
171.320077599839,2402
173.7435800118302,2503
176.16641322804742,2617
178.58857745042144,2869
181.01007288096173,3072
183.43089972175687,3213
185.85105817497413,3113
188.27054844285988,2949
190.6893707277394,3020
193.10752523201643,2998
195.5250121581745,3153
197.9418317087751,3206
200.3579840864594,3214
202.7734694939469,3102
205.18828813403627,3204
207.6024402096051,3335
210.01592592360964,3265
212.42874547908548,3253
214.84089907914665,3213
217.2523869269868,3142
219.66320922587727,3120
222.0733661791695,3076
224.48285799029293,3140
226.8916848627572,3030
229.29984700014882,3032
231.7073446061355,3171
234.11417788446204,3188
236.520347038953,3162
238.92585227351185,3150
241.33069379212054,3106
243.73487179884035,3041
246.1383864978112,3222
248.541238093252,3198
250.9434267894609,3196
253.34495279081432,3187
255.74581630176783,3202
258.1460175268563,3135
260.54555667069314,3211
262.9444339379703,3113
265.3426495334594,3034
267.7402036620107,3125
270.1370965285529,2928
272.53332833809407,2817
274.9288992957214,2844
277.32380960660055,2849
279.718059475976,2959
282.1116491091717,2942
284.5045787115897,2761
286.89684848871195,2855
289.2884586460981,2868
291.67940938938807,2854
294.0697009242996,2873
296.4593334566299,2940
298.84830719225477,2768
301.23662233712923,2836
303.6242790972866,2815
306.01127767884,2706
308.39761828798066,2688
310.78330113097934,2664
313.16832641418534,2703
315.5526943440269,2617
317.9364051270112,2753
320.3194589697242,2665
322.70185607883093,2598
325.0835966610754,2635
327.4646809232805,2550
329.8451090723478,2558
332.2248813152577,2593
334.6039978590701,2610
336.9824589109231,2489
339.36026467803447,2416
341.7374153677,2441
344.113911187295,2490
346.48975234427337,2468
348.8649390461686,2433
351.2394715005918,2474
353.61334991523415,2417
355.9865744978655,2429
358.35914545633375,2418
360.73106299856715,2442
363.10232733257146,2382
365.47293866643247,2391
367.84289720831396,2366
370.2122031664593,2304
372.5808567491905,2403
374.9488581649083,2317
377.31620762209275,2294
379.6829053293021,2317
382.0489514951745,2283
384.4143463284262,2257
386.7790900378528,2321
389.14318283232853,2345
391.50662492080653,2297
393.86941651231916,2348
396.23155781597745,2316
398.5930490409713,2299
400.9538903965696,2292
403.3140820921202,2313
405.6736243370498,2287
408.03251734086336,2264
410.3907613131465,2290
412.74835646356166,2267
415.10530300185144,2250
417.4616011378372,2244
419.81725108141893,2247
422.1722530425758,2311
424.5266072313656,2268
426.880313857925,2261
429.2333731324701,2249
431.58578526529516,2306
433.9375504667738,2272
436.2886689473588,2248
438.63914091758113,2212
440.9889665880513,2192
443.33814616945835,2123
445.68667987257015,2147
448.03456790823395,2197
450.3818104873759,2258
452.72840782100013,2249
455.07436012019105,2092
457.41966759611057,2145
459.7643304600007,2267
462.10834892318155,2217
464.4517231970525,2167
466.79445349309174,2165
469.1365400228566,2185
471.4779829979826,2152
473.81878263018564,2179
476.15893913125876,2217
478.4984527130747,2308
480.8373235875855,2401
483.17555196682144,2392
485.5131380628919,2505
487.8500820879857,2546
490.1863842543697,2646
492.52204477439034,2880
494.8570638604725,3020
497.1914417251204,3355
499.52517858091653,3542
501.85827464052306,3565
504.19073011668036,3583
506.5225452222086,3454
508.85372017000566,3314
511.18425517304956,3383
513.514150444396,3459
515.8434061971808,4325
518.1720226446176,5393
520.4999999999999,5683
522.8273384766991,5235
525.1540382881666,4706
527.480099647932,4165
529.8055227696037,3495
532.1303078668694,2902
534.454455153496,2532
536.777964843328,2444
539.1008371502907,2392
541.4230722883866,2322
543.744670471698,2379
546.0656319143858,2274
548.3859568306899,2232
550.7056454349294,2202
553.0246979415016,2201
555.3431145648834,2164
557.6608955196306,2146
559.978041020377,2148
562.2945512818363,2216
564.6104265188006,2244
566.9256669461412,2275
569.2402727788082,2212
571.5542442318302,2299
573.8675815203156,2179
576.1802848594508,2269
578.4923544645015,2300
580.8037905508126,2321
583.114593333807,2306
585.4247630289875,2226
587.7342998519354,2233
590.0432040183106,2251
592.3514757438526,2246
594.6591152443794,2221
596.9661227357875,2265
599.2724984340531,2328
601.578242555231,2277
603.8833553154542,2260
606.1878369309362,2275
608.4916876179676,2297
610.7949075929192,2228
613.0974970722403,2297
615.3994562724587,2253
617.7007854101818,2254
620.0014847020951,2187
622.3015543649641,2274
624.6009946156324,2241
626.8998056710224,2308
629.1979877481361,2216
631.4955410640538,2271
633.7924658359349,2323
636.0887622810175,2249
638.3844306166192,2256
640.6794710601358,2221
642.9738838290426,2243
645.2676691408932,2316
647.5608272133207,2322
649.853358264037,2352
652.1452625108324,2312
654.4365401715764,2378
656.7271914642178,2295
659.0172166067838,2334
661.3066158173809,2298
663.5953893141935,2282
665.8835373154867,2330
668.1710600396028,2402
670.4579577049639,2370
672.7442305300709,2330
675.0298787335033,2316
677.3149025339197,2245
679.599302150058,2307
681.8830778007342,2356
684.1662297048437,2383
686.4487580813608,2301
688.7306631493387,2322
691.0119451279091,2348
693.2926042362834,2337
695.5726406937516,2342
697.8520547196814,2290
700.1308465335215,2265
702.4090163547982,2297
704.6865644031171,2261
706.9634908981619,2344
709.2397960596965,2303
711.5154801075631,2343
713.7905432616823,2301
716.0649857420548,2269
718.3388077687592,2294
720.612009561953,2283
722.8845913418733,2302
725.1565533288352,2345
727.427895743234,2295
729.6986188055427,2288
731.9687227363137,2287
734.238207756178,2311
736.5070740858458,2310
738.7753219461066,2277
741.0429515578281,2290
743.3099631419569,2291
745.5763569195191,2351
747.8421331116193,2398
750.1072919394409,2312
752.3718336242467,2273
754.6357583873777,2297
756.8990664502545,2369
759.1617580343765,2385
761.423833361321,2369
763.6852926527457,2313
765.9461361303862,2320
768.206364016058,2301
770.4659765316536,2349
772.7249738991469,2329
774.9833563405886,2361
777.2411240781092,2439
779.4982773339183,2384
781.7548163303044,2334
784.010741289634,2353
786.2660524343538,2453
788.5207499869881,2341
790.7748341701416,2450
793.0283052064964,2389
795.2811633188143,2405
797.5334087299362,2400
799.7850416627813,2357
802.0360623403484,2334
804.2864709857143,2352
806.5362678220353,2359
808.7854530725468,2348
811.0340269605625,2429
813.2819897094754,2407
815.5293415427581,2416
817.77608268396,2393
820.0222133567116,2343
822.2677337847211,2364
824.5126441917765,2345
826.7569448017433,2389
829.0006358385675,2344
831.2437175262731,2330
833.4861900889629,2316
835.7280537508192,2300
837.9693087361026,2328
840.2099552691533,2352
842.4499935743896,2375
844.689423876309,2402
846.9282463994886,2321
849.1664613685833,2444
851.4040690083276,2343
853.6410695435349,2377
855.877463199097,2403
858.1132501999847,2356
860.3484307712487,2401
862.5830051380175,2352
864.8169735254988,2454
867.0503361589791,2433
869.2830932638243,2422
871.5152450654786,2440
873.7467917894654,2404
875.9777336613873,2402
878.2080709069252,2414
880.4378037518389,2518
882.666932421968,2477
884.8954571432301,2470
887.1233781416219,2402
889.3506956432192,2447
891.5774098741766,2468
893.803521060728,2466
896.0290294291852,2423
898.2539352059397,2426
900.4782386174619,2359
902.7019398903011,2449
904.925039251085,2390
907.147536926521,2447
909.3694331433943,2414
911.59072812857,2427
913.8114221089921,2422
916.0315153116827,2369
918.2510079637437,2410
920.4699002923547,2401
922.6881925247761,2415
924.905884888345,2347
927.1229776104793,2436
929.3394709186747,2370
931.555365040506,2339
933.7706602036275,2376
935.9853566357709,2374
938.1994545647489,2363
940.4129542184515,2443
942.6258558248488,2378
944.8381596119883,2389
947.0498658079974,2244
949.2609746410825,2303
951.4714863395287,2331
953.6814011316998,2346
955.8907192460387,2288
958.0994409110671,2384
960.3075663553858,2348
962.5150958076741,2373
964.7220294966913,2268
966.928367651274,2265
969.1341105003388,2254
971.3392582728806,2278
973.5438111979742,2256
975.747769504772,2327
977.9511334225061,2233
980.153903180487,2341
982.3560790081052,2233
984.5576611348289,2345
986.7586497902058,2268
988.9590452038618,2197
991.158847605503,2178
993.3580572249133,2193
995.5566742919558,2163
997.7546990365728,2021
999.952131688785,2139
1002.1489724786926,2072
1004.3452216364743,2064
1006.5408793923874,2091
1008.7359459767691,2104
1010.9304216200343,2067
1013.1243065526781,1930
1015.3176010052733,2077
1017.510305208472,2045
1019.7024193930064,1998
1021.8939437896848,2078
1024.0848786293977,2002
1026.2752241431122,2020
1028.4649805618747,1997
1030.6541481168115,1962
1032.842727039127,1993
1035.0307175601051,1929
1037.2181199111074,1961
1039.4049343235752,1935
1041.591161029029,2014
1043.7768002590683,1974
1045.9618522453698,2000
1048.1463172196918,1909
1050.3301954138697,1923
1052.513487059818,1930
1054.69619238953,2014
1056.8783116350783,1985
1059.0598450286152,1980
1061.2407928023704,1978
1063.4211551886528,1933
1065.6009324198508,1967
1067.780124728432,1987
1069.9587323469414,1869
1072.1367555080046,2005
1074.314194444325,2021
1076.4910493886855,1899
1078.667320573947,1920
1080.843008233051,1872
1083.0181125990161,1857
1085.1926339049414,1885
1087.3665723840027,1927
1089.5399282694575,1903
1091.7127017946405,1811
1093.8848931929647,2014
1096.0565026979243,1855
1098.2275305430899,1842
1100.3979769621128,1849
1102.567842188722,1844
1104.737126456726,1845
1106.9058300000124,1908
1109.0739530525475,1862
1111.2414958483764,1860
1113.4084586216231,1879
1115.5748416064907,1768
1117.7406450372605,1796
1119.9058691482942,1857
1122.0705141740304,1835
1124.2345803489884,1885
1126.3980679077658,1896
1128.5609770850388,1865
1130.7233081155623,1853
1132.8850612341707,1864
1135.0462366757774,1858
1137.2068346753745,1867
1139.3668554680326,1801
1141.526299288901,1785
1143.68516637321,1736
1145.8434569562655,1853
1148.001171273455,1771
1150.158309560244,1829
1152.3148720521767,1848
1154.470858984876,1871
1156.626270594044,1845
1158.7811071154629,1831
1160.9353687849912,1829
1163.089055838569,1855
1165.242168512213,1826
1167.3947070420209,1740
1169.5466716641677,1752
1171.6980626149075,1739
1173.8488801305748,1726
1175.9991244475814,1788
1178.1487958024186,1759
1180.2978944316555,1815
1182.4464205719428,1754
1184.5943744600072,1746
1186.7417563326567,1768
1188.8885664267755,1758
1191.0348049793297,1757
1193.1804722273619,1757
1195.325568407995,1792
1197.4700937584303,1795
1199.614048515948,1771
1201.7574329179074,1815
1203.900247201746,1798
1206.042491604982,1752
1208.1841663652099,1816
1210.3252717201053,1760
1212.465807907422,1749
1214.6057751649923,1825
1216.7451737307279,1825
1218.8840038426192,1815
1221.0222657387353,1846
1223.1599596572241,1826
1225.2970858363137,1858
1227.4336445143094,1891
1229.5696359295966,1831
1231.705060320639,1906
1233.8399179259786,1904
1235.9742089842384,1896
1238.107933734118,1839
1240.2410924143974,1861
1242.373685263935,1868
1244.5057125216676,1828
1246.6371744266116,1850
1248.7680712178621,1843
1250.898403134593,1796
1253.028170416058,1859
1255.1573733015875,1936
1257.2860120305932,1852
1259.4140868425648,1905
1261.54159797707,1866
1263.6685456737569,1859
1265.7949301723515,1863
1267.9207517126597,1835
1270.046010534565,1888
1272.1707068780306,1905
1274.2948409830983,1892
1276.4184130898889,1867
1278.541423438603,1903
1280.6638722695184,1909
1282.785759822993,1883
1284.9070863394636,1964
1287.0278520594447,1935
1289.1480572235314,1961
1291.2677020723963,1975
1293.3867868467923,1976
1295.5053117875495,2056
1297.623277135579,2056
1299.740683131868,2029
1301.8575300174857,1998
1303.973818033578,2120
1306.0895474213703,2029
1308.2047184221678,2011
1310.3193312773528,2011
1312.4333862283888,2010
1314.5468835168163,2034
1316.659823384255,2045
1318.7722060724045,2017
1320.8840318230418,2034
1322.9953008780249,2006
1325.1060134792888,2004
1327.2161698688478,2011
1329.3257702887959,2102
1331.4348149813054,2038
1333.5433041886276,1989
1335.6512381530933,2043
1337.7586171171101,1997
1339.8654413231675,2037
1341.9717110138317,2027
1344.0774264317488,2011
1346.1825878196432,1988
1348.2871954203192,1977
1350.3912494766587,1932
1352.4947502316231,1995
1354.5976979282532,1999
1356.7000928096686,2014
1358.8019351190665,2003
1360.9032250997243,1971
1363.0039629949988,1963
1365.1041490483235,2085
1367.2037835032133,1967
1369.3028666032606,1935
1371.401398592137,2092
1373.4993797135926,1989
1375.5968102114575,1975
1377.6936903296396,2106
1379.7900203121262,2045
1381.8858004029835,2076
1383.9810308463561,2032
1386.075711886469,2098
1388.1698437676241,2050
1390.2634267342032,1998
1392.356461030667,1951
1394.4489469015557,1992
1396.5408845914872,2066
1398.6322743451592,2080
1400.7231164073469,2101
1402.813411022907,2075
1404.903158436773,2124
1406.9923588939578,2028
1409.0810126395531,2148
1411.1691199187303,2108
1413.2566809767386,2144
1415.343696058907,2159
1417.4301654106425,2190
1419.5160892774315,2169
1421.6014679048399,2251
1423.6863015385125,2164
1425.7705904241707,2166
1427.8543348076178,2127
1429.9375349347342,2201
1432.0201910514802,2256
1434.102303403894,2217
1436.1838722380944,2247
1438.2648978002767,2289
1440.3453803367174,2248
1442.4253200937692,2320
1444.5047173178677,2334
1446.5835722555234,2300
1448.6618851533285,2385
1450.739656257952,2413
1452.8168858161434,2374
1454.8935740747306,2427
1456.96972128062,2446
1459.045327680797,2519
1461.120393522327,2622
1463.1949190523528,2588
1465.2689045180973,2659
1467.3423501668608,2677
1469.415256246024,2655
1471.4876230030463,2697
1473.559450685465,2754
1475.6307395408976,2778
1477.7014898170391,2853
1479.771701761665,2879
1481.8413756226287,2897
1483.9105116478618,2903
1485.9791100853772,3033
1488.0471711832643,3135
1490.1146951896926,3116
1492.1816823529098,3170
1494.2481329212433,3231
1496.3140471430984,3256
1498.3794252669609,3275
1500.4442675413939,3368
1502.5085742150404,3393
1504.572345536622,3485
1506.6355817549388,3493
1508.6982831188702,3529
1510.7604498773744,3592
1512.8220822794883,3700
1514.8831805743293,3658
1516.9437450110909,3804
1519.003775839048,3870
1521.0632733075522,3882
1523.1222376660367,3860
1525.1806691640113,3930
1527.2385680510652,4042
1529.2959345768668,4239
1531.3527689911643,4258
1533.4090715437833,4311
1535.4648424846291,4509
1537.5200820636855,4441
1539.5747905310159,4619
1541.6289681367616,4633
1543.6826151311434,4684
1545.7357317644614,4755
1547.7883182870937,4880
1549.8403749494987,4924
1551.8919020022113,5058
1553.9428996958477,5239
1555.9933682811015,5275
1558.0433080087469,5333
1560.0927191296346,5293
1562.1416018946961,5366
1564.1899565549415,5301
1566.2377833614592,5189
1568.2850825654164,4975
1570.3318544180606,4742
1572.3780991707158,4636
1574.423817074788,4361
1576.4690083817595,4198
1578.5136733431923,4077
1580.5578122107272,3845
1582.601425236085,3630
1584.6445126710646,3546
1586.6870747675434,3316
1588.7291117774776,3158
1590.7706239529034,3144
1592.8116115459347,2953
1594.8520748087658,2867
1596.8920139936686,2753
1598.9314293529933,2659
1600.9703211391711,2648
1603.008689604711,2572
1605.0465350022005,2491
1607.0838575843068,2369
1609.1206576037753,2415
1611.1569353134305,2299
1613.1926909661765,2267
1615.2279248149953,2317
1617.2626371129481,2204
1619.2968281131757,2196
1621.3304980688963,2196
1623.3636472334088,2136
1625.39627586009,2175
1627.428384202396,2151
1629.459972513861,2125
1631.4910410480993,2118
1633.5215900588028,2033
1635.551619799744,2015
1637.5811305247717,2068
1639.6101224878166,1978
1641.6385959428862,1997
1643.6665511440683,2020
1645.693988345528,1971
1647.7209078015112,2032
1649.7473097663405,1940
1651.7731944944203,2094
1653.7985622402307,2011
1655.823413258333,1997
1657.847747803366,1963
1659.8715661300494,1963
1661.8948684931793,2008
1663.9176551476316,1988
1665.9399263483624,2008
1667.9616823504057,1980
1669.982923408873,1959
1672.0036497789574,1872
1674.0238617159293,1891
1676.043559475138,1969
1678.0627433120121,1993
1680.081413482059,1976
1682.0995702408654,1937
1684.117213844096,1954
1686.134344547495,1931
1688.1509626068864,1907
1690.1670682781705,1932
1692.182661817329,1904
1694.1977434804217,1843
1696.2123135235875,1987
1698.226372203043,1867
1700.2399197750851,1868
1702.2529564960905,1965
1704.2654826225112,1930
1706.277498410882,1928
1708.2890041178139,1872
1710.2999999999988,1922
1712.3104863142066,1918
1714.3204633172854,1969
1716.329931266163,1888
1718.3388904178469,1895
1720.3473410294214,1969
1722.3552833580516,1900
1724.3627176609807,1873
1726.3696441955308,1875
1728.3760632191033,1899
1730.3819749891782,1858
1732.3873797633146,1943
1734.3922777991502,1861
1736.3966693544012,1845
1738.4005546868639,1928
1740.4039340544127,1892
1742.406807715001,1917
1744.4091759266616,1833
1746.4110389475054,1864
1748.4123970357223,1826
1750.413250449582,1857
1752.4135994474318,1804
1754.4134442876993,1823
1756.4127852288902,1843
1758.4116225295893,1825
1760.4099564484595,1839
1762.407787244244,1789
1764.405115175764,1816
1766.4019405019203,1807
1768.3982634816916,1840
1770.3940843741357,1778
1772.3894034383907,1832
1774.3842209336717,1823
1776.378537119274,1769
1778.372352254571,1743
1780.3656665990156,1797
1782.3584804121397,1762
1784.3507939535534,1778
1786.3426074829463,1795
1788.3339212600863,1811
1790.3247355448211,1843
1792.3150505970766,1797
1794.3048666768573,1776
1796.2941840442477,1801
1798.2830029594106,1752
1800.2713236825884,1758
1802.2591464741004,1768
1804.2464715943465,1837
1806.2332993038058,1809
1808.2196298630352,1748
1810.2054635326708,1711
1812.190800573428,1730
1814.175641246101,1761
1816.1599858115628,1752
1818.1438345307652,1793
1820.127187664738,1739
1822.1100454745924,1750
1824.092408221516,1821
1826.0742761667766,1709
1828.055649571721,1838
1830.0365286977735,1820
1832.0169138064398,1789
1833.9968051593014,1758
1835.9762030180214,1798
1837.9551076443408,1798
1839.9335193000788,1759
1841.9114382471344,1731
1843.888864747485,1777
1845.8657990631878,1751
1847.842241456378,1820
1849.8181921892697,1768
1851.7936515241558,1712
1853.7686197234098,1757
1855.7430970494815,1730
1857.7170837649014,1769
1859.6905801322787,1807
1861.6635864143004,1700
1863.6361028737338,1821
1865.608129773424,1723
1867.5796673762961,1766
1869.5507159453537,1734
1871.521275743678,1777
1873.4913470344313,1775
1875.4609300808534,1729
1877.4300251462632,1829
1879.3986324940588,1694
1881.366752387717,1790
1883.3343850907936,1729
1885.3015308669228,1743
1887.268189979819,1806
1889.2343626932739,1757
1891.2000492711595,1826
1893.1652499774254,1778
1895.1299650761011,1747
1897.0941948312952,1779
1899.0579395071945,1698
1901.0211993680641,1853
1902.98397467825,1813
1904.9462657021745,1808
1906.9080727043415,1800
1908.869395949332,1780
1910.8302357018065,1794
1912.790592226504,1778
1914.7504657882428,1786
1916.7098566519212,1846
1918.6687650825133,1751
1920.6271913450764,1709
1922.5851357047422,1780
1924.5425984267245,1752
1926.499579776314,1759
1928.4560800188833,1801
1930.4120994198802,1762
1932.367638244833,1822
1934.32269675935,1739
1936.2772752291175,1793
1938.231373919899,1779
1940.1849930975404,1806
1942.1381330279637,1771
1944.0907939771696,1797
1946.0429762112412,1768
1947.9946799963363,1797
1949.9459055986945,1726
1951.896653284633,1701
1953.8469233205478,1817
1955.7967159729142,1771
1957.7460315082863,1782
1959.6948701932974,1830
1961.6432322946594,1773
1963.5911180791632,1815
1965.5385278136787,1777
1967.4854617651545,1724
1969.4319202006182,1753
1971.377903387176,1789
1973.3234115920136,1788
1975.268445082395,1760
1977.2130041256642,1721
1979.1570889892423,1779
1981.1006999406304,1746
1983.04383724741,1731
1984.986501177238,1707
1986.928691997853,1788
1988.8704099770712,1782
1990.811655382789,1758
1992.7524284829801,1763
1994.692729545698,1755
1996.6325588390755,1813
1998.5719166313224,1720
2000.5108031907307,1714
2002.4492187856677,1760
2004.387163684583,1786
2006.3246381560011,1721
2008.2616424685298,1792
2010.1981768908527,1721
2012.1342416917332,1713
2014.069837140014,1725
2016.0049635046162,1719
2017.9396210545406,1683
2019.8738100588666,1803
2021.8075307867502,1713
2023.740783507431,1723
2025.6735684902228,1706
2027.6058860045214,1736
2029.5377363198004,1690
2031.4691197056118,1724
2033.4000364315875,1732
2035.3304867674374,1742
2037.260470982952,1689
2039.189989347998,1823
2041.1190421325232,1740
2043.047629606554,1770
2044.9757520401945,1733
2046.9034097036288,1676
2048.8306028671195,1677
2050.7573318010086,1798
2052.683596775716,1657
2054.609398061742,1749
2056.5347359296647,1725
2058.4596106501403,1799
2060.384022493906,1805
2062.3079717317764,1730
2064.231458634646,1734
2066.1544834734873,1786
2068.077046519352,1689
2069.99914804337,1731
2071.9207883167524,1734
2073.8419676107865,1775
2075.7626861968406,1742
2077.6829443463607,1790
2079.6027423308715,1781
2081.522080421977,1676
2083.440958891362,1702
2085.359378010786,1708
2087.2773380520907,1736
2089.194839287196,1713
2091.111881988101,1670
2093.0284664268825,1676
2094.9445928756973,1764
2096.86026160678,1732
2098.775472892446,1748
2100.690227005088,1698
2102.604524217178,1759
2104.5183648012676,1746
2106.431749029985,1737
2108.34467717604,1787
2110.2571495122206,1700
2112.169166311393,1767
2114.080727846503,1753
2115.9918343905747,1746
2117.902486216711,1780
2119.8126835980956,1744
2121.722426807987,1745
2123.6317161197285,1758
2125.5405518067364,1736
2127.448934142509,1742
2129.356863400624,1753
2131.264339854737,1760
2133.1713637785815,1808
2135.077935445972,1789
2136.9840551308002,1819
2138.889723107037,1818
2140.7949396487334,1744
2142.699705030018,1806
2144.6040195250994,1759
2146.507883408264,1766
2148.4112969538774,1746
2150.3142604363848,1734
2152.2167741303097,1794
2154.1188383102535,1745
2156.0204532508997,1776
2157.9216192270064,1882
2159.822336513414,1856
2161.7226053850413,1826
2163.622426116884,1736
2165.5217989840185,1796
2167.4207242616,1825
2169.319202224862,1787
2171.2172331491165,1843
2173.1148173097563,1849
2175.0119549822507,1813
2176.90864644215,1811
2178.8048919650823,1820
2180.7006918267534,1854
2182.596046302952,1800
2184.4909556695407,1850
2186.3854202024645,1819
2188.279440177746,1879
2190.173015871487,1784
2192.066147559868,1757
2193.958835519149,1775
2195.851080025667,1818
2197.7428813558417,1877
2199.6342397861667,1808
2201.5251555932186,1848
2203.415629053651,1905
2205.3056604441986,1847
2207.19525004167,1870
2209.084398122958,1845
2210.9731049650327,1897
2212.861370844941,1855
2214.749196039812,1889
2216.636580826851,1944
2218.523525483344,1927
2220.410030286655,1892
2222.296095514226,1914
2224.1817214435805,1866
2226.066908352319,1880
2227.951656518121,1930
2229.835966218746,1877
2231.71983773203,1946
2233.6032713358913,1909
2235.486267308324,1901
2237.3688259274036,1877
2239.2509474712824,1945
2241.132632218193,1916
2243.013880446447,1852
2244.8946924344323,1901
2246.7750684606203,1908
2248.6550088035574,1880
2250.534513741871,1959
2252.413583554265,1964
2254.292218519526,1930
2256.170418916517,1888
2258.0481850241786,1874
2259.925517121534,1807
2261.8024154876825,1907
2263.678880401803,1919
2265.5549121431536,1951
2267.430510991071,1933
2269.305677224971,1903
2271.180411124348,1824
2273.0547129687766,1873
2274.9285830379076,1822
2276.8020216114737,1832
2278.6750289692845,1871
2280.5476053912294,1872
2282.4197511572766,1842
2284.2914665474727,1883
2286.162751841943,1935
2288.0336073208937,1901
2289.904033264608,1904
2291.774029953448,1967
2293.6435976678554,1906
2295.5127366883517,1862
2297.381447295534,1919
2299.2497297700825,1820
2301.1175843927526,1840
2302.9850114443825,1737
2304.852011205885,1762
2306.7185839582553,1702
2308.5847299825664,1706
2310.4504495599676,1682
2312.3157429716925,1639
2314.1806104990483,1702
2316.0450524234247,1662
2317.9090690262888,1693
2319.772660589186,1753
2321.635827393742,1665
2323.498569721661,1654
2325.3608878547248,1650
2327.2227820747967,1609
2329.0842526638157,1709
2330.945299903803,1638
2332.805924076857,1592
2334.6661254651535,1689
2336.525904350951,1642
2338.3852610165827,1687
2340.244195744464,1684
2342.102708817088,1643
2343.9608005170253,1735
2345.8184711269287,1664
2347.675720929526,1690
2349.532550207628,1631
2351.38895924412,1669
2353.24494832197,1690
2355.100517724223,1655
2356.955667734004,1646
2358.810398634514,1694
2360.664710709037,1730
2362.5186042409337,1690
2364.3720795136437,1720
2366.225136810686,1752
2368.0777764156583,1762
2369.929998612237,1653
2371.7818036841777,1662
2373.633191915315,1684
2375.484163589562,1678
2377.3347189909114,1747
2379.184858403434,1663
2381.03458211128,1704
2382.8838903986775,1744
2384.732783549936,1670
2386.5812618494406,1697
2388.4293255816588,1755
2390.2769750311327,1751
2392.1242104824883,1674
2393.971032220427,1774
2395.8174405297295,1727
2397.6634356952563,1744
2399.509018001947,1771
2401.3541877348193,1712
2403.1989451789705,1791
2405.043290619576,1742
2406.8872243418905,1719
2408.730746631247,1693
2410.5738577730594,1690
2412.4165580528183,1741
2414.258847756095,1745
2416.100727168537,1702
2417.9421965758734,1726
2419.783256263912,1714
2421.623906518538,1725
2423.4641476257157,1655
2425.303979871491,1675
2427.143403541984,1770
2428.9824189233977,1745
2430.821026302012,1773
2432.6592259641866,1714
2434.497018196361,1788
2436.33440328505,1725
2438.171381516851,1751
2440.00795317844,1774
2441.844118556569,1752
2443.6798779380724,1697
2445.5152316098606,1743
2447.3501798589255,1760
2449.1847229723357,1687
2451.0188612372403,1778
2452.8525949408663,1722
2454.6859243705203,1728
2456.518849813587,1720
2458.3513715575314,1788
2460.183489889895,1796
2462.015205098301,1758
2463.8465174704493,1752
2465.67742729412,1777
2467.5079348571717,1813
2469.338040447542,1765
2471.1677443532476,1787
2472.9970468623833,1828
2474.825948263123,1766
2476.6544488437207,1760
2478.482548892508,1837
2480.310248697896,1838
2482.137548548374,1760
2483.9644487325118,1810
2485.790949538956,1822
2487.617051256433,1786
2489.44275417375,1729
2491.26805857979,1840
2493.0929647635157,1814
2494.917473013971,1780
2496.741583620276,1752
2498.5652968716304,1783
2500.3886130573137,1783
2502.2115324666834,1890
2504.0340553891765,1800
2505.856182114308,1696
2507.6779129316733,1850
2509.499248130945,1849
2511.3201880018764,1812
2513.140732834298,1826
2514.9608829181198,1858
2516.780638543331,1842
2518.6,1815
2520.418967578273,1866
2522.237541568376,1870
2524.0557222606144,1859
2525.8735099453706,1844
2527.6909049131086,1876
2529.507907454368,1838
2531.32451785977,1831
2533.140736420014,1871
2534.9565634258774,1871
2536.771999168218,1941
2538.5870439379714,1853
2540.4016980261526,1898
2542.2159617238544,1950
2544.02983532225,1919
2545.8433191125914,1934
2547.656413386209,1939
2549.4691184345115,1943
2551.2814345489874,1950
2553.093362021204,1887
2554.904901142808,1904
2556.716052205523,1996
2558.526815501153,1986
2560.3371913215824,1904
2562.147179958771,1993
2563.956781704761,1990
2565.7659968516705,1947
2567.5748256916986,2051
2569.3832685171224,2026
2571.1913256202984,2111
2572.9989972936614,2122
2574.806283829725,2105
2576.613185521084,2088
2578.4197026604074,2069
2580.2258355404483,2090
2582.031584454035,2097
2583.836949694077,2142
2585.6419315535613,2139
2587.4465303255533,2141
2589.2507463032002,2079
2591.0545797797245,2156
2592.8580310484303,2194
2594.6611004026995,2112
2596.463788135992,2099
2598.266094541849,2165
2600.0680199138874,2203
2601.869564545807,2170
2603.670728731383,2143
2605.4715127644704,2187
2607.2719169390048,2196
2609.071941548998,2232
2610.8715868885433,2201
2612.670853251811,2196
2614.469740933052,2229
2616.268250226594,2218
2618.0663814268455,2209
2619.864134828292,2143
2621.6615107255006,2182
2623.458509413115,2163
2625.2551311858597,2248
2627.0513763385347,2112
2628.8472451660223,2144
2630.6427379632833,2130
2632.4378550253564,2169
2634.232596647359,2106
2636.026963124488,2094
2637.8209547520187,2078
2639.6145718253065,2019
2641.407814639785,2105
2643.200683490966,2075
2644.9931786744414,2063
2646.7853004858807,2100
2648.577049221034,2004
2650.3684251757277,2012
2652.1594286458712,2079
2653.9500599274484,2015
2655.740319316525,1972
2657.5302071092437,1911
2659.3197236018286,1934
2661.10886909058,2011
2662.8976438718782,1997
2664.686048242183,1894
2666.4740824980327,1877
2668.2617469360443,1860
2670.0490418529134,1916
2671.8359675454153,1909
2673.622524310403,1942
2675.408712444811,1861
2677.1945322456495,1923
2678.979984010009,1858
2680.76506803506,1903
2682.5497846180497,1925
2684.334134056306,1882
2686.1181166472343,1838
2687.9017326883213,1879
2689.6849824771293,1909
2691.4678663113013,1802
2693.2503844885596,1848
2695.032537306705,1837
2696.8143250636167,1791
2698.5957480572542,1737
2700.3768065856534,1770
2702.1575009469316,1798
2703.937831439283,1848
2705.717798360982,1779
2707.4974020103837,1892
2709.276642685917,1785
2711.055520686095,1741
2712.834036309506,1785
2714.612189854819,1758
2716.389981620782,1723
2718.1674119062204,1734
2719.944481010041,1762
2721.721189231226,1768
2723.4975368688415,1777
2725.273524222027,1708
2727.0491515900053,1746
2728.824419272075,1730
2730.5993275676146,1766
2732.3738767760838,1738
2734.148067197016,1766
2735.921899130031,1733
2737.6953728748194,1772
2739.468488731156,1746
2741.2412469988926,1789
2743.0136479779617,1763
2744.785691968372,1741
2746.5573792702116,1682
2748.3287101836504,1707
2750.099685008934,1748
2751.870304046388,1736
2753.640567596418,1693
2755.4104759595057,1734
2757.1800294362156,1725
2758.949228327187,1686
2760.7180729331412,1711
2762.486563554877,1730
2764.254700493272,1772
2766.022484049284,1688
2767.789914523947,1700
2769.5569922183786,1776
2771.3237174337705,1690
2773.090090471394,1609
2774.8561116326036,1715
2776.6217812188274,1668
2778.3870995315756,1699
2780.1520668724356,1678
2781.9166835430747,1753
2783.6809498452394,1713
2785.444866080754,1682
2787.2084325515225,1743
2788.971649559527,1708
2790.73451740683,1674
2792.4970363955713,1703
2794.2592068279705,1680
2796.0210290063264,1732
2797.7825032330147,1773
2799.543629810493,1742
2801.304409041296,1733
2803.0648412280366,1686
2804.8249266734088,1705
2806.5846656801846,1739
2808.344058551212,1747
2810.1031055894246,1719
2811.8618070978273,1720
2813.6201633795085,1730
2815.378174737636,1717
2817.1358414754536,1699
2818.893163896285,1697
2820.6501423035334,1727
2822.4067770006814,1723
2824.1630682912883,1732
2825.9190164789957,1699
2827.6746218675207,1692
2829.429884760661,1684
2831.184805462294,1755
2832.9393842763743,1822
2834.693621506936,1712
2836.4475174580916,1721
2838.201072434034,1722
2839.954286739034,1714
2841.707160677441,1709
2843.459694553685,1742
2845.2118886722724,1671
2846.96374333779,1690
2848.7152588549034,1795
2850.4664355283567,1709
2852.217273662973,1736
2853.9677735636546,1673
2855.7179355353833,1795
2857.4677598832186,1710
2859.217246912299,1738
2860.9663969278427,1716
2862.715210235146,1722
2864.4636871395846,1807
2866.211827946614,1745
2867.9596329617652,1652
2869.7071024906536,1633
2871.4542368389684,1680
2873.20103631248,1687
2874.947501217038,1741
2876.6936318585695,1718
2878.4394285430812,1746
2880.1848915766604,1696
2881.9300212654707,1766
2883.6748179157553,1699
2885.4192818338374,1725
2887.1634133261173,1714
2888.907212699077,1695
2890.6506802592744,1777
2892.393816313348,1767
2894.1366211680142,1784
2895.8790951300693,1757
2897.621238506388,1749
2899.363051603925,1745
2901.1045347297118,1732
2902.8456881908596,1742
2904.58651229456,1721
2906.327007348081,1725
2908.067173658772,1684
2909.8070115340597,1708
2911.5465212814497,1672
2913.285703208527,1673
2915.0245576229563,1708
2916.7630848324807,1722
2918.5012851449196,1730
2920.2391588681758,1635
2921.976706310227,1729
2923.7139277791334,1746
2925.4508235830313,1706
2927.187394030137,1717
2928.923639428745,1711
2930.6595600872306,1669
2932.395156314046,1764
2934.1304284177218,1714
2935.8653767068713,1688
2937.6000014901815,1741
2939.3343030764227,1766
2941.068281774442,1757
2942.8019378931644,1709
2944.5352717415976,1710
2946.2682836288236,1726
2948.0009738640065,1742
2949.7333427563885,1769
2951.465390615289,1759
2953.1971177501086,1721
2954.9285244703265,1674
2956.6596110855,1689
2958.3903779052657,1772
2960.1208252393385,1717
2961.8509533975125,1789
2963.5807626896617,1668
2965.3102534257378,1690
2967.0394259157715,1697
2968.768280469873,1769
2970.496817398232,1689
2972.2250370111146,1740
2973.952939618869,1748
2975.6805255319196,1733
2977.4077950607707,1726
2979.134748516006,1795
2980.861386208289,1719
2982.587708448359,1725
2984.313715547037,1709
2986.039407815222,1751
2987.764785563891,1781
2989.489849104102,1724
2991.2145987469908,1702
2992.9390348037705,1645
2994.6631575857346,1710
2996.3869674042576,1778
2998.1104645707887,1785
2999.83364939686,1685
3001.5565221940783,1741
3003.2790832741334,1722
3005.0013329487924,1706
3006.7232715298996,1721
3008.4448993293804,1695
3010.166216659239,1694
3011.887223831558,1735
3013.607921158498,1766
3015.3283089522993,1723
3017.0483875252826,1708
3018.7681571898443,1680
3020.4876182584626,1730
3022.2067710436927,1696
3023.9256158581707,1741
3025.644153014609,1703
3027.362382825801,1759
3029.0803056046193,1709
3030.797921664012,1760
3032.5152313170106,1784
3034.2322348767225,1761
3035.9489326563353,1641
3037.665324969115,1752
3039.3814121284063,1715
3041.097194447633,1702
3042.812672240299,1789
3044.5278458199855,1727
3046.2427155003525,1671
3047.9572815951406,1740
3049.671544418167,1688
3051.38550428333,1799
3053.0991615046073,1738
3054.812516396051,1695
3056.5255692717974,1741
3058.2383204460575,1696
3059.9507702331257,1724
3061.662918947372,1752
3063.3747669032446,1713
3065.0863144152736,1736
3066.7975617980674,1737
3068.508509366309,1744
3070.219157434767,1800
3071.9295063182844,1783
3073.639556331785,1734
3075.3493077902704,1693
3077.058761008821,1693
3078.7679163025964,1762
3080.476773986837,1833
3082.1853343768594,1784
3083.89359778806,1698
3085.6015645359153,1788
3087.3092349359786,1827
3089.016609303884,1739
3090.7236879553434,1755
3092.4304712061476,1722
3094.136959372166,1758
3095.843152769349,1726
3097.5490517137237,1753
3099.2546565213966,1719
3100.959967508554,1765
3102.66498499146,1767
3104.3697092864577,1747
3106.0741407099695,1817
3107.778279578498,1775
3109.482126208622,1804
3111.1856809170004,1747
3112.8889440203716,1735
3114.5919158355528,1796
3116.294596679439,1768
3117.996986869006,1839
3119.6990867213062,1760
3121.4008965534726,1794
3123.102416682717,1869
3124.803647426329,1727
3126.5045891016784,1785
3128.205242026213,1801
3129.90560651746,1726
3131.605682893025,1821
3133.3054714705922,1741
3135.0049725679282,1746
3136.7041865028714,1738
3138.4031135933465,1755
3140.101754157353,1778
3141.800108512971,1788
3143.498176978357,1728
3145.1959598717494,1835
3146.8934575114636,1778
3148.5906702158954,1767
3150.2875983035183,1717
3151.9842420928853,1746
3153.680601902627,1767
3155.376678051456,1706
3157.07247085816,1749
3158.767980641609,1725
3160.463207720748,1701
3162.158152414606,1768
3163.8528150422862,1766
3165.5471959229726,1697
3167.2412953759303,1717
3168.9351137204976,1773
3170.628651276098,1727
3172.3219083622307,1802
3174.014885298474,1793
3175.707582404485,1743
3177.4000000000005,1826
3179.092138404835,1739
3180.7839979388846,1809
3182.47557892212,1770
3184.166881674594,1755
3185.8579065164386,1763
3187.5486537678626,1764
3189.2391237491547,1743
3190.9293167806827,1800
3192.6192331828934,1739
3194.3088732763117,1771
3195.998237381542,1652
3197.687325819268,1738
3199.376138910251,1771
3201.064676975334,1703
3202.7529403354347,1709
3204.4409293115523,1710
3206.1286442247647,1744
3207.816085396229,1720
3209.5032531471825,1678
3211.190147798936,1685
3212.8767696728846,1674
3214.5631190905015,1691
3216.2491963733373,1721
3217.9350018430214,1730
3219.6205358212637,1784
3221.305798629851,1622
3222.990790590651,1690
3224.6755120256103,1674
3226.359963256751,1654
3228.0441446061795,1679
3229.7280563960758,1670
3231.411698948703,1712
3233.0950725863995,1662
3234.778177631587,1754
3236.461014406761,1734
3238.1435832345005,1766
3239.8258844374595,1714
3241.507918338374,1737
3243.1896852600576,1737
3244.8711855254023,1684
3246.552419457381,1785
3248.233387379042,1713
3249.914089613516,1763
3251.59452648401,1729
3253.274698313813,1752
3254.95460542629,1748
3256.6342481448855,1685
3258.313626793125,1748
3259.9927416946084,1809
3261.6715931730196,1758
3263.3501815521176,1761
3265.0285071557437,1703
3266.706570307815,1723
3268.3843713323286,1677
3270.0619105533615,1644
3271.739188295068,1709
3273.4162048816834,1732
3275.0929606375184,1683
3276.769455886966,1767
3278.445690954498,1745
3280.1216661646613,1687
3281.797381842087,1737
3283.4728383114807,1730
3285.1480358976296,1723
3286.8229749253996,1733
3288.4976557197333,1745
3290.172078605655,1776
3291.846243908266,1703
3293.5201519527463,1730
3295.193803064357,1703
3296.8671975684374,1698
3298.5403357904024,1663
3300.21321805575,1763
3301.8858446900567,1686
3303.558216018975,1737
3305.23033236824,1719
3306.9021940636603,1757
3308.57380143113,1746
3310.2451547966184,1735
3311.916254486174,1765
3313.5871008259246,1721
3315.2576941420766,1689
3316.9280347609147,1741
3318.5981230088046,1707
3320.2679592121895,1706
3321.9375436975924,1718
3323.606876791612,1658
3325.27595882093,1665
3326.944790112305,1727
3328.6133709925753,1726
3330.2817017886573,1705
3331.949782827547,1770
3333.617614436319,1694
3335.2851969421245,1692
3336.952530672199,1701
3338.619615953853,1751
3340.286453114475,1717
3341.9530424815357,1754
3343.619384382583,1728
3345.2854791452437,1723
3346.951327097224,1754
3348.6169285663073,1743
3350.2822838803577,1776
3351.947393367319,1734
3353.61225735521,1749
3355.2768761721345,1771
3356.9412501462693,1717
3358.605379605873,1744
3360.2692648792827,1760
3361.9329062949146,1741
3363.596304181263,1728
