CollectionTime,7/9/2024 11:04:58 AM
ExposureUsed,3
CalibratedSpectrum
-962.7078968117929,586
-959.9714848408522,611
-957.2358232597828,629
-954.5009119013725,632
-951.7667505983302,613
-949.0333391832855,651
-946.3006774887896,621
-943.5687653473143,611
-940.837602591253,660
-938.1071890529199,636
-935.3775245645503,616
-932.6486089583007,628
-929.9204420662485,636
-927.1930237203925,628
-924.4663537526524,621
-921.7404319948689,638
-919.0152582788041,614
-916.2908324361409,691
-913.5671542984834,643
-910.8442236973568,622
-908.1220404642074,631
-905.4006044304027,617
-902.679915427231,643
-899.959973285902,622
-897.2407778375464,649
-894.5223289132158,619
-891.8046263438832,650
-889.0876699604426,606
-886.3714595937089,619
-883.6559950744183,621
-880.9412762332282,624
-878.2273029007168,630
-875.5140749073835,615
-872.8015920836489,626
-870.0898542598545,600
-867.3788612662631,612
-864.6686129330585,656
-861.9591090903457,631
-859.2503495681506,620
-856.5423341964203,605
-853.8350628050229,606
-851.1285352237478,637
-848.4227512823054,604
-845.7177108103272,643
-843.0134136373656,641
-840.3098595928943,617
-837.6070485063082,683
-834.9049802069229,638
-832.2036545239757,617
-829.5030712866244,610
-826.8032303239481,645
-824.1041314649472,666
-821.4057745385428,647
-818.7081593735775,639
-816.0112857988148,648
-813.3151536429393,640
-810.6197627345566,666
-807.9251129021936,623
-805.2312039742981,639
-802.5380357792392,641
-799.8456081453069,642
-797.1539209007124,653
-794.462973873588,661
-791.772766891987,670
-789.083299783884,649
-786.3945723771743,641
-783.7065844996748,615
-781.0193359791231,628
-778.3328266431781,633
-775.6470563194197,632
-772.9620248353489,612
-770.2777320183878,648
-767.5941776958798,673
-764.9113616950891,667
-762.2292838432011,691
-759.5479439673222,664
-756.8673418944801,671
-754.1874774516235,697
-751.5083504656222,706
-748.8299607632671,734
-746.15230817127,667
-743.475392516264,643
-740.7992136248035,686
-738.1237713233636,675
-735.4490654383407,679
-732.7750957960521,662
-730.1018622227365,678
-727.4293645445534,678
-724.7576025875837,693
-722.0865761778291,706
-719.4162851412126,696
-716.7467293035781,709
-714.0779084906909,705
-711.409822528237,681
-708.7424712418238,695
-706.0758544569796,725
-703.4099719991541,721
-700.7448236937178,728
-698.0804093659622,723
-695.4167288411002,715
-692.7537819442656,703
-690.0915685005134,760
-687.4300883348199,717
-684.7693412720819,716
-682.1093271371178,703
-679.4500457546669,706
-676.7914969493897,709
-674.1336805458676,718
-671.4765963686034,738
-668.8202442420206,722
-666.1646239904642,776
-663.5097354382001,738
-660.8555784094151,729
-658.2021527282176,739
-655.5494582186366,764
-652.8974947046223,752
-650.2462620100463,741
-647.5957599587009,745
-644.9459883742998,735
-642.2969470804776,757
-639.6486359007902,766
-637.0010546587141,724
-634.3542031776476,777
-631.7080812809096,730
-629.0626887917401,742
-626.4180255333008,743
-623.7740913286734,785
-621.1308860008619,743
-618.4884093727904,764
-615.8466612673046,754
-613.2056415071715,763
-610.5653499150785,764
-607.9257863136347,778
-605.28695052537,805
-602.6488423727357,747
-600.0114616781036,799
-597.3748082637674,794
-594.7388819519412,748
-592.1036825647604,816
-589.4692099242818,818
-586.8354638524829,795
-584.2024441712624,802
-581.5701507024403,788
-578.9385832677575,771
-576.3077416888759,754
-573.6776257873787,811
-571.0482353847704,788
-568.4195703024757,761
-565.7916303618415,773
-563.164415384135,832
-560.5379251905453,829
-557.9121596021815,824
-555.2871184400748,812
-552.6628015251767,797
-550.0392086783606,796
-547.4163397204204,850
-544.794194472071,829
-542.1727727539491,848
-539.5520743866118,858
-536.9320991905377,870
-534.3128469861261,937
-531.6943175936979,917
-529.0765108334947,926
-526.4594265256793,944
-523.8430644903358,1082
-521.2274245474689,1191
-518.612506517005,1241
-515.9983102187913,1212
-513.3848354725959,1178
-510.77208209810846,1181
-508.16004991493924,1250
-505.5487387426199,1348
-502.9381484006032,1479
-500.3282787082628,1579
-497.71912948489364,1685
-495.1107005497117,1589
-492.5029917218539,1501
-489.8960028203786,1366
-487.28973366426493,1225
-484.68418407241325,1124
-482.07935386364494,1121
-479.47524285670266,1038
-476.87185087025,1026
-474.2691777228715,1018
-471.66722323307334,1003
-469.0659872192821,1006
-466.4654694998459,1021
-463.86566989303384,1025
-461.26658821703614,1012
-458.66822428996414,998
-456.07057792985,1042
-453.4736489546475,1001
-450.877437182231,954
-448.28194243039627,983
-445.68716451686,989
-443.09310325926003,978
-440.49975847515555,1035
-437.9071299820263,1003
-435.31521759727354,1014
-432.72402113821954,1009
-430.13354042210767,1028
-427.5437752661022,1067
-424.95472548728867,986
-422.36639090267386,993
-419.7787713291855,1080
-417.1918665836721,1151
-414.60567648290385,1125
-412.0202008435715,1071
-409.4354394822874,1128
-406.8513922155845,1138
-404.26805885991723,1094
-401.685439231661,1093
-399.103533147112,1095
-396.522340422488,1105
-393.9418608739278,1107
-391.3620943174908,1064
-388.7830405691583,1028
-386.2046994448317,997
-383.6270707603344,1000
-381.05015433141045,948
-378.473949973725,871
-375.8984575028645,825
-373.32367673433623,750
-370.74960748356875,698
-368.1762495659117,707
-365.60360279663576,616
-363.03166699093265,584
-360.4604419639154,579
-357.8899275306178,539
-355.32012350599507,534
-352.7510297049233,525
-350.1826459421999,479
-347.61497203254316,500
-345.04800779059235,495
-342.4817530309082,481
-339.91620756797226,536
-337.35137121618743,513
-334.7872437898774,469
-332.22382510328725,540
-329.66111497058273,521
-327.09911320585127,526
-324.53781962310075,568
-321.9772340362607,531
-319.4173562591816,491
-316.8581861056348,491
-314.2997233893127,516
-311.7419679238294,509
-309.1849195227194,505
-306.62857799943856,574
-304.0729431673641,617
-301.51801483979375,597
-298.963792829947,594
-296.41027695096386,610
-293.85746701590574,593
-291.3053628377552,645
-288.7539642294155,657
-286.2032710037115,591
-283.65328297338897,569
-281.1039999511146,628
-278.5554217494762,646
-276.007548180983,559
-273.4603790580651,560
-270.9139141930734,545
-268.3681533982807,561
-265.8230964858798,616
-263.27874326798565,620
-260.7350935566336,678
-258.1921471637804,634
-255.6499039013039,699
-253.10836358100266,660
-250.56752601459698,613
-248.02739101372765,656
-245.48795838995704,713
-242.94922795476816,649
-240.41119951956557,627
-237.8738728956746,724
-235.33724789434166,730
-232.80132432673452,677
-230.2661020039418,685
-227.73158073697357,688
-225.19776033676033,692
-222.66464061415422,752
-220.1322213799284,700
-217.60050244477725,642
-215.06948361931552,647
-212.53916471408013,758
-210.00954553952818,768
-207.48062590603843,708
-204.9524056239104,707
-202.4248845033651,813
-199.8980623545441,806
-197.37193898751036,816
-194.84651421224817,793
-192.32178783866232,846
-189.79775967657952,831
-187.27442953574644,847
-184.7517972258321,934
-182.2298625564256,902
-179.7086253370378,759
-177.18808537710026,746
-174.66824248596583,837
-172.14909647290835,901
-169.6306471471229,918
-167.11289431772548,929
-164.59583779375328,899
-162.07947738416453,880
-159.5638128978386,917
-157.04884414357605,1142
-154.53457093009854,1311
-152.02099306604828,1264
-149.50811035998936,949
-146.99592262040665,906
-144.48442965570587,1017
-141.97363127421409,1049
-139.46352728417958,1294
-136.95411749377126,1330
-134.44540171107985,1362
-131.93737974411636,1104
-129.43005140081357,1172
-126.92341648902493,1584
-124.41747481652521,1622
-121.91222619101006,1660
-119.40767042009657,2044
-116.90380731132257,2522
-114.40063667214702,2159
-111.8981583099503,1734
-109.3963720320337,1872
-106.89527764561933,2764
-104.39487495785067,3320
-101.89516377579241,3725
-99.39614390642998,3821
-96.89781515667039,3935
-94.40017733334128,4358
-91.90323024319173,4316
-89.40697369289148,4952
-86.91140748903172,5998
-84.41653143812482,6582
-81.92234534660395,5076
-79.42884902082358,4366
-76.93604226705907,6472
-74.4439248915071,10609
-71.95249670028534,13939
-69.46175749943245,16380
-66.97170709490854,15755
-64.48234529259423,13420
-61.99367189829195,10395
-59.50568671772464,9049
-57.01838955653636,8362
-54.53178022029283,7701
-52.045858514480074,7383
-49.560624244506016,7775
-47.07607721569923,7774
-44.59221723330904,8028
-42.10904410250669,7971
-39.62655762838392,7982
-37.14475761595372,7784
-34.66364387015028,7507
-32.18321619582866,8053
-29.70347439776515,8402
-27.224418280657005,8506
-24.74604764912317,10193
-22.26836230770266,16088
-19.7913620608565,29321
-17.315046712966478,54059
-14.83941606833514,65040
-12.36446993118659,65040
-9.89020810566592,65040
-7.416630395839093,65040
-4.94373660569363,65040
-2.471526539137585,65040
-6.821210263296962E-13,65040
2.47084320796705,65040
4.941003281093458,65040
7.410480415786196,65040
9.879274808531363,65040
12.347386655893956,65040
14.814816154518212,65040
17.28156350112681,65040
19.74762889252179,65040
22.21301252558385,65040
24.67771459727237,21407
27.141735304626195,4373
29.605074844762612,2310
32.06773341487792,1964
34.52971121224755,2062
36.99100843422559,2271
39.45162527824516,2028
41.91156194181792,1853
44.370818622535126,1689
46.82939551806646,1369
49.287292826160524,1601
51.74451074464503,1505
54.201049471426245,1291
56.65690920448981,1360
59.112090141899785,1222
61.56659248179983,1187
64.02041642241159,1133
66.4735621620365,1180
68.92602989905402,1061
71.37781983192338,1012
73.82893215918205,1137
76.27936707944684,1360
78.72912479141326,1640
81.17820549385567,1566
83.62660938562783,1431
86.07433666566146,1115
88.5213875329681,927
90.96776218663751,937
93.41346082583925,997
95.85848364982041,1039
98.30283085790859,1182
100.7465026495089,1318
103.18949922410604,1186
105.63182078126385,1204
108.07346752062438,1281
110.51443964190923,1156
112.95473734491827,1140
115.39436082953114,1223
117.83331029570547,1155
120.27158594347827,945
122.7091879729652,1031
125.1461165843615,1123
127.58237197794062,1088
130.01795435405518,980
132.4528639131364,1006
134.88710085569494,1040
137.32066538231982,931
139.75355769367923,849
142.1857779905207,965
144.61732647366978,917
147.04820334403132,939
149.47840880258934,1001
151.90794305040674,1003
154.33680628862487,1186
156.76499871846443,1397
159.19252054122433,1561
161.61937195828352,1732
164.04555317109896,1915
166.47106438120693,2080
168.89590579022217,2262
171.320077599839,2325
173.7435800118302,2397
176.16641322804742,2616
178.58857745042144,2709
181.01007288096173,2861
183.43089972175687,2948
185.85105817497413,2934
188.27054844285988,2967
190.6893707277394,2992
193.10752523201643,3045
195.5250121581745,3129
197.9418317087751,3213
200.3579840864594,3246
202.7734694939469,3247
205.18828813403627,3157
207.6024402096051,3287
210.01592592360964,3196
212.42874547908548,3224
214.84089907914665,3303
217.2523869269868,3146
219.66320922587727,3104
222.0733661791695,3017
224.48285799029293,3068
226.8916848627572,3142
229.29984700014882,3131
231.7073446061355,3175
234.11417788446204,3105
236.520347038953,3091
238.92585227351185,3138
241.33069379212054,3168
243.73487179884035,3177
246.1383864978112,3159
248.541238093252,3114
250.9434267894609,3148
253.34495279081432,3104
255.74581630176783,3161
258.1460175268563,3172
260.54555667069314,3143
262.9444339379703,3182
265.3426495334594,3074
267.7402036620107,3016
270.1370965285529,3024
272.53332833809407,2970
274.9288992957214,2939
277.32380960660055,2915
279.718059475976,2764
282.1116491091717,2821
284.5045787115897,2803
286.89684848871195,2833
289.2884586460981,2873
291.67940938938807,2841
294.0697009242996,2956
296.4593334566299,2911
298.84830719225477,2801
301.23662233712923,2845
303.6242790972866,2763
306.01127767884,2742
308.39761828798066,2687
310.78330113097934,2702
313.16832641418534,2725
315.5526943440269,2623
317.9364051270112,2630
320.3194589697242,2610
322.70185607883093,2524
325.0835966610754,2605
327.4646809232805,2530
329.8451090723478,2464
332.2248813152577,2493
334.6039978590701,2580
336.9824589109231,2500
339.36026467803447,2430
341.7374153677,2501
344.113911187295,2459
346.48975234427337,2491
348.8649390461686,2478
351.2394715005918,2410
353.61334991523415,2415
355.9865744978655,2353
358.35914545633375,2428
360.73106299856715,2451
363.10232733257146,2405
365.47293866643247,2415
367.84289720831396,2424
370.2122031664593,2395
372.5808567491905,2456
374.9488581649083,2389
377.31620762209275,2305
379.6829053293021,2272
382.0489514951745,2328
384.4143463284262,2220
386.7790900378528,2271
389.14318283232853,2241
391.50662492080653,2350
393.86941651231916,2381
396.23155781597745,2356
398.5930490409713,2377
400.9538903965696,2262
403.3140820921202,2274
405.6736243370498,2299
408.03251734086336,2273
410.3907613131465,2202
412.74835646356166,2206
415.10530300185144,2196
417.4616011378372,2238
419.81725108141893,2196
422.1722530425758,2290
424.5266072313656,2188
426.880313857925,2292
429.2333731324701,2283
431.58578526529516,2228
433.9375504667738,2287
436.2886689473588,2246
438.63914091758113,2161
440.9889665880513,2202
443.33814616945835,2181
445.68667987257015,2207
448.03456790823395,2157
450.3818104873759,2207
452.72840782100013,2156
455.07436012019105,2198
457.41966759611057,2153
459.7643304600007,2243
462.10834892318155,2260
464.4517231970525,2214
466.79445349309174,2174
469.1365400228566,2150
471.4779829979826,2158
473.81878263018564,2170
476.15893913125876,2197
478.4984527130747,2264
480.8373235875855,2301
483.17555196682144,2337
485.5131380628919,2445
487.8500820879857,2489
490.1863842543697,2785
492.52204477439034,2845
494.8570638604725,3180
497.1914417251204,3340
499.52517858091653,3610
501.85827464052306,3680
504.19073011668036,3634
506.5225452222086,3450
508.85372017000566,3452
511.18425517304956,3435
513.514150444396,3655
515.8434061971808,4388
518.1720226446176,5573
520.4999999999999,5692
522.8273384766991,5343
525.1540382881666,4818
527.480099647932,4236
529.8055227696037,3573
532.1303078668694,2905
534.454455153496,2581
536.777964843328,2461
539.1008371502907,2396
541.4230722883866,2403
543.744670471698,2318
546.0656319143858,2300
548.3859568306899,2334
550.7056454349294,2233
553.0246979415016,2252
555.3431145648834,2248
557.6608955196306,2236
559.978041020377,2180
562.2945512818363,2240
564.6104265188006,2282
566.9256669461412,2240
569.2402727788082,2246
571.5542442318302,2284
573.8675815203156,2316
576.1802848594508,2295
578.4923544645015,2380
580.8037905508126,2433
583.114593333807,2443
585.4247630289875,2358
587.7342998519354,2252
590.0432040183106,2340
592.3514757438526,2275
594.6591152443794,2325
596.9661227357875,2290
599.2724984340531,2305
601.578242555231,2280
603.8833553154542,2342
606.1878369309362,2326
608.4916876179676,2320
610.7949075929192,2256
613.0974970722403,2242
615.3994562724587,2321
617.7007854101818,2291
620.0014847020951,2343
622.3015543649641,2282
624.6009946156324,2337
626.8998056710224,2319
629.1979877481361,2272
631.4955410640538,2283
633.7924658359349,2237
636.0887622810175,2269
638.3844306166192,2346
640.6794710601358,2351
642.9738838290426,2291
645.2676691408932,2244
647.5608272133207,2327
649.853358264037,2275
652.1452625108324,2308
654.4365401715764,2353
656.7271914642178,2351
659.0172166067838,2370
661.3066158173809,2357
663.5953893141935,2355
665.8835373154867,2303
668.1710600396028,2319
670.4579577049639,2219
672.7442305300709,2286
675.0298787335033,2371
677.3149025339197,2279
679.599302150058,2321
681.8830778007342,2338
684.1662297048437,2355
686.4487580813608,2260
688.7306631493387,2299
691.0119451279091,2311
693.2926042362834,2331
695.5726406937516,2311
697.8520547196814,2332
700.1308465335215,2343
702.4090163547982,2264
704.6865644031171,2254
706.9634908981619,2284
709.2397960596965,2295
711.5154801075631,2403
713.7905432616823,2307
716.0649857420548,2297
718.3388077687592,2288
720.612009561953,2283
722.8845913418733,2264
725.1565533288352,2228
727.427895743234,2244
729.6986188055427,2333
731.9687227363137,2387
734.238207756178,2310
736.5070740858458,2318
738.7753219461066,2273
741.0429515578281,2336
743.3099631419569,2332
745.5763569195191,2302
747.8421331116193,2299
750.1072919394409,2273
752.3718336242467,2250
754.6357583873777,2261
756.8990664502545,2308
759.1617580343765,2353
761.423833361321,2283
763.6852926527457,2267
765.9461361303862,2190
768.206364016058,2334
770.4659765316536,2328
772.7249738991469,2257
774.9833563405886,2396
777.2411240781092,2390
779.4982773339183,2262
781.7548163303044,2376
784.010741289634,2295
786.2660524343538,2393
788.5207499869881,2411
790.7748341701416,2350
793.0283052064964,2310
795.2811633188143,2302
797.5334087299362,2436
799.7850416627813,2392
802.0360623403484,2316
804.2864709857143,2427
806.5362678220353,2412
808.7854530725468,2400
811.0340269605625,2366
813.2819897094754,2364
815.5293415427581,2399
817.77608268396,2298
820.0222133567116,2374
822.2677337847211,2372
824.5126441917765,2356
826.7569448017433,2327
829.0006358385675,2417
831.2437175262731,2345
833.4861900889629,2299
835.7280537508192,2338
837.9693087361026,2409
840.2099552691533,2387
842.4499935743896,2439
844.689423876309,2424
846.9282463994886,2361
849.1664613685833,2371
851.4040690083276,2409
853.6410695435349,2419
855.877463199097,2331
858.1132501999847,2429
860.3484307712487,2386
862.5830051380175,2336
864.8169735254988,2365
867.0503361589791,2380
869.2830932638243,2422
871.5152450654786,2380
873.7467917894654,2385
875.9777336613873,2400
878.2080709069252,2500
880.4378037518389,2380
882.666932421968,2471
884.8954571432301,2453
887.1233781416219,2448
889.3506956432192,2456
891.5774098741766,2393
893.803521060728,2492
896.0290294291852,2428
898.2539352059397,2439
900.4782386174619,2477
902.7019398903011,2454
904.925039251085,2395
907.147536926521,2395
909.3694331433943,2337
911.59072812857,2465
913.8114221089921,2370
916.0315153116827,2378
918.2510079637437,2457
920.4699002923547,2278
922.6881925247761,2381
924.905884888345,2336
927.1229776104793,2382
929.3394709186747,2331
931.555365040506,2344
933.7706602036275,2328
935.9853566357709,2383
938.1994545647489,2372
940.4129542184515,2376
942.6258558248488,2358
944.8381596119883,2326
947.0498658079974,2396
949.2609746410825,2281
951.4714863395287,2293
953.6814011316998,2313
955.8907192460387,2320
958.0994409110671,2211
960.3075663553858,2220
962.5150958076741,2310
964.7220294966913,2305
966.928367651274,2231
969.1341105003388,2273
971.3392582728806,2258
973.5438111979742,2191
975.747769504772,2191
977.9511334225061,2227
980.153903180487,2256
982.3560790081052,2297
984.5576611348289,2245
986.7586497902058,2263
988.9590452038618,2220
991.158847605503,2216
993.3580572249133,2158
995.5566742919558,2152
997.7546990365728,2105
999.952131688785,2152
1002.1489724786926,2120
1004.3452216364743,2132
1006.5408793923874,2110
1008.7359459767691,2116
1010.9304216200343,1911
1013.1243065526781,2037
1015.3176010052733,1974
1017.510305208472,2057
1019.7024193930064,1957
1021.8939437896848,1988
1024.0848786293977,1910
1026.2752241431122,1919
1028.4649805618747,1983
1030.6541481168115,1887
1032.842727039127,1943
1035.0307175601051,2007
1037.2181199111074,1889
1039.4049343235752,1930
1041.591161029029,1929
1043.7768002590683,1862
1045.9618522453698,1985
1048.1463172196918,1897
1050.3301954138697,1952
1052.513487059818,1961
1054.69619238953,1981
1056.8783116350783,1893
1059.0598450286152,1945
1061.2407928023704,1987
1063.4211551886528,1904
1065.6009324198508,1922
1067.780124728432,1983
1069.9587323469414,1972
1072.1367555080046,1999
1074.314194444325,1968
1076.4910493886855,1924
1078.667320573947,1982
1080.843008233051,1918
1083.0181125990161,1878
1085.1926339049414,1885
1087.3665723840027,1905
1089.5399282694575,1834
1091.7127017946405,1923
1093.8848931929647,1821
1096.0565026979243,1879
1098.2275305430899,1826
1100.3979769621128,1904
1102.567842188722,1796
1104.737126456726,1846
1106.9058300000124,1813
1109.0739530525475,1900
1111.2414958483764,1836
1113.4084586216231,1801
1115.5748416064907,1901
1117.7406450372605,1799
1119.9058691482942,1838
1122.0705141740304,1813
1124.2345803489884,1841
1126.3980679077658,1893
1128.5609770850388,1838
1130.7233081155623,1757
1132.8850612341707,1857
1135.0462366757774,1752
1137.2068346753745,1815
1139.3668554680326,1762
1141.526299288901,1835
1143.68516637321,1762
1145.8434569562655,1756
1148.001171273455,1801
1150.158309560244,1796
1152.3148720521767,1724
1154.470858984876,1754
1156.626270594044,1777
1158.7811071154629,1723
1160.9353687849912,1738
1163.089055838569,1758
1165.242168512213,1818
1167.3947070420209,1776
1169.5466716641677,1784
1171.6980626149075,1720
1173.8488801305748,1769
1175.9991244475814,1778
1178.1487958024186,1752
1180.2978944316555,1820
1182.4464205719428,1810
1184.5943744600072,1754
1186.7417563326567,1728
1188.8885664267755,1792
1191.0348049793297,1741
1193.1804722273619,1787
1195.325568407995,1713
1197.4700937584303,1767
1199.614048515948,1752
1201.7574329179074,1838
1203.900247201746,1725
1206.042491604982,1784
1208.1841663652099,1834
1210.3252717201053,1768
1212.465807907422,1840
1214.6057751649923,1762
1216.7451737307279,1808
1218.8840038426192,1853
1221.0222657387353,1786
1223.1599596572241,1859
1225.2970858363137,1863
1227.4336445143094,1840
1229.5696359295966,1806
1231.705060320639,1921
1233.8399179259786,1767
1235.9742089842384,1908
1238.107933734118,1868
1240.2410924143974,1883
1242.373685263935,1764
1244.5057125216676,1822
1246.6371744266116,1786
1248.7680712178621,1784
1250.898403134593,1820
1253.028170416058,1856
1255.1573733015875,1843
1257.2860120305932,1869
1259.4140868425648,1797
1261.54159797707,1836
1263.6685456737569,1813
1265.7949301723515,1816
1267.9207517126597,1840
1270.046010534565,1913
1272.1707068780306,1824
1274.2948409830983,1834
1276.4184130898889,1816
1278.541423438603,1877
1280.6638722695184,1889
1282.785759822993,1952
1284.9070863394636,1924
1287.0278520594447,1941
1289.1480572235314,1916
1291.2677020723963,1989
1293.3867868467923,1891
1295.5053117875495,1923
1297.623277135579,1941
1299.740683131868,1975
1301.8575300174857,1956
1303.973818033578,1967
1306.0895474213703,2017
1308.2047184221678,1923
1310.3193312773528,2038
1312.4333862283888,2003
1314.5468835168163,1978
1316.659823384255,1986
1318.7722060724045,2020
1320.8840318230418,1979
1322.9953008780249,1968
1325.1060134792888,2031
1327.2161698688478,1968
1329.3257702887959,2040
1331.4348149813054,1997
1333.5433041886276,2059
1335.6512381530933,2029
1337.7586171171101,1979
1339.8654413231675,1949
1341.9717110138317,2046
1344.0774264317488,1937
1346.1825878196432,1967
1348.2871954203192,2001
1350.3912494766587,1995
1352.4947502316231,1939
1354.5976979282532,1984
1356.7000928096686,1953
1358.8019351190665,1941
1360.9032250997243,1918
1363.0039629949988,1939
1365.1041490483235,1913
1367.2037835032133,1973
1369.3028666032606,1978
1371.401398592137,1931
1373.4993797135926,1982
1375.5968102114575,1930
1377.6936903296396,1980
1379.7900203121262,1989
1381.8858004029835,1987
1383.9810308463561,1946
1386.075711886469,2020
1388.1698437676241,2056
1390.2634267342032,1981
1392.356461030667,1948
1394.4489469015557,2054
1396.5408845914872,2044
1398.6322743451592,2038
1400.7231164073469,2062
1402.813411022907,2049
1404.903158436773,2030
1406.9923588939578,2098
1409.0810126395531,2124
1411.1691199187303,2064
1413.2566809767386,2153
1415.343696058907,2114
1417.4301654106425,2161
1419.5160892774315,2196
1421.6014679048399,2094
1423.6863015385125,2110
1425.7705904241707,2137
1427.8543348076178,2153
1429.9375349347342,2166
1432.0201910514802,2229
1434.102303403894,2157
1436.1838722380944,2214
1438.2648978002767,2205
1440.3453803367174,2293
1442.4253200937692,2285
1444.5047173178677,2290
1446.5835722555234,2285
1448.6618851533285,2386
1450.739656257952,2358
1452.8168858161434,2366
1454.8935740747306,2501
1456.96972128062,2532
1459.045327680797,2555
1461.120393522327,2522
1463.1949190523528,2604
1465.2689045180973,2580
1467.3423501668608,2734
1469.415256246024,2749
1471.4876230030463,2778
1473.559450685465,2794
1475.6307395408976,2819
1477.7014898170391,2905
1479.771701761665,2897
1481.8413756226287,2877
1483.9105116478618,2858
1485.9791100853772,3074
1488.0471711832643,3074
1490.1146951896926,3122
1492.1816823529098,3186
1494.2481329212433,3125
1496.3140471430984,3265
1498.3794252669609,3327
1500.4442675413939,3361
1502.5085742150404,3399
1504.572345536622,3330
1506.6355817549388,3616
1508.6982831188702,3530
1510.7604498773744,3526
1512.8220822794883,3574
1514.8831805743293,3689
1516.9437450110909,3753
1519.003775839048,3785
1521.0632733075522,3836
1523.1222376660367,3938
1525.1806691640113,4042
1527.2385680510652,4072
1529.2959345768668,4218
1531.3527689911643,4348
1533.4090715437833,4311
1535.4648424846291,4418
1537.5200820636855,4358
1539.5747905310159,4533
1541.6289681367616,4678
1543.6826151311434,4661
1545.7357317644614,4795
1547.7883182870937,4832
1549.8403749494987,4961
1551.8919020022113,4966
1553.9428996958477,5204
1555.9933682811015,5215
1558.0433080087469,5292
1560.0927191296346,5428
1562.1416018946961,5417
1564.1899565549415,5367
1566.2377833614592,5165
1568.2850825654164,5037
1570.3318544180606,4808
1572.3780991707158,4664
1574.423817074788,4460
1576.4690083817595,4237
1578.5136733431923,3969
1580.5578122107272,3826
1582.601425236085,3689
1584.6445126710646,3539
1586.6870747675434,3320
1588.7291117774776,3228
1590.7706239529034,3030
1592.8116115459347,3008
1594.8520748087658,2819
1596.8920139936686,2793
1598.9314293529933,2585
1600.9703211391711,2545
1603.008689604711,2635
1605.0465350022005,2462
1607.0838575843068,2436
1609.1206576037753,2434
1611.1569353134305,2339
1613.1926909661765,2312
1615.2279248149953,2231
1617.2626371129481,2203
1619.2968281131757,2137
1621.3304980688963,2160
1623.3636472334088,2034
1625.39627586009,2052
1627.428384202396,2084
1629.459972513861,2126
1631.4910410480993,2083
1633.5215900588028,2016
1635.551619799744,2052
1637.5811305247717,2010
1639.6101224878166,2056
1641.6385959428862,2032
1643.6665511440683,2007
1645.693988345528,2012
1647.7209078015112,1955
1649.7473097663405,1961
1651.7731944944203,1970
1653.7985622402307,1896
1655.823413258333,1970
1657.847747803366,2001
1659.8715661300494,1947
1661.8948684931793,1981
1663.9176551476316,1944
1665.9399263483624,1930
1667.9616823504057,1887
1669.982923408873,1930
1672.0036497789574,1894
1674.0238617159293,1930
1676.043559475138,1893
1678.0627433120121,1846
1680.081413482059,1981
1682.0995702408654,1909
1684.117213844096,1865
1686.134344547495,1888
1688.1509626068864,1956
1690.1670682781705,1938
1692.182661817329,1946
1694.1977434804217,1931
1696.2123135235875,1893
1698.226372203043,1881
1700.2399197750851,1848
1702.2529564960905,1986
1704.2654826225112,1960
1706.277498410882,1847
1708.2890041178139,1859
1710.2999999999988,1904
1712.3104863142066,1884
1714.3204633172854,1927
1716.329931266163,1853
1718.3388904178469,1883
1720.3473410294214,1876
1722.3552833580516,1904
1724.3627176609807,1883
1726.3696441955308,1875
1728.3760632191033,1866
1730.3819749891782,1809
1732.3873797633146,1872
1734.3922777991502,1795
1736.3966693544012,1812
1738.4005546868639,1864
1740.4039340544127,1868
1742.406807715001,1839
1744.4091759266616,1809
1746.4110389475054,1843
1748.4123970357223,1838
1750.413250449582,1796
1752.4135994474318,1810
1754.4134442876993,1839
1756.4127852288902,1804
1758.4116225295893,1753
1760.4099564484595,1766
1762.407787244244,1671
1764.405115175764,1774
1766.4019405019203,1700
1768.3982634816916,1755
1770.3940843741357,1762
1772.3894034383907,1798
1774.3842209336717,1752
1776.378537119274,1809
1778.372352254571,1762
1780.3656665990156,1778
1782.3584804121397,1803
1784.3507939535534,1692
1786.3426074829463,1748
1788.3339212600863,1758
1790.3247355448211,1790
1792.3150505970766,1707
1794.3048666768573,1753
1796.2941840442477,1794
1798.2830029594106,1783
1800.2713236825884,1769
1802.2591464741004,1730
1804.2464715943465,1736
1806.2332993038058,1702
1808.2196298630352,1709
1810.2054635326708,1699
1812.190800573428,1768
1814.175641246101,1734
1816.1599858115628,1747
1818.1438345307652,1729
1820.127187664738,1695
1822.1100454745924,1705
1824.092408221516,1679
1826.0742761667766,1761
1828.055649571721,1712
1830.0365286977735,1731
1832.0169138064398,1672
1833.9968051593014,1726
1835.9762030180214,1722
1837.9551076443408,1790
1839.9335193000788,1699
1841.9114382471344,1670
1843.888864747485,1665
1845.8657990631878,1707
1847.842241456378,1754
1849.8181921892697,1699
1851.7936515241558,1672
1853.7686197234098,1711
1855.7430970494815,1711
1857.7170837649014,1687
1859.6905801322787,1749
1861.6635864143004,1709
1863.6361028737338,1710
1865.608129773424,1680
1867.5796673762961,1731
1869.5507159453537,1728
1871.521275743678,1737
1873.4913470344313,1703
1875.4609300808534,1694
1877.4300251462632,1719
1879.3986324940588,1696
1881.366752387717,1743
1883.3343850907936,1789
1885.3015308669228,1705
1887.268189979819,1766
1889.2343626932739,1745
1891.2000492711595,1777
1893.1652499774254,1738
1895.1299650761011,1739
1897.0941948312952,1732
1899.0579395071945,1783
1901.0211993680641,1714
1902.98397467825,1727
1904.9462657021745,1746
1906.9080727043415,1780
1908.869395949332,1782
1910.8302357018065,1779
1912.790592226504,1717
1914.7504657882428,1714
1916.7098566519212,1653
1918.6687650825133,1717
1920.6271913450764,1745
1922.5851357047422,1716
1924.5425984267245,1767
1926.499579776314,1685
1928.4560800188833,1727
1930.4120994198802,1796
1932.367638244833,1735
1934.32269675935,1724
1936.2772752291175,1810
1938.231373919899,1686
1940.1849930975404,1744
1942.1381330279637,1769
1944.0907939771696,1710
1946.0429762112412,1687
1947.9946799963363,1717
1949.9459055986945,1787
1951.896653284633,1744
1953.8469233205478,1771
1955.7967159729142,1749
1957.7460315082863,1712
1959.6948701932974,1677
1961.6432322946594,1767
1963.5911180791632,1683
1965.5385278136787,1712
1967.4854617651545,1744
1969.4319202006182,1723
1971.377903387176,1729
1973.3234115920136,1677
1975.268445082395,1755
1977.2130041256642,1750
1979.1570889892423,1732
1981.1006999406304,1799
1983.04383724741,1711
1984.986501177238,1747
1986.928691997853,1732
1988.8704099770712,1688
1990.811655382789,1700
1992.7524284829801,1750
1994.692729545698,1695
1996.6325588390755,1717
1998.5719166313224,1678
2000.5108031907307,1756
2002.4492187856677,1720
2004.387163684583,1670
2006.3246381560011,1707
2008.2616424685298,1670
2010.1981768908527,1616
2012.1342416917332,1654
2014.069837140014,1646
2016.0049635046162,1681
2017.9396210545406,1649
2019.8738100588666,1656
2021.8075307867502,1698
2023.740783507431,1686
2025.6735684902228,1648
2027.6058860045214,1649
2029.5377363198004,1657
2031.4691197056118,1667
2033.4000364315875,1695
2035.3304867674374,1665
2037.260470982952,1637
2039.189989347998,1731
2041.1190421325232,1683
2043.047629606554,1650
2044.9757520401945,1673
2046.9034097036288,1610
2048.8306028671195,1662
2050.7573318010086,1717
2052.683596775716,1614
2054.609398061742,1707
2056.5347359296647,1734
2058.4596106501403,1715
2060.384022493906,1615
2062.3079717317764,1673
2064.231458634646,1712
2066.1544834734873,1690
2068.077046519352,1650
2069.99914804337,1654
2071.9207883167524,1688
2073.8419676107865,1627
2075.7626861968406,1593
2077.6829443463607,1700
2079.6027423308715,1664
2081.522080421977,1722
2083.440958891362,1660
2085.359378010786,1661
2087.2773380520907,1779
2089.194839287196,1678
2091.111881988101,1656
2093.0284664268825,1690
2094.9445928756973,1677
2096.86026160678,1662
2098.775472892446,1689
2100.690227005088,1748
2102.604524217178,1665
2104.5183648012676,1701
2106.431749029985,1782
2108.34467717604,1689
2110.2571495122206,1638
2112.169166311393,1657
2114.080727846503,1659
2115.9918343905747,1706
2117.902486216711,1679
2119.8126835980956,1700
2121.722426807987,1716
2123.6317161197285,1716
2125.5405518067364,1668
2127.448934142509,1732
2129.356863400624,1747
2131.264339854737,1714
2133.1713637785815,1785
2135.077935445972,1700
2136.9840551308002,1741
2138.889723107037,1697
2140.7949396487334,1716
2142.699705030018,1744
2144.6040195250994,1707
2146.507883408264,1736
2148.4112969538774,1752
2150.3142604363848,1737
2152.2167741303097,1749
2154.1188383102535,1733
2156.0204532508997,1787
2157.9216192270064,1777
2159.822336513414,1717
2161.7226053850413,1733
2163.622426116884,1756
2165.5217989840185,1763
2167.4207242616,1751
2169.319202224862,1694
2171.2172331491165,1716
2173.1148173097563,1772
2175.0119549822507,1762
2176.90864644215,1753
2178.8048919650823,1765
2180.7006918267534,1750
2182.596046302952,1820
2184.4909556695407,1721
2186.3854202024645,1826
2188.279440177746,1746
2190.173015871487,1767
2192.066147559868,1731
2193.958835519149,1755
2195.851080025667,1714
2197.7428813558417,1740
2199.6342397861667,1740
2201.5251555932186,1768
2203.415629053651,1919
2205.3056604441986,1848
2207.19525004167,1729
2209.084398122958,1748
2210.9731049650327,1831
2212.861370844941,1849
2214.749196039812,1817
2216.636580826851,1867
2218.523525483344,1818
2220.410030286655,1838
2222.296095514226,1868
2224.1817214435805,1835
2226.066908352319,1786
2227.951656518121,1807
2229.835966218746,1810
2231.71983773203,1818
2233.6032713358913,1845
2235.486267308324,1878
2237.3688259274036,1784
2239.2509474712824,1857
2241.132632218193,1855
2243.013880446447,1819
2244.8946924344323,1772
2246.7750684606203,1720
2248.6550088035574,1831
2250.534513741871,1795
2252.413583554265,1834
2254.292218519526,1880
2256.170418916517,1780
2258.0481850241786,1814
2259.925517121534,1821
2261.8024154876825,1822
2263.678880401803,1852
2265.5549121431536,1831
2267.430510991071,1835
2269.305677224971,1849
2271.180411124348,1877
2273.0547129687766,1840
2274.9285830379076,1825
2276.8020216114737,1799
2278.6750289692845,1803
2280.5476053912294,1804
2282.4197511572766,1869
2284.2914665474727,1843
2286.162751841943,1916
2288.0336073208937,1810
2289.904033264608,1924
2291.774029953448,1824
2293.6435976678554,1903
2295.5127366883517,1891
2297.381447295534,1787
2299.2497297700825,1689
2301.1175843927526,1731
2302.9850114443825,1688
2304.852011205885,1699
2306.7185839582553,1671
2308.5847299825664,1615
2310.4504495599676,1562
2312.3157429716925,1554
2314.1806104990483,1586
2316.0450524234247,1598
2317.9090690262888,1587
2319.772660589186,1567
2321.635827393742,1665
2323.498569721661,1606
2325.3608878547248,1568
2327.2227820747967,1648
2329.0842526638157,1573
2330.945299903803,1588
2332.805924076857,1616
2334.6661254651535,1636
2336.525904350951,1666
2338.3852610165827,1579
2340.244195744464,1612
2342.102708817088,1625
2343.9608005170253,1596
2345.8184711269287,1621
2347.675720929526,1598
2349.532550207628,1582
2351.38895924412,1608
2353.24494832197,1636
2355.100517724223,1604
2356.955667734004,1604
2358.810398634514,1646
2360.664710709037,1608
2362.5186042409337,1669
2364.3720795136437,1558
2366.225136810686,1639
2368.0777764156583,1571
2369.929998612237,1618
2371.7818036841777,1659
2373.633191915315,1618
2375.484163589562,1583
2377.3347189909114,1620
2379.184858403434,1579
2381.03458211128,1620
2382.8838903986775,1708
2384.732783549936,1689
2386.5812618494406,1591
2388.4293255816588,1612
2390.2769750311327,1635
2392.1242104824883,1620
2393.971032220427,1697
2395.8174405297295,1666
2397.6634356952563,1648
2399.509018001947,1601
2401.3541877348193,1682
2403.1989451789705,1637
2405.043290619576,1709
2406.8872243418905,1613
2408.730746631247,1723
2410.5738577730594,1670
2412.4165580528183,1645
2414.258847756095,1666
2416.100727168537,1632
2417.9421965758734,1681
2419.783256263912,1649
2421.623906518538,1759
2423.4641476257157,1676
2425.303979871491,1655
2427.143403541984,1683
2428.9824189233977,1639
2430.821026302012,1580
2432.6592259641866,1630
2434.497018196361,1657
2436.33440328505,1688
2438.171381516851,1680
2440.00795317844,1646
2441.844118556569,1740
2443.6798779380724,1704
2445.5152316098606,1687
2447.3501798589255,1753
2449.1847229723357,1715
2451.0188612372403,1680
2452.8525949408663,1661
2454.6859243705203,1658
2456.518849813587,1692
2458.3513715575314,1680
2460.183489889895,1712
2462.015205098301,1710
2463.8465174704493,1669
2465.67742729412,1612
2467.5079348571717,1675
2469.338040447542,1699
2471.1677443532476,1682
2472.9970468623833,1704
2474.825948263123,1639
2476.6544488437207,1648
2478.482548892508,1644
2480.310248697896,1683
2482.137548548374,1706
2483.9644487325118,1694
2485.790949538956,1737
2487.617051256433,1705
2489.44275417375,1702
2491.26805857979,1629
2493.0929647635157,1703
2494.917473013971,1677
2496.741583620276,1694
2498.5652968716304,1705
2500.3886130573137,1751
2502.2115324666834,1728
2504.0340553891765,1738
2505.856182114308,1755
2507.6779129316733,1802
2509.499248130945,1750
2511.3201880018764,1749
2513.140732834298,1738
2514.9608829181198,1762
2516.780638543331,1696
2518.6,1754
2520.418967578273,1818
2522.237541568376,1732
2524.0557222606144,1724
2525.8735099453706,1761
2527.6909049131086,1760
2529.507907454368,1757
2531.32451785977,1830
2533.140736420014,1798
2534.9565634258774,1767
2536.771999168218,1869
2538.5870439379714,1776
2540.4016980261526,1838
2542.2159617238544,1825
2544.02983532225,1780
2545.8433191125914,1826
2547.656413386209,1846
2549.4691184345115,1877
2551.2814345489874,1877
2553.093362021204,1837
2554.904901142808,1841
2556.716052205523,1916
2558.526815501153,1806
2560.3371913215824,1892
2562.147179958771,1998
2563.956781704761,1924
2565.7659968516705,2022
2567.5748256916986,1959
2569.3832685171224,1928
2571.1913256202984,1893
2572.9989972936614,1961
2574.806283829725,1974
2576.613185521084,1972
2578.4197026604074,2011
2580.2258355404483,2058
2582.031584454035,2045
2583.836949694077,2060
2585.6419315535613,2007
2587.4465303255533,2100
2589.2507463032002,2010
2591.0545797797245,2142
2592.8580310484303,2028
2594.6611004026995,2095
2596.463788135992,2134
2598.266094541849,2134
2600.0680199138874,2140
2601.869564545807,2158
2603.670728731383,2112
2605.4715127644704,2145
2607.2719169390048,2172
2609.071941548998,2193
2610.8715868885433,2128
2612.670853251811,2104
2614.469740933052,2130
2616.268250226594,2114
2618.0663814268455,2058
2619.864134828292,2115
2621.6615107255006,2120
2623.458509413115,2100
2625.2551311858597,2094
2627.0513763385347,2146
2628.8472451660223,2080
2630.6427379632833,2016
2632.4378550253564,2003
2634.232596647359,1964
2636.026963124488,1934
2637.8209547520187,2000
2639.6145718253065,2024
2641.407814639785,1984
2643.200683490966,1982
2644.9931786744414,2008
2646.7853004858807,2003
2648.577049221034,1910
2650.3684251757277,1890
2652.1594286458712,1981
2653.9500599274484,1923
2655.740319316525,1891
2657.5302071092437,1941
2659.3197236018286,1877
2661.10886909058,1889
2662.8976438718782,1881
2664.686048242183,1880
2666.4740824980327,1847
2668.2617469360443,1756
2670.0490418529134,1764
2671.8359675454153,1861
2673.622524310403,1773
2675.408712444811,1822
2677.1945322456495,1774
2678.979984010009,1792
2680.76506803506,1788
2682.5497846180497,1708
2684.334134056306,1720
2686.1181166472343,1738
2687.9017326883213,1727
2689.6849824771293,1771
2691.4678663113013,1743
2693.2503844885596,1778
2695.032537306705,1746
2696.8143250636167,1743
2698.5957480572542,1752
2700.3768065856534,1665
2702.1575009469316,1717
2703.937831439283,1703
2705.717798360982,1732
2707.4974020103837,1717
2709.276642685917,1713
2711.055520686095,1731
2712.834036309506,1737
2714.612189854819,1628
2716.389981620782,1624
2718.1674119062204,1627
2719.944481010041,1691
2721.721189231226,1628
2723.4975368688415,1579
2725.273524222027,1665
2727.0491515900053,1649
2728.824419272075,1650
2730.5993275676146,1656
2732.3738767760838,1625
2734.148067197016,1686
2735.921899130031,1711
2737.6953728748194,1620
2739.468488731156,1626
2741.2412469988926,1619
2743.0136479779617,1623
2744.785691968372,1643
2746.5573792702116,1656
2748.3287101836504,1600
2750.099685008934,1593
2751.870304046388,1639
2753.640567596418,1628
2755.4104759595057,1617
2757.1800294362156,1699
2758.949228327187,1621
2760.7180729331412,1597
2762.486563554877,1647
2764.254700493272,1567
2766.022484049284,1602
2767.789914523947,1683
2769.5569922183786,1671
2771.3237174337705,1596
2773.090090471394,1645
2774.8561116326036,1579
2776.6217812188274,1634
2778.3870995315756,1586
2780.1520668724356,1637
2781.9166835430747,1628
2783.6809498452394,1584
2785.444866080754,1663
2787.2084325515225,1603
2788.971649559527,1637
2790.73451740683,1596
2792.4970363955713,1640
2794.2592068279705,1578
2796.0210290063264,1606
2797.7825032330147,1580
2799.543629810493,1664
2801.304409041296,1621
2803.0648412280366,1652
2804.8249266734088,1568
2806.5846656801846,1669
2808.344058551212,1652
2810.1031055894246,1651
2811.8618070978273,1605
2813.6201633795085,1548
2815.378174737636,1603
2817.1358414754536,1581
2818.893163896285,1534
2820.6501423035334,1570
2822.4067770006814,1578
2824.1630682912883,1664
2825.9190164789957,1560
2827.6746218675207,1622
2829.429884760661,1598
2831.184805462294,1612
2832.9393842763743,1668
2834.693621506936,1659
2836.4475174580916,1584
2838.201072434034,1621
2839.954286739034,1643
2841.707160677441,1633
2843.459694553685,1602
2845.2118886722724,1606
2846.96374333779,1644
2848.7152588549034,1672
2850.4664355283567,1686
2852.217273662973,1621
2853.9677735636546,1620
2855.7179355353833,1627
2857.4677598832186,1640
2859.217246912299,1594
2860.9663969278427,1642
2862.715210235146,1561
2864.4636871395846,1599
2866.211827946614,1637
2867.9596329617652,1606
2869.7071024906536,1608
2871.4542368389684,1589
2873.20103631248,1564
2874.947501217038,1597
2876.6936318585695,1573
2878.4394285430812,1622
2880.1848915766604,1663
2881.9300212654707,1640
2883.6748179157553,1597
2885.4192818338374,1653
2887.1634133261173,1575
2888.907212699077,1641
2890.6506802592744,1586
2892.393816313348,1597
2894.1366211680142,1672
2895.8790951300693,1597
2897.621238506388,1641
2899.363051603925,1672
2901.1045347297118,1552
2902.8456881908596,1592
2904.58651229456,1539
2906.327007348081,1553
2908.067173658772,1516
2909.8070115340597,1576
2911.5465212814497,1585
2913.285703208527,1624
2915.0245576229563,1605
2916.7630848324807,1546
2918.5012851449196,1544
2920.2391588681758,1611
2921.976706310227,1640
2923.7139277791334,1588
2925.4508235830313,1636
2927.187394030137,1576
2928.923639428745,1563
2930.6595600872306,1626
2932.395156314046,1587
2934.1304284177218,1673
2935.8653767068713,1644
2937.6000014901815,1621
2939.3343030764227,1628
2941.068281774442,1590
2942.8019378931644,1626
2944.5352717415976,1627
2946.2682836288236,1684
2948.0009738640065,1620
2949.7333427563885,1611
2951.465390615289,1600
2953.1971177501086,1602
2954.9285244703265,1618
2956.6596110855,1617
2958.3903779052657,1611
2960.1208252393385,1594
2961.8509533975125,1613
2963.5807626896617,1632
2965.3102534257378,1651
2967.0394259157715,1662
2968.768280469873,1609
2970.496817398232,1678
2972.2250370111146,1634
2973.952939618869,1616
2975.6805255319196,1648
2977.4077950607707,1667
2979.134748516006,1626
2980.861386208289,1687
2982.587708448359,1676
2984.313715547037,1622
2986.039407815222,1591
2987.764785563891,1629
2989.489849104102,1696
2991.2145987469908,1591
2992.9390348037705,1579
2994.6631575857346,1714
2996.3869674042576,1611
2998.1104645707887,1667
2999.83364939686,1602
3001.5565221940783,1596
3003.2790832741334,1682
3005.0013329487924,1615
3006.7232715298996,1605
3008.4448993293804,1555
3010.166216659239,1641
3011.887223831558,1612
3013.607921158498,1630
3015.3283089522993,1606
3017.0483875252826,1626
3018.7681571898443,1642
3020.4876182584626,1578
3022.2067710436927,1644
3023.9256158581707,1590
3025.644153014609,1660
3027.362382825801,1633
3029.0803056046193,1640
3030.797921664012,1615
3032.5152313170106,1603
3034.2322348767225,1652
3035.9489326563353,1615
3037.665324969115,1620
3039.3814121284063,1586
3041.097194447633,1628
3042.812672240299,1655
3044.5278458199855,1608
3046.2427155003525,1623
3047.9572815951406,1644
3049.671544418167,1619
3051.38550428333,1562
3053.0991615046073,1621
3054.812516396051,1669
3056.5255692717974,1666
3058.2383204460575,1647
3059.9507702331257,1609
3061.662918947372,1579
3063.3747669032446,1627
3065.0863144152736,1570
3066.7975617980674,1628
3068.508509366309,1640
3070.219157434767,1604
3071.9295063182844,1638
3073.639556331785,1585
3075.3493077902704,1633
3077.058761008821,1562
3078.7679163025964,1681
3080.476773986837,1625
3082.1853343768594,1707
3083.89359778806,1647
3085.6015645359153,1647
3087.3092349359786,1690
3089.016609303884,1640
3090.7236879553434,1628
3092.4304712061476,1668
3094.136959372166,1634
3095.843152769349,1603
3097.5490517137237,1599
3099.2546565213966,1657
3100.959967508554,1613
3102.66498499146,1654
3104.3697092864577,1598
3106.0741407099695,1650
3107.778279578498,1632
3109.482126208622,1696
3111.1856809170004,1675
3112.8889440203716,1675
3114.5919158355528,1672
3116.294596679439,1658
3117.996986869006,1646
3119.6990867213062,1637
3121.4008965534726,1706
3123.102416682717,1654
3124.803647426329,1671
3126.5045891016784,1644
3128.205242026213,1717
3129.90560651746,1663
3131.605682893025,1642
3133.3054714705922,1681
3135.0049725679282,1660
3136.7041865028714,1590
3138.4031135933465,1610
3140.101754157353,1608
3141.800108512971,1615
3143.498176978357,1584
3145.1959598717494,1697
3146.8934575114636,1658
3148.5906702158954,1554
3150.2875983035183,1630
3151.9842420928853,1619
3153.680601902627,1680
3155.376678051456,1668
3157.07247085816,1682
3158.767980641609,1662
3160.463207720748,1598
3162.158152414606,1597
3163.8528150422862,1648
3165.5471959229726,1633
3167.2412953759303,1668
3168.9351137204976,1636
3170.628651276098,1676
3172.3219083622307,1676
3174.014885298474,1608
3175.707582404485,1596
3177.4000000000005,1587
3179.092138404835,1592
3180.7839979388846,1626
3182.47557892212,1633
3184.166881674594,1622
3185.8579065164386,1624
3187.5486537678626,1678
3189.2391237491547,1661
3190.9293167806827,1605
3192.6192331828934,1606
3194.3088732763117,1574
3195.998237381542,1627
3197.687325819268,1644
3199.376138910251,1569
3201.064676975334,1600
3202.7529403354347,1581
3204.4409293115523,1613
3206.1286442247647,1518
3207.816085396229,1613
3209.5032531471825,1627
3211.190147798936,1641
3212.8767696728846,1565
3214.5631190905015,1489
3216.2491963733373,1651
3217.9350018430214,1598
3219.6205358212637,1547
3221.305798629851,1499
3222.990790590651,1528
3224.6755120256103,1516
3226.359963256751,1551
3228.0441446061795,1580
3229.7280563960758,1534
3231.411698948703,1580
3233.0950725863995,1630
3234.778177631587,1507
3236.461014406761,1640
3238.1435832345005,1591
3239.8258844374595,1599
3241.507918338374,1614
3243.1896852600576,1625
3244.8711855254023,1589
3246.552419457381,1607
3248.233387379042,1588
3249.914089613516,1602
3251.59452648401,1641
3253.274698313813,1612
3254.95460542629,1615
3256.6342481448855,1617
3258.313626793125,1660
3259.9927416946084,1572
3261.6715931730196,1619
3263.3501815521176,1603
3265.0285071557437,1612
3266.706570307815,1628
3268.3843713323286,1545
3270.0619105533615,1567
3271.739188295068,1590
3273.4162048816834,1639
3275.0929606375184,1593
3276.769455886966,1585
3278.445690954498,1612
3280.1216661646613,1649
3281.797381842087,1626
3283.4728383114807,1661
3285.1480358976296,1585
3286.8229749253996,1596
3288.4976557197333,1628
3290.172078605655,1585
3291.846243908266,1613
3293.5201519527463,1580
3295.193803064357,1600
3296.8671975684374,1605
3298.5403357904024,1575
3300.21321805575,1622
3301.8858446900567,1589
3303.558216018975,1581
3305.23033236824,1569
3306.9021940636603,1583
3308.57380143113,1613
3310.2451547966184,1620
3311.916254486174,1593
3313.5871008259246,1617
3315.2576941420766,1630
3316.9280347609147,1572
3318.5981230088046,1643
3320.2679592121895,1485
3321.9375436975924,1570
3323.606876791612,1556
3325.27595882093,1596
3326.944790112305,1569
3328.6133709925753,1607
3330.2817017886573,1549
3331.949782827547,1588
3333.617614436319,1620
3335.2851969421245,1560
3336.952530672199,1598
3338.619615953853,1602
3340.286453114475,1588
3341.9530424815357,1632
3343.619384382583,1583
3345.2854791452437,1600
3346.951327097224,1551
3348.6169285663073,1604
3350.2822838803577,1668
3351.947393367319,1621
3353.61225735521,1543
3355.2768761721345,1579
3356.9412501462693,1643
3358.605379605873,1574
3360.2692648792827,1592
3361.9329062949146,1640
3363.596304181263,1599
