CollectionTime,7/9/2024 11:02:59 AM
ExposureUsed,3
CalibratedSpectrum
-962.7078968117929,495
-959.9714848408522,526
-957.2358232597828,529
-954.5009119013725,532
-951.7667505983302,521
-949.0333391832855,517
-946.3006774887896,538
-943.5687653473143,526
-940.837602591253,528
-938.1071890529199,540
-935.3775245645503,532
-932.6486089583007,532
-929.9204420662485,552
-927.1930237203925,534
-924.4663537526524,567
-921.7404319948689,525
-919.0152582788041,570
-916.2908324361409,608
-913.5671542984834,585
-910.8442236973568,541
-908.1220404642074,529
-905.4006044304027,614
-902.679915427231,575
-899.959973285902,590
-897.2407778375464,548
-894.5223289132158,538
-891.8046263438832,535
-889.0876699604426,552
-886.3714595937089,527
-883.6559950744183,547
-880.9412762332282,561
-878.2273029007168,541
-875.5140749073835,514
-872.8015920836489,517
-870.0898542598545,577
-867.3788612662631,546
-864.6686129330585,551
-861.9591090903457,595
-859.2503495681506,599
-856.5423341964203,541
-853.8350628050229,535
-851.1285352237478,540
-848.4227512823054,536
-845.7177108103272,594
-843.0134136373656,552
-840.3098595928943,575
-837.6070485063082,591
-834.9049802069229,582
-832.2036545239757,553
-829.5030712866244,541
-826.8032303239481,540
-824.1041314649472,570
-821.4057745385428,566
-818.7081593735775,545
-816.0112857988148,532
-813.3151536429393,517
-810.6197627345566,564
-807.9251129021936,552
-805.2312039742981,538
-802.5380357792392,577
-799.8456081453069,588
-797.1539209007124,586
-794.462973873588,636
-791.772766891987,630
-789.083299783884,583
-786.3945723771743,569
-783.7065844996748,559
-781.0193359791231,524
-778.3328266431781,556
-775.6470563194197,560
-772.9620248353489,574
-770.2777320183878,584
-767.5941776958798,557
-764.9113616950891,587
-762.2292838432011,574
-759.5479439673222,573
-756.8673418944801,555
-754.1874774516235,602
-751.5083504656222,597
-748.8299607632671,616
-746.15230817127,568
-743.475392516264,592
-740.7992136248035,594
-738.1237713233636,583
-735.4490654383407,593
-732.7750957960521,608
-730.1018622227365,592
-727.4293645445534,578
-724.7576025875837,591
-722.0865761778291,608
-719.4162851412126,586
-716.7467293035781,599
-714.0779084906909,593
-711.409822528237,607
-708.7424712418238,624
-706.0758544569796,624
-703.4099719991541,632
-700.7448236937178,649
-698.0804093659622,655
-695.4167288411002,588
-692.7537819442656,580
-690.0915685005134,594
-687.4300883348199,612
-684.7693412720819,615
-682.1093271371178,648
-679.4500457546669,641
-676.7914969493897,636
-674.1336805458676,596
-671.4765963686034,605
-668.8202442420206,651
-666.1646239904642,651
-663.5097354382001,626
-660.8555784094151,597
-658.2021527282176,626
-655.5494582186366,633
-652.8974947046223,643
-650.2462620100463,642
-647.5957599587009,652
-644.9459883742998,659
-642.2969470804776,650
-639.6486359007902,669
-637.0010546587141,670
-634.3542031776476,640
-631.7080812809096,653
-629.0626887917401,685
-626.4180255333008,712
-623.7740913286734,684
-621.1308860008619,677
-618.4884093727904,703
-615.8466612673046,689
-613.2056415071715,658
-610.5653499150785,683
-607.9257863136347,707
-605.28695052537,702
-602.6488423727357,717
-600.0114616781036,696
-597.3748082637674,680
-594.7388819519412,703
-592.1036825647604,739
-589.4692099242818,738
-586.8354638524829,757
-584.2024441712624,760
-581.5701507024403,697
-578.9385832677575,699
-576.3077416888759,728
-573.6776257873787,702
-571.0482353847704,749
-568.4195703024757,691
-565.7916303618415,687
-563.164415384135,679
-560.5379251905453,753
-557.9121596021815,746
-555.2871184400748,739
-552.6628015251767,719
-550.0392086783606,683
-547.4163397204204,717
-544.794194472071,712
-542.1727727539491,735
-539.5520743866118,754
-536.9320991905377,794
-534.3128469861261,823
-531.6943175936979,832
-529.0765108334947,826
-526.4594265256793,903
-523.8430644903358,1014
-521.2274245474689,1094
-518.612506517005,1188
-515.9983102187913,1185
-513.3848354725959,1174
-510.77208209810846,1255
-508.16004991493924,1326
-505.5487387426199,1492
-502.9381484006032,1714
-500.3282787082628,1794
-497.71912948489364,1706
-495.1107005497117,1651
-492.5029917218539,1468
-489.8960028203786,1320
-487.28973366426493,1202
-484.68418407241325,1089
-482.07935386364494,1048
-479.47524285670266,974
-476.87185087025,992
-474.2691777228715,949
-471.66722323307334,928
-469.0659872192821,958
-466.4654694998459,924
-463.86566989303384,964
-461.26658821703614,942
-458.66822428996414,900
-456.07057792985,890
-453.4736489546475,927
-450.877437182231,921
-448.28194243039627,910
-445.68716451686,874
-443.09310325926003,886
-440.49975847515555,932
-437.9071299820263,871
-435.31521759727354,898
-432.72402113821954,921
-430.13354042210767,979
-427.5437752661022,901
-424.95472548728867,937
-422.36639090267386,906
-419.7787713291855,1003
-417.1918665836721,1108
-414.60567648290385,1060
-412.0202008435715,991
-409.4354394822874,983
-406.8513922155845,1046
-404.26805885991723,1062
-401.685439231661,1060
-399.103533147112,1005
-396.522340422488,1002
-393.9418608739278,980
-391.3620943174908,1007
-388.7830405691583,943
-386.2046994448317,941
-383.6270707603344,930
-381.05015433141045,895
-378.473949973725,849
-375.8984575028645,807
-373.32367673433623,695
-370.74960748356875,720
-368.1762495659117,703
-365.60360279663576,647
-363.03166699093265,609
-360.4604419639154,589
-357.8899275306178,543
-355.32012350599507,533
-352.7510297049233,532
-350.1826459421999,513
-347.61497203254316,532
-345.04800779059235,488
-342.4817530309082,569
-339.91620756797226,587
-337.35137121618743,564
-334.7872437898774,546
-332.22382510328725,582
-329.66111497058273,556
-327.09911320585127,525
-324.53781962310075,588
-321.9772340362607,624
-319.4173562591816,555
-316.8581861056348,496
-314.2997233893127,520
-311.7419679238294,507
-309.1849195227194,575
-306.62857799943856,586
-304.0729431673641,692
-301.51801483979375,649
-298.963792829947,653
-296.41027695096386,630
-293.85746701590574,629
-291.3053628377552,672
-288.7539642294155,724
-286.2032710037115,612
-283.65328297338897,582
-281.1039999511146,746
-278.5554217494762,760
-276.007548180983,658
-273.4603790580651,632
-270.9139141930734,602
-268.3681533982807,616
-265.8230964858798,685
-263.27874326798565,706
-260.7350935566336,652
-258.1921471637804,676
-255.6499039013039,669
-253.10836358100266,726
-250.56752601459698,681
-248.02739101372765,711
-245.48795838995704,791
-242.94922795476816,714
-240.41119951956557,740
-237.8738728956746,791
-235.33724789434166,875
-232.80132432673452,748
-230.2661020039418,772
-227.73158073697357,725
-225.19776033676033,807
-222.66464061415422,846
-220.1322213799284,774
-217.60050244477725,752
-215.06948361931552,789
-212.53916471408013,874
-210.00954553952818,874
-207.48062590603843,838
-204.9524056239104,806
-202.4248845033651,904
-199.8980623545441,859
-197.37193898751036,789
-194.84651421224817,838
-192.32178783866232,898
-189.79775967657952,1008
-187.27442953574644,1044
-184.7517972258321,1063
-182.2298625564256,1027
-179.7086253370378,871
-177.18808537710026,828
-174.66824248596583,865
-172.14909647290835,996
-169.6306471471229,1036
-167.11289431772548,1097
-164.59583779375328,1097
-162.07947738416453,1059
-159.5638128978386,1118
-157.04884414357605,1399
-154.53457093009854,1528
-152.02099306604828,1249
-149.50811035998936,929
-146.99592262040665,1053
-144.48442965570587,1197
-141.97363127421409,1281
-139.46352728417958,1345
-136.95411749377126,1513
-134.44540171107985,1355
-131.93737974411636,1175
-129.43005140081357,1420
-126.92341648902493,2043
-124.41747481652521,2166
-121.91222619101006,2403
-119.40767042009657,2972
-116.90380731132257,3430
-114.40063667214702,3163
-111.8981583099503,2560
-109.3963720320337,1990
-106.89527764561933,2009
-104.39487495785067,2417
-101.89516377579241,3699
-99.39614390642998,4327
-96.89781515667039,4560
-94.40017733334128,4778
-91.90323024319173,6253
-89.40697369289148,8305
-86.91140748903172,9185
-84.41653143812482,7929
-81.92234534660395,4918
-79.42884902082358,5130
-76.93604226705907,9223
-74.4439248915071,16795
-71.95249670028534,21162
-69.46175749943245,21557
-66.97170709490854,19523
-64.48234529259423,16138
-61.99367189829195,12734
-59.50568671772464,10144
-57.01838955653636,9051
-54.53178022029283,9078
-52.045858514480074,8349
-49.560624244506016,9171
-47.07607721569923,10122
-44.59221723330904,10376
-42.10904410250669,10087
-39.62655762838392,10123
-37.14475761595372,9920
-34.66364387015028,9563
-32.18321619582866,9479
-29.70347439776515,10779
-27.224418280657005,11226
-24.74604764912317,12239
-22.26836230770266,20689
-19.7913620608565,38788
-17.315046712966478,65040
-14.83941606833514,65040
-12.36446993118659,65040
-9.89020810566592,65040
-7.416630395839093,65040
-4.94373660569363,65040
-2.471526539137585,65040
-6.821210263296962E-13,65040
2.47084320796705,65040
4.941003281093458,65040
7.410480415786196,65040
9.879274808531363,65040
12.347386655893956,65040
14.814816154518212,65040
17.28156350112681,65040
19.74762889252179,65040
22.21301252558385,65040
24.67771459727237,21805
27.141735304626195,4705
29.605074844762612,3143
32.06773341487792,2681
34.52971121224755,2990
36.99100843422559,3154
39.45162527824516,2682
41.91156194181792,2565
44.370818622535126,2453
46.82939551806646,1895
49.287292826160524,1861
51.74451074464503,1681
54.201049471426245,1532
56.65690920448981,1510
59.112090141899785,1361
61.56659248179983,1273
64.02041642241159,1397
66.4735621620365,1354
68.92602989905402,1260
71.37781983192338,1287
73.82893215918205,1455
76.27936707944684,1650
78.72912479141326,1691
81.17820549385567,1704
83.62660938562783,1703
86.07433666566146,1291
88.5213875329681,1160
90.96776218663751,1099
93.41346082583925,1090
95.85848364982041,1328
98.30283085790859,1578
100.7465026495089,1689
103.18949922410604,1387
105.63182078126385,1342
108.07346752062438,1260
110.51443964190923,1086
112.95473734491827,1164
115.39436082953114,1453
117.83331029570547,1430
120.27158594347827,1302
122.7091879729652,1428
125.1461165843615,1392
127.58237197794062,1216
130.01795435405518,1316
132.4528639131364,1274
134.88710085569494,1169
137.32066538231982,987
139.75355769367923,914
142.1857779905207,968
144.61732647366978,987
147.04820334403132,1102
149.47840880258934,1182
151.90794305040674,1165
154.33680628862487,1287
156.76499871846443,1532
159.19252054122433,1588
161.61937195828352,1799
164.04555317109896,1887
166.47106438120693,2155
168.89590579022217,2315
171.320077599839,2351
173.7435800118302,2275
176.16641322804742,2357
178.58857745042144,2603
181.01007288096173,2761
183.43089972175687,2856
185.85105817497413,2843
188.27054844285988,2728
190.6893707277394,2653
193.10752523201643,2699
195.5250121581745,2845
197.9418317087751,2784
200.3579840864594,2817
202.7734694939469,2724
205.18828813403627,2846
207.6024402096051,3111
210.01592592360964,3156
212.42874547908548,3044
214.84089907914665,3054
217.2523869269868,2957
219.66320922587727,2890
222.0733661791695,2842
224.48285799029293,2840
226.8916848627572,2870
229.29984700014882,2929
231.7073446061355,2953
234.11417788446204,2826
236.520347038953,2829
238.92585227351185,2834
241.33069379212054,2929
243.73487179884035,2829
246.1383864978112,2926
248.541238093252,2856
250.9434267894609,2959
253.34495279081432,2917
255.74581630176783,2901
258.1460175268563,2861
260.54555667069314,2909
262.9444339379703,2949
265.3426495334594,2859
267.7402036620107,2925
270.1370965285529,2871
272.53332833809407,2828
274.9288992957214,2759
277.32380960660055,2829
279.718059475976,2824
282.1116491091717,2831
284.5045787115897,2824
286.89684848871195,2685
289.2884586460981,2717
291.67940938938807,2831
294.0697009242996,2789
296.4593334566299,2786
298.84830719225477,2829
301.23662233712923,2699
303.6242790972866,2728
306.01127767884,2742
308.39761828798066,2706
310.78330113097934,2703
313.16832641418534,2598
315.5526943440269,2635
317.9364051270112,2669
320.3194589697242,2598
322.70185607883093,2612
325.0835966610754,2579
327.4646809232805,2437
329.8451090723478,2500
332.2248813152577,2517
334.6039978590701,2461
336.9824589109231,2378
339.36026467803447,2417
341.7374153677,2430
344.113911187295,2406
346.48975234427337,2376
348.8649390461686,2421
351.2394715005918,2439
353.61334991523415,2438
355.9865744978655,2389
358.35914545633375,2386
360.73106299856715,2330
363.10232733257146,2375
365.47293866643247,2299
367.84289720831396,2277
370.2122031664593,2251
372.5808567491905,2327
374.9488581649083,2287
377.31620762209275,2266
379.6829053293021,2259
382.0489514951745,2200
384.4143463284262,2229
386.7790900378528,2183
389.14318283232853,2225
391.50662492080653,2259
393.86941651231916,2316
396.23155781597745,2355
398.5930490409713,2218
400.9538903965696,2330
403.3140820921202,2243
405.6736243370498,2295
408.03251734086336,2213
410.3907613131465,2208
412.74835646356166,2189
415.10530300185144,2238
417.4616011378372,2246
419.81725108141893,2152
422.1722530425758,2168
424.5266072313656,2221
426.880313857925,2153
429.2333731324701,2251
431.58578526529516,2157
433.9375504667738,2131
436.2886689473588,2166
438.63914091758113,2212
440.9889665880513,2109
443.33814616945835,2089
445.68667987257015,2137
448.03456790823395,2123
450.3818104873759,2107
452.72840782100013,2191
455.07436012019105,2138
457.41966759611057,2116
459.7643304600007,2061
462.10834892318155,2161
464.4517231970525,2094
466.79445349309174,2103
469.1365400228566,2124
471.4779829979826,2134
473.81878263018564,2099
476.15893913125876,2154
478.4984527130747,2251
480.8373235875855,2291
483.17555196682144,2346
485.5131380628919,2505
487.8500820879857,2564
490.1863842543697,2730
492.52204477439034,2941
494.8570638604725,3131
497.1914417251204,3590
499.52517858091653,3978
501.85827464052306,4103
504.19073011668036,4177
506.5225452222086,4019
508.85372017000566,3870
511.18425517304956,3857
513.514150444396,3856
515.8434061971808,4777
518.1720226446176,5878
520.4999999999999,6136
522.8273384766991,5772
525.1540382881666,5156
527.480099647932,4410
529.8055227696037,3573
532.1303078668694,2930
534.454455153496,2567
536.777964843328,2452
539.1008371502907,2401
541.4230722883866,2359
543.744670471698,2318
546.0656319143858,2268
548.3859568306899,2320
550.7056454349294,2296
553.0246979415016,2177
555.3431145648834,2185
557.6608955196306,2201
559.978041020377,2123
562.2945512818363,2142
564.6104265188006,2192
566.9256669461412,2278
569.2402727788082,2300
571.5542442318302,2352
573.8675815203156,2191
576.1802848594508,2237
578.4923544645015,2260
580.8037905508126,2284
583.114593333807,2264
585.4247630289875,2306
587.7342998519354,2209
590.0432040183106,2273
592.3514757438526,2317
594.6591152443794,2288
596.9661227357875,2252
599.2724984340531,2309
601.578242555231,2200
603.8833553154542,2294
606.1878369309362,2254
608.4916876179676,2246
610.7949075929192,2188
613.0974970722403,2259
615.3994562724587,2230
617.7007854101818,2206
620.0014847020951,2383
622.3015543649641,2283
624.6009946156324,2216
626.8998056710224,2240
629.1979877481361,2213
631.4955410640538,2196
633.7924658359349,2233
636.0887622810175,2191
638.3844306166192,2215
640.6794710601358,2273
642.9738838290426,2315
645.2676691408932,2290
647.5608272133207,2172
649.853358264037,2248
652.1452625108324,2210
654.4365401715764,2287
656.7271914642178,2285
659.0172166067838,2250
661.3066158173809,2245
663.5953893141935,2265
665.8835373154867,2234
668.1710600396028,2237
670.4579577049639,2232
672.7442305300709,2321
675.0298787335033,2232
677.3149025339197,2242
679.599302150058,2247
681.8830778007342,2199
684.1662297048437,2200
686.4487580813608,2254
688.7306631493387,2290
691.0119451279091,2231
693.2926042362834,2309
695.5726406937516,2292
697.8520547196814,2321
700.1308465335215,2196
702.4090163547982,2164
704.6865644031171,2219
706.9634908981619,2139
709.2397960596965,2272
711.5154801075631,2242
713.7905432616823,2230
716.0649857420548,2210
718.3388077687592,2227
720.612009561953,2267
722.8845913418733,2248
725.1565533288352,2219
727.427895743234,2224
729.6986188055427,2317
731.9687227363137,2274
734.238207756178,2222
736.5070740858458,2164
738.7753219461066,2210
741.0429515578281,2232
743.3099631419569,2205
745.5763569195191,2221
747.8421331116193,2237
750.1072919394409,2212
752.3718336242467,2278
754.6357583873777,2220
756.8990664502545,2247
759.1617580343765,2257
761.423833361321,2185
763.6852926527457,2241
765.9461361303862,2241
768.206364016058,2328
770.4659765316536,2224
772.7249738991469,2299
774.9833563405886,2425
777.2411240781092,2278
779.4982773339183,2285
781.7548163303044,2280
784.010741289634,2291
786.2660524343538,2419
788.5207499869881,2391
790.7748341701416,2311
793.0283052064964,2239
795.2811633188143,2406
797.5334087299362,2284
799.7850416627813,2362
802.0360623403484,2284
804.2864709857143,2295
806.5362678220353,2289
808.7854530725468,2256
811.0340269605625,2273
813.2819897094754,2299
815.5293415427581,2340
817.77608268396,2313
820.0222133567116,2295
822.2677337847211,2219
824.5126441917765,2296
826.7569448017433,2327
829.0006358385675,2234
831.2437175262731,2301
833.4861900889629,2279
835.7280537508192,2228
837.9693087361026,2317
840.2099552691533,2233
842.4499935743896,2262
844.689423876309,2302
846.9282463994886,2321
849.1664613685833,2280
851.4040690083276,2359
853.6410695435349,2243
855.877463199097,2242
858.1132501999847,2287
860.3484307712487,2368
862.5830051380175,2265
864.8169735254988,2333
867.0503361589791,2404
869.2830932638243,2326
871.5152450654786,2321
873.7467917894654,2315
875.9777336613873,2305
878.2080709069252,2372
880.4378037518389,2393
882.666932421968,2419
884.8954571432301,2375
887.1233781416219,2399
889.3506956432192,2412
891.5774098741766,2346
893.803521060728,2410
896.0290294291852,2348
898.2539352059397,2344
900.4782386174619,2397
902.7019398903011,2382
904.925039251085,2415
907.147536926521,2349
909.3694331433943,2384
911.59072812857,2316
913.8114221089921,2330
916.0315153116827,2284
918.2510079637437,2335
920.4699002923547,2272
922.6881925247761,2287
924.905884888345,2246
927.1229776104793,2328
929.3394709186747,2253
931.555365040506,2320
933.7706602036275,2314
935.9853566357709,2309
938.1994545647489,2314
940.4129542184515,2337
942.6258558248488,2209
944.8381596119883,2269
947.0498658079974,2289
949.2609746410825,2270
951.4714863395287,2168
953.6814011316998,2208
955.8907192460387,2260
958.0994409110671,2192
960.3075663553858,2184
962.5150958076741,2212
964.7220294966913,2180
966.928367651274,2155
969.1341105003388,2219
971.3392582728806,2126
973.5438111979742,2189
975.747769504772,2188
977.9511334225061,2154
980.153903180487,2174
982.3560790081052,2092
984.5576611348289,2176
986.7586497902058,2160
988.9590452038618,2076
991.158847605503,2094
993.3580572249133,2065
995.5566742919558,2083
997.7546990365728,2017
999.952131688785,2064
1002.1489724786926,1930
1004.3452216364743,1962
1006.5408793923874,1926
1008.7359459767691,1912
1010.9304216200343,1923
1013.1243065526781,1930
1015.3176010052733,1937
1017.510305208472,1856
1019.7024193930064,1851
1021.8939437896848,1882
1024.0848786293977,1851
1026.2752241431122,1873
1028.4649805618747,1843
1030.6541481168115,1814
1032.842727039127,1818
1035.0307175601051,1808
1037.2181199111074,1794
1039.4049343235752,1822
1041.591161029029,1802
1043.7768002590683,1737
1045.9618522453698,1829
1048.1463172196918,1869
1050.3301954138697,1815
1052.513487059818,1833
1054.69619238953,1876
1056.8783116350783,1843
1059.0598450286152,1842
1061.2407928023704,1822
1063.4211551886528,1762
1065.6009324198508,1744
1067.780124728432,1754
1069.9587323469414,1860
1072.1367555080046,1725
1074.314194444325,1793
1076.4910493886855,1794
1078.667320573947,1754
1080.843008233051,1678
1083.0181125990161,1728
1085.1926339049414,1734
1087.3665723840027,1737
1089.5399282694575,1777
1091.7127017946405,1809
1093.8848931929647,1739
1096.0565026979243,1689
1098.2275305430899,1741
1100.3979769621128,1797
1102.567842188722,1708
1104.737126456726,1770
1106.9058300000124,1706
1109.0739530525475,1707
1111.2414958483764,1715
1113.4084586216231,1652
1115.5748416064907,1687
1117.7406450372605,1732
1119.9058691482942,1693
1122.0705141740304,1701
1124.2345803489884,1710
1126.3980679077658,1770
1128.5609770850388,1754
1130.7233081155623,1689
1132.8850612341707,1736
1135.0462366757774,1662
1137.2068346753745,1685
1139.3668554680326,1657
1141.526299288901,1671
1143.68516637321,1676
1145.8434569562655,1666
1148.001171273455,1681
1150.158309560244,1627
1152.3148720521767,1678
1154.470858984876,1671
1156.626270594044,1617
1158.7811071154629,1590
1160.9353687849912,1691
1163.089055838569,1645
1165.242168512213,1670
1167.3947070420209,1573
1169.5466716641677,1666
1171.6980626149075,1613
1173.8488801305748,1662
1175.9991244475814,1648
1178.1487958024186,1690
1180.2978944316555,1633
1182.4464205719428,1619
1184.5943744600072,1618
1186.7417563326567,1655
1188.8885664267755,1614
1191.0348049793297,1642
1193.1804722273619,1670
1195.325568407995,1709
1197.4700937584303,1614
1199.614048515948,1602
1201.7574329179074,1610
1203.900247201746,1708
1206.042491604982,1659
1208.1841663652099,1669
1210.3252717201053,1644
1212.465807907422,1661
1214.6057751649923,1589
1216.7451737307279,1712
1218.8840038426192,1612
1221.0222657387353,1628
1223.1599596572241,1634
1225.2970858363137,1684
1227.4336445143094,1716
1229.5696359295966,1668
1231.705060320639,1662
1233.8399179259786,1723
1235.9742089842384,1675
1238.107933734118,1648
1240.2410924143974,1704
1242.373685263935,1709
1244.5057125216676,1705
1246.6371744266116,1649
1248.7680712178621,1603
1250.898403134593,1715
1253.028170416058,1708
1255.1573733015875,1746
1257.2860120305932,1668
1259.4140868425648,1721
1261.54159797707,1712
1263.6685456737569,1704
1265.7949301723515,1713
1267.9207517126597,1764
1270.046010534565,1698
1272.1707068780306,1760
1274.2948409830983,1702
1276.4184130898889,1725
1278.541423438603,1715
1280.6638722695184,1743
1282.785759822993,1756
1284.9070863394636,1754
1287.0278520594447,1735
1289.1480572235314,1802
1291.2677020723963,1760
1293.3867868467923,1754
1295.5053117875495,1801
1297.623277135579,1743
1299.740683131868,1797
1301.8575300174857,1770
1303.973818033578,1815
1306.0895474213703,1860
1308.2047184221678,1787
1310.3193312773528,1781
1312.4333862283888,1780
1314.5468835168163,1785
1316.659823384255,1844
1318.7722060724045,1750
1320.8840318230418,1751
1322.9953008780249,1803
1325.1060134792888,1848
1327.2161698688478,1772
1329.3257702887959,1761
1331.4348149813054,1787
1333.5433041886276,1828
1335.6512381530933,1823
1337.7586171171101,1788
1339.8654413231675,1803
1341.9717110138317,1795
1344.0774264317488,1776
1346.1825878196432,1724
1348.2871954203192,1693
1350.3912494766587,1739
1352.4947502316231,1737
1354.5976979282532,1783
1356.7000928096686,1775
1358.8019351190665,1817
1360.9032250997243,1779
1363.0039629949988,1827
1365.1041490483235,1719
1367.2037835032133,1847
1369.3028666032606,1715
1371.401398592137,1758
1373.4993797135926,1842
1375.5968102114575,1841
1377.6936903296396,1811
1379.7900203121262,1809
1381.8858004029835,1792
1383.9810308463561,1844
1386.075711886469,1819
1388.1698437676241,1790
1390.2634267342032,1832
1392.356461030667,1864
1394.4489469015557,1842
1396.5408845914872,1862
1398.6322743451592,1845
1400.7231164073469,1856
1402.813411022907,1858
1404.903158436773,1814
1406.9923588939578,1861
1409.0810126395531,1818
1411.1691199187303,1871
1413.2566809767386,1874
1415.343696058907,1966
1417.4301654106425,1956
1419.5160892774315,1928
1421.6014679048399,1898
1423.6863015385125,1892
1425.7705904241707,2005
1427.8543348076178,1916
1429.9375349347342,2045
1432.0201910514802,1946
1434.102303403894,1929
1436.1838722380944,1972
1438.2648978002767,1995
1440.3453803367174,2039
1442.4253200937692,2041
1444.5047173178677,1969
1446.5835722555234,2040
1448.6618851533285,2132
1450.739656257952,2109
1452.8168858161434,2039
1454.8935740747306,2083
1456.96972128062,2157
1459.045327680797,2096
1461.120393522327,2212
1463.1949190523528,2250
1465.2689045180973,2134
1467.3423501668608,2252
1469.415256246024,2288
1471.4876230030463,2225
1473.559450685465,2273
1475.6307395408976,2291
1477.7014898170391,2316
1479.771701761665,2279
1481.8413756226287,2364
1483.9105116478618,2420
1485.9791100853772,2437
1488.0471711832643,2453
1490.1146951896926,2442
1492.1816823529098,2369
1494.2481329212433,2392
1496.3140471430984,2541
1498.3794252669609,2489
1500.4442675413939,2533
1502.5085742150404,2589
1504.572345536622,2548
1506.6355817549388,2573
1508.6982831188702,2601
1510.7604498773744,2596
1512.8220822794883,2686
1514.8831805743293,2599
1516.9437450110909,2691
1519.003775839048,2745
1521.0632733075522,2667
1523.1222376660367,2764
1525.1806691640113,2837
1527.2385680510652,2882
1529.2959345768668,2779
1531.3527689911643,2796
1533.4090715437833,2958
1535.4648424846291,2973
1537.5200820636855,3080
1539.5747905310159,3020
1541.6289681367616,3064
1543.6826151311434,3217
1545.7357317644614,3193
1547.7883182870937,3283
1549.8403749494987,3151
1551.8919020022113,3244
1553.9428996958477,3386
1555.9933682811015,3339
1558.0433080087469,3349
1560.0927191296346,3441
1562.1416018946961,3588
1564.1899565549415,3628
1566.2377833614592,3701
1568.2850825654164,3653
1570.3318544180606,3616
1572.3780991707158,3418
1574.423817074788,3417
1576.4690083817595,3332
1578.5136733431923,3138
1580.5578122107272,3162
1582.601425236085,3026
1584.6445126710646,2816
1586.6870747675434,2869
1588.7291117774776,2745
1590.7706239529034,2575
1592.8116115459347,2463
1594.8520748087658,2355
1596.8920139936686,2294
1598.9314293529933,2321
1600.9703211391711,2209
1603.008689604711,2153
1605.0465350022005,2131
1607.0838575843068,2077
1609.1206576037753,2103
1611.1569353134305,2053
1613.1926909661765,2060
1615.2279248149953,2037
1617.2626371129481,1920
1619.2968281131757,1943
1621.3304980688963,1909
1623.3636472334088,1881
1625.39627586009,1944
1627.428384202396,1916
1629.459972513861,1900
1631.4910410480993,1947
1633.5215900588028,1872
1635.551619799744,1798
1637.5811305247717,1829
1639.6101224878166,1871
1641.6385959428862,1796
1643.6665511440683,1779
1645.693988345528,1840
1647.7209078015112,1744
1649.7473097663405,1854
1651.7731944944203,1816
1653.7985622402307,1795
1655.823413258333,1749
1657.847747803366,1814
1659.8715661300494,1810
1661.8948684931793,1809
1663.9176551476316,1847
1665.9399263483624,1834
1667.9616823504057,1729
1669.982923408873,1769
1672.0036497789574,1760
1674.0238617159293,1794
1676.043559475138,1825
1678.0627433120121,1745
1680.081413482059,1747
1682.0995702408654,1773
1684.117213844096,1751
1686.134344547495,1777
1688.1509626068864,1732
1690.1670682781705,1755
1692.182661817329,1813
1694.1977434804217,1813
1696.2123135235875,1740
1698.226372203043,1766
1700.2399197750851,1762
1702.2529564960905,1835
1704.2654826225112,1797
1706.277498410882,1799
1708.2890041178139,1733
1710.2999999999988,1806
1712.3104863142066,1757
1714.3204633172854,1764
1716.329931266163,1806
1718.3388904178469,1727
1720.3473410294214,1797
1722.3552833580516,1744
1724.3627176609807,1783
1726.3696441955308,1679
1728.3760632191033,1752
1730.3819749891782,1755
1732.3873797633146,1739
1734.3922777991502,1696
1736.3966693544012,1777
1738.4005546868639,1737
1740.4039340544127,1695
1742.406807715001,1736
1744.4091759266616,1683
1746.4110389475054,1724
1748.4123970357223,1753
1750.413250449582,1762
1752.4135994474318,1732
1754.4134442876993,1668
1756.4127852288902,1782
1758.4116225295893,1740
1760.4099564484595,1750
1762.407787244244,1793
1764.405115175764,1767
1766.4019405019203,1796
1768.3982634816916,1694
1770.3940843741357,1685
1772.3894034383907,1646
1774.3842209336717,1700
1776.378537119274,1704
1778.372352254571,1691
1780.3656665990156,1657
1782.3584804121397,1686
1784.3507939535534,1784
1786.3426074829463,1667
1788.3339212600863,1802
1790.3247355448211,1717
1792.3150505970766,1685
1794.3048666768573,1667
1796.2941840442477,1707
1798.2830029594106,1755
1800.2713236825884,1732
1802.2591464741004,1689
1804.2464715943465,1723
1806.2332993038058,1785
1808.2196298630352,1715
1810.2054635326708,1666
1812.190800573428,1770
1814.175641246101,1680
1816.1599858115628,1668
1818.1438345307652,1688
1820.127187664738,1660
1822.1100454745924,1705
1824.092408221516,1735
1826.0742761667766,1679
1828.055649571721,1762
1830.0365286977735,1717
1832.0169138064398,1696
1833.9968051593014,1681
1835.9762030180214,1626
1837.9551076443408,1697
1839.9335193000788,1713
1841.9114382471344,1693
1843.888864747485,1675
1845.8657990631878,1639
1847.842241456378,1686
1849.8181921892697,1696
1851.7936515241558,1641
1853.7686197234098,1644
1855.7430970494815,1665
1857.7170837649014,1647
1859.6905801322787,1627
1861.6635864143004,1659
1863.6361028737338,1651
1865.608129773424,1645
1867.5796673762961,1723
1869.5507159453537,1668
1871.521275743678,1684
1873.4913470344313,1762
1875.4609300808534,1648
1877.4300251462632,1683
1879.3986324940588,1647
1881.366752387717,1710
1883.3343850907936,1695
1885.3015308669228,1710
1887.268189979819,1775
1889.2343626932739,1659
1891.2000492711595,1651
1893.1652499774254,1780
1895.1299650761011,1713
1897.0941948312952,1717
1899.0579395071945,1698
1901.0211993680641,1702
1902.98397467825,1732
1904.9462657021745,1682
1906.9080727043415,1730
1908.869395949332,1709
1910.8302357018065,1686
1912.790592226504,1756
1914.7504657882428,1728
1916.7098566519212,1652
1918.6687650825133,1708
1920.6271913450764,1624
1922.5851357047422,1671
1924.5425984267245,1735
1926.499579776314,1677
1928.4560800188833,1697
1930.4120994198802,1728
1932.367638244833,1719
1934.32269675935,1725
1936.2772752291175,1742
1938.231373919899,1751
1940.1849930975404,1753
1942.1381330279637,1721
1944.0907939771696,1687
1946.0429762112412,1669
1947.9946799963363,1685
1949.9459055986945,1654
1951.896653284633,1673
1953.8469233205478,1670
1955.7967159729142,1645
1957.7460315082863,1605
1959.6948701932974,1652
1961.6432322946594,1691
1963.5911180791632,1716
1965.5385278136787,1655
1967.4854617651545,1681
1969.4319202006182,1604
1971.377903387176,1709
1973.3234115920136,1594
1975.268445082395,1636
1977.2130041256642,1695
1979.1570889892423,1727
1981.1006999406304,1680
1983.04383724741,1721
1984.986501177238,1703
1986.928691997853,1644
1988.8704099770712,1665
1990.811655382789,1682
1992.7524284829801,1665
1994.692729545698,1691
1996.6325588390755,1666
1998.5719166313224,1653
2000.5108031907307,1589
2002.4492187856677,1651
2004.387163684583,1708
2006.3246381560011,1654
2008.2616424685298,1733
2010.1981768908527,1751
2012.1342416917332,1632
2014.069837140014,1627
2016.0049635046162,1643
2017.9396210545406,1668
2019.8738100588666,1700
2021.8075307867502,1668
2023.740783507431,1648
2025.6735684902228,1670
2027.6058860045214,1604
2029.5377363198004,1649
2031.4691197056118,1614
2033.4000364315875,1687
2035.3304867674374,1649
2037.260470982952,1585
2039.189989347998,1644
2041.1190421325232,1619
2043.047629606554,1640
2044.9757520401945,1655
2046.9034097036288,1599
2048.8306028671195,1656
2050.7573318010086,1624
2052.683596775716,1630
2054.609398061742,1648
2056.5347359296647,1623
2058.4596106501403,1659
2060.384022493906,1642
2062.3079717317764,1583
2064.231458634646,1575
2066.1544834734873,1618
2068.077046519352,1657
2069.99914804337,1664
2071.9207883167524,1616
2073.8419676107865,1640
2075.7626861968406,1672
2077.6829443463607,1660
2079.6027423308715,1599
2081.522080421977,1641
2083.440958891362,1667
2085.359378010786,1527
2087.2773380520907,1603
2089.194839287196,1569
2091.111881988101,1624
2093.0284664268825,1624
2094.9445928756973,1635
2096.86026160678,1646
2098.775472892446,1582
2100.690227005088,1567
2102.604524217178,1586
2104.5183648012676,1690
2106.431749029985,1724
2108.34467717604,1579
2110.2571495122206,1654
2112.169166311393,1622
2114.080727846503,1701
2115.9918343905747,1575
2117.902486216711,1636
2119.8126835980956,1618
2121.722426807987,1635
2123.6317161197285,1667
2125.5405518067364,1668
2127.448934142509,1658
2129.356863400624,1663
2131.264339854737,1708
2133.1713637785815,1691
2135.077935445972,1709
2136.9840551308002,1707
2138.889723107037,1692
2140.7949396487334,1705
2142.699705030018,1650
2144.6040195250994,1688
2146.507883408264,1681
2148.4112969538774,1691
2150.3142604363848,1658
2152.2167741303097,1680
2154.1188383102535,1686
2156.0204532508997,1663
2157.9216192270064,1728
2159.822336513414,1707
2161.7226053850413,1701
2163.622426116884,1664
2165.5217989840185,1723
2167.4207242616,1733
2169.319202224862,1763
2171.2172331491165,1761
2173.1148173097563,1760
2175.0119549822507,1733
2176.90864644215,1675
2178.8048919650823,1739
2180.7006918267534,1832
2182.596046302952,1763
2184.4909556695407,1749
2186.3854202024645,1722
2188.279440177746,1707
2190.173015871487,1791
2192.066147559868,1729
2193.958835519149,1813
2195.851080025667,1759
2197.7428813558417,1707
2199.6342397861667,1826
2201.5251555932186,1744
2203.415629053651,1741
2205.3056604441986,1830
2207.19525004167,1816
2209.084398122958,1821
2210.9731049650327,1897
2212.861370844941,1808
2214.749196039812,1833
2216.636580826851,1747
2218.523525483344,1833
2220.410030286655,1884
2222.296095514226,1896
2224.1817214435805,1814
2226.066908352319,1796
2227.951656518121,1814
2229.835966218746,1795
2231.71983773203,1785
2233.6032713358913,1847
2235.486267308324,1804
2237.3688259274036,1803
2239.2509474712824,1852
2241.132632218193,1848
2243.013880446447,1825
2244.8946924344323,1806
2246.7750684606203,1817
2248.6550088035574,1834
2250.534513741871,1777
2252.413583554265,1754
2254.292218519526,1848
2256.170418916517,1727
2258.0481850241786,1796
2259.925517121534,1802
2261.8024154876825,1789
2263.678880401803,1785
2265.5549121431536,1804
2267.430510991071,1797
2269.305677224971,1819
2271.180411124348,1778
2273.0547129687766,1826
2274.9285830379076,1719
2276.8020216114737,1746
2278.6750289692845,1773
2280.5476053912294,1722
2282.4197511572766,1778
2284.2914665474727,1763
2286.162751841943,1864
2288.0336073208937,1839
2289.904033264608,1930
2291.774029953448,1907
2293.6435976678554,1856
2295.5127366883517,1786
2297.381447295534,1723
2299.2497297700825,1680
2301.1175843927526,1662
2302.9850114443825,1582
2304.852011205885,1603
2306.7185839582553,1550
2308.5847299825664,1549
2310.4504495599676,1546
2312.3157429716925,1494
2314.1806104990483,1510
2316.0450524234247,1490
2317.9090690262888,1505
2319.772660589186,1560
2321.635827393742,1489
2323.498569721661,1443
2325.3608878547248,1523
2327.2227820747967,1430
2329.0842526638157,1452
2330.945299903803,1495
2332.805924076857,1476
2334.6661254651535,1460
2336.525904350951,1496
2338.3852610165827,1514
2340.244195744464,1548
2342.102708817088,1487
2343.9608005170253,1445
2345.8184711269287,1474
2347.675720929526,1519
2349.532550207628,1468
2351.38895924412,1477
2353.24494832197,1493
2355.100517724223,1478
2356.955667734004,1482
2358.810398634514,1498
2360.664710709037,1538
2362.5186042409337,1494
2364.3720795136437,1502
2366.225136810686,1563
2368.0777764156583,1524
2369.929998612237,1505
2371.7818036841777,1439
2373.633191915315,1458
2375.484163589562,1516
2377.3347189909114,1509
2379.184858403434,1543
2381.03458211128,1502
2382.8838903986775,1514
2384.732783549936,1551
2386.5812618494406,1492
2388.4293255816588,1491
2390.2769750311327,1532
2392.1242104824883,1597
2393.971032220427,1512
2395.8174405297295,1476
2397.6634356952563,1557
2399.509018001947,1570
2401.3541877348193,1502
2403.1989451789705,1548
2405.043290619576,1486
2406.8872243418905,1505
2408.730746631247,1540
2410.5738577730594,1578
2412.4165580528183,1581
2414.258847756095,1572
2416.100727168537,1481
2417.9421965758734,1563
2419.783256263912,1509
2421.623906518538,1514
2423.4641476257157,1547
2425.303979871491,1559
2427.143403541984,1563
2428.9824189233977,1583
2430.821026302012,1468
2432.6592259641866,1550
2434.497018196361,1573
2436.33440328505,1521
2438.171381516851,1533
2440.00795317844,1585
2441.844118556569,1522
2443.6798779380724,1512
2445.5152316098606,1520
2447.3501798589255,1520
2449.1847229723357,1558
2451.0188612372403,1532
2452.8525949408663,1547
2454.6859243705203,1501
2456.518849813587,1589
2458.3513715575314,1494
2460.183489889895,1541
2462.015205098301,1506
2463.8465174704493,1558
2465.67742729412,1589
2467.5079348571717,1526
2469.338040447542,1509
2471.1677443532476,1594
2472.9970468623833,1578
2474.825948263123,1534
2476.6544488437207,1612
2478.482548892508,1566
2480.310248697896,1553
2482.137548548374,1569
2483.9644487325118,1549
2485.790949538956,1564
2487.617051256433,1534
2489.44275417375,1576
2491.26805857979,1597
2493.0929647635157,1635
2494.917473013971,1550
2496.741583620276,1537
2498.5652968716304,1625
2500.3886130573137,1540
2502.2115324666834,1586
2504.0340553891765,1604
2505.856182114308,1575
2507.6779129316733,1579
2509.499248130945,1576
2511.3201880018764,1559
2513.140732834298,1588
2514.9608829181198,1647
2516.780638543331,1620
2518.6,1552
2520.418967578273,1561
2522.237541568376,1640
2524.0557222606144,1610
2525.8735099453706,1644
2527.6909049131086,1586
2529.507907454368,1676
2531.32451785977,1579
2533.140736420014,1593
2534.9565634258774,1681
2536.771999168218,1650
2538.5870439379714,1684
2540.4016980261526,1657
2542.2159617238544,1682
2544.02983532225,1679
2545.8433191125914,1642
2547.656413386209,1654
2549.4691184345115,1593
2551.2814345489874,1568
2553.093362021204,1718
2554.904901142808,1744
2556.716052205523,1677
2558.526815501153,1721
2560.3371913215824,1783
2562.147179958771,1784
2563.956781704761,1762
2565.7659968516705,1741
2567.5748256916986,1821
2569.3832685171224,1816
2571.1913256202984,1761
2572.9989972936614,1737
2574.806283829725,1817
2576.613185521084,1771
2578.4197026604074,1742
2580.2258355404483,1865
2582.031584454035,1791
2583.836949694077,1826
2585.6419315535613,1801
2587.4465303255533,1832
2589.2507463032002,1808
2591.0545797797245,1864
2592.8580310484303,1899
2594.6611004026995,1914
2596.463788135992,1893
2598.266094541849,1867
2600.0680199138874,1854
2601.869564545807,1916
2603.670728731383,1952
2605.4715127644704,1962
2607.2719169390048,1912
2609.071941548998,1926
2610.8715868885433,1892
2612.670853251811,1926
2614.469740933052,1924
2616.268250226594,1890
2618.0663814268455,1913
2619.864134828292,1893
2621.6615107255006,1849
2623.458509413115,1862
2625.2551311858597,1870
2627.0513763385347,1790
2628.8472451660223,1883
2630.6427379632833,1866
2632.4378550253564,1816
2634.232596647359,1819
2636.026963124488,1756
2637.8209547520187,1763
2639.6145718253065,1787
2641.407814639785,1798
2643.200683490966,1794
2644.9931786744414,1742
2646.7853004858807,1698
2648.577049221034,1776
2650.3684251757277,1797
2652.1594286458712,1695
2653.9500599274484,1722
2655.740319316525,1708
2657.5302071092437,1703
2659.3197236018286,1727
2661.10886909058,1677
2662.8976438718782,1719
2664.686048242183,1631
2666.4740824980327,1648
2668.2617469360443,1670
2670.0490418529134,1663
2671.8359675454153,1683
2673.622524310403,1643
2675.408712444811,1621
2677.1945322456495,1649
2678.979984010009,1588
2680.76506803506,1595
2682.5497846180497,1601
2684.334134056306,1591
2686.1181166472343,1527
2687.9017326883213,1535
2689.6849824771293,1547
2691.4678663113013,1591
2693.2503844885596,1519
2695.032537306705,1559
2696.8143250636167,1605
2698.5957480572542,1575
2700.3768065856534,1512
2702.1575009469316,1575
2703.937831439283,1603
2705.717798360982,1558
2707.4974020103837,1552
2709.276642685917,1590
2711.055520686095,1544
2712.834036309506,1501
2714.612189854819,1577
2716.389981620782,1535
2718.1674119062204,1518
2719.944481010041,1486
2721.721189231226,1515
2723.4975368688415,1565
2725.273524222027,1494
2727.0491515900053,1556
2728.824419272075,1476
2730.5993275676146,1486
2732.3738767760838,1481
2734.148067197016,1511
2735.921899130031,1492
2737.6953728748194,1518
2739.468488731156,1470
2741.2412469988926,1524
2743.0136479779617,1546
2744.785691968372,1457
2746.5573792702116,1485
2748.3287101836504,1490
2750.099685008934,1434
2751.870304046388,1505
2753.640567596418,1486
2755.4104759595057,1460
2757.1800294362156,1427
2758.949228327187,1484
2760.7180729331412,1493
2762.486563554877,1494
2764.254700493272,1533
2766.022484049284,1524
2767.789914523947,1477
2769.5569922183786,1488
2771.3237174337705,1477
2773.090090471394,1424
2774.8561116326036,1510
2776.6217812188274,1498
2778.3870995315756,1506
2780.1520668724356,1585
2781.9166835430747,1519
2783.6809498452394,1575
2785.444866080754,1481
2787.2084325515225,1470
2788.971649559527,1491
2790.73451740683,1473
2792.4970363955713,1501
2794.2592068279705,1458
2796.0210290063264,1503
2797.7825032330147,1479
2799.543629810493,1473
2801.304409041296,1436
2803.0648412280366,1501
2804.8249266734088,1464
2806.5846656801846,1497
2808.344058551212,1505
2810.1031055894246,1516
2811.8618070978273,1444
2813.6201633795085,1488
2815.378174737636,1502
2817.1358414754536,1537
2818.893163896285,1509
2820.6501423035334,1500
2822.4067770006814,1480
2824.1630682912883,1559
2825.9190164789957,1530
2827.6746218675207,1535
2829.429884760661,1450
2831.184805462294,1441
2832.9393842763743,1497
2834.693621506936,1504
2836.4475174580916,1479
2838.201072434034,1441
2839.954286739034,1474
2841.707160677441,1493
2843.459694553685,1519
2845.2118886722724,1531
2846.96374333779,1478
2848.7152588549034,1479
2850.4664355283567,1509
2852.217273662973,1520
2853.9677735636546,1569
2855.7179355353833,1476
2857.4677598832186,1558
2859.217246912299,1584
2860.9663969278427,1555
2862.715210235146,1483
2864.4636871395846,1516
2866.211827946614,1507
2867.9596329617652,1438
2869.7071024906536,1465
2871.4542368389684,1458
2873.20103631248,1454
2874.947501217038,1456
2876.6936318585695,1535
2878.4394285430812,1462
2880.1848915766604,1468
2881.9300212654707,1466
2883.6748179157553,1499
2885.4192818338374,1547
2887.1634133261173,1473
2888.907212699077,1538
2890.6506802592744,1480
2892.393816313348,1486
2894.1366211680142,1487
2895.8790951300693,1506
2897.621238506388,1492
2899.363051603925,1504
2901.1045347297118,1474
2902.8456881908596,1456
2904.58651229456,1431
2906.327007348081,1501
2908.067173658772,1528
2909.8070115340597,1427
2911.5465212814497,1512
2913.285703208527,1461
2915.0245576229563,1448
2916.7630848324807,1494
2918.5012851449196,1508
2920.2391588681758,1485
2921.976706310227,1503
2923.7139277791334,1501
2925.4508235830313,1485
2927.187394030137,1447
2928.923639428745,1530
2930.6595600872306,1516
2932.395156314046,1501
2934.1304284177218,1501
2935.8653767068713,1473
2937.6000014901815,1525
2939.3343030764227,1466
2941.068281774442,1479
2942.8019378931644,1535
2944.5352717415976,1490
2946.2682836288236,1476
2948.0009738640065,1509
2949.7333427563885,1493
2951.465390615289,1481
2953.1971177501086,1451
2954.9285244703265,1532
2956.6596110855,1455
2958.3903779052657,1523
2960.1208252393385,1503
2961.8509533975125,1512
2963.5807626896617,1502
2965.3102534257378,1493
2967.0394259157715,1488
2968.768280469873,1484
2970.496817398232,1555
2972.2250370111146,1524
2973.952939618869,1516
2975.6805255319196,1496
2977.4077950607707,1544
2979.134748516006,1559
2980.861386208289,1577
2982.587708448359,1469
2984.313715547037,1481
2986.039407815222,1471
2987.764785563891,1462
2989.489849104102,1468
2991.2145987469908,1445
2992.9390348037705,1445
2994.6631575857346,1430
2996.3869674042576,1458
2998.1104645707887,1461
2999.83364939686,1533
3001.5565221940783,1538
3003.2790832741334,1458
3005.0013329487924,1515
3006.7232715298996,1457
3008.4448993293804,1446
3010.166216659239,1432
3011.887223831558,1438
3013.607921158498,1467
3015.3283089522993,1525
3017.0483875252826,1455
3018.7681571898443,1500
3020.4876182584626,1458
3022.2067710436927,1514
3023.9256158581707,1465
3025.644153014609,1440
3027.362382825801,1431
3029.0803056046193,1519
3030.797921664012,1456
3032.5152313170106,1518
3034.2322348767225,1490
3035.9489326563353,1440
3037.665324969115,1432
3039.3814121284063,1490
3041.097194447633,1503
3042.812672240299,1465
3044.5278458199855,1520
3046.2427155003525,1503
3047.9572815951406,1484
3049.671544418167,1536
3051.38550428333,1513
3053.0991615046073,1517
3054.812516396051,1510
3056.5255692717974,1555
3058.2383204460575,1517
3059.9507702331257,1495
3061.662918947372,1503
3063.3747669032446,1494
3065.0863144152736,1485
3066.7975617980674,1440
3068.508509366309,1509
3070.219157434767,1512
3071.9295063182844,1436
3073.639556331785,1494
3075.3493077902704,1467
3077.058761008821,1495
3078.7679163025964,1445
3080.476773986837,1441
3082.1853343768594,1412
3083.89359778806,1476
3085.6015645359153,1494
3087.3092349359786,1484
3089.016609303884,1470
3090.7236879553434,1474
3092.4304712061476,1508
3094.136959372166,1499
3095.843152769349,1486
3097.5490517137237,1511
3099.2546565213966,1496
3100.959967508554,1481
3102.66498499146,1469
3104.3697092864577,1502
3106.0741407099695,1441
3107.778279578498,1494
3109.482126208622,1538
3111.1856809170004,1438
3112.8889440203716,1485
3114.5919158355528,1425
3116.294596679439,1446
3117.996986869006,1481
3119.6990867213062,1514
3121.4008965534726,1500
3123.102416682717,1509
3124.803647426329,1556
3126.5045891016784,1507
3128.205242026213,1512
3129.90560651746,1506
3131.605682893025,1508
3133.3054714705922,1491
3135.0049725679282,1524
3136.7041865028714,1476
3138.4031135933465,1543
3140.101754157353,1489
3141.800108512971,1480
3143.498176978357,1476
3145.1959598717494,1524
3146.8934575114636,1507
3148.5906702158954,1454
3150.2875983035183,1500
3151.9842420928853,1482
3153.680601902627,1513
3155.376678051456,1449
3157.07247085816,1375
3158.767980641609,1503
3160.463207720748,1430
3162.158152414606,1534
3163.8528150422862,1520
3165.5471959229726,1437
3167.2412953759303,1450
3168.9351137204976,1481
3170.628651276098,1509
3172.3219083622307,1477
3174.014885298474,1494
3175.707582404485,1533
3177.4000000000005,1472
3179.092138404835,1403
3180.7839979388846,1431
3182.47557892212,1477
3184.166881674594,1482
3185.8579065164386,1487
3187.5486537678626,1475
3189.2391237491547,1489
3190.9293167806827,1511
3192.6192331828934,1384
3194.3088732763117,1559
3195.998237381542,1466
3197.687325819268,1477
3199.376138910251,1516
3201.064676975334,1464
3202.7529403354347,1470
3204.4409293115523,1454
3206.1286442247647,1421
3207.816085396229,1377
3209.5032531471825,1442
3211.190147798936,1489
3212.8767696728846,1397
3214.5631190905015,1426
3216.2491963733373,1482
3217.9350018430214,1473
3219.6205358212637,1396
3221.305798629851,1451
3222.990790590651,1433
3224.6755120256103,1425
3226.359963256751,1460
3228.0441446061795,1388
3229.7280563960758,1450
3231.411698948703,1492
3233.0950725863995,1406
3234.778177631587,1465
3236.461014406761,1456
3238.1435832345005,1365
3239.8258844374595,1459
3241.507918338374,1466
3243.1896852600576,1481
3244.8711855254023,1486
3246.552419457381,1478
3248.233387379042,1453
3249.914089613516,1449
3251.59452648401,1421
3253.274698313813,1515
3254.95460542629,1444
3256.6342481448855,1475
3258.313626793125,1501
3259.9927416946084,1384
3261.6715931730196,1400
3263.3501815521176,1468
3265.0285071557437,1409
3266.706570307815,1429
3268.3843713323286,1417
3270.0619105533615,1421
3271.739188295068,1422
3273.4162048816834,1483
3275.0929606375184,1418
3276.769455886966,1428
3278.445690954498,1477
3280.1216661646613,1447
3281.797381842087,1464
3283.4728383114807,1470
3285.1480358976296,1472
3286.8229749253996,1510
3288.4976557197333,1475
3290.172078605655,1428
3291.846243908266,1470
3293.5201519527463,1479
3295.193803064357,1417
3296.8671975684374,1468
3298.5403357904024,1427
3300.21321805575,1490
3301.8858446900567,1472
3303.558216018975,1472
3305.23033236824,1501
3306.9021940636603,1424
3308.57380143113,1449
3310.2451547966184,1524
3311.916254486174,1507
3313.5871008259246,1470
3315.2576941420766,1499
3316.9280347609147,1463
3318.5981230088046,1406
3320.2679592121895,1476
3321.9375436975924,1419
3323.606876791612,1457
3325.27595882093,1420
3326.944790112305,1397
3328.6133709925753,1412
3330.2817017886573,1440
3331.949782827547,1409
3333.617614436319,1461
3335.2851969421245,1461
3336.952530672199,1453
3338.619615953853,1541
3340.286453114475,1383
3341.9530424815357,1417
3343.619384382583,1452
3345.2854791452437,1514
3346.951327097224,1445
3348.6169285663073,1466
3350.2822838803577,1496
3351.947393367319,1446
3353.61225735521,1487
3355.2768761721345,1454
3356.9412501462693,1455
3358.605379605873,1457
3360.2692648792827,1433
3361.9329062949146,1450
3363.596304181263,1486
