CollectionTime,7/9/2024 11:04:35 AM
ExposureUsed,3
CalibratedSpectrum
-962.7078968117929,567
-959.9714848408522,601
-957.2358232597828,644
-954.5009119013725,623
-951.7667505983302,607
-949.0333391832855,618
-946.3006774887896,626
-943.5687653473143,650
-940.837602591253,646
-938.1071890529199,600
-935.3775245645503,653
-932.6486089583007,625
-929.9204420662485,653
-927.1930237203925,659
-924.4663537526524,656
-921.7404319948689,663
-919.0152582788041,653
-916.2908324361409,707
-913.5671542984834,632
-910.8442236973568,628
-908.1220404642074,634
-905.4006044304027,661
-902.679915427231,649
-899.959973285902,635
-897.2407778375464,620
-894.5223289132158,635
-891.8046263438832,621
-889.0876699604426,620
-886.3714595937089,622
-883.6559950744183,645
-880.9412762332282,617
-878.2273029007168,620
-875.5140749073835,627
-872.8015920836489,618
-870.0898542598545,617
-867.3788612662631,610
-864.6686129330585,642
-861.9591090903457,653
-859.2503495681506,686
-856.5423341964203,643
-853.8350628050229,631
-851.1285352237478,597
-848.4227512823054,631
-845.7177108103272,610
-843.0134136373656,622
-840.3098595928943,671
-837.6070485063082,676
-834.9049802069229,622
-832.2036545239757,645
-829.5030712866244,660
-826.8032303239481,640
-824.1041314649472,657
-821.4057745385428,657
-818.7081593735775,634
-816.0112857988148,624
-813.3151536429393,618
-810.6197627345566,643
-807.9251129021936,648
-805.2312039742981,629
-802.5380357792392,620
-799.8456081453069,645
-797.1539209007124,670
-794.462973873588,674
-791.772766891987,703
-789.083299783884,633
-786.3945723771743,653
-783.7065844996748,636
-781.0193359791231,641
-778.3328266431781,629
-775.6470563194197,694
-772.9620248353489,671
-770.2777320183878,627
-767.5941776958798,663
-764.9113616950891,705
-762.2292838432011,670
-759.5479439673222,648
-756.8673418944801,623
-754.1874774516235,667
-751.5083504656222,690
-748.8299607632671,665
-746.15230817127,712
-743.475392516264,702
-740.7992136248035,711
-738.1237713233636,667
-735.4490654383407,693
-732.7750957960521,676
-730.1018622227365,694
-727.4293645445534,705
-724.7576025875837,676
-722.0865761778291,685
-719.4162851412126,682
-716.7467293035781,728
-714.0779084906909,706
-711.409822528237,688
-708.7424712418238,699
-706.0758544569796,722
-703.4099719991541,732
-700.7448236937178,731
-698.0804093659622,751
-695.4167288411002,720
-692.7537819442656,706
-690.0915685005134,711
-687.4300883348199,734
-684.7693412720819,707
-682.1093271371178,713
-679.4500457546669,741
-676.7914969493897,698
-674.1336805458676,701
-671.4765963686034,759
-668.8202442420206,719
-666.1646239904642,752
-663.5097354382001,754
-660.8555784094151,743
-658.2021527282176,705
-655.5494582186366,750
-652.8974947046223,722
-650.2462620100463,770
-647.5957599587009,750
-644.9459883742998,770
-642.2969470804776,740
-639.6486359007902,790
-637.0010546587141,761
-634.3542031776476,783
-631.7080812809096,749
-629.0626887917401,778
-626.4180255333008,786
-623.7740913286734,777
-621.1308860008619,771
-618.4884093727904,781
-615.8466612673046,776
-613.2056415071715,744
-610.5653499150785,761
-607.9257863136347,795
-605.28695052537,793
-602.6488423727357,803
-600.0114616781036,764
-597.3748082637674,803
-594.7388819519412,810
-592.1036825647604,825
-589.4692099242818,824
-586.8354638524829,842
-584.2024441712624,802
-581.5701507024403,812
-578.9385832677575,810
-576.3077416888759,811
-573.6776257873787,842
-571.0482353847704,772
-568.4195703024757,813
-565.7916303618415,781
-563.164415384135,786
-560.5379251905453,799
-557.9121596021815,777
-555.2871184400748,802
-552.6628015251767,814
-550.0392086783606,797
-547.4163397204204,818
-544.794194472071,868
-542.1727727539491,853
-539.5520743866118,858
-536.9320991905377,879
-534.3128469861261,927
-531.6943175936979,916
-529.0765108334947,927
-526.4594265256793,981
-523.8430644903358,1112
-521.2274245474689,1241
-518.612506517005,1300
-515.9983102187913,1231
-513.3848354725959,1216
-510.77208209810846,1163
-508.16004991493924,1296
-505.5487387426199,1404
-502.9381484006032,1552
-500.3282787082628,1592
-497.71912948489364,1570
-495.1107005497117,1616
-492.5029917218539,1497
-489.8960028203786,1359
-487.28973366426493,1270
-484.68418407241325,1162
-482.07935386364494,1102
-479.47524285670266,1084
-476.87185087025,1035
-474.2691777228715,1004
-471.66722323307334,1097
-469.0659872192821,1071
-466.4654694998459,995
-463.86566989303384,1033
-461.26658821703614,1047
-458.66822428996414,1004
-456.07057792985,963
-453.4736489546475,992
-450.877437182231,978
-448.28194243039627,961
-445.68716451686,986
-443.09310325926003,1018
-440.49975847515555,974
-437.9071299820263,1011
-435.31521759727354,1015
-432.72402113821954,996
-430.13354042210767,1001
-427.5437752661022,1027
-424.95472548728867,1061
-422.36639090267386,1016
-419.7787713291855,1080
-417.1918665836721,1132
-414.60567648290385,1084
-412.0202008435715,1058
-409.4354394822874,1097
-406.8513922155845,1144
-404.26805885991723,1119
-401.685439231661,1061
-399.103533147112,1098
-396.522340422488,1093
-393.9418608739278,1114
-391.3620943174908,1061
-388.7830405691583,1069
-386.2046994448317,1028
-383.6270707603344,979
-381.05015433141045,933
-378.473949973725,853
-375.8984575028645,844
-373.32367673433623,724
-370.74960748356875,689
-368.1762495659117,683
-365.60360279663576,656
-363.03166699093265,593
-360.4604419639154,564
-357.8899275306178,560
-355.32012350599507,554
-352.7510297049233,497
-350.1826459421999,462
-347.61497203254316,464
-345.04800779059235,466
-342.4817530309082,525
-339.91620756797226,528
-337.35137121618743,476
-334.7872437898774,478
-332.22382510328725,513
-329.66111497058273,507
-327.09911320585127,499
-324.53781962310075,538
-321.9772340362607,505
-319.4173562591816,477
-316.8581861056348,490
-314.2997233893127,494
-311.7419679238294,485
-309.1849195227194,485
-306.62857799943856,526
-304.0729431673641,572
-301.51801483979375,576
-298.963792829947,536
-296.41027695096386,598
-293.85746701590574,584
-291.3053628377552,644
-288.7539642294155,653
-286.2032710037115,547
-283.65328297338897,549
-281.1039999511146,597
-278.5554217494762,637
-276.007548180983,560
-273.4603790580651,573
-270.9139141930734,573
-268.3681533982807,578
-265.8230964858798,629
-263.27874326798565,632
-260.7350935566336,645
-258.1921471637804,635
-255.6499039013039,666
-253.10836358100266,681
-250.56752601459698,615
-248.02739101372765,648
-245.48795838995704,681
-242.94922795476816,672
-240.41119951956557,682
-237.8738728956746,791
-235.33724789434166,797
-232.80132432673452,693
-230.2661020039418,661
-227.73158073697357,651
-225.19776033676033,720
-222.66464061415422,788
-220.1322213799284,677
-217.60050244477725,638
-215.06948361931552,680
-212.53916471408013,779
-210.00954553952818,764
-207.48062590603843,743
-204.9524056239104,710
-202.4248845033651,851
-199.8980623545441,832
-197.37193898751036,748
-194.84651421224817,778
-192.32178783866232,772
-189.79775967657952,781
-187.27442953574644,860
-184.7517972258321,952
-182.2298625564256,906
-179.7086253370378,761
-177.18808537710026,763
-174.66824248596583,857
-172.14909647290835,901
-169.6306471471229,926
-167.11289431772548,888
-164.59583779375328,980
-162.07947738416453,908
-159.5638128978386,922
-157.04884414357605,1182
-154.53457093009854,1281
-152.02099306604828,1228
-149.50811035998936,939
-146.99592262040665,969
-144.48442965570587,932
-141.97363127421409,1036
-139.46352728417958,1224
-136.95411749377126,1456
-134.44540171107985,1374
-131.93737974411636,1154
-129.43005140081357,1246
-126.92341648902493,1551
-124.41747481652521,1534
-121.91222619101006,1647
-119.40767042009657,2180
-116.90380731132257,2510
-114.40063667214702,2155
-111.8981583099503,1709
-109.3963720320337,1872
-106.89527764561933,2699
-104.39487495785067,3328
-101.89516377579241,3824
-99.39614390642998,3886
-96.89781515667039,4020
-94.40017733334128,4385
-91.90323024319173,4896
-89.40697369289148,5837
-86.91140748903172,6522
-84.41653143812482,6456
-81.92234534660395,4639
-79.42884902082358,4398
-76.93604226705907,6805
-74.4439248915071,11789
-71.95249670028534,14759
-69.46175749943245,16375
-66.97170709490854,15034
-64.48234529259423,12887
-61.99367189829195,10737
-59.50568671772464,9035
-57.01838955653636,8148
-54.53178022029283,7850
-52.045858514480074,6795
-49.560624244506016,7469
-47.07607721569923,8079
-44.59221723330904,8394
-42.10904410250669,8604
-39.62655762838392,8692
-37.14475761595372,8901
-34.66364387015028,8439
-32.18321619582866,8354
-29.70347439776515,8793
-27.224418280657005,9444
-24.74604764912317,11329
-22.26836230770266,18269
-19.7913620608565,35588
-17.315046712966478,65041
-14.83941606833514,65041
-12.36446993118659,65041
-9.89020810566592,65041
-7.416630395839093,65041
-4.94373660569363,65041
-2.471526539137585,65041
-6.821210263296962E-13,65041
2.47084320796705,65041
4.941003281093458,65041
7.410480415786196,65041
9.879274808531363,65041
12.347386655893956,65041
14.814816154518212,65041
17.28156350112681,65041
19.74762889252179,65041
22.21301252558385,65041
24.67771459727237,21615
27.141735304626195,4309
29.605074844762612,2557
32.06773341487792,2107
34.52971121224755,2098
36.99100843422559,2160
39.45162527824516,2039
41.91156194181792,1931
44.370818622535126,1719
46.82939551806646,1441
49.287292826160524,1461
51.74451074464503,1391
54.201049471426245,1442
56.65690920448981,1396
59.112090141899785,1210
61.56659248179983,1225
64.02041642241159,1187
66.4735621620365,1237
68.92602989905402,1140
71.37781983192338,1128
73.82893215918205,1139
76.27936707944684,1203
78.72912479141326,1544
81.17820549385567,1512
83.62660938562783,1257
86.07433666566146,1096
88.5213875329681,920
90.96776218663751,951
93.41346082583925,1053
95.85848364982041,1109
98.30283085790859,1300
100.7465026495089,1263
103.18949922410604,1167
105.63182078126385,1140
108.07346752062438,1171
110.51443964190923,1078
112.95473734491827,1011
115.39436082953114,1194
117.83331029570547,1067
120.27158594347827,948
122.7091879729652,1169
125.1461165843615,1226
127.58237197794062,1092
130.01795435405518,1000
132.4528639131364,949
134.88710085569494,933
137.32066538231982,876
139.75355769367923,904
142.1857779905207,976
144.61732647366978,931
147.04820334403132,960
149.47840880258934,1010
151.90794305040674,1042
154.33680628862487,1221
156.76499871846443,1516
159.19252054122433,1610
161.61937195828352,1756
164.04555317109896,1922
166.47106438120693,2013
168.89590579022217,2317
171.320077599839,2454
173.7435800118302,2590
176.16641322804742,2697
178.58857745042144,2908
181.01007288096173,3038
183.43089972175687,2960
185.85105817497413,3038
188.27054844285988,3048
190.6893707277394,3044
193.10752523201643,3127
195.5250121581745,3106
197.9418317087751,3175
200.3579840864594,3252
202.7734694939469,3182
205.18828813403627,3191
207.6024402096051,3282
210.01592592360964,3201
212.42874547908548,3340
214.84089907914665,3271
217.2523869269868,3133
219.66320922587727,3244
222.0733661791695,3153
224.48285799029293,3116
226.8916848627572,3061
229.29984700014882,3167
231.7073446061355,3239
234.11417788446204,3121
236.520347038953,3078
238.92585227351185,3174
241.33069379212054,3206
243.73487179884035,3169
246.1383864978112,3158
248.541238093252,3146
250.9434267894609,3197
253.34495279081432,3284
255.74581630176783,3203
258.1460175268563,3186
260.54555667069314,3135
262.9444339379703,3256
265.3426495334594,3083
267.7402036620107,3031
270.1370965285529,2897
272.53332833809407,2897
274.9288992957214,2968
277.32380960660055,2950
279.718059475976,2883
282.1116491091717,2913
284.5045787115897,2826
286.89684848871195,2869
289.2884586460981,2860
291.67940938938807,2980
294.0697009242996,2914
296.4593334566299,2907
298.84830719225477,2887
301.23662233712923,2884
303.6242790972866,2725
306.01127767884,2815
308.39761828798066,2816
310.78330113097934,2749
313.16832641418534,2677
315.5526943440269,2654
317.9364051270112,2659
320.3194589697242,2658
322.70185607883093,2698
325.0835966610754,2640
327.4646809232805,2608
329.8451090723478,2559
332.2248813152577,2574
334.6039978590701,2576
336.9824589109231,2405
339.36026467803447,2537
341.7374153677,2460
344.113911187295,2482
346.48975234427337,2457
348.8649390461686,2453
351.2394715005918,2542
353.61334991523415,2565
355.9865744978655,2407
358.35914545633375,2447
360.73106299856715,2478
363.10232733257146,2456
365.47293866643247,2393
367.84289720831396,2406
370.2122031664593,2387
372.5808567491905,2349
374.9488581649083,2338
377.31620762209275,2419
379.6829053293021,2309
382.0489514951745,2324
384.4143463284262,2272
386.7790900378528,2304
389.14318283232853,2278
391.50662492080653,2384
393.86941651231916,2391
396.23155781597745,2385
398.5930490409713,2336
400.9538903965696,2369
403.3140820921202,2297
405.6736243370498,2288
408.03251734086336,2301
410.3907613131465,2287
412.74835646356166,2240
415.10530300185144,2270
417.4616011378372,2288
419.81725108141893,2315
422.1722530425758,2256
424.5266072313656,2228
426.880313857925,2236
429.2333731324701,2145
431.58578526529516,2210
433.9375504667738,2290
436.2886689473588,2259
438.63914091758113,2242
440.9889665880513,2166
443.33814616945835,2209
445.68667987257015,2174
448.03456790823395,2217
450.3818104873759,2186
452.72840782100013,2198
455.07436012019105,2268
457.41966759611057,2223
459.7643304600007,2224
462.10834892318155,2314
464.4517231970525,2175
466.79445349309174,2189
469.1365400228566,2227
471.4779829979826,2247
473.81878263018564,2289
476.15893913125876,2335
478.4984527130747,2261
480.8373235875855,2339
483.17555196682144,2402
485.5131380628919,2516
487.8500820879857,2585
490.1863842543697,2712
492.52204477439034,2904
494.8570638604725,3243
497.1914417251204,3493
499.52517858091653,3620
501.85827464052306,3667
504.19073011668036,3668
506.5225452222086,3602
508.85372017000566,3455
511.18425517304956,3412
513.514150444396,3589
515.8434061971808,4511
518.1720226446176,5541
520.4999999999999,5781
522.8273384766991,5448
525.1540382881666,4880
527.480099647932,4324
529.8055227696037,3650
532.1303078668694,2969
534.454455153496,2577
536.777964843328,2476
539.1008371502907,2410
541.4230722883866,2368
543.744670471698,2398
546.0656319143858,2361
548.3859568306899,2414
550.7056454349294,2364
553.0246979415016,2342
555.3431145648834,2285
557.6608955196306,2264
559.978041020377,2242
562.2945512818363,2357
564.6104265188006,2278
566.9256669461412,2270
569.2402727788082,2365
571.5542442318302,2362
573.8675815203156,2330
576.1802848594508,2320
578.4923544645015,2402
580.8037905508126,2362
583.114593333807,2400
585.4247630289875,2364
587.7342998519354,2313
590.0432040183106,2378
592.3514757438526,2307
594.6591152443794,2300
596.9661227357875,2417
599.2724984340531,2368
601.578242555231,2413
603.8833553154542,2378
606.1878369309362,2351
608.4916876179676,2270
610.7949075929192,2351
613.0974970722403,2272
615.3994562724587,2398
617.7007854101818,2317
620.0014847020951,2313
622.3015543649641,2301
624.6009946156324,2336
626.8998056710224,2275
629.1979877481361,2349
631.4955410640538,2284
633.7924658359349,2360
636.0887622810175,2350
638.3844306166192,2318
640.6794710601358,2360
642.9738838290426,2346
645.2676691408932,2369
647.5608272133207,2279
649.853358264037,2323
652.1452625108324,2405
654.4365401715764,2308
656.7271914642178,2323
659.0172166067838,2362
661.3066158173809,2341
663.5953893141935,2346
665.8835373154867,2349
668.1710600396028,2370
670.4579577049639,2312
672.7442305300709,2283
675.0298787335033,2344
677.3149025339197,2358
679.599302150058,2308
681.8830778007342,2315
684.1662297048437,2302
686.4487580813608,2373
688.7306631493387,2374
691.0119451279091,2403
693.2926042362834,2374
695.5726406937516,2335
697.8520547196814,2377
700.1308465335215,2430
702.4090163547982,2328
704.6865644031171,2347
706.9634908981619,2337
709.2397960596965,2288
711.5154801075631,2317
713.7905432616823,2357
716.0649857420548,2272
718.3388077687592,2277
720.612009561953,2313
722.8845913418733,2293
725.1565533288352,2295
727.427895743234,2329
729.6986188055427,2246
731.9687227363137,2358
734.238207756178,2333
736.5070740858458,2325
738.7753219461066,2371
741.0429515578281,2403
743.3099631419569,2362
745.5763569195191,2279
747.8421331116193,2276
750.1072919394409,2294
752.3718336242467,2323
754.6357583873777,2297
756.8990664502545,2356
759.1617580343765,2359
761.423833361321,2317
763.6852926527457,2348
765.9461361303862,2363
768.206364016058,2465
770.4659765316536,2329
772.7249738991469,2357
774.9833563405886,2349
777.2411240781092,2332
779.4982773339183,2397
781.7548163303044,2411
784.010741289634,2435
786.2660524343538,2439
788.5207499869881,2413
790.7748341701416,2407
793.0283052064964,2334
795.2811633188143,2403
797.5334087299362,2373
799.7850416627813,2415
802.0360623403484,2250
804.2864709857143,2386
806.5362678220353,2433
808.7854530725468,2420
811.0340269605625,2414
813.2819897094754,2369
815.5293415427581,2411
817.77608268396,2411
820.0222133567116,2437
822.2677337847211,2433
824.5126441917765,2461
826.7569448017433,2326
829.0006358385675,2378
831.2437175262731,2445
833.4861900889629,2362
835.7280537508192,2331
837.9693087361026,2418
840.2099552691533,2380
842.4499935743896,2348
844.689423876309,2380
846.9282463994886,2445
849.1664613685833,2403
851.4040690083276,2352
853.6410695435349,2392
855.877463199097,2307
858.1132501999847,2441
860.3484307712487,2369
862.5830051380175,2444
864.8169735254988,2381
867.0503361589791,2397
869.2830932638243,2469
871.5152450654786,2369
873.7467917894654,2450
875.9777336613873,2483
878.2080709069252,2469
880.4378037518389,2448
882.666932421968,2476
884.8954571432301,2488
887.1233781416219,2490
889.3506956432192,2452
891.5774098741766,2481
893.803521060728,2478
896.0290294291852,2481
898.2539352059397,2501
900.4782386174619,2473
902.7019398903011,2466
904.925039251085,2445
907.147536926521,2455
909.3694331433943,2462
911.59072812857,2473
913.8114221089921,2392
916.0315153116827,2385
918.2510079637437,2375
920.4699002923547,2405
922.6881925247761,2347
924.905884888345,2313
927.1229776104793,2514
929.3394709186747,2403
931.555365040506,2338
933.7706602036275,2408
935.9853566357709,2413
938.1994545647489,2397
940.4129542184515,2494
942.6258558248488,2370
944.8381596119883,2329
947.0498658079974,2430
949.2609746410825,2444
951.4714863395287,2475
953.6814011316998,2341
955.8907192460387,2398
958.0994409110671,2316
960.3075663553858,2314
962.5150958076741,2332
964.7220294966913,2313
966.928367651274,2305
969.1341105003388,2307
971.3392582728806,2293
973.5438111979742,2337
975.747769504772,2231
977.9511334225061,2248
980.153903180487,2233
982.3560790081052,2282
984.5576611348289,2237
986.7586497902058,2204
988.9590452038618,2188
991.158847605503,2224
993.3580572249133,2199
995.5566742919558,2239
997.7546990365728,2146
999.952131688785,2174
1002.1489724786926,2087
1004.3452216364743,2060
1006.5408793923874,2106
1008.7359459767691,1990
1010.9304216200343,2050
1013.1243065526781,1985
1015.3176010052733,2087
1017.510305208472,2021
1019.7024193930064,2029
1021.8939437896848,1992
1024.0848786293977,2041
1026.2752241431122,2027
1028.4649805618747,2001
1030.6541481168115,1940
1032.842727039127,1947
1035.0307175601051,1990
1037.2181199111074,1974
1039.4049343235752,2032
1041.591161029029,1970
1043.7768002590683,2002
1045.9618522453698,2023
1048.1463172196918,2018
1050.3301954138697,2006
1052.513487059818,2010
1054.69619238953,1955
1056.8783116350783,1975
1059.0598450286152,2055
1061.2407928023704,1987
1063.4211551886528,1993
1065.6009324198508,1915
1067.780124728432,2043
1069.9587323469414,2001
1072.1367555080046,1991
1074.314194444325,1961
1076.4910493886855,1970
1078.667320573947,1960
1080.843008233051,1922
1083.0181125990161,1873
1085.1926339049414,1866
1087.3665723840027,1845
1089.5399282694575,1924
1091.7127017946405,1939
1093.8848931929647,1837
1096.0565026979243,1873
1098.2275305430899,1873
1100.3979769621128,1874
1102.567842188722,1836
1104.737126456726,1893
1106.9058300000124,1901
1109.0739530525475,1893
1111.2414958483764,1869
1113.4084586216231,1876
1115.5748416064907,1846
1117.7406450372605,1908
1119.9058691482942,1801
1122.0705141740304,1800
1124.2345803489884,1801
1126.3980679077658,1869
1128.5609770850388,1805
1130.7233081155623,1831
1132.8850612341707,1842
1135.0462366757774,1854
1137.2068346753745,1811
1139.3668554680326,1850
1141.526299288901,1872
1143.68516637321,1815
1145.8434569562655,1841
1148.001171273455,1780
1150.158309560244,1764
1152.3148720521767,1799
1154.470858984876,1835
1156.626270594044,1797
1158.7811071154629,1827
1160.9353687849912,1793
1163.089055838569,1826
1165.242168512213,1842
1167.3947070420209,1820
1169.5466716641677,1817
1171.6980626149075,1796
1173.8488801305748,1792
1175.9991244475814,1784
1178.1487958024186,1837
1180.2978944316555,1742
1182.4464205719428,1790
1184.5943744600072,1780
1186.7417563326567,1849
1188.8885664267755,1774
1191.0348049793297,1783
1193.1804722273619,1769
1195.325568407995,1866
1197.4700937584303,1755
1199.614048515948,1825
1201.7574329179074,1782
1203.900247201746,1804
1206.042491604982,1800
1208.1841663652099,1718
1210.3252717201053,1765
1212.465807907422,1801
1214.6057751649923,1822
1216.7451737307279,1878
1218.8840038426192,1786
1221.0222657387353,1805
1223.1599596572241,1776
1225.2970858363137,1904
1227.4336445143094,1819
1229.5696359295966,1855
1231.705060320639,1839
1233.8399179259786,1819
1235.9742089842384,1923
1238.107933734118,1855
1240.2410924143974,1874
1242.373685263935,1819
1244.5057125216676,1839
1246.6371744266116,1934
1248.7680712178621,1817
1250.898403134593,1928
1253.028170416058,1857
1255.1573733015875,1831
1257.2860120305932,1881
1259.4140868425648,1825
1261.54159797707,1896
1263.6685456737569,1852
1265.7949301723515,1862
1267.9207517126597,1836
1270.046010534565,1867
1272.1707068780306,1890
1274.2948409830983,1912
1276.4184130898889,1920
1278.541423438603,1928
1280.6638722695184,1953
1282.785759822993,1945
1284.9070863394636,1928
1287.0278520594447,1865
1289.1480572235314,1919
1291.2677020723963,1977
1293.3867868467923,1943
1295.5053117875495,2058
1297.623277135579,1959
1299.740683131868,1961
1301.8575300174857,1953
1303.973818033578,1998
1306.0895474213703,2037
1308.2047184221678,1988
1310.3193312773528,1954
1312.4333862283888,2045
1314.5468835168163,2037
1316.659823384255,2043
1318.7722060724045,2013
1320.8840318230418,1970
1322.9953008780249,2062
1325.1060134792888,2000
1327.2161698688478,2001
1329.3257702887959,2004
1331.4348149813054,2053
1333.5433041886276,2028
1335.6512381530933,1999
1337.7586171171101,2042
1339.8654413231675,1981
1341.9717110138317,2045
1344.0774264317488,2014
1346.1825878196432,1925
1348.2871954203192,2046
1350.3912494766587,1963
1352.4947502316231,2000
1354.5976979282532,1962
1356.7000928096686,1985
1358.8019351190665,2082
1360.9032250997243,2028
1363.0039629949988,1895
1365.1041490483235,2058
1367.2037835032133,2026
1369.3028666032606,1951
1371.401398592137,2009
1373.4993797135926,2010
1375.5968102114575,2063
1377.6936903296396,1999
1379.7900203121262,2024
1381.8858004029835,1994
1383.9810308463561,2039
1386.075711886469,1989
1388.1698437676241,1992
1390.2634267342032,2010
1392.356461030667,2083
1394.4489469015557,2070
1396.5408845914872,2095
1398.6322743451592,2100
1400.7231164073469,2066
1402.813411022907,2099
1404.903158436773,2152
1406.9923588939578,2150
1409.0810126395531,2125
1411.1691199187303,2075
1413.2566809767386,2080
1415.343696058907,2179
1417.4301654106425,2141
1419.5160892774315,2201
1421.6014679048399,2195
1423.6863015385125,2175
1425.7705904241707,2216
1427.8543348076178,2168
1429.9375349347342,2242
1432.0201910514802,2228
1434.102303403894,2296
1436.1838722380944,2206
1438.2648978002767,2243
1440.3453803367174,2289
1442.4253200937692,2311
1444.5047173178677,2372
1446.5835722555234,2330
1448.6618851533285,2404
1450.739656257952,2462
1452.8168858161434,2414
1454.8935740747306,2432
1456.96972128062,2466
1459.045327680797,2514
1461.120393522327,2597
1463.1949190523528,2601
1465.2689045180973,2543
1467.3423501668608,2620
1469.415256246024,2666
1471.4876230030463,2801
1473.559450685465,2785
1475.6307395408976,2754
1477.7014898170391,2777
1479.771701761665,2889
1481.8413756226287,3031
1483.9105116478618,2938
1485.9791100853772,2946
1488.0471711832643,2988
1490.1146951896926,3167
1492.1816823529098,3221
1494.2481329212433,3186
1496.3140471430984,3283
1498.3794252669609,3303
1500.4442675413939,3310
1502.5085742150404,3313
1504.572345536622,3333
1506.6355817549388,3432
1508.6982831188702,3528
1510.7604498773744,3574
1512.8220822794883,3635
1514.8831805743293,3676
1516.9437450110909,3765
1519.003775839048,3867
1521.0632733075522,3911
1523.1222376660367,4016
1525.1806691640113,4001
1527.2385680510652,4102
1529.2959345768668,4244
1531.3527689911643,4285
1533.4090715437833,4340
1535.4648424846291,4502
1537.5200820636855,4398
1539.5747905310159,4575
1541.6289681367616,4735
1543.6826151311434,4725
1545.7357317644614,4624
1547.7883182870937,4895
1549.8403749494987,4973
1551.8919020022113,5122
1553.9428996958477,5199
1555.9933682811015,5280
1558.0433080087469,5344
1560.0927191296346,5401
1562.1416018946961,5431
1564.1899565549415,5253
1566.2377833614592,5218
1568.2850825654164,4972
1570.3318544180606,4910
1572.3780991707158,4660
1574.423817074788,4363
1576.4690083817595,4322
1578.5136733431923,4082
1580.5578122107272,3805
1582.601425236085,3752
1584.6445126710646,3599
1586.6870747675434,3386
1588.7291117774776,3221
1590.7706239529034,3012
1592.8116115459347,2930
1594.8520748087658,2902
1596.8920139936686,2867
1598.9314293529933,2667
1600.9703211391711,2583
1603.008689604711,2530
1605.0465350022005,2531
1607.0838575843068,2425
1609.1206576037753,2416
1611.1569353134305,2365
1613.1926909661765,2243
1615.2279248149953,2245
1617.2626371129481,2229
1619.2968281131757,2149
1621.3304980688963,2222
1623.3636472334088,2107
1625.39627586009,2090
1627.428384202396,2106
1629.459972513861,2085
1631.4910410480993,2101
1633.5215900588028,2094
1635.551619799744,2052
1637.5811305247717,2007
1639.6101224878166,1984
1641.6385959428862,1983
1643.6665511440683,2018
1645.693988345528,1961
1647.7209078015112,1963
1649.7473097663405,1918
1651.7731944944203,2024
1653.7985622402307,1971
1655.823413258333,2011
1657.847747803366,1963
1659.8715661300494,1940
1661.8948684931793,2032
1663.9176551476316,1949
1665.9399263483624,1915
1667.9616823504057,1919
1669.982923408873,1918
1672.0036497789574,1896
1674.0238617159293,1922
1676.043559475138,1961
1678.0627433120121,1982
1680.081413482059,1968
1682.0995702408654,1945
1684.117213844096,1932
1686.134344547495,1923
1688.1509626068864,1965
1690.1670682781705,1874
1692.182661817329,1888
1694.1977434804217,1883
1696.2123135235875,1909
1698.226372203043,1995
1700.2399197750851,1927
1702.2529564960905,1913
1704.2654826225112,1916
1706.277498410882,1878
1708.2890041178139,1854
1710.2999999999988,1965
1712.3104863142066,1858
1714.3204633172854,1911
1716.329931266163,1862
1718.3388904178469,1898
1720.3473410294214,1885
1722.3552833580516,1904
1724.3627176609807,1902
1726.3696441955308,1909
1728.3760632191033,1936
1730.3819749891782,1801
1732.3873797633146,1882
1734.3922777991502,1864
1736.3966693544012,1904
1738.4005546868639,1893
1740.4039340544127,1829
1742.406807715001,1861
1744.4091759266616,1805
1746.4110389475054,1836
1748.4123970357223,1830
1750.413250449582,1808
1752.4135994474318,1810
1754.4134442876993,1866
1756.4127852288902,1828
1758.4116225295893,1804
1760.4099564484595,1804
1762.407787244244,1820
1764.405115175764,1834
1766.4019405019203,1794
1768.3982634816916,1733
1770.3940843741357,1781
1772.3894034383907,1766
1774.3842209336717,1743
1776.378537119274,1755
1778.372352254571,1734
1780.3656665990156,1799
1782.3584804121397,1767
1784.3507939535534,1765
1786.3426074829463,1781
1788.3339212600863,1735
1790.3247355448211,1794
1792.3150505970766,1802
1794.3048666768573,1765
1796.2941840442477,1760
1798.2830029594106,1730
1800.2713236825884,1847
1802.2591464741004,1769
1804.2464715943465,1709
1806.2332993038058,1713
1808.2196298630352,1802
1810.2054635326708,1765
1812.190800573428,1723
1814.175641246101,1720
1816.1599858115628,1821
1818.1438345307652,1718
1820.127187664738,1707
1822.1100454745924,1754
1824.092408221516,1729
1826.0742761667766,1733
1828.055649571721,1744
1830.0365286977735,1739
1832.0169138064398,1709
1833.9968051593014,1761
1835.9762030180214,1742
1837.9551076443408,1726
1839.9335193000788,1717
1841.9114382471344,1672
1843.888864747485,1643
1845.8657990631878,1751
1847.842241456378,1738
1849.8181921892697,1760
1851.7936515241558,1745
1853.7686197234098,1726
1855.7430970494815,1698
1857.7170837649014,1705
1859.6905801322787,1714
1861.6635864143004,1677
1863.6361028737338,1681
1865.608129773424,1795
1867.5796673762961,1708
1869.5507159453537,1709
1871.521275743678,1765
1873.4913470344313,1783
1875.4609300808534,1751
1877.4300251462632,1724
1879.3986324940588,1750
1881.366752387717,1741
1883.3343850907936,1704
1885.3015308669228,1734
1887.268189979819,1746
1889.2343626932739,1790
1891.2000492711595,1783
1893.1652499774254,1819
1895.1299650761011,1785
1897.0941948312952,1823
1899.0579395071945,1791
1901.0211993680641,1769
1902.98397467825,1725
1904.9462657021745,1687
1906.9080727043415,1732
1908.869395949332,1776
1910.8302357018065,1777
1912.790592226504,1798
1914.7504657882428,1718
1916.7098566519212,1737
1918.6687650825133,1726
1920.6271913450764,1770
1922.5851357047422,1824
1924.5425984267245,1767
1926.499579776314,1714
1928.4560800188833,1732
1930.4120994198802,1707
1932.367638244833,1877
1934.32269675935,1797
1936.2772752291175,1784
1938.231373919899,1818
1940.1849930975404,1787
1942.1381330279637,1744
1944.0907939771696,1768
1946.0429762112412,1734
1947.9946799963363,1737
1949.9459055986945,1773
1951.896653284633,1776
1953.8469233205478,1759
1955.7967159729142,1815
1957.7460315082863,1778
1959.6948701932974,1799
1961.6432322946594,1765
1963.5911180791632,1753
1965.5385278136787,1720
1967.4854617651545,1731
1969.4319202006182,1694
1971.377903387176,1717
1973.3234115920136,1765
1975.268445082395,1680
1977.2130041256642,1809
1979.1570889892423,1754
1981.1006999406304,1751
1983.04383724741,1673
1984.986501177238,1742
1986.928691997853,1718
1988.8704099770712,1753
1990.811655382789,1769
1992.7524284829801,1686
1994.692729545698,1780
1996.6325588390755,1690
1998.5719166313224,1733
2000.5108031907307,1753
2002.4492187856677,1748
2004.387163684583,1779
2006.3246381560011,1698
2008.2616424685298,1743
2010.1981768908527,1684
2012.1342416917332,1675
2014.069837140014,1676
2016.0049635046162,1719
2017.9396210545406,1684
2019.8738100588666,1687
2021.8075307867502,1635
2023.740783507431,1679
2025.6735684902228,1666
2027.6058860045214,1687
2029.5377363198004,1689
2031.4691197056118,1730
2033.4000364315875,1658
2035.3304867674374,1630
2037.260470982952,1654
2039.189989347998,1750
2041.1190421325232,1726
2043.047629606554,1669
2044.9757520401945,1701
2046.9034097036288,1730
2048.8306028671195,1731
2050.7573318010086,1659
2052.683596775716,1692
2054.609398061742,1760
2056.5347359296647,1690
2058.4596106501403,1738
2060.384022493906,1777
2062.3079717317764,1678
2064.231458634646,1716
2066.1544834734873,1639
2068.077046519352,1728
2069.99914804337,1757
2071.9207883167524,1732
2073.8419676107865,1655
2075.7626861968406,1779
2077.6829443463607,1683
2079.6027423308715,1635
2081.522080421977,1720
2083.440958891362,1673
2085.359378010786,1700
2087.2773380520907,1604
2089.194839287196,1704
2091.111881988101,1735
2093.0284664268825,1725
2094.9445928756973,1652
2096.86026160678,1677
2098.775472892446,1729
2100.690227005088,1783
2102.604524217178,1722
2104.5183648012676,1763
2106.431749029985,1765
2108.34467717604,1807
2110.2571495122206,1690
2112.169166311393,1759
2114.080727846503,1726
2115.9918343905747,1689
2117.902486216711,1694
2119.8126835980956,1748
2121.722426807987,1732
2123.6317161197285,1722
2125.5405518067364,1708
2127.448934142509,1709
2129.356863400624,1742
2131.264339854737,1703
2133.1713637785815,1750
2135.077935445972,1728
2136.9840551308002,1776
2138.889723107037,1832
2140.7949396487334,1781
2142.699705030018,1827
2144.6040195250994,1765
2146.507883408264,1746
2148.4112969538774,1767
2150.3142604363848,1704
2152.2167741303097,1790
2154.1188383102535,1723
2156.0204532508997,1753
2157.9216192270064,1698
2159.822336513414,1740
2161.7226053850413,1747
2163.622426116884,1772
2165.5217989840185,1815
2167.4207242616,1788
2169.319202224862,1781
2171.2172331491165,1877
2173.1148173097563,1741
2175.0119549822507,1835
2176.90864644215,1835
2178.8048919650823,1773
2180.7006918267534,1813
2182.596046302952,1815
2184.4909556695407,1829
2186.3854202024645,1722
2188.279440177746,1812
2190.173015871487,1853
2192.066147559868,1812
2193.958835519149,1773
2195.851080025667,1858
2197.7428813558417,1808
2199.6342397861667,1861
2201.5251555932186,1794
2203.415629053651,1835
2205.3056604441986,1887
2207.19525004167,1822
2209.084398122958,1859
2210.9731049650327,1930
2212.861370844941,1809
2214.749196039812,1851
2216.636580826851,1854
2218.523525483344,1834
2220.410030286655,1854
2222.296095514226,1842
2224.1817214435805,1816
2226.066908352319,1773
2227.951656518121,1857
2229.835966218746,1787
2231.71983773203,1812
2233.6032713358913,1856
2235.486267308324,1799
2237.3688259274036,1885
2239.2509474712824,1851
2241.132632218193,1900
2243.013880446447,1859
2244.8946924344323,1901
2246.7750684606203,1908
2248.6550088035574,1860
2250.534513741871,1860
2252.413583554265,1886
2254.292218519526,1841
2256.170418916517,1897
2258.0481850241786,1866
2259.925517121534,1862
2261.8024154876825,1803
2263.678880401803,1902
2265.5549121431536,1840
2267.430510991071,1893
2269.305677224971,1884
2271.180411124348,1816
2273.0547129687766,1835
2274.9285830379076,1810
2276.8020216114737,1791
2278.6750289692845,1837
2280.5476053912294,1812
2282.4197511572766,1834
2284.2914665474727,1861
2286.162751841943,1873
2288.0336073208937,1891
2289.904033264608,1929
2291.774029953448,1844
2293.6435976678554,1894
2295.5127366883517,1888
2297.381447295534,1838
2299.2497297700825,1784
2301.1175843927526,1731
2302.9850114443825,1752
2304.852011205885,1700
2306.7185839582553,1665
2308.5847299825664,1675
2310.4504495599676,1605
2312.3157429716925,1652
2314.1806104990483,1641
2316.0450524234247,1646
2317.9090690262888,1507
2319.772660589186,1623
2321.635827393742,1580
2323.498569721661,1653
2325.3608878547248,1658
2327.2227820747967,1614
2329.0842526638157,1535
2330.945299903803,1581
2332.805924076857,1621
2334.6661254651535,1597
2336.525904350951,1567
2338.3852610165827,1689
2340.244195744464,1643
2342.102708817088,1644
2343.9608005170253,1658
2345.8184711269287,1601
2347.675720929526,1680
2349.532550207628,1589
2351.38895924412,1552
2353.24494832197,1645
2355.100517724223,1601
2356.955667734004,1697
2358.810398634514,1621
2360.664710709037,1649
2362.5186042409337,1710
2364.3720795136437,1661
2366.225136810686,1678
2368.0777764156583,1635
2369.929998612237,1644
2371.7818036841777,1632
2373.633191915315,1609
2375.484163589562,1660
2377.3347189909114,1666
2379.184858403434,1712
2381.03458211128,1622
2382.8838903986775,1679
2384.732783549936,1651
2386.5812618494406,1627
2388.4293255816588,1664
2390.2769750311327,1633
2392.1242104824883,1633
2393.971032220427,1637
2395.8174405297295,1628
2397.6634356952563,1670
2399.509018001947,1671
2401.3541877348193,1734
2403.1989451789705,1709
2405.043290619576,1702
2406.8872243418905,1640
2408.730746631247,1640
2410.5738577730594,1693
2412.4165580528183,1627
2414.258847756095,1617
2416.100727168537,1705
2417.9421965758734,1638
2419.783256263912,1757
2421.623906518538,1619
2423.4641476257157,1707
2425.303979871491,1674
2427.143403541984,1691
2428.9824189233977,1689
2430.821026302012,1673
2432.6592259641866,1708
2434.497018196361,1687
2436.33440328505,1656
2438.171381516851,1656
2440.00795317844,1702
2441.844118556569,1744
2443.6798779380724,1723
2445.5152316098606,1636
2447.3501798589255,1735
2449.1847229723357,1707
2451.0188612372403,1695
2452.8525949408663,1751
2454.6859243705203,1672
2456.518849813587,1627
2458.3513715575314,1650
2460.183489889895,1673
2462.015205098301,1713
2463.8465174704493,1682
2465.67742729412,1673
2467.5079348571717,1679
2469.338040447542,1669
2471.1677443532476,1752
2472.9970468623833,1764
2474.825948263123,1724
2476.6544488437207,1719
2478.482548892508,1725
2480.310248697896,1713
2482.137548548374,1734
2483.9644487325118,1738
2485.790949538956,1734
2487.617051256433,1619
2489.44275417375,1730
2491.26805857979,1688
2493.0929647635157,1766
2494.917473013971,1782
2496.741583620276,1765
2498.5652968716304,1743
2500.3886130573137,1750
2502.2115324666834,1781
2504.0340553891765,1794
2505.856182114308,1795
2507.6779129316733,1731
2509.499248130945,1742
2511.3201880018764,1708
2513.140732834298,1667
2514.9608829181198,1766
2516.780638543331,1726
2518.6,1753
2520.418967578273,1765
2522.237541568376,1822
2524.0557222606144,1750
2525.8735099453706,1780
2527.6909049131086,1793
2529.507907454368,1754
2531.32451785977,1783
2533.140736420014,1867
2534.9565634258774,1844
2536.771999168218,1876
2538.5870439379714,1780
2540.4016980261526,1824
2542.2159617238544,1858
2544.02983532225,1829
2545.8433191125914,1860
2547.656413386209,1913
2549.4691184345115,1886
2551.2814345489874,1899
2553.093362021204,1902
2554.904901142808,1926
2556.716052205523,1890
2558.526815501153,1897
2560.3371913215824,1971
2562.147179958771,1969
2563.956781704761,1979
2565.7659968516705,2002
2567.5748256916986,1986
2569.3832685171224,2066
2571.1913256202984,1981
2572.9989972936614,1982
2574.806283829725,1970
2576.613185521084,2036
2578.4197026604074,1953
2580.2258355404483,1982
2582.031584454035,1997
2583.836949694077,2074
2585.6419315535613,2105
2587.4465303255533,2058
2589.2507463032002,2115
2591.0545797797245,2079
2592.8580310484303,2120
2594.6611004026995,2179
2596.463788135992,2087
2598.266094541849,2137
2600.0680199138874,2133
2601.869564545807,2113
2603.670728731383,2214
2605.4715127644704,2176
2607.2719169390048,2168
2609.071941548998,2131
2610.8715868885433,2170
2612.670853251811,2158
2614.469740933052,2116
2616.268250226594,2217
2618.0663814268455,2138
2619.864134828292,2095
2621.6615107255006,2224
2623.458509413115,2163
2625.2551311858597,2107
2627.0513763385347,2122
2628.8472451660223,2088
2630.6427379632833,2036
2632.4378550253564,2060
2634.232596647359,2077
2636.026963124488,2002
2637.8209547520187,2013
2639.6145718253065,1973
2641.407814639785,1980
2643.200683490966,1996
2644.9931786744414,1928
2646.7853004858807,2011
2648.577049221034,1961
2650.3684251757277,1946
2652.1594286458712,1926
2653.9500599274484,1937
2655.740319316525,1935
2657.5302071092437,1799
2659.3197236018286,1945
2661.10886909058,1892
2662.8976438718782,1879
2664.686048242183,1877
2666.4740824980327,1787
2668.2617469360443,1898
2670.0490418529134,1822
2671.8359675454153,1834
2673.622524310403,1849
2675.408712444811,1808
2677.1945322456495,1818
2678.979984010009,1786
2680.76506803506,1794
2682.5497846180497,1707
2684.334134056306,1765
2686.1181166472343,1813
2687.9017326883213,1729
2689.6849824771293,1722
2691.4678663113013,1701
2693.2503844885596,1764
2695.032537306705,1756
2696.8143250636167,1705
2698.5957480572542,1709
2700.3768065856534,1726
2702.1575009469316,1722
2703.937831439283,1752
2705.717798360982,1734
2707.4974020103837,1782
2709.276642685917,1769
2711.055520686095,1641
2712.834036309506,1780
2714.612189854819,1625
2716.389981620782,1641
2718.1674119062204,1691
2719.944481010041,1696
2721.721189231226,1671
2723.4975368688415,1730
2725.273524222027,1690
2727.0491515900053,1631
2728.824419272075,1700
2730.5993275676146,1703
2732.3738767760838,1650
2734.148067197016,1698
2735.921899130031,1666
2737.6953728748194,1667
2739.468488731156,1666
2741.2412469988926,1624
2743.0136479779617,1625
2744.785691968372,1623
2746.5573792702116,1607
2748.3287101836504,1631
2750.099685008934,1666
2751.870304046388,1581
2753.640567596418,1700
2755.4104759595057,1624
2757.1800294362156,1608
2758.949228327187,1642
2760.7180729331412,1683
2762.486563554877,1676
2764.254700493272,1645
2766.022484049284,1635
2767.789914523947,1539
2769.5569922183786,1640
2771.3237174337705,1580
2773.090090471394,1587
2774.8561116326036,1613
2776.6217812188274,1627
2778.3870995315756,1636
2780.1520668724356,1575
2781.9166835430747,1670
2783.6809498452394,1666
2785.444866080754,1681
2787.2084325515225,1657
2788.971649559527,1630
2790.73451740683,1656
2792.4970363955713,1660
2794.2592068279705,1624
2796.0210290063264,1653
2797.7825032330147,1623
2799.543629810493,1658
2801.304409041296,1639
2803.0648412280366,1631
2804.8249266734088,1639
2806.5846656801846,1708
2808.344058551212,1684
2810.1031055894246,1592
2811.8618070978273,1623
2813.6201633795085,1683
2815.378174737636,1656
2817.1358414754536,1631
2818.893163896285,1648
2820.6501423035334,1633
2822.4067770006814,1618
2824.1630682912883,1627
2825.9190164789957,1673
2827.6746218675207,1620
2829.429884760661,1641
2831.184805462294,1630
2832.9393842763743,1633
2834.693621506936,1658
2836.4475174580916,1628
2838.201072434034,1618
2839.954286739034,1606
2841.707160677441,1626
2843.459694553685,1631
2845.2118886722724,1636
2846.96374333779,1675
2848.7152588549034,1604
2850.4664355283567,1610
2852.217273662973,1688
2853.9677735636546,1691
2855.7179355353833,1666
2857.4677598832186,1667
2859.217246912299,1626
2860.9663969278427,1623
2862.715210235146,1671
2864.4636871395846,1679
2866.211827946614,1689
2867.9596329617652,1612
2869.7071024906536,1696
2871.4542368389684,1620
2873.20103631248,1662
2874.947501217038,1697
2876.6936318585695,1640
2878.4394285430812,1625
2880.1848915766604,1609
2881.9300212654707,1632
2883.6748179157553,1623
2885.4192818338374,1596
2887.1634133261173,1706
2888.907212699077,1646
2890.6506802592744,1684
2892.393816313348,1679
2894.1366211680142,1664
2895.8790951300693,1649
2897.621238506388,1640
2899.363051603925,1588
2901.1045347297118,1657
2902.8456881908596,1577
2904.58651229456,1664
2906.327007348081,1617
2908.067173658772,1614
2909.8070115340597,1631
2911.5465212814497,1694
2913.285703208527,1710
2915.0245576229563,1635
2916.7630848324807,1570
2918.5012851449196,1650
2920.2391588681758,1660
2921.976706310227,1678
2923.7139277791334,1638
2925.4508235830313,1623
2927.187394030137,1638
2928.923639428745,1604
2930.6595600872306,1673
2932.395156314046,1597
2934.1304284177218,1627
2935.8653767068713,1608
2937.6000014901815,1742
2939.3343030764227,1655
2941.068281774442,1615
2942.8019378931644,1666
2944.5352717415976,1624
2946.2682836288236,1694
2948.0009738640065,1624
2949.7333427563885,1681
2951.465390615289,1626
2953.1971177501086,1720
2954.9285244703265,1651
2956.6596110855,1645
2958.3903779052657,1642
2960.1208252393385,1644
2961.8509533975125,1644
2963.5807626896617,1690
2965.3102534257378,1693
2967.0394259157715,1650
2968.768280469873,1625
2970.496817398232,1610
2972.2250370111146,1683
2973.952939618869,1706
2975.6805255319196,1630
2977.4077950607707,1642
2979.134748516006,1719
2980.861386208289,1617
2982.587708448359,1661
2984.313715547037,1690
2986.039407815222,1701
2987.764785563891,1690
2989.489849104102,1596
2991.2145987469908,1616
2992.9390348037705,1613
2994.6631575857346,1633
2996.3869674042576,1571
2998.1104645707887,1614
2999.83364939686,1595
3001.5565221940783,1650
3003.2790832741334,1651
3005.0013329487924,1661
3006.7232715298996,1620
3008.4448993293804,1618
3010.166216659239,1630
3011.887223831558,1623
3013.607921158498,1670
3015.3283089522993,1626
3017.0483875252826,1614
3018.7681571898443,1667
3020.4876182584626,1592
3022.2067710436927,1646
3023.9256158581707,1663
3025.644153014609,1632
3027.362382825801,1679
3029.0803056046193,1688
3030.797921664012,1615
3032.5152313170106,1694
3034.2322348767225,1635
3035.9489326563353,1582
3037.665324969115,1666
3039.3814121284063,1640
3041.097194447633,1649
3042.812672240299,1700
3044.5278458199855,1705
3046.2427155003525,1637
3047.9572815951406,1621
3049.671544418167,1692
3051.38550428333,1673
3053.0991615046073,1662
3054.812516396051,1654
3056.5255692717974,1658
3058.2383204460575,1678
3059.9507702331257,1630
3061.662918947372,1691
3063.3747669032446,1619
3065.0863144152736,1645
3066.7975617980674,1593
3068.508509366309,1599
3070.219157434767,1626
3071.9295063182844,1630
3073.639556331785,1652
3075.3493077902704,1614
3077.058761008821,1724
3078.7679163025964,1670
3080.476773986837,1632
3082.1853343768594,1690
3083.89359778806,1644
3085.6015645359153,1672
3087.3092349359786,1628
3089.016609303884,1727
3090.7236879553434,1698
3092.4304712061476,1701
3094.136959372166,1669
3095.843152769349,1637
3097.5490517137237,1642
3099.2546565213966,1592
3100.959967508554,1701
3102.66498499146,1697
3104.3697092864577,1699
3106.0741407099695,1731
3107.778279578498,1670
3109.482126208622,1679
3111.1856809170004,1693
3112.8889440203716,1672
3114.5919158355528,1643
3116.294596679439,1645
3117.996986869006,1691
3119.6990867213062,1717
3121.4008965534726,1710
3123.102416682717,1688
3124.803647426329,1709
3126.5045891016784,1697
3128.205242026213,1652
3129.90560651746,1678
3131.605682893025,1672
3133.3054714705922,1646
3135.0049725679282,1629
3136.7041865028714,1657
3138.4031135933465,1673
3140.101754157353,1630
3141.800108512971,1683
3143.498176978357,1684
3145.1959598717494,1609
3146.8934575114636,1640
3148.5906702158954,1613
3150.2875983035183,1618
3151.9842420928853,1649
3153.680601902627,1653
3155.376678051456,1637
3157.07247085816,1639
3158.767980641609,1630
3160.463207720748,1680
3162.158152414606,1688
3163.8528150422862,1685
3165.5471959229726,1625
3167.2412953759303,1681
3168.9351137204976,1734
3170.628651276098,1698
3172.3219083622307,1681
3174.014885298474,1732
3175.707582404485,1698
3177.4000000000005,1655
3179.092138404835,1689
3180.7839979388846,1642
3182.47557892212,1718
3184.166881674594,1668
3185.8579065164386,1708
3187.5486537678626,1700
3189.2391237491547,1687
3190.9293167806827,1634
3192.6192331828934,1641
3194.3088732763117,1674
3195.998237381542,1628
3197.687325819268,1659
3199.376138910251,1599
3201.064676975334,1639
3202.7529403354347,1597
3204.4409293115523,1593
3206.1286442247647,1638
3207.816085396229,1647
3209.5032531471825,1619
3211.190147798936,1650
3212.8767696728846,1651
3214.5631190905015,1593
3216.2491963733373,1580
3217.9350018430214,1659
3219.6205358212637,1647
3221.305798629851,1607
3222.990790590651,1555
3224.6755120256103,1584
3226.359963256751,1574
3228.0441446061795,1622
3229.7280563960758,1620
3231.411698948703,1630
3233.0950725863995,1621
3234.778177631587,1578
3236.461014406761,1665
3238.1435832345005,1617
3239.8258844374595,1684
3241.507918338374,1622
3243.1896852600576,1625
3244.8711855254023,1634
3246.552419457381,1653
3248.233387379042,1659
3249.914089613516,1670
3251.59452648401,1642
3253.274698313813,1667
3254.95460542629,1580
3256.6342481448855,1659
3258.313626793125,1598
3259.9927416946084,1626
3261.6715931730196,1676
3263.3501815521176,1627
3265.0285071557437,1589
3266.706570307815,1640
3268.3843713323286,1639
3270.0619105533615,1619
3271.739188295068,1597
3273.4162048816834,1603
3275.0929606375184,1596
3276.769455886966,1637
3278.445690954498,1620
3280.1216661646613,1647
3281.797381842087,1698
3283.4728383114807,1664
3285.1480358976296,1638
3286.8229749253996,1649
3288.4976557197333,1641
3290.172078605655,1601
3291.846243908266,1595
3293.5201519527463,1572
3295.193803064357,1608
3296.8671975684374,1650
3298.5403357904024,1627
3300.21321805575,1587
3301.8858446900567,1653
3303.558216018975,1623
3305.23033236824,1653
3306.9021940636603,1677
3308.57380143113,1609
3310.2451547966184,1613
3311.916254486174,1643
3313.5871008259246,1673
3315.2576941420766,1627
3316.9280347609147,1562
3318.5981230088046,1606
3320.2679592121895,1581
3321.9375436975924,1627
3323.606876791612,1585
3325.27595882093,1584
3326.944790112305,1665
3328.6133709925753,1621
3330.2817017886573,1610
3331.949782827547,1573
3333.617614436319,1658
3335.2851969421245,1643
3336.952530672199,1640
3338.619615953853,1669
3340.286453114475,1585
3341.9530424815357,1558
3343.619384382583,1661
3345.2854791452437,1669
3346.951327097224,1642
3348.6169285663073,1665
3350.2822838803577,1647
3351.947393367319,1605
3353.61225735521,1615
3355.2768761721345,1603
3356.9412501462693,1666
3358.605379605873,1626
3360.2692648792827,1657
3361.9329062949146,1609
3363.596304181263,1628
