CollectionTime,9/20/2024 12:47:41 PM
ExposureUsed,3
CalibratedSpectrum
-962.7078968117929,921
-959.9714848408522,933
-957.2358232597828,974
-954.5009119013725,977
-951.7667505983302,970
-949.0333391832855,1000
-946.3006774887896,1025
-943.5687653473143,1024
-940.837602591253,1051
-938.1071890529199,1023
-935.3775245645503,1040
-932.6486089583007,1036
-929.9204420662485,1031
-927.1930237203925,1031
-924.4663537526524,1038
-921.7404319948689,1037
-919.0152582788041,972
-916.2908324361409,1047
-913.5671542984834,1002
-910.8442236973568,991
-908.1220404642074,1000
-905.4006044304027,1012
-902.679915427231,978
-899.959973285902,991
-897.2407778375464,970
-894.5223289132158,992
-891.8046263438832,954
-889.0876699604426,976
-886.3714595937089,943
-883.6559950744183,931
-880.9412762332282,930
-878.2273029007168,886
-875.5140749073835,958
-872.8015920836489,948
-870.0898542598545,957
-867.3788612662631,938
-864.6686129330585,984
-861.9591090903457,944
-859.2503495681506,990
-856.5423341964203,946
-853.8350628050229,955
-851.1285352237478,1021
-848.4227512823054,971
-845.7177108103272,1007
-843.0134136373656,1030
-840.3098595928943,995
-837.6070485063082,976
-834.9049802069229,980
-832.2036545239757,1007
-829.5030712866244,1039
-826.8032303239481,1003
-824.1041314649472,948
-821.4057745385428,933
-818.7081593735775,989
-816.0112857988148,986
-813.3151536429393,1003
-810.6197627345566,992
-807.9251129021936,975
-805.2312039742981,976
-802.5380357792392,983
-799.8456081453069,1014
-797.1539209007124,957
-794.462973873588,1022
-791.772766891987,1033
-789.083299783884,993
-786.3945723771743,986
-783.7065844996748,1020
-781.0193359791231,1038
-778.3328266431781,1034
-775.6470563194197,1034
-772.9620248353489,1038
-770.2777320183878,1031
-767.5941776958798,994
-764.9113616950891,1045
-762.2292838432011,1014
-759.5479439673222,1015
-756.8673418944801,1006
-754.1874774516235,1064
-751.5083504656222,1027
-748.8299607632671,1054
-746.15230817127,1077
-743.475392516264,1003
-740.7992136248035,1047
-738.1237713233636,1031
-735.4490654383407,1029
-732.7750957960521,1040
-730.1018622227365,985
-727.4293645445534,1019
-724.7576025875837,1061
-722.0865761778291,1087
-719.4162851412126,1046
-716.7467293035781,1082
-714.0779084906909,1101
-711.409822528237,1091
-708.7424712418238,1125
-706.0758544569796,1083
-703.4099719991541,1041
-700.7448236937178,1122
-698.0804093659622,1155
-695.4167288411002,1074
-692.7537819442656,1057
-690.0915685005134,1099
-687.4300883348199,1144
-684.7693412720819,1082
-682.1093271371178,1103
-679.4500457546669,1120
-676.7914969493897,1080
-674.1336805458676,1121
-671.4765963686034,1107
-668.8202442420206,1111
-666.1646239904642,1135
-663.5097354382001,1127
-660.8555784094151,1160
-658.2021527282176,1144
-655.5494582186366,1147
-652.8974947046223,1136
-650.2462620100463,1105
-647.5957599587009,1160
-644.9459883742998,1152
-642.2969470804776,1196
-639.6486359007902,1220
-637.0010546587141,1194
-634.3542031776476,1199
-631.7080812809096,1198
-629.0626887917401,1160
-626.4180255333008,1187
-623.7740913286734,1216
-621.1308860008619,1172
-618.4884093727904,1203
-615.8466612673046,1137
-613.2056415071715,1164
-610.5653499150785,1177
-607.9257863136347,1194
-605.28695052537,1181
-602.6488423727357,1173
-600.0114616781036,1210
-597.3748082637674,1155
-594.7388819519412,1240
-592.1036825647604,1223
-589.4692099242818,1164
-586.8354638524829,1171
-584.2024441712624,1203
-581.5701507024403,1223
-578.9385832677575,1242
-576.3077416888759,1216
-573.6776257873787,1170
-571.0482353847704,1190
-568.4195703024757,1246
-565.7916303618415,1172
-563.164415384135,1213
-560.5379251905453,1253
-557.9121596021815,1233
-555.2871184400748,1211
-552.6628015251767,1264
-550.0392086783606,1186
-547.4163397204204,1245
-544.794194472071,1266
-542.1727727539491,1245
-539.5520743866118,1304
-536.9320991905377,1258
-534.3128469861261,1294
-531.6943175936979,1276
-529.0765108334947,1352
-526.4594265256793,1408
-523.8430644903358,1503
-521.2274245474689,1668
-518.612506517005,1713
-515.9983102187913,1726
-513.3848354725959,1783
-510.77208209810846,1821
-508.16004991493924,1893
-505.5487387426199,1952
-502.9381484006032,2056
-500.3282787082628,2061
-497.71912948489364,2045
-495.1107005497117,2008
-492.5029917218539,1868
-489.8960028203786,1692
-487.28973366426493,1592
-484.68418407241325,1424
-482.07935386364494,1424
-479.47524285670266,1429
-476.87185087025,1444
-474.2691777228715,1430
-471.66722323307334,1496
-469.0659872192821,1406
-466.4654694998459,1451
-463.86566989303384,1503
-461.26658821703614,1407
-458.66822428996414,1396
-456.07057792985,1417
-453.4736489546475,1434
-450.877437182231,1414
-448.28194243039627,1426
-445.68716451686,1423
-443.09310325926003,1416
-440.49975847515555,1386
-437.9071299820263,1362
-435.31521759727354,1343
-432.72402113821954,1376
-430.13354042210767,1360
-427.5437752661022,1406
-424.95472548728867,1421
-422.36639090267386,1462
-419.7787713291855,1486
-417.1918665836721,1482
-414.60567648290385,1501
-412.0202008435715,1550
-409.4354394822874,1496
-406.8513922155845,1505
-404.26805885991723,1507
-401.685439231661,1570
-399.103533147112,1542
-396.522340422488,1482
-393.9418608739278,1529
-391.3620943174908,1465
-388.7830405691583,1358
-386.2046994448317,1356
-383.6270707603344,1278
-381.05015433141045,1192
-378.473949973725,1156
-375.8984575028645,1010
-373.32367673433623,967
-370.74960748356875,936
-368.1762495659117,842
-365.60360279663576,770
-363.03166699093265,671
-360.4604419639154,589
-357.8899275306178,539
-355.32012350599507,545
-352.7510297049233,495
-350.1826459421999,505
-347.61497203254316,513
-345.04800779059235,484
-342.4817530309082,488
-339.91620756797226,461
-337.35137121618743,502
-334.7872437898774,500
-332.22382510328725,485
-329.66111497058273,529
-327.09911320585127,493
-324.53781962310075,485
-321.9772340362607,461
-319.4173562591816,461
-316.8581861056348,458
-314.2997233893127,466
-311.7419679238294,474
-309.1849195227194,503
-306.62857799943856,530
-304.0729431673641,518
-301.51801483979375,520
-298.963792829947,488
-296.41027695096386,475
-293.85746701590574,499
-291.3053628377552,494
-288.7539642294155,504
-286.2032710037115,519
-283.65328297338897,490
-281.1039999511146,531
-278.5554217494762,544
-276.007548180983,557
-273.4603790580651,561
-270.9139141930734,572
-268.3681533982807,560
-265.8230964858798,544
-263.27874326798565,557
-260.7350935566336,589
-258.1921471637804,604
-255.6499039013039,657
-253.10836358100266,657
-250.56752601459698,629
-248.02739101372765,668
-245.48795838995704,681
-242.94922795476816,702
-240.41119951956557,690
-237.8738728956746,748
-235.33724789434166,701
-232.80132432673452,702
-230.2661020039418,698
-227.73158073697357,671
-225.19776033676033,758
-222.66464061415422,743
-220.1322213799284,700
-217.60050244477725,682
-215.06948361931552,677
-212.53916471408013,753
-210.00954553952818,724
-207.48062590603843,684
-204.9524056239104,652
-202.4248845033651,760
-199.8980623545441,772
-197.37193898751036,791
-194.84651421224817,793
-192.32178783866232,713
-189.79775967657952,799
-187.27442953574644,820
-184.7517972258321,788
-182.2298625564256,746
-179.7086253370378,739
-177.18808537710026,783
-174.66824248596583,910
-172.14909647290835,853
-169.6306471471229,755
-167.11289431772548,794
-164.59583779375328,797
-162.07947738416453,929
-159.5638128978386,1101
-157.04884414357605,1158
-154.53457093009854,1098
-152.02099306604828,907
-149.50811035998936,889
-146.99592262040665,978
-144.48442965570587,1237
-141.97363127421409,1286
-139.46352728417958,1439
-136.95411749377126,1215
-134.44540171107985,982
-131.93737974411636,960
-129.43005140081357,1130
-126.92341648902493,1559
-124.41747481652521,1852
-121.91222619101006,2147
-119.40767042009657,2002
-116.90380731132257,1870
-114.40063667214702,2393
-111.8981583099503,2953
-109.3963720320337,3639
-106.89527764561933,4922
-104.39487495785067,7441
-101.89516377579241,11695
-99.39614390642998,16381
-96.89781515667039,19730
-94.40017733334128,21738
-91.90323024319173,23338
-89.40697369289148,19953
-86.91140748903172,13149
-84.41653143812482,10297
-81.92234534660395,9664
-79.42884902082358,9595
-76.93604226705907,10954
-74.4439248915071,10555
-71.95249670028534,8993
-69.46175749943245,8373
-66.97170709490854,7805
-64.48234529259423,7240
-61.99367189829195,6895
-59.50568671772464,5993
-57.01838955653636,6087
-54.53178022029283,7294
-52.045858514480074,7705
-49.560624244506016,8656
-47.07607721569923,8237
-44.59221723330904,8847
-42.10904410250669,10185
-39.62655762838392,12244
-37.14475761595372,15040
-34.66364387015028,16554
-32.18321619582866,16773
-29.70347439776515,17939
-27.224418280657005,19498
-24.74604764912317,20073
-22.26836230770266,27099
-19.7913620608565,52571
-17.315046712966478,65036
-14.83941606833514,65036
-12.36446993118659,65036
-9.89020810566592,65036
-7.416630395839093,65036
-4.94373660569363,65036
-2.471526539137585,65036
-6.821210263296962E-13,65036
2.47084320796705,65036
4.941003281093458,65036
7.410480415786196,65036
9.879274808531363,65036
12.347386655893956,65036
14.814816154518212,65036
17.28156350112681,65036
19.74762889252179,65036
22.21301252558385,23942
24.67771459727237,6404
27.141735304626195,4916
29.605074844762612,4269
32.06773341487792,3337
34.52971121224755,3443
36.99100843422559,2890
39.45162527824516,2472
41.91156194181792,2769
44.370818622535126,2641
46.82939551806646,2384
49.287292826160524,3343
51.74451074464503,3516
54.201049471426245,2517
56.65690920448981,1973
59.112090141899785,1640
61.56659248179983,1629
64.02041642241159,1745
66.4735621620365,1952
68.92602989905402,2319
71.37781983192338,2432
73.82893215918205,2188
76.27936707944684,1878
78.72912479141326,1814
81.17820549385567,1493
83.62660938562783,1151
86.07433666566146,1164
88.5213875329681,1105
90.96776218663751,1292
93.41346082583925,1481
95.85848364982041,1684
98.30283085790859,1475
100.7465026495089,1228
103.18949922410604,1154
105.63182078126385,951
108.07346752062438,993
110.51443964190923,983
112.95473734491827,1164
115.39436082953114,1134
117.83331029570547,1035
120.27158594347827,1086
122.7091879729652,1130
125.1461165843615,1053
127.58237197794062,1038
130.01795435405518,1086
132.4528639131364,1027
134.88710085569494,1067
137.32066538231982,1073
139.75355769367923,1163
142.1857779905207,1111
144.61732647366978,1026
147.04820334403132,955
149.47840880258934,1007
151.90794305040674,1079
154.33680628862487,1191
156.76499871846443,1331
159.19252054122433,1553
161.61937195828352,1750
164.04555317109896,1923
166.47106438120693,2104
168.89590579022217,2326
171.320077599839,2514
173.7435800118302,2619
176.16641322804742,2776
178.58857745042144,2887
181.01007288096173,2961
183.43089972175687,3113
185.85105817497413,3076
188.27054844285988,3136
190.6893707277394,3262
193.10752523201643,3278
195.5250121581745,3389
197.9418317087751,3472
200.3579840864594,3472
202.7734694939469,3429
205.18828813403627,3725
207.6024402096051,3807
210.01592592360964,3629
212.42874547908548,3633
214.84089907914665,3628
217.2523869269868,3647
219.66320922587727,3552
222.0733661791695,3597
224.48285799029293,3589
226.8916848627572,3680
229.29984700014882,3574
231.7073446061355,3560
234.11417788446204,3745
236.520347038953,3799
238.92585227351185,3876
241.33069379212054,3991
243.73487179884035,4026
246.1383864978112,4054
248.541238093252,4084
250.9434267894609,4165
253.34495279081432,4151
255.74581630176783,3958
258.1460175268563,4167
260.54555667069314,4168
262.9444339379703,4037
265.3426495334594,4075
267.7402036620107,4011
270.1370965285529,3752
272.53332833809407,3658
274.9288992957214,3538
277.32380960660055,3433
279.718059475976,3358
282.1116491091717,3382
284.5045787115897,3319
286.89684848871195,3392
289.2884586460981,3376
291.67940938938807,3336
294.0697009242996,3424
296.4593334566299,3465
298.84830719225477,3394
301.23662233712923,3390
303.6242790972866,3301
306.01127767884,3212
308.39761828798066,3205
310.78330113097934,3303
313.16832641418534,3212
315.5526943440269,3107
317.9364051270112,3158
320.3194589697242,3180
322.70185607883093,3049
325.0835966610754,3021
327.4646809232805,3050
329.8451090723478,3029
332.2248813152577,2975
334.6039978590701,3038
336.9824589109231,3021
339.36026467803447,2951
341.7374153677,2887
344.113911187295,2902
346.48975234427337,2955
348.8649390461686,2912
351.2394715005918,2989
353.61334991523415,2878
355.9865744978655,2930
358.35914545633375,2957
360.73106299856715,2966
363.10232733257146,2928
365.47293866643247,2850
367.84289720831396,2867
370.2122031664593,2840
372.5808567491905,2858
374.9488581649083,2828
377.31620762209275,2813
379.6829053293021,2866
382.0489514951745,2854
384.4143463284262,2919
386.7790900378528,2791
389.14318283232853,2775
391.50662492080653,2865
393.86941651231916,2895
396.23155781597745,2723
398.5930490409713,2744
400.9538903965696,2792
403.3140820921202,2727
405.6736243370498,2702
408.03251734086336,2673
410.3907613131465,2738
412.74835646356166,2760
415.10530300185144,2691
417.4616011378372,2688
419.81725108141893,2730
422.1722530425758,2736
424.5266072313656,2725
426.880313857925,2716
429.2333731324701,2743
431.58578526529516,2789
433.9375504667738,2808
436.2886689473588,2839
438.63914091758113,2806
440.9889665880513,2672
443.33814616945835,2749
445.68667987257015,2706
448.03456790823395,2745
450.3818104873759,2740
452.72840782100013,2626
455.07436012019105,2657
457.41966759611057,2723
459.7643304600007,2769
462.10834892318155,2688
464.4517231970525,2621
466.79445349309174,2706
469.1365400228566,2695
471.4779829979826,2736
473.81878263018564,2727
476.15893913125876,2728
478.4984527130747,2844
480.8373235875855,2855
483.17555196682144,2895
485.5131380628919,2862
487.8500820879857,2893
490.1863842543697,2987
492.52204477439034,3213
494.8570638604725,3414
497.1914417251204,3675
499.52517858091653,3904
501.85827464052306,4120
504.19073011668036,4228
506.5225452222086,4256
508.85372017000566,4241
511.18425517304956,4309
513.514150444396,4473
515.8434061971808,5621
518.1720226446176,6409
520.4999999999999,6645
522.8273384766991,6286
525.1540382881666,6136
527.480099647932,5390
529.8055227696037,4543
532.1303078668694,3713
534.454455153496,3226
536.777964843328,3012
539.1008371502907,2938
541.4230722883866,2815
543.744670471698,2900
546.0656319143858,2752
548.3859568306899,2765
550.7056454349294,2767
553.0246979415016,2648
555.3431145648834,2724
557.6608955196306,2732
559.978041020377,2762
562.2945512818363,2727
564.6104265188006,2838
566.9256669461412,2771
569.2402727788082,2763
571.5542442318302,2796
573.8675815203156,2779
576.1802848594508,2808
578.4923544645015,2857
580.8037905508126,2829
583.114593333807,2872
585.4247630289875,2911
587.7342998519354,2771
590.0432040183106,2797
592.3514757438526,2837
594.6591152443794,2880
596.9661227357875,2845
599.2724984340531,2840
601.578242555231,2837
603.8833553154542,2768
606.1878369309362,2792
608.4916876179676,2773
610.7949075929192,2711
613.0974970722403,2872
615.3994562724587,2781
617.7007854101818,2829
620.0014847020951,2844
622.3015543649641,2769
624.6009946156324,2768
626.8998056710224,2803
629.1979877481361,2800
631.4955410640538,2898
633.7924658359349,2913
636.0887622810175,2911
638.3844306166192,2815
640.6794710601358,2917
642.9738838290426,2951
645.2676691408932,2859
647.5608272133207,2883
649.853358264037,2873
652.1452625108324,2874
654.4365401715764,2815
656.7271914642178,2895
659.0172166067838,2915
661.3066158173809,2942
663.5953893141935,2972
665.8835373154867,2982
668.1710600396028,2981
670.4579577049639,2991
672.7442305300709,3041
675.0298787335033,3051
677.3149025339197,2865
679.599302150058,2940
681.8830778007342,2913
684.1662297048437,2980
686.4487580813608,2900
688.7306631493387,2974
691.0119451279091,2922
693.2926042362834,2931
695.5726406937516,2935
697.8520547196814,2959
700.1308465335215,2869
702.4090163547982,2927
704.6865644031171,2900
706.9634908981619,2910
709.2397960596965,2853
711.5154801075631,2934
713.7905432616823,2894
716.0649857420548,2910
718.3388077687592,2958
720.612009561953,2947
722.8845913418733,2835
725.1565533288352,2870
727.427895743234,2894
729.6986188055427,2770
731.9687227363137,2892
734.238207756178,2921
736.5070740858458,2917
738.7753219461066,2824
741.0429515578281,2832
743.3099631419569,2907
745.5763569195191,2889
747.8421331116193,2924
750.1072919394409,2822
752.3718336242467,2856
754.6357583873777,2904
756.8990664502545,2899
759.1617580343765,2915
761.423833361321,2900
763.6852926527457,2882
765.9461361303862,2954
768.206364016058,2997
770.4659765316536,2861
772.7249738991469,2904
774.9833563405886,2984
777.2411240781092,2935
779.4982773339183,2813
781.7548163303044,2880
784.010741289634,2819
786.2660524343538,2991
788.5207499869881,2928
790.7748341701416,2959
793.0283052064964,3040
795.2811633188143,2969
797.5334087299362,3033
799.7850416627813,2968
802.0360623403484,3016
804.2864709857143,3034
806.5362678220353,2930
808.7854530725468,3004
811.0340269605625,3037
813.2819897094754,3008
815.5293415427581,2933
817.77608268396,2918
820.0222133567116,2978
822.2677337847211,2888
824.5126441917765,2936
826.7569448017433,2893
829.0006358385675,3001
831.2437175262731,3001
833.4861900889629,3026
835.7280537508192,2904
837.9693087361026,2955
840.2099552691533,3034
842.4499935743896,3024
844.689423876309,2980
846.9282463994886,2978
849.1664613685833,3058
851.4040690083276,2983
853.6410695435349,2984
855.877463199097,2978
858.1132501999847,3102
860.3484307712487,3031
862.5830051380175,3046
864.8169735254988,3066
867.0503361589791,3040
869.2830932638243,3044
871.5152450654786,3053
873.7467917894654,3067
875.9777336613873,3009
878.2080709069252,3033
880.4378037518389,3129
882.666932421968,3097
884.8954571432301,2974
887.1233781416219,3024
889.3506956432192,3046
891.5774098741766,3083
893.803521060728,3156
896.0290294291852,3210
898.2539352059397,3159
900.4782386174619,3132
902.7019398903011,3060
904.925039251085,3222
907.147536926521,3116
909.3694331433943,3121
911.59072812857,3017
913.8114221089921,3099
916.0315153116827,3077
918.2510079637437,3069
920.4699002923547,2993
922.6881925247761,3066
924.905884888345,3063
927.1229776104793,3018
929.3394709186747,3072
931.555365040506,3118
933.7706602036275,3087
935.9853566357709,3086
938.1994545647489,3127
940.4129542184515,3126
942.6258558248488,3162
944.8381596119883,3079
947.0498658079974,3094
949.2609746410825,3163
951.4714863395287,3108
953.6814011316998,3084
955.8907192460387,3023
958.0994409110671,3180
960.3075663553858,3173
962.5150958076741,3219
964.7220294966913,3132
966.928367651274,3152
969.1341105003388,3065
971.3392582728806,3130
973.5438111979742,3091
975.747769504772,3002
977.9511334225061,3050
980.153903180487,3037
982.3560790081052,3029
984.5576611348289,3014
986.7586497902058,2950
988.9590452038618,2975
991.158847605503,2864
993.3580572249133,2998
995.5566742919558,2849
997.7546990365728,2923
999.952131688785,2904
1002.1489724786926,2816
1004.3452216364743,2798
1006.5408793923874,2795
1008.7359459767691,2845
1010.9304216200343,2726
1013.1243065526781,2754
1015.3176010052733,2814
1017.510305208472,2852
1019.7024193930064,2815
1021.8939437896848,2820
1024.0848786293977,2767
1026.2752241431122,2744
1028.4649805618747,2720
1030.6541481168115,2816
1032.842727039127,2767
1035.0307175601051,2762
1037.2181199111074,2770
1039.4049343235752,2728
1041.591161029029,2837
1043.7768002590683,2861
1045.9618522453698,2719
1048.1463172196918,2670
1050.3301954138697,2835
1052.513487059818,2797
1054.69619238953,2711
1056.8783116350783,2709
1059.0598450286152,2669
1061.2407928023704,2663
1063.4211551886528,2757
1065.6009324198508,2720
1067.780124728432,2794
1069.9587323469414,2710
1072.1367555080046,2769
1074.314194444325,2767
1076.4910493886855,2727
1078.667320573947,2635
1080.843008233051,2702
1083.0181125990161,2703
1085.1926339049414,2714
1087.3665723840027,2709
1089.5399282694575,2643
1091.7127017946405,2646
1093.8848931929647,2680
1096.0565026979243,2664
1098.2275305430899,2668
1100.3979769621128,2658
1102.567842188722,2649
1104.737126456726,2610
1106.9058300000124,2603
1109.0739530525475,2645
1111.2414958483764,2670
1113.4084586216231,2666
1115.5748416064907,2637
1117.7406450372605,2574
1119.9058691482942,2660
1122.0705141740304,2663
1124.2345803489884,2755
1126.3980679077658,2697
1128.5609770850388,2739
1130.7233081155623,2756
1132.8850612341707,2721
1135.0462366757774,2666
1137.2068346753745,2707
1139.3668554680326,2681
1141.526299288901,2664
1143.68516637321,2688
1145.8434569562655,2718
1148.001171273455,2669
1150.158309560244,2651
1152.3148720521767,2698
1154.470858984876,2642
1156.626270594044,2665
1158.7811071154629,2725
1160.9353687849912,2694
1163.089055838569,2700
1165.242168512213,2618
1167.3947070420209,2606
1169.5466716641677,2642
1171.6980626149075,2647
1173.8488801305748,2646
1175.9991244475814,2612
1178.1487958024186,2629
1180.2978944316555,2593
1182.4464205719428,2669
1184.5943744600072,2627
1186.7417563326567,2718
1188.8885664267755,2645
1191.0348049793297,2661
1193.1804722273619,2701
1195.325568407995,2634
1197.4700937584303,2723
1199.614048515948,2769
1201.7574329179074,2686
1203.900247201746,2688
1206.042491604982,2703
1208.1841663652099,2721
1210.3252717201053,2688
1212.465807907422,2775
1214.6057751649923,2762
1216.7451737307279,2736
1218.8840038426192,2789
1221.0222657387353,2764
1223.1599596572241,2747
1225.2970858363137,2728
1227.4336445143094,2735
1229.5696359295966,2668
1231.705060320639,2732
1233.8399179259786,2692
1235.9742089842384,2738
1238.107933734118,2762
1240.2410924143974,2677
1242.373685263935,2876
1244.5057125216676,2758
1246.6371744266116,2825
1248.7680712178621,2806
1250.898403134593,2745
1253.028170416058,2784
1255.1573733015875,2814
1257.2860120305932,2716
1259.4140868425648,2786
1261.54159797707,2804
1263.6685456737569,2810
1265.7949301723515,2734
1267.9207517126597,2775
1270.046010534565,2845
1272.1707068780306,2931
1274.2948409830983,2854
1276.4184130898889,2887
1278.541423438603,2859
1280.6638722695184,2836
1282.785759822993,2887
1284.9070863394636,2889
1287.0278520594447,2862
1289.1480572235314,2941
1291.2677020723963,2955
1293.3867868467923,3002
1295.5053117875495,3025
1297.623277135579,2989
1299.740683131868,2959
1301.8575300174857,3023
1303.973818033578,2967
1306.0895474213703,3067
1308.2047184221678,3024
1310.3193312773528,3041
1312.4333862283888,2983
1314.5468835168163,3052
1316.659823384255,3014
1318.7722060724045,3046
1320.8840318230418,3113
1322.9953008780249,3054
1325.1060134792888,3081
1327.2161698688478,2983
1329.3257702887959,3007
1331.4348149813054,2980
1333.5433041886276,2926
1335.6512381530933,3015
1337.7586171171101,3049
1339.8654413231675,3017
1341.9717110138317,2983
1344.0774264317488,3006
1346.1825878196432,3004
1348.2871954203192,3015
1350.3912494766587,3021
1352.4947502316231,2974
1354.5976979282532,3012
1356.7000928096686,2991
1358.8019351190665,3017
1360.9032250997243,2925
1363.0039629949988,3030
1365.1041490483235,3011
1367.2037835032133,3015
1369.3028666032606,3028
1371.401398592137,2969
1373.4993797135926,3063
1375.5968102114575,3009
1377.6936903296396,3043
1379.7900203121262,3045
1381.8858004029835,3043
1383.9810308463561,3142
1386.075711886469,3109
1388.1698437676241,3091
1390.2634267342032,3126
1392.356461030667,3178
1394.4489469015557,3098
1396.5408845914872,3118
1398.6322743451592,3080
1400.7231164073469,3128
1402.813411022907,3106
1404.903158436773,3176
1406.9923588939578,3216
1409.0810126395531,3202
1411.1691199187303,3200
1413.2566809767386,3125
1415.343696058907,3208
1417.4301654106425,3171
1419.5160892774315,3361
1421.6014679048399,3220
1423.6863015385125,3223
1425.7705904241707,3300
1427.8543348076178,3389
1429.9375349347342,3342
1432.0201910514802,3346
1434.102303403894,3347
1436.1838722380944,3320
1438.2648978002767,3420
1440.3453803367174,3426
1442.4253200937692,3371
1444.5047173178677,3498
1446.5835722555234,3640
1448.6618851533285,3615
1450.739656257952,3628
1452.8168858161434,3623
1454.8935740747306,3722
1456.96972128062,3745
1459.045327680797,3798
1461.120393522327,3848
1463.1949190523528,3806
1465.2689045180973,3874
1467.3423501668608,3972
1469.415256246024,4070
1471.4876230030463,4019
1473.559450685465,4154
1475.6307395408976,4147
1477.7014898170391,4103
1479.771701761665,4211
1481.8413756226287,4288
1483.9105116478618,4446
1485.9791100853772,4494
1488.0471711832643,4536
1490.1146951896926,4471
1492.1816823529098,4643
1494.2481329212433,4660
1496.3140471430984,4732
1498.3794252669609,4691
1500.4442675413939,4734
1502.5085742150404,4900
1504.572345536622,4916
1506.6355817549388,4967
1508.6982831188702,4871
1510.7604498773744,5027
1512.8220822794883,4954
1514.8831805743293,4968
1516.9437450110909,4938
1519.003775839048,5057
1521.0632733075522,5155
1523.1222376660367,5262
1525.1806691640113,5338
1527.2385680510652,5393
1529.2959345768668,5434
1531.3527689911643,5537
1533.4090715437833,5473
1535.4648424846291,5634
1537.5200820636855,5520
1539.5747905310159,5648
1541.6289681367616,5634
1543.6826151311434,5759
1545.7357317644614,5884
1547.7883182870937,5891
1549.8403749494987,6006
1551.8919020022113,5980
1553.9428996958477,6328
1555.9933682811015,6322
1558.0433080087469,6439
1560.0927191296346,6405
1562.1416018946961,6435
1564.1899565549415,6472
1566.2377833614592,6352
1568.2850825654164,6338
1570.3318544180606,6301
1572.3780991707158,6110
1574.423817074788,5988
1576.4690083817595,5783
1578.5136733431923,5507
1580.5578122107272,5331
1582.601425236085,5076
1584.6445126710646,4771
1586.6870747675434,4838
1588.7291117774776,4559
1590.7706239529034,4420
1592.8116115459347,4280
1594.8520748087658,4160
1596.8920139936686,3997
1598.9314293529933,3812
1600.9703211391711,3768
1603.008689604711,3720
1605.0465350022005,3643
1607.0838575843068,3581
1609.1206576037753,3653
1611.1569353134305,3442
1613.1926909661765,3462
1615.2279248149953,3438
1617.2626371129481,3366
1619.2968281131757,3298
1621.3304980688963,3334
1623.3636472334088,3351
1625.39627586009,3189
1627.428384202396,3184
1629.459972513861,3199
1631.4910410480993,3224
1633.5215900588028,3176
1635.551619799744,3215
1637.5811305247717,3125
1639.6101224878166,3110
1641.6385959428862,3204
1643.6665511440683,3011
1645.693988345528,3054
1647.7209078015112,2974
1649.7473097663405,3055
1651.7731944944203,3096
1653.7985622402307,3006
1655.823413258333,3044
1657.847747803366,2998
1659.8715661300494,2995
1661.8948684931793,3009
1663.9176551476316,2977
1665.9399263483624,3077
1667.9616823504057,3092
1669.982923408873,3011
1672.0036497789574,2974
1674.0238617159293,3145
1676.043559475138,2989
1678.0627433120121,3052
1680.081413482059,3061
1682.0995702408654,2976
1684.117213844096,2960
1686.134344547495,2952
1688.1509626068864,2917
1690.1670682781705,2975
1692.182661817329,2993
1694.1977434804217,2996
1696.2123135235875,2993
1698.226372203043,2996
1700.2399197750851,3030
1702.2529564960905,3090
1704.2654826225112,3013
1706.277498410882,2943
1708.2890041178139,3011
1710.2999999999988,2902
1712.3104863142066,2971
1714.3204633172854,3012
1716.329931266163,2931
1718.3388904178469,2979
1720.3473410294214,2914
1722.3552833580516,2964
1724.3627176609807,3006
1726.3696441955308,3024
1728.3760632191033,2917
1730.3819749891782,2933
1732.3873797633146,2944
1734.3922777991502,2899
1736.3966693544012,2866
1738.4005546868639,2905
1740.4039340544127,2906
1742.406807715001,2896
1744.4091759266616,2927
1746.4110389475054,2876
1748.4123970357223,2839
1750.413250449582,2823
1752.4135994474318,2877
1754.4134442876993,2886
1756.4127852288902,2827
1758.4116225295893,2802
1760.4099564484595,2845
1762.407787244244,2940
1764.405115175764,2977
1766.4019405019203,2814
1768.3982634816916,2837
1770.3940843741357,2800
1772.3894034383907,2874
1774.3842209336717,2819
1776.378537119274,2877
1778.372352254571,2839
1780.3656665990156,2813
1782.3584804121397,2853
1784.3507939535534,2894
1786.3426074829463,2752
1788.3339212600863,2820
1790.3247355448211,2851
1792.3150505970766,2773
1794.3048666768573,2768
1796.2941840442477,2864
1798.2830029594106,2785
1800.2713236825884,2877
1802.2591464741004,2884
1804.2464715943465,2844
1806.2332993038058,2845
1808.2196298630352,2746
1810.2054635326708,2757
1812.190800573428,2755
1814.175641246101,2896
1816.1599858115628,2804
1818.1438345307652,2744
1820.127187664738,2811
1822.1100454745924,2830
1824.092408221516,2878
1826.0742761667766,2739
1828.055649571721,2824
1830.0365286977735,2800
1832.0169138064398,2789
1833.9968051593014,2761
1835.9762030180214,2830
1837.9551076443408,2825
1839.9335193000788,2868
1841.9114382471344,2745
1843.888864747485,2812
1845.8657990631878,2821
1847.842241456378,2740
1849.8181921892697,2773
1851.7936515241558,2788
1853.7686197234098,2820
1855.7430970494815,2854
1857.7170837649014,2667
1859.6905801322787,2805
1861.6635864143004,2844
1863.6361028737338,2813
1865.608129773424,2807
1867.5796673762961,2809
1869.5507159453537,2797
1871.521275743678,2914
1873.4913470344313,2759
1875.4609300808534,2803
1877.4300251462632,2804
1879.3986324940588,2903
1881.366752387717,2846
1883.3343850907936,2810
1885.3015308669228,2853
1887.268189979819,2796
1889.2343626932739,2904
1891.2000492711595,2902
1893.1652499774254,2855
1895.1299650761011,2905
1897.0941948312952,2823
1899.0579395071945,2788
1901.0211993680641,2934
1902.98397467825,2869
1904.9462657021745,2847
1906.9080727043415,2793
1908.869395949332,2812
1910.8302357018065,2875
1912.790592226504,2771
1914.7504657882428,2815
1916.7098566519212,2724
1918.6687650825133,2845
1920.6271913450764,2858
1922.5851357047422,2817
1924.5425984267245,2851
1926.499579776314,2836
1928.4560800188833,2835
1930.4120994198802,2859
1932.367638244833,2869
1934.32269675935,2898
1936.2772752291175,2817
1938.231373919899,2848
1940.1849930975404,2817
1942.1381330279637,2817
1944.0907939771696,2891
1946.0429762112412,2795
1947.9946799963363,2831
1949.9459055986945,2948
1951.896653284633,2839
1953.8469233205478,2778
1955.7967159729142,2775
1957.7460315082863,2831
1959.6948701932974,2797
1961.6432322946594,2837
1963.5911180791632,2776
1965.5385278136787,2875
1967.4854617651545,2807
1969.4319202006182,2728
1971.377903387176,2839
1973.3234115920136,2739
1975.268445082395,2852
1977.2130041256642,2794
1979.1570889892423,2814
1981.1006999406304,2786
1983.04383724741,2797
1984.986501177238,2766
1986.928691997853,2816
1988.8704099770712,2722
1990.811655382789,2751
1992.7524284829801,2829
1994.692729545698,2797
1996.6325588390755,2826
1998.5719166313224,2835
2000.5108031907307,2686
2002.4492187856677,2780
2004.387163684583,2800
2006.3246381560011,2713
2008.2616424685298,2799
2010.1981768908527,2777
2012.1342416917332,2780
2014.069837140014,2808
2016.0049635046162,2817
2017.9396210545406,2708
2019.8738100588666,2759
2021.8075307867502,2699
2023.740783507431,2716
2025.6735684902228,2700
2027.6058860045214,2823
2029.5377363198004,2769
2031.4691197056118,2780
2033.4000364315875,2718
2035.3304867674374,2748
2037.260470982952,2766
2039.189989347998,2772
2041.1190421325232,2659
2043.047629606554,2727
2044.9757520401945,2792
2046.9034097036288,2769
2048.8306028671195,2763
2050.7573318010086,2796
2052.683596775716,2768
2054.609398061742,2751
2056.5347359296647,2747
2058.4596106501403,2717
2060.384022493906,2789
2062.3079717317764,2689
2064.231458634646,2764
2066.1544834734873,2692
2068.077046519352,2802
2069.99914804337,2827
2071.9207883167524,2772
2073.8419676107865,2770
2075.7626861968406,2773
2077.6829443463607,2725
2079.6027423308715,2763
2081.522080421977,2865
2083.440958891362,2706
2085.359378010786,2707
2087.2773380520907,2839
2089.194839287196,2719
2091.111881988101,2772
2093.0284664268825,2769
2094.9445928756973,2786
2096.86026160678,2760
2098.775472892446,2802
2100.690227005088,2712
2102.604524217178,2775
2104.5183648012676,2834
2106.431749029985,2697
2108.34467717604,2802
2110.2571495122206,2755
2112.169166311393,2739
2114.080727846503,2764
2115.9918343905747,2740
2117.902486216711,2824
2119.8126835980956,2739
2121.722426807987,2700
2123.6317161197285,2695
2125.5405518067364,2726
2127.448934142509,2806
2129.356863400624,2794
2131.264339854737,2810
2133.1713637785815,2789
2135.077935445972,2879
2136.9840551308002,2816
2138.889723107037,2870
2140.7949396487334,2827
2142.699705030018,2822
2144.6040195250994,2871
2146.507883408264,2753
2148.4112969538774,2795
2150.3142604363848,2781
2152.2167741303097,2793
2154.1188383102535,2712
2156.0204532508997,2777
2157.9216192270064,2850
2159.822336513414,2827
2161.7226053850413,2811
2163.622426116884,2772
2165.5217989840185,2896
2167.4207242616,2839
2169.319202224862,2866
2171.2172331491165,2880
2173.1148173097563,2820
2175.0119549822507,2858
2176.90864644215,2798
2178.8048919650823,2876
2180.7006918267534,2825
2182.596046302952,2800
2184.4909556695407,2817
2186.3854202024645,2770
2188.279440177746,2843
2190.173015871487,2888
2192.066147559868,2885
2193.958835519149,2858
2195.851080025667,2795
2197.7428813558417,2914
2199.6342397861667,2851
2201.5251555932186,2838
2203.415629053651,2813
2205.3056604441986,2873
2207.19525004167,2880
2209.084398122958,2948
2210.9731049650327,2946
2212.861370844941,2863
2214.749196039812,2858
2216.636580826851,2941
2218.523525483344,2918
2220.410030286655,2935
2222.296095514226,2897
2224.1817214435805,2875
2226.066908352319,2892
2227.951656518121,2892
2229.835966218746,2860
2231.71983773203,2947
2233.6032713358913,2915
2235.486267308324,2925
2237.3688259274036,2916
2239.2509474712824,2894
2241.132632218193,3018
2243.013880446447,2841
2244.8946924344323,2885
2246.7750684606203,2913
2248.6550088035574,2925
2250.534513741871,2877
2252.413583554265,2916
2254.292218519526,2883
2256.170418916517,2870
2258.0481850241786,2802
2259.925517121534,2910
2261.8024154876825,2831
2263.678880401803,2897
2265.5549121431536,2813
2267.430510991071,2962
2269.305677224971,2875
2271.180411124348,2852
2273.0547129687766,2861
2274.9285830379076,2952
2276.8020216114737,2826
2278.6750289692845,2921
2280.5476053912294,2901
2282.4197511572766,2892
2284.2914665474727,2973
2286.162751841943,2955
2288.0336073208937,2997
2289.904033264608,2912
2291.774029953448,2917
2293.6435976678554,2955
2295.5127366883517,2856
2297.381447295534,2837
2299.2497297700825,2854
2301.1175843927526,2843
2302.9850114443825,2762
2304.852011205885,2747
2306.7185839582553,2811
2308.5847299825664,2778
2310.4504495599676,2772
2312.3157429716925,2766
2314.1806104990483,2729
2316.0450524234247,2706
2317.9090690262888,2705
2319.772660589186,2739
2321.635827393742,2735
2323.498569721661,2719
2325.3608878547248,2792
2327.2227820747967,2718
2329.0842526638157,2567
2330.945299903803,2622
2332.805924076857,2694
2334.6661254651535,2688
2336.525904350951,2784
2338.3852610165827,2723
2340.244195744464,2774
2342.102708817088,2727
2343.9608005170253,2739
2345.8184711269287,2677
2347.675720929526,2745
2349.532550207628,2748
2351.38895924412,2805
2353.24494832197,2807
2355.100517724223,2765
2356.955667734004,2688
2358.810398634514,2767
2360.664710709037,2737
2362.5186042409337,2794
2364.3720795136437,2730
2366.225136810686,2820
2368.0777764156583,2800
2369.929998612237,2733
2371.7818036841777,2755
2373.633191915315,2758
2375.484163589562,2797
2377.3347189909114,2790
2379.184858403434,2806
2381.03458211128,2938
2382.8838903986775,2823
2384.732783549936,2743
2386.5812618494406,2847
2388.4293255816588,2821
2390.2769750311327,2788
2392.1242104824883,2802
2393.971032220427,2902
2395.8174405297295,2818
2397.6634356952563,2820
2399.509018001947,2766
2401.3541877348193,2869
2403.1989451789705,2813
2405.043290619576,2750
2406.8872243418905,2774
2408.730746631247,2706
2410.5738577730594,2764
2412.4165580528183,2859
2414.258847756095,2742
2416.100727168537,2757
2417.9421965758734,2844
2419.783256263912,2811
2421.623906518538,2839
2423.4641476257157,2887
2425.303979871491,2811
2427.143403541984,2761
2428.9824189233977,2857
2430.821026302012,2792
2432.6592259641866,2792
2434.497018196361,2817
2436.33440328505,2899
2438.171381516851,2808
2440.00795317844,2713
2441.844118556569,2824
2443.6798779380724,2820
2445.5152316098606,2843
2447.3501798589255,2874
2449.1847229723357,2807
2451.0188612372403,2800
2452.8525949408663,2871
2454.6859243705203,2877
2456.518849813587,2891
2458.3513715575314,2832
2460.183489889895,2804
2462.015205098301,2827
2463.8465174704493,2800
2465.67742729412,2821
2467.5079348571717,2843
2469.338040447542,2829
2471.1677443532476,2778
2472.9970468623833,2800
2474.825948263123,2850
2476.6544488437207,2870
2478.482548892508,2836
2480.310248697896,2775
2482.137548548374,2797
2483.9644487325118,2801
2485.790949538956,2892
2487.617051256433,2854
2489.44275417375,2801
2491.26805857979,2831
2493.0929647635157,2881
2494.917473013971,2817
2496.741583620276,2862
2498.5652968716304,2941
2500.3886130573137,2891
2502.2115324666834,2927
2504.0340553891765,2837
2505.856182114308,2826
2507.6779129316733,2880
2509.499248130945,2829
2511.3201880018764,2956
2513.140732834298,2875
2514.9608829181198,2802
2516.780638543331,2964
2518.6,2884
2520.418967578273,2860
2522.237541568376,2881
2524.0557222606144,3006
2525.8735099453706,2983
2527.6909049131086,2963
2529.507907454368,2911
2531.32451785977,2952
2533.140736420014,2998
2534.9565634258774,2952
2536.771999168218,3036
2538.5870439379714,2964
2540.4016980261526,3008
2542.2159617238544,3043
2544.02983532225,3013
2545.8433191125914,3066
2547.656413386209,3082
2549.4691184345115,3167
2551.2814345489874,3107
2553.093362021204,3053
2554.904901142808,3130
2556.716052205523,3119
2558.526815501153,3136
2560.3371913215824,3110
2562.147179958771,3117
2563.956781704761,3115
2565.7659968516705,3160
2567.5748256916986,3159
2569.3832685171224,3227
2571.1913256202984,3195
2572.9989972936614,3194
2574.806283829725,3247
2576.613185521084,3254
2578.4197026604074,3199
2580.2258355404483,3211
2582.031584454035,3261
2583.836949694077,3156
2585.6419315535613,3277
2587.4465303255533,3252
2589.2507463032002,3284
2591.0545797797245,3279
2592.8580310484303,3297
2594.6611004026995,3303
2596.463788135992,3293
2598.266094541849,3328
2600.0680199138874,3295
2601.869564545807,3339
2603.670728731383,3297
2605.4715127644704,3386
2607.2719169390048,3352
2609.071941548998,3362
2610.8715868885433,3356
2612.670853251811,3413
2614.469740933052,3253
2616.268250226594,3332
2618.0663814268455,3350
2619.864134828292,3354
2621.6615107255006,3326
2623.458509413115,3252
2625.2551311858597,3349
2627.0513763385347,3216
2628.8472451660223,3237
2630.6427379632833,3233
2632.4378550253564,3269
2634.232596647359,3178
2636.026963124488,3164
2637.8209547520187,3229
2639.6145718253065,3206
2641.407814639785,3096
2643.200683490966,3140
2644.9931786744414,3132
2646.7853004858807,3098
2648.577049221034,3153
2650.3684251757277,2952
2652.1594286458712,3077
2653.9500599274484,3189
2655.740319316525,3027
2657.5302071092437,3097
2659.3197236018286,2938
2661.10886909058,2984
2662.8976438718782,2995
2664.686048242183,2980
2666.4740824980327,2876
2668.2617469360443,2932
2670.0490418529134,3030
2671.8359675454153,3004
2673.622524310403,2890
2675.408712444811,2924
2677.1945322456495,2958
2678.979984010009,2839
2680.76506803506,2895
2682.5497846180497,2846
2684.334134056306,2876
2686.1181166472343,2875
2687.9017326883213,2781
2689.6849824771293,2888
2691.4678663113013,2816
2693.2503844885596,2794
2695.032537306705,2878
2696.8143250636167,2779
2698.5957480572542,2829
2700.3768065856534,2799
2702.1575009469316,2795
2703.937831439283,2821
2705.717798360982,2834
2707.4974020103837,2793
2709.276642685917,2733
2711.055520686095,2824
2712.834036309506,2763
2714.612189854819,2791
2716.389981620782,2710
2718.1674119062204,2785
2719.944481010041,2807
2721.721189231226,2743
2723.4975368688415,2743
2725.273524222027,2776
2727.0491515900053,2736
2728.824419272075,2727
2730.5993275676146,2735
2732.3738767760838,2784
2734.148067197016,2804
2735.921899130031,2714
2737.6953728748194,2749
2739.468488731156,2704
2741.2412469988926,2712
2743.0136479779617,2682
2744.785691968372,2664
2746.5573792702116,2689
2748.3287101836504,2725
2750.099685008934,2712
2751.870304046388,2751
2753.640567596418,2729
2755.4104759595057,2823
2757.1800294362156,2688
2758.949228327187,2665
2760.7180729331412,2717
2762.486563554877,2702
2764.254700493272,2748
2766.022484049284,2765
2767.789914523947,2692
2769.5569922183786,2754
2771.3237174337705,2728
2773.090090471394,2671
2774.8561116326036,2726
2776.6217812188274,2752
2778.3870995315756,2752
2780.1520668724356,2724
2781.9166835430747,2708
2783.6809498452394,2596
2785.444866080754,2738
2787.2084325515225,2740
2788.971649559527,2733
2790.73451740683,2749
2792.4970363955713,2727
2794.2592068279705,2727
2796.0210290063264,2760
2797.7825032330147,2615
2799.543629810493,2725
2801.304409041296,2703
2803.0648412280366,2713
2804.8249266734088,2635
2806.5846656801846,2744
2808.344058551212,2632
2810.1031055894246,2823
2811.8618070978273,2716
2813.6201633795085,2655
2815.378174737636,2800
2817.1358414754536,2772
2818.893163896285,2647
2820.6501423035334,2693
2822.4067770006814,2773
2824.1630682912883,2775
2825.9190164789957,2722
2827.6746218675207,2747
2829.429884760661,2714
2831.184805462294,2682
2832.9393842763743,2709
2834.693621506936,2677
2836.4475174580916,2708
2838.201072434034,2698
2839.954286739034,2660
2841.707160677441,2769
2843.459694553685,2686
2845.2118886722724,2637
2846.96374333779,2712
2848.7152588549034,2666
2850.4664355283567,2729
2852.217273662973,2732
2853.9677735636546,2701
2855.7179355353833,2683
2857.4677598832186,2721
2859.217246912299,2753
2860.9663969278427,2697
2862.715210235146,2745
2864.4636871395846,2734
2866.211827946614,2687
2867.9596329617652,2707
2869.7071024906536,2758
2871.4542368389684,2644
2873.20103631248,2666
2874.947501217038,2661
2876.6936318585695,2730
2878.4394285430812,2743
2880.1848915766604,2789
2881.9300212654707,2694
2883.6748179157553,2668
2885.4192818338374,2651
2887.1634133261173,2706
2888.907212699077,2685
2890.6506802592744,2705
2892.393816313348,2719
2894.1366211680142,2723
2895.8790951300693,2611
2897.621238506388,2621
2899.363051603925,2665
2901.1045347297118,2651
2902.8456881908596,2603
2904.58651229456,2657
2906.327007348081,2682
2908.067173658772,2699
2909.8070115340597,2783
2911.5465212814497,2666
2913.285703208527,2781
2915.0245576229563,2631
2916.7630848324807,2718
2918.5012851449196,2637
2920.2391588681758,2708
2921.976706310227,2774
2923.7139277791334,2662
2925.4508235830313,2632
2927.187394030137,2631
2928.923639428745,2682
2930.6595600872306,2637
2932.395156314046,2572
2934.1304284177218,2679
2935.8653767068713,2689
2937.6000014901815,2663
2939.3343030764227,2736
2941.068281774442,2731
2942.8019378931644,2717
2944.5352717415976,2688
2946.2682836288236,2745
2948.0009738640065,2656
2949.7333427563885,2740
2951.465390615289,2792
2953.1971177501086,2645
2954.9285244703265,2692
2956.6596110855,2638
2958.3903779052657,2695
2960.1208252393385,2647
2961.8509533975125,2691
2963.5807626896617,2710
2965.3102534257378,2683
2967.0394259157715,2657
2968.768280469873,2689
2970.496817398232,2654
2972.2250370111146,2666
2973.952939618869,2725
2975.6805255319196,2728
2977.4077950607707,2748
2979.134748516006,2698
2980.861386208289,2690
2982.587708448359,2665
2984.313715547037,2697
2986.039407815222,2604
2987.764785563891,2729
2989.489849104102,2680
2991.2145987469908,2751
2992.9390348037705,2627
2994.6631575857346,2682
2996.3869674042576,2746
2998.1104645707887,2645
2999.83364939686,2580
3001.5565221940783,2689
3003.2790832741334,2657
3005.0013329487924,2662
3006.7232715298996,2718
3008.4448993293804,2696
3010.166216659239,2649
3011.887223831558,2670
3013.607921158498,2679
3015.3283089522993,2712
3017.0483875252826,2610
3018.7681571898443,2568
3020.4876182584626,2629
3022.2067710436927,2639
3023.9256158581707,2631
3025.644153014609,2757
3027.362382825801,2587
3029.0803056046193,2590
3030.797921664012,2646
3032.5152313170106,2660
3034.2322348767225,2568
3035.9489326563353,2626
3037.665324969115,2652
3039.3814121284063,2642
3041.097194447633,2631
3042.812672240299,2645
3044.5278458199855,2710
3046.2427155003525,2676
3047.9572815951406,2688
3049.671544418167,2670
3051.38550428333,2735
3053.0991615046073,2779
3054.812516396051,2667
3056.5255692717974,2564
3058.2383204460575,2678
3059.9507702331257,2586
3061.662918947372,2681
3063.3747669032446,2674
3065.0863144152736,2631
3066.7975617980674,2608
3068.508509366309,2734
3070.219157434767,2635
3071.9295063182844,2689
3073.639556331785,2693
3075.3493077902704,2680
3077.058761008821,2647
3078.7679163025964,2702
3080.476773986837,2716
3082.1853343768594,2763
3083.89359778806,2660
3085.6015645359153,2717
3087.3092349359786,2705
3089.016609303884,2629
3090.7236879553434,2710
3092.4304712061476,2704
3094.136959372166,2680
3095.843152769349,2662
3097.5490517137237,2662
3099.2546565213966,2806
3100.959967508554,2658
3102.66498499146,2732
3104.3697092864577,2676
3106.0741407099695,2703
3107.778279578498,2753
3109.482126208622,2737
3111.1856809170004,2698
3112.8889440203716,2764
3114.5919158355528,2747
3116.294596679439,2745
3117.996986869006,2741
3119.6990867213062,2809
3121.4008965534726,2680
3123.102416682717,2808
3124.803647426329,2751
3126.5045891016784,2744
3128.205242026213,2572
3129.90560651746,2698
3131.605682893025,2723
3133.3054714705922,2768
3135.0049725679282,2723
3136.7041865028714,2703
3138.4031135933465,2782
3140.101754157353,2756
3141.800108512971,2725
3143.498176978357,2746
3145.1959598717494,2798
3146.8934575114636,2705
3148.5906702158954,2613
3150.2875983035183,2672
3151.9842420928853,2681
3153.680601902627,2720
3155.376678051456,2616
3157.07247085816,2649
3158.767980641609,2621
3160.463207720748,2750
3162.158152414606,2697
3163.8528150422862,2660
3165.5471959229726,2667
3167.2412953759303,2767
3168.9351137204976,2668
3170.628651276098,2619
3172.3219083622307,2744
3174.014885298474,2706
3175.707582404485,2829
3177.4000000000005,2721
3179.092138404835,2820
3180.7839979388846,2783
3182.47557892212,2748
3184.166881674594,2771
3185.8579065164386,2757
3187.5486537678626,2681
3189.2391237491547,2701
3190.9293167806827,2667
3192.6192331828934,2692
3194.3088732763117,2673
3195.998237381542,2706
3197.687325819268,2695
3199.376138910251,2713
3201.064676975334,2634
3202.7529403354347,2708
3204.4409293115523,2684
3206.1286442247647,2645
3207.816085396229,2661
3209.5032531471825,2681
3211.190147798936,2557
3212.8767696728846,2674
3214.5631190905015,2661
3216.2491963733373,2603
3217.9350018430214,2641
3219.6205358212637,2616
3221.305798629851,2627
3222.990790590651,2612
3224.6755120256103,2650
3226.359963256751,2632
3228.0441446061795,2652
3229.7280563960758,2685
3231.411698948703,2648
3233.0950725863995,2669
3234.778177631587,2643
3236.461014406761,2671
3238.1435832345005,2657
3239.8258844374595,2677
3241.507918338374,2669
3243.1896852600576,2719
3244.8711855254023,2685
3246.552419457381,2703
3248.233387379042,2719
3249.914089613516,2644
3251.59452648401,2655
3253.274698313813,2652
3254.95460542629,2665
3256.6342481448855,2658
3258.313626793125,2686
3259.9927416946084,2687
3261.6715931730196,2679
3263.3501815521176,2673
3265.0285071557437,2601
3266.706570307815,2592
3268.3843713323286,2602
3270.0619105533615,2603
3271.739188295068,2641
3273.4162048816834,2696
3275.0929606375184,2732
3276.769455886966,2651
3278.445690954498,2690
3280.1216661646613,2654
3281.797381842087,2693
3283.4728383114807,2692
3285.1480358976296,2692
3286.8229749253996,2661
3288.4976557197333,2656
3290.172078605655,2665
3291.846243908266,2647
3293.5201519527463,2615
3295.193803064357,2593
3296.8671975684374,2582
3298.5403357904024,2641
3300.21321805575,2663
3301.8858446900567,2678
3303.558216018975,2727
3305.23033236824,2596
3306.9021940636603,2686
3308.57380143113,2778
3310.2451547966184,2708
3311.916254486174,2629
3313.5871008259246,2643
3315.2576941420766,2664
3316.9280347609147,2668
3318.5981230088046,2709
3320.2679592121895,2658
3321.9375436975924,2605
3323.606876791612,2624
3325.27595882093,2676
3326.944790112305,2661
3328.6133709925753,2564
3330.2817017886573,2681
3331.949782827547,2660
3333.617614436319,2641
3335.2851969421245,2687
3336.952530672199,2661
3338.619615953853,2682
3340.286453114475,2684
3341.9530424815357,2680
3343.619384382583,2763
3345.2854791452437,2741
3346.951327097224,2667
3348.6169285663073,2666
3350.2822838803577,2683
3351.947393367319,2681
3353.61225735521,2653
3355.2768761721345,2679
3356.9412501462693,2697
3358.605379605873,2642
3360.2692648792827,2682
3361.9329062949146,2720
3363.596304181263,2649
